SpectraSuite Data File
++++++++++++++++++++++++++++++++++++
Date: Thu May 14 15:55:03 PDT 2015
User: schluterlab
Dark Spectrum Present: Yes
Reference Spectrum Present: Yes
Number of Sampled Component Spectra: 1
Spectrometers: USB2E3373
Integration Time (usec): 3000 (USB2E3373)
Spectra Averaged: 3 (USB2E3373)
Boxcar Smoothing: 0 (USB2E3373)
Correct for Electrical Dark: No (USB2E3373)
Strobe/Lamp Enabled: No (USB2E3373)
Correct for Detector Non-linearity: No (USB2E3373)
Correct for Stray Light: No (USB2E3373)
Number of Pixels in Processed Spectrum: 2048
>>>>>Begin Processed Spectral Data<<<<<
178.53	0.000
178.91	500.000
179.29	-4400.000
179.67	-4500.000
180.04	328.571
180.42	430.000
180.80	800.000
181.18	-4100.000
181.56	-2700.000
181.94	550.000
182.31	-925.000
182.69	966.667
183.07	-1600.000
183.45	950.000
183.83	-633.333
184.20	-733.333
184.58	2600.000
184.96	-900.000
185.34	-277.778
185.72	-580.000
186.09	422.222
186.47	1650.000
186.85	660.000
187.23	-355.556
187.61	-3500.000
187.98	760.000
188.36	800.000
188.74	-775.000
189.12	-866.667
189.49	-168.750
189.87	-487.500
190.25	-311.111
190.63	-460.000
191.00	-388.889
191.38	0.000
191.76	-775.000
192.14	-516.667
192.51	1650.000
192.89	-516.667
193.27	0.000
193.65	-414.286
194.02	-3100.000
194.40	-328.571
194.78	414.286
195.15	0.000
195.53	-218.182
195.91	0.000
196.29	-875.000
196.66	-230.769
197.04	-3700.000
197.42	-485.714
197.79	-1350.000
198.17	-437.500
198.55	-600.000
198.92	-255.556
199.30	-450.000
199.68	-200.000
200.05	-100.000
200.43	-1600.000
200.81	528.571
201.18	0.000
201.56	388.889
201.94	0.000
202.31	1133.333
202.69	-311.111
203.07	2700.000
203.44	-366.667
203.82	-925.000
204.19	-266.667
204.57	-633.333
204.95	-462.500
205.32	-3600.000
205.70	850.000
206.08	-516.667
206.45	-283.333
206.83	840.000
207.20	-366.667
207.58	-680.000
207.96	-550.000
208.33	-383.333
208.71	258.333
209.08	-266.667
209.46	0.000
209.84	550.000
210.21	1450.000
210.59	1750.000
210.96	1400.000
211.34	-725.000
211.71	-412.500
212.09	-2200.000
212.46	0.000
212.84	1500.000
213.22	-680.000
213.59	-800.000
213.97	-300.000
214.34	-1166.667
214.72	633.333
215.09	-775.000
215.47	0.000
215.84	500.000
216.22	1450.000
216.59	-500.000
216.97	-740.000
217.34	-700.000
217.72	-300.000
218.09	-875.000
218.47	-975.000
218.84	0.000
219.22	540.000
219.59	-147.059
219.97	-95.000
220.34	1950.000
220.72	-377.778
221.09	-200.000
221.47	-866.667
221.84	-230.000
222.22	-428.571
222.59	0.000
222.97	-300.000
223.34	-780.000
223.72	-2500.000
224.09	-725.000
224.46	-575.000
224.84	-480.000
225.21	-457.143
225.59	-975.000
225.96	-750.000
226.34	-80.769
226.71	716.667
227.08	-1350.000
227.46	-180.000
227.83	-850.000
228.21	-115.789
228.58	362.500
228.95	1700.000
229.33	-158.333
229.70	-290.000
230.08	-68.421
230.45	360.000
230.82	-900.000
231.20	-214.286
231.57	-208.333
231.95	-245.455
232.32	-172.727
232.69	-90.000
233.07	-550.000
233.44	-135.294
233.81	-320.000
234.19	-94.444
234.56	-77.273
234.93	-55.172
235.31	-115.789
235.68	-172.222
236.05	-165.000
236.43	-73.077
236.80	-80.000
237.17	-107.407
237.55	-84.848
237.92	-260.000
238.29	-87.097
238.67	-68.182
239.04	-58.333
239.41	-33.333
239.79	-36.957
240.16	-33.333
240.53	-41.304
240.91	-52.941
241.28	-39.344
241.65	-17.910
242.02	-5.405
242.40	-20.000
242.77	-9.333
243.14	-13.415
243.51	-19.737
243.89	-16.667
244.26	-5.941
244.63	-2.941
245.00	-4.673
245.38	-11.404
245.75	-22.124
246.12	-4.762
246.49	-5.426
246.87	0.714
247.24	4.636
247.61	3.289
247.98	7.383
248.36	6.173
248.73	4.908
249.10	2.732
249.47	13.433
249.84	13.613
250.22	5.181
250.59	5.000
250.96	9.091
251.33	6.633
251.70	10.256
252.08	8.750
252.45	10.656
252.82	7.438
253.19	8.203
253.56	13.688
253.94	12.308
254.31	15.152
254.68	15.035
255.05	13.681
255.42	11.565
255.79	10.680
256.16	12.252
256.54	12.252
256.91	15.082
257.28	13.770
257.65	9.554
258.02	12.389
258.39	14.530
258.76	15.596
259.14	16.379
259.51	14.409
259.88	14.164
260.25	17.222
260.62	17.808
260.99	15.847
261.36	18.231
261.73	12.997
262.10	14.835
262.47	13.137
262.85	18.939
263.22	14.545
263.59	12.368
263.96	15.090
264.33	14.578
264.70	17.037
265.07	16.945
265.44	18.821
265.81	15.046
266.18	17.687
266.55	16.295
266.92	15.718
267.29	18.381
267.66	19.956
268.03	16.812
268.40	16.075
268.77	15.034
269.14	14.758
269.51	17.763
269.88	18.443
270.25	17.505
270.62	19.620
270.99	18.788
271.36	18.218
271.73	18.861
272.10	17.635
272.47	17.234
272.84	20.080
273.21	16.433
273.58	17.944
273.95	17.308
274.32	15.209
274.69	16.441
275.06	17.399
275.43	17.006
275.80	19.224
276.17	15.741
276.54	16.604
276.91	17.889
277.28	19.530
277.65	17.594
278.02	17.096
278.39	14.493
278.76	18.278
279.13	18.262
279.50	16.323
279.87	15.206
280.23	16.549
280.60	17.119
280.97	18.421
281.34	16.808
281.71	17.597
282.08	17.442
282.45	17.676
282.82	17.268
283.19	15.509
283.56	16.230
283.92	18.318
284.29	21.011
284.66	16.913
285.03	14.904
285.40	16.229
285.77	15.325
286.14	20.000
286.51	17.504
286.87	16.588
287.24	18.223
287.61	16.293
287.98	15.861
288.35	16.864
288.72	15.976
289.08	17.423
289.45	15.533
289.82	15.663
290.19	15.805
290.56	15.211
290.93	16.833
291.29	18.182
291.66	16.667
292.03	16.554
292.40	17.143
292.77	15.903
293.13	17.321
293.50	15.506
293.87	14.497
294.24	16.533
294.60	16.561
294.97	16.242
295.34	15.365
295.71	14.250
296.08	13.824
296.44	14.583
296.81	15.469
297.18	14.197
297.55	13.090
297.91	13.998
298.28	12.678
298.65	13.912
299.02	14.994
299.38	15.446
299.75	13.551
300.12	13.889
300.48	14.171
300.85	13.836
301.22	13.087
301.59	11.758
301.95	13.672
302.32	14.222
302.69	13.691
303.05	15.343
303.42	13.415
303.79	14.062
304.15	14.301
304.52	12.156
304.89	13.403
305.25	13.975
305.62	14.943
305.99	14.227
306.35	14.315
306.72	14.271
307.09	13.401
307.45	14.389
307.82	14.834
308.19	14.531
308.55	15.718
308.92	12.950
309.29	14.655
309.65	14.327
310.02	14.257
310.38	13.484
310.75	14.175
311.12	16.683
311.48	14.565
311.85	13.770
312.22	14.611
312.58	14.742
312.95	14.532
313.31	15.447
313.68	15.568
314.05	16.621
314.41	17.486
314.78	15.350
315.14	16.243
315.51	15.974
315.87	15.932
316.24	17.443
316.61	17.673
316.97	17.104
317.34	16.843
317.70	18.166
318.07	17.901
318.43	17.602
318.80	19.398
319.16	17.682
319.53	18.852
319.89	18.493
320.26	18.505
320.62	18.794
320.99	19.760
321.35	19.593
321.72	21.488
322.08	18.756
322.45	20.687
322.81	21.029
323.18	20.885
323.54	21.724
323.91	22.420
324.27	21.170
324.64	23.006
325.00	24.129
325.37	22.850
325.73	24.545
326.10	25.547
326.46	24.756
326.83	26.021
327.19	24.882
327.56	25.613
327.92	22.895
328.29	24.677
328.65	25.879
329.01	27.242
329.38	26.201
329.74	27.226
330.11	27.397
330.47	26.032
330.84	26.615
331.20	27.083
331.56	26.863
331.93	27.950
332.29	27.373
332.66	27.409
333.02	27.554
333.38	26.174
333.75	27.104
334.11	27.023
334.48	26.980
334.84	27.018
335.20	26.868
335.57	27.487
335.93	28.264
336.29	26.373
336.66	27.670
337.02	27.508
337.38	28.827
337.75	27.686
338.11	28.343
338.47	27.213
338.84	27.496
339.20	27.380
339.56	27.430
339.93	28.489
340.29	26.651
340.65	27.494
341.02	28.731
341.38	28.294
341.74	27.441
342.11	29.606
342.47	27.403
342.83	28.180
343.20	28.782
343.56	27.907
343.92	28.343
344.28	27.734
344.65	28.915
345.01	27.847
345.37	27.838
345.73	27.747
346.10	28.549
346.46	27.215
346.82	28.240
347.19	27.502
347.55	27.997
347.91	28.083
348.27	26.935
348.63	27.494
349.00	28.412
349.36	27.584
349.72	28.274
350.08	27.712
350.45	27.985
350.81	28.507
351.17	27.444
351.53	27.976
351.89	28.702
352.26	28.284
352.62	28.060
352.98	27.863
353.34	26.288
353.70	28.274
354.07	27.571
354.43	28.702
354.79	27.823
355.15	28.771
355.51	28.509
355.87	27.674
356.24	28.137
356.60	27.421
356.96	27.724
357.32	27.138
357.68	27.086
358.04	27.994
358.40	28.209
358.77	29.386
359.13	27.622
359.49	27.658
359.85	28.209
360.21	27.475
360.57	27.854
360.93	28.420
361.29	27.789
361.66	28.096
362.02	29.297
362.38	28.180
362.74	29.190
363.10	28.748
363.46	29.017
363.82	27.273
364.18	28.220
364.54	27.178
364.90	28.829
365.26	29.034
365.62	28.600
365.98	28.931
366.35	28.188
366.71	29.456
367.07	27.605
367.43	29.284
367.79	29.463
368.15	29.833
368.51	29.296
368.87	28.478
369.23	28.933
369.59	29.781
369.95	28.668
370.31	28.832
370.67	28.198
371.03	28.740
371.39	28.408
371.75	29.023
372.11	29.133
372.47	28.707
372.83	29.058
373.19	28.352
373.55	27.710
373.91	28.562
374.27	28.590
374.63	28.620
374.99	29.576
375.35	29.545
375.71	28.645
376.07	28.212
376.42	28.275
376.78	29.273
377.14	28.322
377.50	30.044
377.86	29.741
378.22	29.162
378.58	29.964
378.94	29.401
379.30	28.354
379.66	29.688
380.02	29.602
380.38	30.357
380.74	30.197
381.09	30.778
381.45	30.000
381.81	30.386
382.17	30.107
382.53	29.181
382.89	29.684
383.25	29.660
383.61	30.093
383.97	29.682
384.32	29.067
384.68	29.524
385.04	29.960
385.40	29.346
385.76	30.188
386.12	29.503
386.48	29.765
386.83	30.036
387.19	29.316
387.55	29.343
387.91	28.482
388.27	30.139
388.62	29.897
388.98	28.990
389.34	29.582
389.70	30.273
390.06	29.189
390.42	28.313
390.77	29.320
391.13	29.049
391.49	29.106
391.85	29.394
392.20	29.181
392.56	29.061
392.92	29.171
393.28	29.187
393.64	29.050
393.99	29.285
394.35	29.673
394.71	29.102
395.07	28.922
395.42	28.841
395.78	31.079
396.14	29.234
396.50	29.216
396.85	28.861
397.21	28.462
397.57	29.034
397.92	29.897
398.28	28.246
398.64	28.204
399.00	27.487
399.35	28.325
399.71	28.315
400.07	28.804
400.42	29.744
400.78	28.530
401.14	28.913
401.49	28.312
401.85	28.953
402.21	29.085
402.57	29.343
402.92	29.196
403.28	28.571
403.63	27.685
403.99	28.622
404.35	27.800
404.70	28.045
405.06	28.043
405.42	28.396
405.77	28.244
406.13	28.525
406.49	28.716
406.84	28.144
407.20	29.011
407.55	27.983
407.91	27.907
408.27	27.621
408.62	27.691
408.98	27.974
409.34	26.979
409.69	28.554
410.05	28.019
410.40	28.132
410.76	27.930
411.11	28.580
411.47	27.641
411.83	28.277
412.18	28.675
412.54	27.149
412.89	27.998
413.25	27.652
413.60	27.513
413.96	28.205
414.31	27.479
414.67	27.847
415.03	28.062
415.38	27.049
415.74	26.817
416.09	27.514
416.45	27.239
416.80	27.050
417.16	27.011
417.51	26.961
417.87	25.935
418.22	26.407
418.58	27.014
418.93	27.881
419.29	26.942
419.64	27.191
420.00	26.944
420.35	27.007
420.71	26.536
421.06	26.912
421.42	26.491
421.77	26.602
422.12	27.061
422.48	26.370
422.83	27.492
423.19	26.950
423.54	27.157
423.90	27.002
424.25	27.627
424.61	26.406
424.96	26.579
425.31	27.123
425.67	27.053
426.02	26.563
426.38	26.062
426.73	26.395
427.09	26.932
427.44	26.488
427.79	27.253
428.15	26.199
428.50	26.573
428.85	25.890
429.21	26.755
429.56	27.147
429.92	26.486
430.27	27.422
430.62	26.869
430.98	26.955
431.33	26.833
431.68	26.102
432.04	27.171
432.39	27.370
432.74	26.313
433.10	26.609
433.45	24.805
433.80	26.448
434.16	27.221
434.51	27.441
434.86	27.253
435.22	27.099
435.57	27.064
435.92	26.155
436.28	26.735
436.63	26.379
436.98	25.711
437.34	26.607
437.69	26.252
438.04	26.547
438.39	25.560
438.75	25.180
439.10	27.114
439.45	25.824
439.81	26.215
440.16	25.791
440.51	26.031
440.86	25.625
441.22	25.777
441.57	26.520
441.92	26.188
442.27	27.475
442.63	26.329
442.98	26.467
443.33	25.776
443.68	26.710
444.03	27.328
444.39	26.445
444.74	26.544
445.09	26.254
445.44	26.027
445.79	26.485
446.15	26.516
446.50	26.357
446.85	26.848
447.20	26.547
447.55	25.837
447.91	25.550
448.26	25.317
448.61	25.505
448.96	27.200
449.31	26.617
449.66	25.000
450.02	26.371
450.37	26.745
450.72	25.296
451.07	25.683
451.42	25.419
451.77	25.403
452.12	25.847
452.47	25.312
452.83	26.014
453.18	25.744
453.53	25.388
453.88	25.400
454.23	25.819
454.58	25.421
454.93	25.121
455.28	25.406
455.63	25.753
455.98	25.810
456.34	25.501
456.69	24.691
457.04	25.118
457.39	25.055
457.74	25.615
458.09	24.767
458.44	25.700
458.79	25.064
459.14	24.174
459.49	25.354
459.84	25.289
460.19	25.319
460.54	26.065
460.89	26.046
461.24	25.287
461.59	25.899
461.94	23.560
462.29	25.252
462.64	24.321
462.99	25.424
463.34	25.049
463.69	24.267
464.04	25.403
464.39	25.392
464.74	24.800
465.09	24.337
465.44	24.839
465.79	24.907
466.14	24.336
466.49	24.632
466.84	24.959
467.19	25.896
467.54	24.266
467.89	24.195
468.24	25.152
468.59	23.798
468.94	23.135
469.29	24.175
469.64	23.395
469.99	23.709
470.34	24.010
470.68	24.607
471.03	24.558
471.38	24.133
471.73	23.342
472.08	23.921
472.43	23.058
472.78	24.244
473.13	23.388
473.48	24.592
473.83	24.492
474.17	23.623
474.52	24.775
474.87	23.976
475.22	24.507
475.57	24.507
475.92	22.897
476.27	23.323
476.61	23.468
476.96	23.775
477.31	23.069
477.66	24.187
478.01	23.538
478.36	23.180
478.70	23.103
479.05	23.978
479.40	23.297
479.75	23.343
480.10	23.638
480.45	24.020
480.79	22.812
481.14	23.575
481.49	23.671
481.84	23.977
482.19	23.527
482.53	23.306
482.88	22.907
483.23	23.210
483.58	22.838
483.92	22.784
484.27	22.439
484.62	23.144
484.97	22.823
485.31	22.386
485.66	22.306
486.01	22.881
486.36	23.772
486.70	24.599
487.05	24.346
487.40	23.636
487.75	23.359
488.09	22.542
488.44	22.195
488.79	22.732
489.13	22.737
489.48	21.825
489.83	21.811
490.17	22.398
490.52	22.250
490.87	21.574
491.22	21.794
491.56	21.715
491.91	21.762
492.26	21.765
492.60	22.300
492.95	21.764
493.30	20.798
493.64	21.682
493.99	21.930
494.34	21.733
494.68	22.099
495.03	21.718
495.37	21.438
495.72	21.678
496.07	21.429
496.41	21.064
496.76	21.435
497.11	21.741
497.45	21.666
497.80	21.368
498.14	21.179
498.49	21.324
498.84	20.795
499.18	21.188
499.53	21.211
499.87	21.978
500.22	20.392
500.56	20.873
500.91	20.915
501.26	21.136
501.60	21.034
501.95	20.973
502.29	21.106
502.64	20.857
502.98	21.355
503.33	21.037
503.67	20.454
504.02	21.497
504.36	21.001
504.71	20.992
505.06	20.919
505.40	21.069
505.75	20.856
506.09	20.488
506.44	21.123
506.78	20.826
507.13	19.686
507.47	20.512
507.82	20.360
508.16	20.985
508.51	20.159
508.85	19.934
509.19	19.801
509.54	19.789
509.88	20.010
510.23	20.447
510.57	20.541
510.92	19.981
511.26	19.336
511.61	19.604
511.95	20.059
512.30	20.483
512.64	19.290
512.98	19.760
513.33	20.010
513.67	19.786
514.02	19.622
514.36	19.335
514.70	19.687
515.05	19.447
515.39	19.948
515.74	19.565
516.08	19.704
516.42	20.094
516.77	19.506
517.11	19.443
517.46	19.830
517.80	19.936
518.14	20.511
518.49	18.926
518.83	18.680
519.17	19.278
519.52	19.340
519.86	18.796
520.20	19.063
520.55	18.729
520.89	18.694
521.23	18.481
521.58	18.870
521.92	18.980
522.26	18.213
522.61	19.271
522.95	19.319
523.29	18.966
523.64	18.722
523.98	19.566
524.32	19.885
524.66	19.465
525.01	18.403
525.35	17.634
525.69	18.329
526.04	18.485
526.38	18.563
526.72	18.685
527.06	17.126
527.41	18.950
527.75	17.637
528.09	18.536
528.43	17.821
528.78	17.688
529.12	17.833
529.46	17.538
529.80	19.108
530.15	18.667
530.49	17.438
530.83	17.296
531.17	17.682
531.51	18.412
531.86	18.089
532.20	18.293
532.54	17.774
532.88	18.909
533.22	18.385
533.57	18.465
533.91	18.294
534.25	18.542
534.59	17.644
534.93	18.053
535.27	17.915
535.62	18.818
535.96	18.071
536.30	17.979
536.64	18.559
536.98	18.696
537.32	18.086
537.66	18.029
538.01	16.798
538.35	17.966
538.69	16.827
539.03	16.922
539.37	17.609
539.71	18.258
540.05	18.285
540.39	17.359
540.73	17.911
541.07	17.045
541.42	17.720
541.76	16.370
542.10	16.948
542.44	17.540
542.78	17.701
543.12	17.402
543.46	17.521
543.80	17.206
544.14	17.175
544.48	17.908
544.82	16.936
545.16	17.412
545.50	17.196
545.84	17.269
546.18	17.840
546.52	16.943
546.86	17.484
547.20	17.430
547.54	17.041
547.88	16.275
548.22	17.135
548.56	17.086
548.90	17.075
549.24	16.413
549.58	17.413
549.92	16.518
550.26	16.958
550.60	16.592
550.94	17.335
551.28	16.436
551.62	16.981
551.96	16.699
552.30	17.400
552.64	17.237
552.98	17.031
553.32	17.363
553.66	16.720
554.00	17.213
554.34	16.281
554.68	16.979
555.02	16.689
555.36	17.028
555.69	16.079
556.03	15.952
556.37	17.647
556.71	16.170
557.05	17.188
557.39	16.589
557.73	16.843
558.07	16.093
558.41	17.542
558.75	16.227
559.08	16.006
559.42	14.952
559.76	16.554
560.10	16.142
560.44	16.095
560.78	17.250
561.12	17.365
561.45	16.971
561.79	16.422
562.13	16.451
562.47	16.091
562.81	17.215
563.15	16.919
563.48	16.718
563.82	16.505
564.16	15.627
564.50	16.806
564.84	16.165
565.17	16.353
565.51	15.593
565.85	16.627
566.19	15.323
566.52	15.740
566.86	16.186
567.20	16.259
567.54	16.676
567.88	16.769
568.21	17.144
568.55	16.691
568.89	16.841
569.23	17.110
569.56	17.390
569.90	17.213
570.24	17.470
570.57	17.415
570.91	16.963
571.25	17.009
571.59	16.838
571.92	17.431
572.26	16.808
572.60	17.008
572.93	17.089
573.27	16.915
573.61	16.861
573.95	17.067
574.28	17.099
574.62	16.894
574.96	17.292
575.29	16.876
575.63	16.955
575.97	17.198
576.30	16.112
576.64	16.321
576.98	16.811
577.31	17.170
577.65	17.375
577.98	17.677
578.32	17.632
578.66	17.207
578.99	16.957
579.33	17.074
579.67	16.500
580.00	16.993
580.34	16.863
580.67	16.659
581.01	16.530
581.35	17.163
581.68	17.143
582.02	17.085
582.35	17.642
582.69	17.379
583.02	16.819
583.36	17.026
583.70	16.496
584.03	16.151
584.37	16.391
584.70	16.161
585.04	16.717
585.37	17.079
585.71	17.023
586.04	16.469
586.38	16.852
586.72	15.793
587.05	16.065
587.39	16.729
587.72	16.842
588.06	16.973
588.39	16.355
588.73	16.852
589.06	16.507
589.40	16.288
589.73	15.746
590.07	16.446
590.40	16.700
590.73	15.907
591.07	16.865
591.40	15.941
591.74	15.739
592.07	16.119
592.41	15.970
592.74	15.939
593.08	16.051
593.41	16.856
593.75	16.753
594.08	16.813
594.41	15.865
594.75	15.709
595.08	16.050
595.42	16.006
595.75	16.403
596.09	16.028
596.42	15.693
596.75	16.133
597.09	16.444
597.42	15.614
597.75	15.876
598.09	16.111
598.42	15.682
598.76	15.781
599.09	16.554
599.42	16.259
599.76	16.111
600.09	16.350
600.42	15.449
600.76	15.852
601.09	15.002
601.42	16.169
601.76	16.000
602.09	15.618
602.42	15.340
602.76	15.683
603.09	15.786
603.42	16.329
603.76	16.032
604.09	15.685
604.42	16.037
604.76	15.259
605.09	15.876
605.42	15.949
605.75	15.385
606.09	15.603
606.42	15.469
606.75	15.292
607.09	15.630
607.42	15.530
607.75	15.905
608.08	15.351
608.42	15.316
608.75	14.967
609.08	15.323
609.41	15.571
609.75	14.643
610.08	15.567
610.41	15.463
610.74	15.588
611.07	15.542
611.41	15.247
611.74	15.658
612.07	15.942
612.40	14.971
612.73	15.990
613.07	15.110
613.40	15.496
613.73	15.166
614.06	15.309
614.39	15.403
614.72	14.556
615.06	14.966
615.39	14.886
615.72	15.024
616.05	14.667
616.38	15.540
616.71	15.361
617.05	14.164
617.38	15.409
617.71	14.633
618.04	15.488
618.37	14.481
618.70	15.611
619.03	14.098
619.36	14.550
619.69	14.414
620.03	14.878
620.36	14.847
620.69	14.436
621.02	14.501
621.35	14.296
621.68	13.738
622.01	14.662
622.34	14.156
622.67	14.639
623.00	11.741
623.33	14.798
623.66	14.721
623.99	14.549
624.32	14.945
624.65	13.642
624.99	15.215
625.32	15.219
625.65	14.430
625.98	13.831
626.31	14.387
626.64	14.432
626.97	14.554
627.30	13.364
627.63	13.578
627.96	14.715
628.29	13.852
628.62	13.602
628.95	13.409
629.28	13.424
629.61	14.226
629.94	12.971
630.26	13.983
630.59	14.335
630.92	13.247
631.25	13.864
631.58	13.653
631.91	13.215
632.24	13.064
632.57	13.472
632.90	12.939
633.23	14.388
633.56	12.857
633.89	11.570
634.22	13.202
634.55	14.092
634.88	12.987
635.20	13.025
635.53	13.446
635.86	13.976
636.19	13.786
636.52	13.397
636.85	13.075
637.18	12.266
637.51	12.151
637.83	12.292
638.16	13.825
638.49	11.854
638.82	13.191
639.15	11.569
639.48	12.240
639.81	13.510
640.13	12.367
640.46	11.515
640.79	12.255
641.12	13.292
641.45	12.296
641.77	13.094
642.10	10.236
642.43	13.697
642.76	12.195
643.09	11.644
643.41	10.364
643.74	12.138
644.07	13.103
644.40	12.164
644.73	11.756
645.05	11.601
645.38	12.806
645.71	12.023
646.04	13.486
646.36	12.117
646.69	10.429
647.02	12.844
647.35	10.076
647.67	11.433
648.00	10.987
648.33	12.763
648.66	10.984
648.98	11.293
649.31	11.773
649.64	12.085
649.96	11.538
650.29	11.822
650.62	10.184
650.94	10.661
651.27	11.228
651.60	11.257
651.92	10.334
652.25	11.722
652.58	11.829
652.90	9.884
653.23	13.521
653.56	12.268
653.88	13.764
654.21	12.394
654.54	11.127
654.86	13.456
655.19	10.665
655.52	15.084
655.84	17.351
656.17	20.290
656.49	28.801
656.82	30.788
657.15	23.095
657.47	16.894
657.80	11.985
658.13	9.338
658.45	12.023
658.78	14.085
659.10	12.951
659.43	12.507
659.75	12.363
660.08	10.196
660.41	10.256
660.73	10.490
661.06	10.866
661.38	8.293
661.71	9.310
662.03	10.935
662.36	11.986
662.68	10.319
663.01	10.265
663.33	10.775
663.66	12.821
663.98	9.808
664.31	11.445
664.63	8.478
664.96	11.252
665.28	11.071
665.61	11.538
665.93	10.357
666.26	11.290
666.58	9.410
666.91	9.533
667.23	9.524
667.56	9.467
667.88	9.800
668.21	9.570
668.53	6.371
668.86	9.823
669.18	10.183
669.50	10.139
669.83	8.600
670.15	9.646
670.48	9.524
670.80	9.751
671.13	8.318
671.45	7.677
671.77	9.416
672.10	9.167
672.42	10.194
672.75	10.599
673.07	10.597
673.39	10.632
673.72	10.570
674.04	10.517
674.37	8.408
674.69	10.582
675.01	9.714
675.34	10.496
675.66	8.801
675.98	9.888
676.31	9.961
676.63	10.266
676.95	10.728
677.28	8.065
677.60	6.890
677.92	11.132
678.25	11.700
678.57	9.075
678.89	10.239
679.22	9.930
679.54	10.256
679.86	8.305
680.18	11.111
680.51	10.377
680.83	10.638
681.15	8.793
681.48	9.672
681.80	9.326
682.12	11.014
682.44	10.351
682.77	9.752
683.09	9.280
683.41	9.302
683.73	8.918
684.06	10.332
684.38	8.945
684.70	9.695
685.02	8.950
685.34	8.819
685.67	10.568
685.99	11.503
686.31	9.884
686.63	8.057
686.96	10.410
687.28	9.609
687.60	10.101
687.92	8.039
688.24	9.516
688.56	9.483
688.89	11.434
689.21	9.785
689.53	7.843
689.85	9.665
690.17	8.148
690.49	7.769
690.82	10.099
691.14	6.883
691.46	9.369
691.78	11.418
692.10	10.826
692.42	8.750
692.74	10.345
693.06	8.889
693.39	7.590
693.71	12.030
694.03	9.294
694.35	8.762
694.67	9.651
694.99	7.872
695.31	9.713
695.63	7.792
695.95	7.867
696.27	7.253
696.59	9.513
696.91	9.009
697.23	10.769
697.56	8.961
697.88	9.659
698.20	9.228
698.52	11.932
698.84	10.187
699.16	12.245
699.48	8.159
699.80	8.723
700.12	8.952
700.44	6.452
700.76	9.739
701.08	8.475
701.40	7.513
701.72	7.214
702.04	8.289
702.36	3.403
702.68	6.601
703.00	6.846
703.32	8.374
703.64	9.291
703.96	9.308
704.28	6.634
704.60	10.633
704.91	6.633
705.23	6.027
705.55	8.914
705.87	6.061
706.19	6.135
706.51	4.518
706.83	7.205
707.15	3.968
707.47	7.944
707.79	8.515
708.11	5.932
708.43	6.452
708.74	4.241
709.06	8.121
709.38	8.920
709.70	8.437
710.02	7.235
710.34	8.511
710.66	3.911
710.98	4.645
711.29	3.571
711.61	7.910
711.93	5.128
712.25	4.054
712.57	11.504
712.89	7.353
713.20	5.030
713.52	8.960
713.84	9.471
714.16	8.158
714.48	5.670
714.80	9.351
715.11	4.987
715.43	7.692
715.75	6.053
716.07	6.630
716.39	9.016
716.70	4.217
717.02	4.918
717.34	5.923
717.66	4.698
717.97	3.767
718.29	1.031
718.61	1.645
718.93	4.531
719.24	3.416
719.56	4.601
719.88	2.102
720.20	5.161
720.51	2.795
720.83	5.000
721.15	3.618
721.46	4.795
721.78	5.333
722.10	0.647
722.42	6.376
722.73	5.161
723.05	5.614
723.37	2.778
723.68	3.584
724.00	1.444
724.32	0.352
724.63	3.846
724.95	3.546
725.27	3.136
725.58	2.827
725.90	6.552
726.22	3.448
726.53	7.468
726.85	6.289
727.16	6.647
727.48	7.951
727.80	4.636
728.11	3.180
728.43	7.071
728.74	6.689
729.06	5.298
729.38	5.519
729.69	6.376
730.01	5.060
730.32	2.121
730.64	6.289
730.96	3.416
731.27	8.101
731.59	6.044
731.90	5.714
732.22	7.292
732.53	4.696
732.85	6.286
733.16	6.158
733.48	1.524
733.80	7.242
734.11	7.407
734.43	6.486
734.74	10.127
735.06	6.533
735.37	6.216
735.69	6.216
736.00	9.605
736.32	6.469
736.63	5.278
736.95	4.598
737.26	9.394
737.58	5.758
737.89	8.824
738.21	3.058
738.52	5.574
738.83	7.509
739.15	2.128
739.46	4.082
739.78	6.135
740.09	7.736
740.41	10.204
740.72	5.000
741.04	5.178
741.35	2.807
741.66	3.137
741.98	3.279
742.29	0.418
742.61	3.070
742.92	3.462
743.23	2.888
743.55	0.775
743.86	4.000
744.18	0.826
744.49	1.266
744.80	3.292
745.12	2.110
745.43	0.407
745.74	-1.293
746.06	-0.847
746.37	5.063
746.68	6.098
747.00	2.917
747.31	1.288
747.62	1.154
747.94	0.810
748.25	-3.614
748.56	1.224
748.88	-0.427
749.19	4.741
749.50	-0.433
749.82	5.622
750.13	4.982
750.44	2.000
750.75	4.000
751.07	5.538
751.38	8.202
751.69	6.070
752.01	3.883
752.32	5.882
752.63	3.061
752.94	3.114
753.26	-0.743
753.57	-1.852
753.88	4.869
754.19	8.039
754.51	3.215
754.82	5.466
755.13	7.869
755.44	1.365
755.75	4.934
756.07	9.254
756.38	4.088
756.69	8.133
757.00	4.155
757.31	7.377
757.63	6.394
757.94	5.164
758.25	7.901
758.56	8.061
758.87	10.000
759.18	5.067
759.50	7.082
759.81	6.443
760.12	6.739
760.43	10.417
760.74	7.389
761.05	6.500
761.36	5.542
761.67	4.822
761.99	6.216
762.30	3.049
762.61	2.970
762.92	5.597
763.23	3.371
763.54	5.396
763.85	1.718
764.16	4.714
764.47	4.930
764.78	9.265
765.10	8.211
765.41	10.513
765.72	5.820
766.03	6.215
766.34	2.194
766.65	1.394
766.96	2.390
767.27	-0.461
767.58	1.493
767.89	4.808
768.20	-1.408
768.51	-0.926
768.82	3.213
769.13	-1.515
769.44	-0.385
769.75	2.527
770.06	3.077
770.37	3.937
770.68	0.851
770.99	-0.405
771.30	7.037
771.61	2.281
771.92	-1.111
772.23	0.405
772.54	-6.019
772.85	3.687
773.16	3.810
773.47	-4.233
773.78	-3.784
774.09	-2.841
774.39	0.500
774.70	-0.546
775.01	-8.537
775.32	-7.647
775.63	-2.454
775.94	-10.828
776.25	-5.161
776.56	-1.282
776.87	-5.442
777.18	-9.655
777.48	-11.189
777.79	-10.135
778.10	-14.706
778.41	-9.722
778.72	-4.828
779.03	1.235
779.34	-3.636
779.65	-3.109
779.95	3.889
780.26	-3.977
780.57	-7.097
780.88	0.000
781.19	-2.581
781.50	1.176
781.80	4.839
782.11	-2.116
782.42	-5.051
782.73	-4.790
783.04	-2.793
783.34	-9.697
783.65	-9.150
783.96	-1.242
784.27	-5.357
784.57	-9.934
784.88	-6.429
785.19	-10.236
785.50	-5.512
785.81	-9.023
786.11	-3.077
786.42	-8.633
786.73	-9.353
787.04	-9.774
787.34	-11.475
787.65	-4.800
787.96	-5.224
788.26	4.196
788.57	-1.399
788.88	-1.316
789.19	-5.229
789.49	-8.219
789.80	-9.929
790.11	-8.661
790.41	-6.250
790.72	-11.864
791.03	-20.388
791.33	-10.435
791.64	-12.281
791.95	-20.536
792.25	-10.476
792.56	-9.821
792.87	-16.667
793.17	-9.821
793.48	-19.792
793.79	-20.482
794.09	-12.844
794.40	-21.101
794.70	-8.844
795.01	-5.195
795.32	-10.274
795.62	-7.042
795.93	-4.545
796.23	-13.934
796.54	-16.071
796.85	-24.468
797.15	-21.739
797.46	-39.726
797.76	-30.000
798.07	-9.783
798.37	-23.711
798.68	-32.468
798.99	-13.793
799.29	-24.719
799.60	-15.957
799.90	-25.301
800.21	-38.462
800.51	-47.761
800.82	-45.588
801.12	-45.205
801.43	-57.353
801.73	-44.068
802.04	-36.364
802.34	-33.333
802.65	-33.898
802.95	-25.373
803.26	-30.508
803.56	-34.247
803.87	-25.714
804.17	-19.178
804.48	-56.140
804.78	-33.333
805.09	-41.379
805.39	-20.270
805.70	-42.254
806.00	-18.293
806.30	-16.867
806.61	-38.356
806.91	-15.385
807.22	-12.222
807.52	-27.586
807.83	-16.667
808.13	-15.663
808.43	-19.101
808.74	-16.250
809.04	-38.235
809.35	-33.333
809.65	-27.143
809.95	-20.548
810.26	-38.596
810.56	-53.448
810.86	-26.471
811.17	-31.579
811.47	-44.262
811.77	-80.000
812.08	-49.153
812.38	-41.667
812.69	-46.552
812.99	-56.604
813.29	-76.923
813.59	-54.000
813.90	-26.316
814.20	-61.818
814.50	-15.493
814.81	-21.795
815.11	-31.148
815.41	-29.851
815.72	-31.034
816.02	-30.357
816.32	-44.444
816.62	-72.727
816.93	-57.778
817.23	-22.222
817.53	-51.064
817.84	-47.619
818.14	-67.647
818.44	-48.980
818.74	-60.000
819.04	-84.615
819.35	-85.714
819.65	-134.615
819.95	-56.604
820.25	-64.444
820.56	-80.952
820.86	-78.125
821.16	-30.769
821.46	-60.465
821.76	-72.000
822.07	-33.929
822.37	-56.522
822.67	-42.553
822.97	-94.595
823.27	-52.500
823.57	-42.857
823.88	-62.222
824.18	-75.000
824.48	-103.333
824.78	-84.000
825.08	-87.879
825.38	-48.889
825.69	-31.915
825.99	-52.778
826.29	-114.286
826.59	-58.974
826.89	-76.744
827.19	-50.000
827.49	-73.529
827.79	-47.917
828.09	-91.892
828.39	-83.333
828.70	-53.659
829.00	-30.233
829.30	-117.857
829.60	-64.706
829.90	-54.348
830.20	-62.857
830.50	-110.345
830.80	-122.222
831.10	-126.923
831.40	-94.118
831.70	-152.381
832.00	-64.516
832.30	-241.176
832.60	-158.333
832.90	-284.615
833.20	-152.632
833.50	-150.000
833.80	-147.368
834.10	-195.238
834.40	-52.778
834.70	-75.000
835.00	-108.571
835.30	-91.176
835.60	-113.333
835.90	-120.000
836.20	-172.727
836.50	-112.000
836.80	-109.091
837.10	-100.000
837.40	-96.296
837.70	-243.750
838.00	-100.000
838.30	-147.826
838.60	-93.103
838.90	-250.000
839.19	-165.217
839.49	-308.333
839.79	-126.087
840.09	-225.000
840.39	-130.000
840.69	-38.710
840.99	-117.857
841.29	-233.333
841.59	-168.421
841.88	-53.846
842.18	-100.000
842.48	-310.000
842.78	-155.000
843.08	-80.000
843.38	-45.161
843.68	-222.222
843.97	-94.118
844.27	-175.000
844.57	-131.579
844.87	-350.000
845.17	-186.667
845.47	-109.524
845.76	-142.857
846.06	-333.333
846.36	-252.941
846.66	-76.923
846.96	-233.333
847.25	-182.353
847.55	-104.348
847.85	-155.000
848.15	-141.176
848.44	-227.273
848.74	-109.524
849.04	-125.000
849.34	-193.750
849.63	-143.478
849.93	1800.000
850.23	-153.333
850.53	-84.615
850.82	-281.818
851.12	-95.455
851.42	-300.000
851.71	-200.000
852.01	-150.000
852.31	-238.462
852.61	-168.421
852.90	-191.667
853.20	-127.778
853.50	-444.444
853.79	-185.714
854.09	-131.818
854.39	-283.333
854.68	-77.419
854.98	-115.385
855.28	-150.000
855.57	-110.714
855.87	-84.000
856.17	-113.636
856.46	-70.370
856.76	-194.444
857.05	-130.435
857.35	-133.333
857.65	-292.308
857.94	-61.905
858.24	-111.111
858.53	-108.696
858.83	-135.294
859.13	-111.765
859.42	-170.588
859.72	-150.000
860.01	-165.000
860.31	-300.000
860.60	-250.000
860.90	-166.667
861.20	-144.444
861.49	-230.769
861.79	-60.000
862.08	-200.000
862.38	-53.125
862.67	-147.059
862.97	-206.250
863.26	-400.000
863.56	-270.000
863.85	-245.455
864.15	-127.778
864.44	-833.333
864.74	-221.429
865.03	-143.750
865.33	-320.000
865.62	-103.226
865.92	-100.000
866.21	-121.739
866.51	-221.429
866.80	-800.000
867.10	-266.667
867.39	-291.667
867.69	3500.000
867.98	-471.429
868.27	-170.588
868.57	-3900.000
868.86	-440.000
869.16	-142.857
869.45	-133.333
869.75	-190.909
870.04	-342.857
870.33	-208.333
870.63	-600.000
870.92	-850.000
871.22	-437.500
871.51	-318.182
871.80	-1300.000
872.10	-1700.000
>>>>>End Processed Spectral Data<<<<<
