SpectraSuite Data File
++++++++++++++++++++++++++++++++++++
Date: Thu May 14 15:54:52 PDT 2015
User: schluterlab
Dark Spectrum Present: Yes
Reference Spectrum Present: Yes
Number of Sampled Component Spectra: 1
Spectrometers: USB2E3373
Integration Time (usec): 3000 (USB2E3373)
Spectra Averaged: 3 (USB2E3373)
Boxcar Smoothing: 0 (USB2E3373)
Correct for Electrical Dark: No (USB2E3373)
Strobe/Lamp Enabled: No (USB2E3373)
Correct for Detector Non-linearity: No (USB2E3373)
Correct for Stray Light: No (USB2E3373)
Number of Pixels in Processed Spectrum: 2048
>>>>>Begin Processed Spectral Data<<<<<
178.53	0.000
178.91	471.429
179.29	-3600.000
179.67	-3400.000
180.04	400.000
180.42	370.000
180.80	580.000
181.18	-2900.000
181.56	-2800.000
181.94	700.000
182.31	-650.000
182.69	733.333
183.07	-1500.000
183.45	775.000
183.83	-400.000
184.20	-1066.667
184.58	3300.000
184.96	-875.000
185.34	-377.778
185.72	-500.000
186.09	400.000
186.47	1750.000
186.85	740.000
187.23	-288.889
187.61	-3600.000
187.98	560.000
188.36	725.000
188.74	-600.000
189.12	-1100.000
189.49	-168.750
189.87	-450.000
190.25	-322.222
190.63	-680.000
191.00	-422.222
191.38	0.000
191.76	-750.000
192.14	-400.000
192.51	1350.000
192.89	-333.333
193.27	0.000
193.65	-485.714
194.02	-3400.000
194.40	-428.571
194.78	585.714
195.15	0.000
195.53	-245.455
195.91	0.000
196.29	-725.000
196.66	-246.154
197.04	-4300.000
197.42	-428.571
197.79	-1500.000
198.17	-312.500
198.55	-442.857
198.92	-377.778
199.30	-387.500
199.68	-227.273
200.05	-121.429
200.43	-1450.000
200.81	571.429
201.18	0.000
201.56	388.889
201.94	0.000
202.31	1166.667
202.69	-388.889
203.07	3300.000
203.44	-288.889
203.82	-850.000
204.19	-250.000
204.57	-466.667
204.95	-475.000
205.32	-3700.000
205.70	900.000
206.08	-416.667
206.45	-333.333
206.83	740.000
207.20	-500.000
207.58	-800.000
207.96	-633.333
208.33	-316.667
208.71	258.333
209.08	-500.000
209.46	0.000
209.84	666.667
210.21	1600.000
210.59	1150.000
210.96	1266.667
211.34	-775.000
211.71	-337.500
212.09	-3700.000
212.46	0.000
212.84	1850.000
213.22	-680.000
213.59	-750.000
213.97	-300.000
214.34	-1033.333
214.72	583.333
215.09	-825.000
215.47	0.000
215.84	442.857
216.22	1900.000
216.59	-820.000
216.97	-700.000
217.34	-600.000
217.72	-400.000
218.09	-900.000
218.47	-950.000
218.84	0.000
219.22	560.000
219.59	-205.882
219.97	-145.000
220.34	2150.000
220.72	-344.444
221.09	-169.231
221.47	-800.000
221.84	-260.000
222.22	-485.714
222.59	0.000
222.97	-275.000
223.34	-880.000
223.72	-2900.000
224.09	-925.000
224.46	-1000.000
224.84	-600.000
225.21	-514.286
225.59	-875.000
225.96	-650.000
226.34	-96.154
226.71	650.000
227.08	-1900.000
227.46	-173.333
227.83	-600.000
228.21	-126.316
228.58	550.000
228.95	1900.000
229.33	-225.000
229.70	-320.000
230.08	-78.947
230.45	400.000
230.82	-1100.000
231.20	-214.286
231.57	-225.000
231.95	-336.364
232.32	-263.636
232.69	-110.000
233.07	-700.000
233.44	-200.000
233.81	-290.000
234.19	-133.333
234.56	-131.818
234.93	-79.310
235.31	-152.632
235.68	-222.222
236.05	-170.000
236.43	-73.077
236.80	-64.000
237.17	-100.000
237.55	-75.758
237.92	-360.000
238.29	-74.194
238.67	-59.091
239.04	-80.556
239.41	-69.048
239.79	-50.000
240.16	-40.741
240.53	-58.696
240.91	-56.863
241.28	-36.066
241.65	-25.373
242.02	-33.784
242.40	-47.692
242.77	-40.000
243.14	-29.268
243.51	-38.158
243.89	-34.615
244.26	-16.832
244.63	-7.843
245.00	-22.430
245.38	-15.789
245.75	-26.549
246.12	-12.698
246.49	-11.628
246.87	-10.000
247.24	-4.636
247.61	-11.842
247.98	-11.409
248.36	-15.432
248.73	-13.497
249.10	-10.383
249.47	1.990
249.84	1.571
250.22	-7.772
250.59	-8.333
250.96	3.182
251.33	-9.694
251.70	-0.427
252.08	-2.917
252.45	0.410
252.82	-4.132
253.19	-2.734
253.56	-1.521
253.94	-3.846
254.31	-1.515
254.68	4.196
255.05	2.932
255.42	-2.721
255.79	0.971
256.16	-0.331
256.54	-0.331
256.91	0.328
257.28	-1.639
257.65	-3.185
258.02	-0.885
258.39	3.134
258.76	3.976
259.14	1.437
259.51	0.000
259.88	2.266
260.25	0.278
260.62	1.644
260.99	4.645
261.36	2.145
261.73	2.387
262.10	0.824
262.47	2.413
262.85	7.576
263.22	2.338
263.59	-1.053
263.96	3.325
264.33	0.512
264.70	3.457
265.07	4.773
265.44	4.989
265.81	3.704
266.18	3.401
266.55	2.679
266.92	1.595
267.29	2.407
267.66	3.991
268.03	4.367
268.40	3.758
268.77	0.911
269.14	0.441
269.51	3.728
269.88	4.508
270.25	3.622
270.62	4.219
270.99	5.051
271.36	4.950
271.73	4.912
272.10	4.409
272.47	4.609
272.84	2.610
273.21	3.407
273.58	4.234
273.95	2.115
274.32	3.992
274.69	3.095
275.06	4.396
275.43	1.479
275.80	5.644
276.17	2.222
276.54	5.037
276.91	3.757
277.28	5.244
277.65	2.873
278.02	3.309
278.39	3.804
278.76	4.042
279.13	3.723
279.50	5.326
279.87	3.578
280.23	3.169
280.60	3.898
280.97	5.099
281.34	2.716
281.71	5.922
282.08	4.319
282.45	3.437
282.82	4.239
283.19	3.716
283.56	3.115
283.92	6.156
284.29	4.739
284.66	6.897
285.03	3.045
285.40	4.791
285.77	3.560
286.14	6.565
286.51	4.262
286.87	3.949
287.24	6.024
287.61	4.036
287.98	4.230
288.35	5.030
288.72	3.402
289.08	4.832
289.45	3.698
289.82	4.217
290.19	4.167
290.56	4.507
290.93	3.424
291.29	5.785
291.66	4.683
292.03	3.935
292.40	5.442
292.77	5.121
293.13	5.007
293.50	4.862
293.87	4.564
294.24	4.933
294.60	5.310
294.97	4.295
295.34	5.378
295.71	3.909
296.08	5.039
296.44	3.309
296.81	4.507
297.18	4.234
297.55	4.481
297.91	4.508
298.28	5.095
298.65	5.589
299.02	5.195
299.38	5.034
299.75	5.023
300.12	4.398
300.48	4.263
300.85	5.512
301.22	5.369
301.59	5.365
301.95	5.989
302.32	5.333
302.69	4.819
303.05	5.658
303.42	4.989
303.79	5.521
304.15	4.942
304.52	5.180
304.89	5.445
305.25	5.487
305.62	5.329
305.99	6.186
306.35	5.948
306.72	6.515
307.09	5.381
307.45	6.315
307.82	4.743
308.19	6.559
308.55	6.750
308.92	6.232
309.29	6.801
309.65	5.750
310.02	6.832
310.38	6.299
310.75	7.087
311.12	6.424
311.48	6.843
311.85	6.458
312.22	5.693
312.58	6.385
312.95	6.692
313.31	7.317
313.68	7.509
314.05	8.582
314.41	7.741
314.78	8.174
315.14	8.076
315.51	7.387
315.87	7.741
316.24	8.219
316.61	8.792
316.97	8.054
317.34	6.878
317.70	8.559
318.07	8.554
318.43	8.844
318.80	9.448
319.16	7.811
319.53	7.541
319.89	8.589
320.26	8.541
320.62	8.599
320.99	9.234
321.35	9.335
321.72	10.791
322.08	9.468
322.45	9.033
322.81	10.650
323.18	9.735
323.54	11.121
323.91	10.676
324.27	9.208
324.64	11.167
325.00	10.448
325.37	10.729
325.73	10.661
326.10	10.787
326.46	12.459
326.83	12.410
327.19	11.732
327.56	12.411
327.92	11.330
328.29	11.452
328.65	11.055
329.01	11.506
329.38	11.036
329.74	12.414
330.11	12.586
330.47	12.300
330.84	12.145
331.20	12.167
331.56	13.172
331.93	12.050
332.29	12.203
332.66	11.462
333.02	11.474
333.38	11.997
333.75	11.532
334.11	12.677
334.48	12.211
334.84	12.914
335.20	11.419
335.57	14.165
335.93	11.818
336.29	11.814
336.66	12.027
337.02	12.625
337.38	13.435
337.75	12.231
338.11	12.700
338.47	12.821
338.84	11.760
339.20	10.447
339.56	11.697
339.93	12.644
340.29	12.560
340.65	12.165
341.02	12.690
341.38	13.420
341.74	11.703
342.11	12.631
342.47	11.755
342.83	13.124
343.20	12.428
343.56	12.109
343.92	11.930
344.28	12.656
344.65	13.101
345.01	12.949
345.37	12.675
345.73	12.237
346.10	13.183
346.46	12.263
346.82	13.034
347.19	13.063
347.55	12.367
347.91	12.407
348.27	12.443
348.63	13.557
349.00	12.230
349.36	12.714
349.72	11.756
350.08	13.150
350.45	12.395
350.81	11.614
351.17	14.211
351.53	12.737
351.89	13.895
352.26	12.463
352.62	13.134
352.98	12.901
353.34	12.621
353.70	13.251
354.07	12.295
354.43	12.377
354.79	13.538
355.15	13.024
355.51	14.474
355.87	12.939
356.24	12.776
356.60	13.008
356.96	13.343
357.32	13.383
357.68	13.177
358.04	12.874
358.40	12.985
358.77	14.035
359.13	12.925
359.49	11.970
359.85	13.633
360.21	13.917
360.57	12.635
360.93	13.681
361.29	14.035
361.66	13.903
362.02	14.266
362.38	13.914
362.74	13.617
363.10	14.168
363.46	13.712
363.82	14.773
364.18	13.441
364.54	14.661
364.90	15.385
365.26	13.517
365.62	15.267
365.98	14.091
366.35	14.899
366.71	13.741
367.07	13.532
367.43	14.445
367.79	15.660
368.15	15.184
368.51	14.817
368.87	15.153
369.23	15.333
369.59	15.301
369.95	14.740
370.31	15.057
370.67	15.268
371.03	14.612
371.39	14.372
371.75	15.543
372.11	15.176
372.47	15.978
372.83	15.707
373.19	16.278
373.55	15.650
373.91	15.133
374.27	15.847
374.63	17.185
374.99	15.252
375.35	16.039
375.71	15.871
376.07	15.752
376.42	16.562
376.78	16.346
377.14	15.908
377.50	16.445
377.86	16.995
378.22	17.186
378.58	16.766
378.94	15.904
379.30	16.813
379.66	16.578
380.02	16.734
380.38	17.396
380.74	16.338
381.09	17.422
381.45	16.705
381.81	17.857
382.17	17.043
382.53	17.310
382.89	16.704
383.25	17.585
383.61	16.551
383.97	17.079
384.32	17.823
384.68	17.053
385.04	17.872
385.40	18.385
385.76	18.581
386.12	17.774
386.48	18.824
386.83	18.653
387.19	17.555
387.55	18.369
387.91	18.721
388.27	19.169
388.62	17.927
388.98	18.387
389.34	19.505
389.70	19.233
390.06	19.065
390.42	18.675
390.77	18.844
391.13	18.603
391.49	18.901
391.85	18.182
392.20	19.158
392.56	19.965
392.92	20.338
393.28	19.845
393.64	18.939
393.99	19.930
394.35	19.918
394.71	19.880
395.07	18.743
395.42	19.417
395.78	20.171
396.14	20.143
396.50	19.834
396.85	19.797
397.21	20.178
397.57	19.965
397.92	19.817
398.28	19.446
398.64	19.622
399.00	19.686
399.35	20.419
399.71	20.217
400.07	20.213
400.42	20.664
400.78	19.850
401.14	20.148
401.49	20.125
401.85	20.581
402.21	20.915
402.57	20.951
402.92	20.508
403.28	20.258
403.63	19.988
403.99	20.487
404.35	19.613
404.70	21.530
405.06	20.217
405.42	20.609
405.77	21.538
406.13	20.908
406.49	20.158
406.84	21.330
407.20	20.794
407.55	20.594
407.91	19.799
408.27	20.907
408.62	21.757
408.98	20.952
409.34	20.411
409.69	21.014
410.05	21.747
410.40	21.172
410.76	21.312
411.11	22.794
411.47	21.376
411.83	21.517
412.18	22.169
412.54	21.340
412.89	21.478
413.25	22.573
413.60	21.597
413.96	21.212
414.31	21.700
414.67	21.944
415.03	22.831
415.38	22.383
415.74	22.297
416.09	21.900
416.45	21.290
416.80	21.787
417.16	22.095
417.51	22.416
417.87	21.582
418.22	22.455
418.58	21.499
418.93	21.944
419.29	23.058
419.64	22.929
420.00	21.721
420.35	21.224
420.71	22.516
421.06	21.737
421.42	22.592
421.77	21.379
422.12	22.939
422.48	22.171
422.83	23.275
423.19	22.493
423.54	23.064
423.90	22.253
424.25	23.413
424.61	22.216
424.96	22.735
425.31	23.301
425.67	22.383
426.02	22.247
426.38	23.594
426.73	22.824
427.09	23.991
427.44	22.228
427.79	22.222
428.15	21.918
428.50	22.809
428.85	22.790
429.21	23.298
429.56	22.655
429.92	22.604
430.27	24.048
430.62	23.009
430.98	22.873
431.33	22.630
431.68	22.653
432.04	23.057
432.39	23.139
432.74	22.945
433.10	23.905
433.45	22.910
433.80	23.444
434.16	23.244
434.51	23.587
434.86	23.941
435.22	23.486
435.57	23.821
435.92	22.927
436.28	23.549
436.63	23.648
436.98	22.759
437.34	23.168
437.69	23.996
438.04	23.533
438.39	23.320
438.75	22.468
439.10	23.362
439.45	23.197
439.81	23.390
440.16	23.378
440.51	23.021
440.86	23.457
441.22	24.116
441.57	23.323
441.92	23.181
442.27	23.081
442.63	23.895
442.98	23.479
443.33	22.462
443.68	24.281
444.03	23.612
444.39	23.301
444.74	24.145
445.09	23.517
445.44	23.604
445.79	23.707
446.15	24.306
446.50	23.773
446.85	22.957
447.20	23.162
447.55	23.013
447.91	23.508
448.26	24.260
448.61	22.848
448.96	24.195
449.31	22.853
449.66	23.420
450.02	24.367
450.37	23.708
450.72	23.735
451.07	23.804
451.42	23.339
451.77	23.235
452.12	24.831
452.47	23.411
452.83	24.324
453.18	23.409
453.53	23.550
453.88	23.744
454.23	24.124
454.58	23.506
454.93	23.604
455.28	24.142
455.63	23.195
455.98	23.575
456.34	24.499
456.69	23.457
457.04	23.936
457.39	23.392
457.74	24.217
458.09	22.680
458.44	23.815
458.79	23.053
459.14	23.702
459.49	23.939
459.84	23.820
460.19	23.320
460.54	23.623
460.89	24.034
461.24	24.368
461.59	24.184
461.94	22.989
462.29	23.348
462.64	22.933
462.99	22.348
463.34	23.945
463.69	23.329
464.04	23.735
464.39	24.047
464.74	23.090
465.09	23.472
465.44	23.444
465.79	24.432
466.14	23.606
466.49	22.632
466.84	22.314
467.19	23.988
467.54	22.973
467.89	23.506
468.24	24.875
468.59	22.814
468.94	23.427
469.29	23.515
469.64	22.886
469.99	22.945
470.34	23.020
470.68	22.488
471.03	24.754
471.38	22.760
471.73	23.407
472.08	23.921
472.43	22.577
472.78	24.181
473.13	23.325
473.48	23.323
473.83	23.738
474.17	23.388
474.52	23.512
474.87	23.810
475.22	23.662
475.57	23.157
475.92	23.594
476.27	23.642
476.61	23.728
476.96	23.045
477.31	24.109
477.66	23.505
478.01	23.437
478.36	23.978
478.70	24.089
479.05	23.773
479.40	23.889
479.75	23.823
480.10	23.070
480.45	23.655
480.79	24.172
481.14	23.437
481.49	22.899
481.84	24.151
482.19	23.828
482.53	23.787
482.88	23.482
483.23	23.833
483.58	23.493
483.92	23.094
484.27	23.328
484.62	23.020
484.97	23.328
485.31	23.090
485.66	21.766
486.01	21.459
486.36	22.164
486.70	23.394
487.05	23.811
487.40	23.775
487.75	23.740
488.09	23.866
488.44	23.428
488.79	23.744
489.13	23.280
489.48	22.757
489.83	22.777
490.17	23.289
490.52	22.865
490.87	23.181
491.22	23.267
491.56	23.464
491.91	22.983
492.26	22.934
492.60	22.737
492.95	23.563
493.30	23.487
493.64	23.390
493.99	23.333
494.34	22.953
494.68	23.084
495.03	23.216
495.37	22.903
495.72	22.494
496.07	22.743
496.41	22.437
496.76	23.061
497.11	22.930
497.45	23.004
497.80	22.523
498.14	22.721
498.49	22.472
498.84	22.943
499.18	22.717
499.53	22.780
499.87	22.989
500.22	22.173
500.56	22.672
500.91	22.426
501.26	22.409
501.60	22.802
501.95	22.449
502.29	22.685
502.64	23.262
502.98	22.778
503.33	21.728
503.67	22.416
504.02	21.979
504.36	22.699
504.71	22.876
505.06	22.647
505.40	22.349
505.75	23.315
506.09	22.744
506.44	23.352
506.78	23.303
507.13	22.775
507.47	23.306
507.82	23.627
508.16	22.849
508.51	23.019
508.85	22.674
509.19	22.596
509.54	23.295
509.88	22.390
510.23	23.118
510.57	23.490
510.92	22.932
511.26	22.655
511.61	22.405
511.95	22.792
512.30	22.895
512.64	21.889
512.98	22.461
513.33	22.278
513.67	22.489
514.02	23.710
514.36	22.864
514.70	23.542
515.05	22.315
515.39	23.360
515.74	23.542
516.08	23.613
516.42	23.548
516.77	22.713
517.11	22.641
517.46	23.648
517.80	23.677
518.14	23.341
518.49	23.644
518.83	22.299
519.17	22.402
519.52	22.799
519.86	22.228
520.20	23.429
520.55	22.453
520.89	23.480
521.23	23.395
521.58	23.277
521.92	22.890
522.26	22.222
522.61	23.785
522.95	22.261
523.29	23.506
523.64	23.599
523.98	24.016
524.32	23.782
524.66	22.595
525.01	22.820
525.35	22.860
525.69	23.318
526.04	21.929
526.38	23.563
526.72	22.895
527.06	23.812
527.41	24.023
527.75	23.575
528.09	23.200
528.43	23.091
528.78	22.428
529.12	22.936
529.46	22.597
529.80	22.540
530.15	22.957
530.49	23.547
530.83	22.550
531.17	21.685
531.51	22.924
531.86	23.137
532.20	23.171
532.54	21.963
532.88	22.970
533.22	22.510
533.57	22.504
533.91	23.401
534.25	23.290
534.59	23.103
534.93	21.958
535.27	22.310
535.62	22.399
535.96	21.906
536.30	22.092
536.64	22.282
536.98	23.493
537.32	23.889
537.66	22.458
538.01	21.571
538.35	22.594
538.69	21.274
539.03	21.888
539.37	21.908
539.71	22.883
540.05	22.782
540.39	22.494
540.73	22.222
541.07	21.766
541.42	21.264
541.76	20.937
542.10	21.773
542.44	20.585
542.78	22.019
543.12	21.216
543.46	22.711
543.80	20.624
544.14	22.083
544.48	21.868
544.82	22.202
545.16	22.063
545.50	21.989
545.84	22.168
546.18	21.790
546.52	21.592
546.86	21.321
547.20	21.183
547.54	20.849
547.88	20.856
548.22	20.936
548.56	21.123
548.90	21.254
549.24	20.912
549.58	20.883
549.92	20.727
550.26	20.777
550.60	21.378
550.94	21.410
551.28	22.244
551.62	21.159
551.96	21.812
552.30	21.479
552.64	22.029
552.98	20.586
553.32	20.836
553.66	20.900
554.00	20.050
554.34	20.721
554.68	20.917
555.02	20.039
555.36	21.170
555.69	20.628
556.03	20.492
556.37	20.338
556.71	20.355
557.05	21.278
557.39	20.902
557.73	20.343
558.07	20.000
558.41	20.332
558.75	21.028
559.08	20.598
559.42	20.645
559.76	20.828
560.10	19.826
560.44	20.515
560.78	20.937
561.12	20.259
561.45	19.465
561.79	19.780
562.13	20.456
562.47	19.174
562.81	19.494
563.15	19.318
563.48	19.888
563.82	19.649
564.16	19.746
564.50	19.070
564.84	19.587
565.17	19.882
565.51	18.470
565.85	19.121
566.19	19.182
566.52	19.485
566.86	19.751
567.20	18.651
567.54	18.694
567.88	18.349
568.21	19.071
568.55	19.185
568.89	18.611
569.23	18.800
569.56	18.484
569.90	18.674
570.24	18.212
570.57	18.056
570.91	17.606
571.25	17.790
571.59	18.230
571.92	17.857
572.26	17.734
572.60	17.690
572.93	17.534
573.27	18.011
573.61	17.681
573.95	17.650
574.28	17.473
574.62	17.167
574.96	16.828
575.29	16.942
575.63	16.955
575.97	16.790
576.30	17.246
576.64	16.893
576.98	17.449
577.31	16.929
577.65	17.066
577.98	16.434
578.32	16.933
578.66	16.491
578.99	16.834
579.33	16.696
579.67	17.044
580.00	16.588
580.34	16.536
580.67	16.461
581.01	16.530
581.35	16.676
581.68	16.752
582.02	16.173
582.35	16.508
582.69	16.729
583.02	16.165
583.36	16.513
583.70	16.337
584.03	16.583
584.37	16.514
584.70	16.577
585.04	16.415
585.37	16.063
585.71	15.922
586.04	15.962
586.38	16.690
586.72	16.144
587.05	15.733
587.39	16.181
587.72	16.388
588.06	15.546
588.39	15.982
588.73	16.058
589.06	15.886
589.40	16.318
589.73	15.874
590.07	16.446
590.40	16.430
590.73	16.048
591.07	16.530
591.40	16.291
591.74	16.852
592.07	16.971
592.41	15.497
592.74	15.726
593.08	16.178
593.41	16.302
593.75	15.891
594.08	15.904
594.41	15.737
594.75	15.576
595.08	15.343
595.42	15.455
595.75	15.854
596.09	16.469
596.42	15.550
596.75	15.631
597.09	16.404
597.42	15.534
597.75	15.837
598.09	15.873
598.42	16.084
598.76	15.552
599.09	15.344
599.42	15.253
599.76	15.220
600.09	15.516
600.42	15.382
600.76	15.687
601.09	15.367
601.42	14.590
601.76	15.034
602.09	14.796
602.42	14.758
602.76	15.055
603.09	15.088
603.42	14.993
603.76	14.729
604.09	14.869
604.42	15.339
604.76	15.183
605.09	15.556
605.42	15.112
605.75	15.231
606.09	15.603
606.42	14.447
606.75	14.430
607.09	14.017
607.42	14.451
607.75	14.810
608.08	15.509
608.42	15.155
608.75	14.925
609.08	14.431
609.41	14.954
609.75	15.045
610.08	15.128
610.41	14.528
610.74	14.412
611.07	14.654
611.41	15.426
611.74	15.150
612.07	15.194
612.40	14.354
612.73	14.817
613.07	14.817
613.40	14.726
613.73	14.636
614.06	14.966
614.39	14.577
614.72	14.799
615.06	14.581
615.39	14.790
615.72	14.313
616.05	14.230
616.38	14.329
616.71	14.368
617.05	13.845
617.38	15.088
617.71	14.579
618.04	14.571
618.37	14.645
618.70	14.197
619.03	15.054
619.36	14.735
619.69	13.837
620.03	14.564
620.36	15.644
620.69	13.510
621.02	14.698
621.35	14.586
621.68	14.317
622.01	15.302
622.34	13.877
622.67	15.120
623.00	13.833
623.33	14.798
623.66	14.851
623.99	14.154
624.32	14.945
624.65	13.835
624.99	14.629
625.32	14.762
625.65	14.835
625.98	13.153
626.31	14.529
626.64	14.212
626.97	13.878
627.30	13.819
627.63	14.629
627.96	14.114
628.29	14.241
628.62	14.442
628.95	13.760
629.28	13.679
629.61	14.815
629.94	14.142
630.26	13.136
630.59	13.903
630.92	13.333
631.25	13.864
631.58	14.030
631.91	13.027
632.24	14.121
632.57	13.852
632.90	14.042
633.23	14.388
633.56	14.490
633.89	13.120
634.22	14.033
634.55	15.240
634.88	13.420
635.20	15.285
635.53	14.463
635.86	14.410
636.19	15.164
636.52	14.873
636.85	13.994
637.18	13.098
637.51	14.301
637.83	16.058
638.16	14.055
638.49	12.911
638.82	13.529
639.15	12.829
639.48	14.434
639.81	13.972
640.13	14.252
640.46	13.333
640.79	13.113
641.12	13.292
641.45	13.927
641.77	14.249
642.10	14.042
642.43	13.431
642.76	13.144
643.09	13.151
643.41	13.725
643.74	14.483
644.07	13.241
644.40	12.447
644.73	11.030
645.05	12.335
645.38	13.237
645.71	13.783
646.04	14.778
646.36	12.263
646.69	14.110
647.02	13.456
647.35	13.740
647.67	11.916
648.00	15.287
648.33	13.363
648.66	12.981
648.98	12.381
649.31	12.855
649.64	14.077
649.96	12.732
650.29	11.544
650.62	11.315
650.94	12.613
651.27	11.527
651.60	11.842
651.92	10.790
652.25	13.169
652.58	12.930
652.90	10.465
653.23	14.085
653.56	13.552
653.88	13.624
654.21	13.662
654.54	12.283
654.86	12.606
655.19	11.167
655.52	13.328
655.84	12.455
656.17	13.979
656.49	19.489
656.82	21.363
657.15	16.355
657.47	12.382
657.80	9.347
658.13	7.260
658.45	9.501
658.78	11.291
659.10	10.960
659.43	10.533
659.75	10.255
660.08	9.580
660.41	9.595
660.73	9.920
661.06	9.985
661.38	10.686
661.71	11.724
662.03	12.522
662.36	14.132
662.68	12.008
663.01	10.265
663.33	12.098
663.66	11.172
663.98	11.538
664.31	14.634
664.63	9.634
664.96	11.071
665.28	9.619
665.61	11.189
665.93	9.643
666.26	10.932
666.58	9.779
666.91	12.523
667.23	11.429
667.56	11.243
667.88	12.600
668.21	10.352
668.53	8.494
668.86	11.002
669.18	10.794
669.50	11.133
669.83	10.200
670.15	11.220
670.48	11.310
670.80	8.413
671.13	11.720
671.45	10.630
671.77	9.040
672.10	10.667
672.42	10.032
672.75	9.985
673.07	9.403
673.39	8.475
673.72	11.074
674.04	11.724
674.37	10.912
674.69	10.582
675.01	9.333
675.34	9.542
675.66	9.363
675.98	10.448
676.31	9.961
676.63	11.407
676.95	11.111
677.28	10.282
677.60	7.874
677.92	11.900
678.25	11.700
678.57	11.210
678.89	10.410
679.22	8.711
679.54	11.282
679.86	8.136
680.18	9.121
680.51	9.748
680.83	10.638
681.15	9.828
681.48	11.054
681.80	9.326
682.12	8.916
682.44	9.683
682.77	9.397
683.09	9.659
683.41	9.496
683.73	9.867
684.06	8.118
684.38	8.050
684.70	10.233
685.02	9.294
685.34	9.983
685.67	9.148
685.99	9.663
686.31	10.029
686.63	9.321
686.96	9.621
687.28	8.795
687.60	8.249
687.92	9.807
688.24	10.184
688.56	8.448
688.89	9.256
689.21	8.806
689.53	7.451
689.85	10.454
690.17	8.333
690.49	7.968
690.82	6.535
691.14	9.717
691.46	7.839
691.78	10.313
692.10	9.174
692.42	8.571
692.74	8.167
693.06	5.370
693.39	8.539
693.71	9.023
694.03	8.364
694.35	6.857
694.67	8.624
694.99	7.872
695.31	8.830
695.63	6.494
695.95	6.418
696.27	8.352
696.59	7.965
696.91	8.108
697.23	9.451
697.56	8.961
697.88	7.955
698.20	9.605
698.52	10.795
698.84	8.524
699.16	7.959
699.48	9.623
699.80	8.085
700.12	6.987
700.44	8.525
700.76	9.026
701.08	7.506
701.40	4.663
701.72	6.965
702.04	7.487
702.36	5.759
702.68	7.824
703.00	7.579
703.32	5.419
703.64	7.090
703.96	7.876
704.28	4.668
704.60	7.595
704.91	6.122
705.23	7.671
705.55	5.850
705.87	5.758
706.19	6.442
706.51	6.627
706.83	4.899
707.15	4.233
707.47	5.841
707.79	5.895
708.11	6.356
708.43	5.806
708.74	4.911
709.06	6.265
709.38	5.399
709.70	10.422
710.02	5.426
710.34	5.585
710.66	5.028
710.98	4.645
711.29	7.143
711.61	6.215
711.93	7.977
712.25	5.405
712.57	9.145
712.89	7.353
713.20	4.734
713.52	5.202
713.84	4.735
714.16	7.895
714.48	4.897
714.80	8.312
715.11	5.249
715.43	6.366
715.75	5.000
716.07	4.696
716.39	6.557
716.70	3.614
717.02	4.262
717.34	2.787
717.66	3.691
717.97	-0.685
718.29	4.124
718.61	-1.316
718.93	3.236
719.24	4.037
719.56	7.975
719.88	4.204
720.20	3.226
720.51	1.863
720.83	1.250
721.15	1.316
721.46	-1.712
721.78	1.000
722.10	2.913
722.42	4.698
722.73	3.871
723.05	0.702
723.37	3.125
723.68	5.376
724.00	3.249
724.32	3.169
724.63	1.399
724.95	3.191
725.27	2.787
725.58	0.707
725.90	3.793
726.22	3.135
726.53	6.169
726.85	5.346
727.16	5.136
727.48	4.587
727.80	3.642
728.11	4.947
728.43	2.357
728.74	1.003
729.06	-0.993
729.38	1.623
729.69	0.671
730.01	2.083
730.32	1.212
730.64	2.830
730.96	1.553
731.27	5.028
731.59	4.945
731.90	0.779
732.22	0.521
732.53	1.381
732.85	3.714
733.16	3.519
733.48	-0.305
733.80	5.014
734.11	3.704
734.43	5.946
734.74	6.835
735.06	4.271
735.37	3.784
735.69	4.865
736.00	2.542
736.32	4.582
736.63	3.889
736.95	2.011
737.26	2.727
737.58	1.515
737.89	3.529
738.21	-0.612
738.52	0.656
738.83	3.754
739.15	1.064
739.46	4.422
739.78	4.294
740.09	0.000
740.41	5.831
740.72	1.000
741.04	2.913
741.35	2.807
741.66	0.392
741.98	-0.820
742.29	-1.255
742.61	0.439
742.92	0.000
743.23	1.805
743.55	1.938
743.86	2.800
744.18	-4.545
744.49	0.844
744.80	2.881
745.12	-2.954
745.43	2.439
745.74	-0.431
746.06	1.695
746.37	1.688
746.68	6.098
747.00	1.667
747.31	-0.429
747.62	3.846
747.94	-0.810
748.25	-1.606
748.56	-0.408
748.88	-0.427
749.19	0.431
749.50	-1.299
749.82	0.402
750.13	1.423
750.44	-2.000
750.75	0.308
751.07	0.308
751.38	2.524
751.69	1.917
752.01	0.000
752.32	4.248
752.63	2.041
752.94	2.422
753.26	-0.372
753.57	-4.074
753.88	-4.120
754.19	2.251
754.51	2.572
754.82	2.251
755.13	4.590
755.44	2.389
755.75	0.658
756.07	5.075
756.38	2.830
756.69	6.024
757.00	-0.554
757.31	3.279
757.63	0.000
757.94	4.225
758.25	4.063
758.56	4.793
758.87	4.318
759.18	1.867
759.50	2.833
759.81	4.202
760.12	3.504
760.43	2.865
760.74	4.187
761.05	2.750
761.36	1.446
761.67	1.269
761.99	4.595
762.30	1.829
762.61	1.650
762.92	1.493
763.23	2.622
763.54	3.957
763.85	-0.344
764.16	1.347
764.47	0.000
764.78	0.319
765.10	1.466
765.41	6.923
765.72	-0.794
766.03	1.695
766.34	-2.194
766.65	-5.923
766.96	-2.390
767.27	-4.608
767.58	-5.970
767.89	-0.481
768.20	-0.469
768.51	-1.389
768.82	0.402
769.13	-1.136
769.44	-3.462
769.75	-0.722
770.06	-3.462
770.37	2.756
770.68	-7.234
770.99	-5.668
771.30	2.222
771.61	-4.563
771.92	-2.593
772.23	3.239
772.54	-6.019
772.85	1.843
773.16	1.429
773.47	-2.646
773.78	-12.973
774.09	1.705
774.39	3.500
774.70	-0.546
775.01	-9.146
775.32	-10.000
775.63	-8.589
775.94	-14.013
776.25	-8.387
776.56	-3.846
776.87	-6.122
777.18	-2.759
777.48	-4.196
777.79	-11.486
778.10	-18.382
778.41	-11.806
778.72	-6.897
779.03	-4.938
779.34	-7.273
779.65	-0.518
779.95	-5.000
780.26	-2.273
780.57	-12.258
780.88	-3.623
781.19	-7.742
781.50	-3.529
781.80	-1.613
782.11	-5.291
782.42	-8.586
782.73	-12.575
783.04	-9.497
783.34	-12.121
783.65	-8.497
783.96	-13.665
784.27	-6.548
784.57	0.000
784.88	-10.714
785.19	-14.173
785.50	-12.598
785.81	-14.286
786.11	-10.769
786.42	-9.353
786.73	-7.914
787.04	-10.526
787.34	-9.836
787.65	-7.200
787.96	-5.224
788.26	-4.895
788.57	-9.790
788.88	-6.579
789.19	-7.190
789.49	-12.329
789.80	-16.312
790.11	-4.724
790.41	-14.062
790.72	-14.407
791.03	-28.155
791.33	-16.522
791.64	-14.912
791.95	-16.071
792.25	-11.429
792.56	-17.857
792.87	-17.708
793.17	-8.929
793.48	-29.167
793.79	-31.325
794.09	-25.688
794.40	-22.018
794.70	-7.483
795.01	-16.234
795.32	-6.164
795.62	-8.451
795.93	-15.152
796.23	-13.934
796.54	-16.964
796.85	-24.468
797.15	-16.304
797.46	-28.767
797.76	-37.500
798.07	-23.913
798.37	-28.866
798.68	-33.766
798.99	-24.138
799.29	-21.348
799.60	-27.660
799.90	-27.711
800.21	-52.308
800.51	-53.731
800.82	-47.059
801.12	-57.534
801.43	-47.059
801.73	-38.983
802.04	-40.909
802.34	-51.667
802.65	-38.983
802.95	-34.328
803.26	-44.068
803.56	-34.247
803.87	-35.714
804.17	-30.137
804.48	-50.877
804.78	-36.111
805.09	-60.345
805.39	-18.919
805.70	-35.211
806.00	-30.488
806.30	-22.892
806.61	-43.836
806.91	-15.385
807.22	-26.667
807.52	-29.885
807.83	-30.556
808.13	-25.301
808.43	-24.719
808.74	-31.250
809.04	-47.059
809.35	-37.333
809.65	-28.571
809.95	-26.027
810.26	-52.632
810.56	-48.276
810.86	-39.706
811.17	-57.895
811.47	-49.180
811.77	-84.444
812.08	-50.847
812.38	-30.000
812.69	-41.379
812.99	-60.377
813.29	-69.231
813.59	-46.000
813.90	-43.860
814.20	-61.818
814.50	-30.986
814.81	-24.359
815.11	-32.787
815.41	-28.358
815.72	-51.724
816.02	-50.000
816.32	-33.333
816.62	-52.273
816.93	-73.333
817.23	-42.593
817.53	-72.340
817.84	-59.524
818.14	-97.059
818.44	-65.306
818.74	-71.111
819.04	-84.615
819.35	-80.000
819.65	-107.692
819.95	-56.604
820.25	-60.000
820.56	-76.190
820.86	-112.500
821.16	-58.974
821.46	-48.837
821.76	-56.000
822.07	-51.786
822.37	-56.522
822.67	-57.447
822.97	-97.297
823.27	-80.000
823.57	-51.020
823.88	-51.111
824.18	-57.500
824.48	-110.000
824.78	-124.000
825.08	-78.788
825.38	-53.333
825.69	-42.553
825.99	-69.444
826.29	-97.143
826.59	-66.667
826.89	-81.395
827.19	-40.000
827.49	-79.412
827.79	-58.333
828.09	-86.486
828.39	-93.333
828.70	-60.976
829.00	-62.791
829.30	-132.143
829.60	-64.706
829.90	-52.174
830.20	-85.714
830.50	-117.241
830.80	-205.556
831.10	-126.923
831.40	-47.059
831.70	-157.143
832.00	-100.000
832.30	-294.118
832.60	-175.000
832.90	-307.692
833.20	-142.105
833.50	-205.000
833.80	-163.158
834.10	-180.952
834.40	-55.556
834.70	-68.750
835.00	-117.143
835.30	-85.294
835.60	-86.667
835.90	-88.000
836.20	-190.909
836.50	-124.000
836.80	-103.030
837.10	-111.111
837.40	-118.519
837.70	-237.500
838.00	-110.714
838.30	-130.435
838.60	-89.655
838.90	-221.429
839.19	-178.261
839.49	-358.333
839.79	-104.348
840.09	-250.000
840.39	-160.000
840.69	-77.419
840.99	-114.286
841.29	-226.667
841.59	-189.474
841.88	-56.410
842.18	-100.000
842.48	-340.000
842.78	-145.000
843.08	-90.000
843.38	-61.290
843.68	-194.444
843.97	-67.647
844.27	-181.250
844.57	-200.000
844.87	-430.000
845.17	-246.667
845.47	-90.476
845.76	-161.905
846.06	-344.444
846.36	-211.765
846.66	-126.923
846.96	-253.333
847.25	-200.000
847.55	-121.739
847.85	-180.000
848.15	-182.353
848.44	-390.909
848.74	-114.286
849.04	-141.667
849.34	-206.250
849.63	-104.348
849.93	1500.000
850.23	-173.333
850.53	-65.385
850.82	-254.545
851.12	-95.455
851.42	-272.727
851.71	-192.308
852.01	-140.000
852.31	-223.077
852.61	-157.895
852.90	-233.333
853.20	-138.889
853.50	-344.444
853.79	-138.095
854.09	-154.545
854.39	-266.667
854.68	-70.968
854.98	-115.385
855.28	-127.778
855.57	-121.429
855.87	-144.000
856.17	-168.182
856.46	-92.593
856.76	-200.000
857.05	-143.478
857.35	-166.667
857.65	-315.385
857.94	-100.000
858.24	-100.000
858.53	-86.957
858.83	-129.412
859.13	-164.706
859.42	-182.353
859.72	-192.857
860.01	-155.000
860.31	-344.444
860.60	-270.000
860.90	-220.000
861.20	-138.889
861.49	-215.385
861.79	-86.667
862.08	-276.923
862.38	-53.125
862.67	-123.529
862.97	-156.250
863.26	-422.222
863.56	-270.000
863.85	-318.182
864.15	-183.333
864.44	-1100.000
864.74	-242.857
865.03	-281.250
865.33	-390.000
865.62	-83.871
865.92	-104.545
866.21	-108.696
866.51	-135.714
866.80	-720.000
867.10	-225.000
867.39	-291.667
867.69	4200.000
867.98	-471.429
868.27	-152.941
868.57	-4600.000
868.86	-440.000
869.16	-176.190
869.45	-133.333
869.75	-227.273
870.04	-457.143
870.33	-225.000
870.63	-600.000
870.92	-700.000
871.22	-575.000
871.51	-300.000
871.80	-1366.667
872.10	-1950.000
>>>>>End Processed Spectral Data<<<<<
