SpectraSuite Data File
++++++++++++++++++++++++++++++++++++
Date: Thu May 14 16:42:26 PDT 2015
User: schluterlab
Dark Spectrum Present: Yes
Reference Spectrum Present: Yes
Number of Sampled Component Spectra: 1
Spectrometers: USB2E3373
Integration Time (usec): 3000 (USB2E3373)
Spectra Averaged: 3 (USB2E3373)
Boxcar Smoothing: 0 (USB2E3373)
Correct for Electrical Dark: No (USB2E3373)
Strobe/Lamp Enabled: No (USB2E3373)
Correct for Detector Non-linearity: No (USB2E3373)
Correct for Stray Light: No (USB2E3373)
Number of Pixels in Processed Spectrum: 2048
>>>>>Begin Processed Spectral Data<<<<<
178.53	0.000
178.91	-0.000
179.29	-1000.000
179.67	-200.000
180.04	78.571
180.42	60.000
180.80	80.000
181.18	-100.000
181.56	1100.000
181.94	275.000
182.31	-75.000
182.69	33.333
183.07	200.000
183.45	150.000
183.83	116.667
184.20	100.000
184.58	600.000
184.96	-100.000
185.34	-44.444
185.72	0.000
186.09	177.778
186.47	250.000
186.85	240.000
187.23	-100.000
187.61	-500.000
187.98	20.000
188.36	150.000
188.74	-75.000
189.12	0.000
189.49	31.250
189.87	-75.000
190.25	133.333
190.63	200.000
191.00	-11.111
191.38	0.000
191.76	-50.000
192.14	-50.000
192.51	100.000
192.89	116.667
193.27	0.000
193.65	57.143
194.02	-1000.000
194.40	-14.286
194.78	85.714
195.15	0.000
195.53	118.182
195.91	0.000
196.29	200.000
196.66	38.462
197.04	-600.000
197.42	-28.571
197.79	-300.000
198.17	0.000
198.55	-28.571
198.92	0.000
199.30	-112.500
199.68	100.000
200.05	92.857
200.43	-100.000
200.81	85.714
201.18	0.000
201.56	100.000
201.94	0.000
202.31	166.667
202.69	-155.556
203.07	600.000
203.44	55.556
203.82	-75.000
204.19	0.000
204.57	-183.333
204.95	-75.000
205.32	300.000
205.70	-75.000
206.08	-116.667
206.45	83.333
206.83	240.000
207.20	0.000
207.58	-240.000
207.96	-66.667
208.33	50.000
208.71	83.333
209.08	150.000
209.46	0.000
209.84	-50.000
210.21	50.000
210.59	350.000
210.96	300.000
211.34	0.000
211.71	-37.500
212.09	-800.000
212.46	0.000
212.84	600.000
213.22	-60.000
213.59	100.000
213.97	30.000
214.34	100.000
214.72	-100.000
215.09	25.000
215.47	0.000
215.84	28.571
216.22	500.000
216.59	-40.000
216.97	-20.000
217.34	-75.000
217.72	75.000
218.09	75.000
218.47	100.000
218.84	0.000
219.22	-40.000
219.59	35.294
219.97	10.000
220.34	500.000
220.72	-77.778
221.09	84.615
221.47	166.667
221.84	-50.000
222.22	-100.000
222.59	0.000
222.97	150.000
223.34	-40.000
223.72	-200.000
224.09	-25.000
224.46	-75.000
224.84	60.000
225.21	-157.143
225.59	-200.000
225.96	-25.000
226.34	11.538
226.71	33.333
227.08	-250.000
227.46	33.333
227.83	200.000
228.21	52.632
228.58	100.000
228.95	350.000
229.33	108.333
229.70	90.000
230.08	110.526
230.45	50.000
230.82	200.000
231.20	7.143
231.57	8.333
231.95	-54.545
232.32	172.727
232.69	65.000
233.07	-75.000
233.44	5.882
233.81	-20.000
234.19	44.444
234.56	27.273
234.93	20.690
235.31	-10.526
235.68	33.333
236.05	-75.000
236.43	46.154
236.80	36.000
237.17	22.222
237.55	42.424
237.92	10.000
238.29	29.032
238.67	-2.273
239.04	38.889
239.41	4.762
239.79	13.043
240.16	24.074
240.53	2.174
240.91	-11.765
241.28	16.393
241.65	14.925
242.02	18.919
242.40	6.154
242.77	13.333
243.14	7.317
243.51	2.632
243.89	1.282
244.26	16.832
244.63	1.961
245.00	16.822
245.38	6.140
245.75	7.080
246.12	7.937
246.49	3.101
246.87	8.571
247.24	14.570
247.61	10.526
247.98	4.698
248.36	7.407
248.73	1.840
249.10	7.650
249.47	14.925
249.84	13.089
250.22	8.290
250.59	11.667
250.96	10.909
251.33	3.061
251.70	10.684
252.08	8.750
252.45	13.525
252.82	7.025
253.19	5.078
253.56	6.464
253.94	6.923
254.31	12.500
254.68	9.441
255.05	11.401
255.42	9.524
255.79	8.414
256.16	7.285
256.54	4.305
256.91	8.197
257.28	7.869
257.65	6.369
258.02	7.080
258.39	7.977
258.76	11.315
259.14	8.046
259.51	8.934
259.88	5.382
260.25	8.889
260.62	12.329
260.99	9.563
261.36	10.188
261.73	7.162
262.10	6.593
262.47	6.971
262.85	11.111
263.22	7.532
263.59	6.316
263.96	7.928
264.33	10.230
264.70	12.099
265.07	8.592
265.44	10.431
265.81	7.407
266.18	9.751
266.55	7.812
266.92	7.289
267.29	10.284
267.66	9.313
268.03	9.607
268.40	10.021
268.77	8.200
269.14	5.066
269.51	9.649
269.88	8.402
270.25	9.256
270.62	10.549
270.99	8.889
271.36	10.693
271.73	10.413
272.10	11.423
272.47	8.617
272.84	9.839
273.21	9.218
273.58	8.065
273.95	8.077
274.32	7.414
274.69	7.930
275.06	8.425
275.43	8.318
275.80	9.171
276.17	7.037
276.54	7.836
276.91	8.587
277.28	7.233
277.65	8.977
278.02	9.007
278.39	6.884
278.76	5.272
279.13	8.156
279.50	7.216
279.87	12.165
280.23	5.106
280.60	9.153
280.97	8.224
281.34	6.112
281.71	10.491
282.08	10.465
282.45	5.728
282.82	6.279
283.19	6.785
283.56	9.836
283.92	8.108
284.29	9.953
284.66	8.374
285.03	6.571
285.40	10.510
285.77	7.430
286.14	10.229
286.51	7.458
286.87	10.111
287.24	7.831
287.61	7.623
287.98	7.100
288.35	9.467
288.72	7.249
289.08	9.078
289.45	8.432
289.82	6.928
290.19	7.040
290.56	7.606
290.93	8.131
291.29	9.091
291.66	6.887
292.03	6.784
292.40	8.299
292.77	7.143
293.13	7.848
293.50	6.570
293.87	8.054
294.24	8.267
294.60	7.712
294.97	4.832
295.34	8.707
295.71	7.440
296.08	7.494
296.44	7.230
296.81	7.795
297.18	7.347
297.55	6.604
297.91	6.168
298.28	7.464
298.65	8.323
299.02	6.612
299.38	8.009
299.75	7.477
300.12	6.481
300.48	7.028
300.85	8.211
301.22	7.047
301.59	7.306
301.95	8.023
302.32	7.889
302.69	7.996
303.05	7.508
303.42	6.874
303.79	7.708
304.15	7.781
304.52	7.505
304.89	7.330
305.25	7.557
305.62	8.255
305.99	8.351
306.35	8.669
306.72	8.480
307.09	8.122
307.45	8.178
307.82	9.284
308.19	8.073
308.55	9.065
308.92	9.445
309.29	9.387
309.65	8.674
310.02	8.020
310.38	9.744
310.75	9.223
311.12	9.875
311.48	9.189
311.85	9.117
312.22	9.013
312.58	10.235
312.95	10.229
313.31	9.756
313.68	11.630
314.05	11.021
314.41	10.383
314.78	11.262
315.14	11.615
315.51	12.373
315.87	11.881
316.24	13.242
316.61	13.499
316.97	12.489
317.34	12.963
317.70	14.410
318.07	14.021
318.43	14.116
318.80	14.381
319.16	14.592
319.53	14.053
319.89	15.513
320.26	15.569
320.62	14.450
320.99	15.697
321.35	16.174
321.72	17.395
322.08	16.050
322.45	16.531
322.81	17.599
323.18	18.938
323.54	17.586
323.91	18.060
324.27	18.330
324.64	19.395
325.00	19.154
325.37	18.509
325.73	20.579
326.10	20.032
326.46	20.928
326.83	20.256
327.19	21.024
327.56	19.842
327.92	19.906
328.29	21.048
328.65	20.184
329.01	22.250
329.38	23.673
329.74	22.346
330.11	22.945
330.47	22.409
330.84	21.016
331.20	23.167
331.56	22.790
331.93	23.431
332.29	22.966
332.66	23.256
333.02	22.697
333.38	22.735
333.75	22.980
334.11	23.520
334.48	23.515
334.84	24.384
335.20	23.426
335.57	23.862
335.93	23.388
336.29	22.962
336.66	23.129
337.02	24.498
337.38	23.980
337.75	23.719
338.11	24.306
338.47	23.490
338.84	23.012
339.20	23.505
339.56	22.900
339.93	25.123
340.29	24.235
340.65	23.601
341.02	23.863
341.38	25.869
341.74	24.455
342.11	24.859
342.47	24.226
342.83	24.557
343.20	25.020
343.56	25.100
343.92	25.220
344.28	24.922
344.65	25.271
345.01	25.975
345.37	24.417
345.73	24.630
346.10	25.663
346.46	24.684
346.82	24.794
347.19	24.675
347.55	25.721
347.91	25.186
348.27	24.355
348.63	26.047
349.00	25.727
349.36	25.279
349.72	25.446
350.08	26.597
350.45	24.867
350.81	26.320
351.17	26.015
351.53	26.611
351.89	25.285
352.26	25.672
352.62	26.493
352.98	26.870
353.34	26.811
353.70	27.889
354.07	27.645
354.43	27.031
354.79	26.702
355.15	26.784
355.51	27.778
355.87	26.627
356.24	27.681
356.60	27.568
356.96	27.576
357.32	27.286
357.68	27.526
358.04	27.021
358.40	26.343
358.77	26.974
359.13	27.031
359.49	26.840
359.85	28.426
360.21	28.336
360.57	27.925
360.93	28.209
361.29	28.211
361.66	28.747
362.02	29.506
362.38	28.883
362.74	28.911
363.10	29.161
363.46	30.679
363.82	29.688
364.18	29.275
364.54	30.360
364.90	29.431
365.26	30.069
365.62	30.333
365.98	30.225
366.35	30.671
366.71	29.932
367.07	31.597
367.43	31.057
367.79	31.055
368.15	31.706
368.51	31.597
368.87	31.352
369.23	31.800
369.59	31.557
369.95	31.305
370.31	31.263
370.67	31.706
371.03	32.895
371.39	30.893
371.75	31.981
372.11	32.385
372.47	32.972
372.83	32.853
373.19	32.755
373.55	32.520
373.91	32.856
374.27	32.924
374.63	34.235
374.99	33.289
375.35	34.481
375.71	34.000
376.07	34.022
376.42	33.879
376.78	34.307
377.14	33.812
377.50	34.978
377.86	33.990
378.22	34.251
378.58	35.612
378.94	34.448
379.30	34.505
379.66	35.038
380.02	34.680
380.38	36.002
380.74	35.211
381.09	36.527
381.45	35.511
381.81	37.646
382.17	36.639
382.53	36.082
382.89	35.948
383.25	37.515
383.61	36.343
383.97	36.690
384.32	36.663
384.68	37.413
385.04	37.767
385.40	37.949
385.76	37.749
386.12	37.163
386.48	38.941
386.83	37.723
387.19	36.790
387.55	37.676
387.91	38.185
388.27	38.568
388.62	38.144
388.98	37.958
389.34	38.598
389.70	38.582
390.06	38.662
390.42	38.554
390.77	39.133
391.13	38.380
391.49	39.010
391.85	39.576
392.20	39.324
392.56	39.988
392.92	39.477
393.28	38.585
393.64	38.380
393.99	39.338
394.35	39.720
394.71	39.461
395.07	38.024
395.42	39.292
395.78	41.012
396.14	40.107
396.50	39.489
396.85	38.998
397.21	40.769
397.57	38.869
397.92	39.805
398.28	39.163
398.64	39.359
399.00	38.796
399.35	39.895
399.71	40.380
400.07	40.314
400.42	39.639
400.78	39.931
401.14	40.751
401.49	40.591
401.85	40.640
402.21	41.020
402.57	40.552
402.92	40.071
403.28	39.403
403.63	39.916
403.99	40.439
404.35	39.738
404.70	39.490
405.06	40.435
405.42	39.578
405.77	41.494
406.13	40.249
406.49	39.809
406.84	40.277
407.20	39.463
407.55	40.400
407.91	39.472
408.27	38.928
408.62	39.732
408.98	40.743
409.34	39.179
409.69	40.606
410.05	40.270
410.40	39.675
410.76	40.213
411.11	40.444
411.47	39.803
411.83	41.035
412.18	41.145
412.54	39.597
412.89	40.338
413.25	39.503
413.60	40.264
413.96	39.394
414.31	39.603
414.67	40.250
415.03	39.262
415.38	39.975
415.74	39.157
416.09	40.160
416.45	39.073
416.80	38.800
417.16	39.974
417.51	41.034
417.87	39.730
418.22	40.479
418.58	39.653
418.93	39.057
419.29	40.629
419.64	39.436
420.00	39.644
420.35	38.911
420.71	39.173
421.06	39.045
421.42	39.220
421.77	38.826
422.12	38.584
422.48	39.887
422.83	40.635
423.19	39.257
423.54	40.985
423.90	39.812
424.25	39.893
424.61	38.921
424.96	38.935
425.31	40.393
425.67	38.808
426.02	40.564
426.38	39.552
426.73	39.230
427.09	39.043
427.44	39.268
427.79	38.972
428.15	39.555
428.50	39.213
428.85	39.552
429.21	39.947
429.56	38.351
429.92	38.477
430.27	39.133
430.62	39.717
430.98	38.859
431.33	38.759
431.68	38.314
432.04	38.497
432.39	38.565
432.74	39.612
433.10	39.481
433.45	38.350
433.80	39.485
434.16	39.050
434.51	40.134
434.86	39.685
435.22	40.329
435.57	38.974
435.92	39.399
436.28	39.590
436.63	40.306
436.98	39.399
437.34	40.079
437.69	38.910
438.04	39.397
438.39	39.230
438.75	39.679
439.10	40.381
439.45	39.352
439.81	39.435
440.16	38.016
440.51	38.963
440.86	39.300
441.22	39.496
441.57	38.836
441.92	39.719
442.27	39.091
442.63	39.146
442.98	39.488
443.33	39.558
443.68	40.287
444.03	39.934
444.39	39.390
444.74	39.816
445.09	39.280
445.44	39.673
445.79	39.751
446.15	40.339
446.50	40.155
446.85	39.883
447.20	39.749
447.55	39.540
447.91	38.639
448.26	38.108
448.61	39.532
448.96	39.592
449.31	38.600
449.66	38.126
450.02	38.344
450.37	39.212
450.72	38.428
451.07	37.870
451.42	37.955
451.77	38.466
452.12	39.165
452.47	39.097
452.83	40.541
453.18	37.712
453.53	38.771
453.88	38.211
454.23	39.153
454.58	38.944
454.93	38.046
455.28	39.073
455.63	38.090
455.98	38.715
456.34	39.458
456.69	39.330
457.04	38.889
457.39	38.304
457.74	39.206
458.09	38.221
458.44	39.170
458.79	37.751
459.14	37.756
459.49	38.370
459.84	38.195
460.19	38.034
460.54	39.069
460.89	38.062
461.24	37.644
461.59	37.576
461.94	37.422
462.29	37.290
462.64	38.021
462.99	38.606
463.34	37.897
463.69	36.460
464.04	38.299
464.39	36.659
464.74	36.602
465.09	36.851
465.44	37.017
465.79	37.070
466.14	36.946
466.49	36.368
466.84	37.355
467.19	37.225
467.54	36.251
467.89	35.345
468.24	36.454
468.59	35.495
468.94	35.548
469.29	35.873
469.64	35.346
469.99	36.393
470.34	36.572
470.68	36.569
471.03	36.018
471.38	35.383
471.73	35.306
472.08	36.168
472.43	35.822
472.78	36.398
473.13	35.145
473.48	35.589
473.83	35.171
474.17	33.587
474.52	36.200
474.87	34.994
475.22	35.211
475.57	34.060
475.92	35.192
476.27	34.505
476.61	33.385
476.96	34.724
477.31	34.455
477.66	35.257
478.01	34.621
478.36	33.500
478.70	34.039
479.05	33.640
479.40	34.748
479.75	34.486
480.10	33.870
480.45	34.549
480.79	34.014
481.14	33.410
481.49	32.849
481.84	34.378
482.19	33.935
482.53	33.669
482.88	33.141
483.23	32.637
483.58	33.275
483.92	33.466
484.27	32.388
484.62	32.797
484.97	32.582
485.31	32.242
485.66	30.570
486.01	30.563
486.36	31.287
486.70	32.097
487.05	32.924
487.40	32.273
487.75	32.010
488.09	31.699
488.44	31.443
488.79	31.906
489.13	31.463
489.48	31.417
489.83	30.825
490.17	30.539
490.52	31.609
490.87	31.345
491.22	31.542
491.56	30.845
491.91	31.007
492.26	30.679
492.60	30.564
492.95	30.584
493.30	30.255
493.64	31.231
493.99	30.088
494.34	30.096
494.68	30.064
495.03	29.736
495.37	28.984
495.72	29.297
496.07	29.842
496.41	28.829
496.76	30.359
497.11	29.299
497.45	29.348
497.80	29.320
498.14	29.161
498.49	29.733
498.84	29.662
499.18	28.970
499.53	28.700
499.87	29.890
500.22	28.584
500.56	28.970
500.91	29.016
501.26	29.500
501.60	28.458
501.95	28.615
502.29	27.995
502.64	28.640
502.98	28.257
503.33	27.862
503.67	28.173
504.02	27.890
504.36	28.508
504.71	28.204
505.06	27.467
505.40	27.148
505.75	27.641
506.09	28.223
506.44	27.344
506.78	27.706
507.13	27.709
507.47	27.475
507.82	26.799
508.16	26.338
508.51	26.160
508.85	26.878
509.19	27.570
509.54	26.801
509.88	26.809
510.23	27.149
510.57	27.743
510.92	26.996
511.26	25.830
511.61	26.268
511.95	25.817
512.30	26.588
512.64	25.987
512.98	26.063
513.33	26.512
513.67	26.007
514.02	26.520
514.36	26.905
514.70	26.927
515.05	26.694
515.39	26.404
515.74	26.405
516.08	25.990
516.42	26.845
516.77	25.605
517.11	25.322
517.46	26.087
517.80	25.975
518.14	25.898
518.49	25.488
518.83	25.652
519.17	25.471
519.52	25.105
519.86	25.449
520.20	25.506
520.55	25.356
520.89	25.619
521.23	24.511
521.58	25.480
521.92	25.892
522.26	24.513
522.61	24.826
522.95	24.971
523.29	24.655
523.64	24.664
523.98	24.872
524.32	25.444
524.66	24.701
525.01	24.179
525.35	24.239
525.69	24.478
526.04	23.823
526.38	24.080
526.72	24.221
527.06	25.396
527.41	24.315
527.75	25.238
528.09	23.731
528.43	24.393
528.78	23.584
529.12	23.222
529.46	23.946
529.80	23.741
530.15	24.232
530.49	23.962
530.83	23.318
531.17	23.059
531.51	23.526
531.86	23.858
532.20	24.146
532.54	23.579
532.88	24.364
533.22	22.746
533.57	23.139
533.91	23.625
534.25	22.894
534.59	23.621
534.93	23.203
535.27	22.366
535.62	24.048
535.96	23.184
536.30	22.150
536.64	22.823
536.98	23.432
537.32	23.519
537.66	22.645
538.01	22.598
538.35	23.386
538.69	21.995
539.03	22.747
539.37	22.438
539.71	22.462
540.05	22.122
540.39	21.883
540.73	21.797
541.07	23.053
541.42	21.441
541.76	21.886
542.10	22.437
542.44	21.803
542.78	22.141
543.12	22.527
543.46	22.650
543.80	20.683
544.14	21.065
544.48	22.163
544.82	23.100
545.16	21.884
545.50	21.031
545.84	21.555
546.18	22.531
546.52	21.465
546.86	21.635
547.20	22.265
547.54	20.974
547.88	20.916
548.22	21.228
548.56	21.475
548.90	21.313
549.24	21.702
549.58	21.451
549.92	21.173
550.26	22.071
550.60	20.485
550.94	21.539
551.28	20.792
551.62	21.698
551.96	20.518
552.30	22.243
552.64	21.780
552.98	21.148
553.32	20.707
553.66	20.836
554.00	21.311
554.34	20.528
554.68	20.723
555.02	20.565
555.36	21.631
555.69	19.987
556.03	20.555
556.37	19.587
556.71	19.975
557.05	20.511
557.39	20.040
557.73	20.277
558.07	20.331
558.41	20.266
558.75	21.569
559.08	21.016
559.42	19.753
559.76	21.438
560.10	20.831
560.44	19.525
560.78	21.188
561.12	20.320
561.45	19.769
561.79	20.452
562.13	20.394
562.47	20.099
562.81	19.494
563.15	20.455
563.48	20.385
563.82	20.314
564.16	19.685
564.50	19.666
564.84	19.882
565.17	19.647
565.51	18.930
565.85	19.121
566.19	19.700
566.52	19.485
566.86	19.355
567.20	19.141
567.54	19.703
567.88	19.266
568.21	19.664
568.55	19.281
568.89	19.292
569.23	19.603
569.56	19.187
569.90	19.458
570.24	18.887
570.57	18.922
570.91	18.555
571.25	18.918
571.59	18.981
571.92	18.550
572.26	19.375
572.60	19.438
572.93	18.759
573.27	18.741
573.61	18.952
573.95	18.791
574.28	18.243
574.62	18.668
574.96	18.262
575.29	18.110
575.63	18.457
575.97	17.916
576.30	18.406
576.64	18.301
576.98	18.405
577.31	18.638
577.65	18.345
577.98	17.997
578.32	18.055
578.66	18.093
578.99	18.104
579.33	17.919
579.67	17.906
580.00	17.757
580.34	18.412
580.67	17.741
581.01	17.741
581.35	18.157
581.68	18.012
582.02	18.062
582.35	18.382
582.69	18.064
583.02	18.184
583.36	18.074
583.70	18.087
584.03	17.855
584.37	18.242
584.70	17.506
585.04	17.508
585.37	17.808
585.71	17.476
586.04	17.812
586.38	17.177
586.72	16.997
587.05	17.242
587.39	17.402
587.72	17.368
588.06	18.158
588.39	17.924
588.73	17.646
589.06	17.748
589.40	17.578
589.73	17.866
590.07	17.739
590.40	17.613
590.73	18.204
591.07	18.057
591.40	17.379
591.74	17.766
592.07	17.946
592.41	18.021
592.74	17.465
593.08	17.771
593.41	18.081
593.75	17.931
594.08	17.843
594.41	17.404
594.75	17.469
595.08	17.127
595.42	17.565
595.75	17.307
596.09	17.045
596.42	17.556
596.75	18.178
597.09	17.495
597.42	17.521
597.75	17.405
598.09	17.143
598.42	17.089
598.76	17.157
599.09	16.839
599.42	16.661
599.76	17.035
600.09	17.184
600.42	17.684
600.76	16.942
601.09	17.159
601.42	16.752
601.76	17.069
602.09	17.012
602.42	16.576
602.76	16.937
603.09	16.667
603.42	16.908
603.76	16.667
604.09	17.424
604.42	17.211
604.76	16.514
605.09	16.873
605.42	17.065
605.75	16.346
606.09	16.051
606.42	16.417
606.75	16.792
607.09	16.129
607.42	16.493
607.75	16.569
608.08	16.456
608.42	16.566
608.75	16.874
609.08	16.341
609.41	16.630
609.75	16.027
610.08	16.667
610.41	16.568
610.74	16.597
611.07	16.252
611.41	16.547
611.74	16.813
612.07	16.410
612.40	16.778
612.73	16.968
613.07	16.528
613.40	16.795
613.73	16.514
614.06	17.615
614.39	16.764
614.72	16.206
615.06	15.833
615.39	15.998
615.72	16.351
616.05	16.707
616.38	16.902
616.71	16.614
617.05	15.761
617.38	17.335
617.71	16.415
618.04	16.514
618.37	16.230
618.70	15.611
619.03	16.368
619.36	16.215
619.69	16.079
620.03	16.384
620.36	15.767
620.69	16.656
621.02	16.339
621.35	16.401
621.68	16.558
622.01	15.801
622.34	15.132
622.67	16.220
623.00	15.115
623.33	16.390
623.66	17.380
623.99	16.392
624.32	17.674
624.65	15.573
624.99	15.670
625.32	16.786
625.65	16.183
625.98	15.593
626.31	15.450
626.64	15.751
626.97	17.029
627.30	15.262
627.63	15.304
627.96	15.691
628.29	15.720
628.62	16.037
628.95	16.126
629.28	15.973
629.61	15.909
629.94	15.565
630.26	16.356
630.59	15.630
630.92	15.411
631.25	16.369
631.58	15.254
631.91	15.464
632.24	15.754
632.57	15.939
632.90	14.744
633.23	15.918
633.56	16.327
633.89	13.946
634.22	16.632
634.55	16.701
634.88	13.961
635.20	16.362
635.53	15.932
635.86	15.601
636.19	17.391
636.52	15.928
636.85	15.730
637.18	16.008
637.51	15.054
637.83	16.944
638.16	16.014
638.49	14.906
638.82	14.994
639.15	15.464
639.48	15.820
639.81	16.628
640.13	16.372
640.46	15.636
640.79	13.603
641.12	16.770
641.45	16.186
641.77	15.276
642.10	14.173
642.43	17.154
642.76	17.073
643.09	15.068
643.41	15.686
643.74	16.414
644.07	16.552
644.40	15.134
644.73	13.353
645.05	15.125
645.38	14.964
645.71	15.396
646.04	16.643
646.36	15.036
646.69	16.258
647.02	15.138
647.35	16.031
647.67	15.298
648.00	14.809
648.33	15.465
648.66	15.121
648.98	14.014
649.31	14.073
649.64	15.139
649.96	15.650
650.29	12.517
650.62	15.559
650.94	13.664
651.27	14.371
651.60	14.620
651.92	15.046
652.25	14.761
652.58	15.818
652.90	13.372
653.23	15.775
653.56	14.979
653.88	14.466
654.21	14.085
654.54	14.162
654.86	16.006
655.19	13.676
655.52	14.126
655.84	14.213
656.17	16.566
656.49	23.614
656.82	25.596
657.15	20.302
657.47	15.359
657.80	11.247
658.13	8.617
658.45	11.614
658.78	14.300
659.10	13.513
659.43	13.764
659.75	13.417
660.08	12.381
660.41	13.151
660.73	12.999
661.06	12.335
661.38	14.195
661.71	16.897
662.03	13.757
662.36	14.490
662.68	13.884
663.01	13.628
663.33	15.123
663.66	14.835
663.98	13.077
664.31	13.884
664.63	12.331
664.96	15.971
665.28	10.708
665.61	13.636
665.93	12.679
666.26	14.875
666.58	10.701
666.91	16.075
667.23	14.857
667.56	15.582
667.88	12.800
668.21	12.109
668.53	12.741
668.86	14.342
669.18	11.202
669.50	14.314
669.83	12.000
670.15	13.780
670.48	14.881
670.80	12.620
671.13	14.745
671.45	13.189
671.77	16.384
672.10	13.667
672.42	12.783
672.75	14.132
673.07	13.433
673.39	13.713
673.72	14.094
674.04	13.103
674.37	12.880
674.69	15.168
675.01	11.619
675.34	13.740
675.66	11.423
675.98	13.619
676.31	13.281
676.63	14.639
676.95	15.134
677.28	13.306
677.60	10.630
677.92	14.971
678.25	13.894
678.57	15.480
678.89	14.164
679.22	10.801
679.54	11.966
679.86	12.373
680.18	12.769
680.51	13.679
680.83	13.257
681.15	13.966
681.48	12.781
681.80	14.162
682.12	13.462
682.44	13.689
682.77	15.957
683.09	13.447
683.41	12.597
683.73	13.283
684.06	11.255
684.38	13.238
684.70	13.285
685.02	14.114
685.34	11.314
685.67	11.672
685.99	12.270
686.31	12.936
686.63	12.796
686.96	14.511
687.28	13.681
687.60	11.953
687.92	13.023
688.24	13.356
688.56	12.759
688.89	13.793
689.21	15.068
689.53	11.961
689.85	13.807
690.17	11.481
690.49	11.355
690.82	14.257
691.14	11.134
691.46	13.002
691.78	13.444
692.10	11.009
692.42	11.071
692.74	13.067
693.06	12.222
693.39	12.713
693.71	11.278
694.03	12.268
694.35	13.905
694.67	14.784
694.99	12.340
695.31	12.141
695.63	14.286
695.95	10.559
696.27	11.209
696.59	14.381
696.91	13.514
697.23	13.626
697.56	11.813
697.88	11.174
698.20	14.689
698.52	14.962
698.84	12.058
699.16	14.490
699.48	12.552
699.80	13.617
700.12	14.410
700.44	14.055
700.76	13.539
701.08	14.528
701.40	10.622
701.72	13.682
702.04	14.973
702.36	10.471
702.68	13.447
703.00	11.736
703.32	10.345
703.64	12.714
703.96	12.888
704.28	12.285
704.60	10.127
704.91	10.204
705.23	11.507
705.55	12.535
705.87	14.848
706.19	14.417
706.51	10.542
706.83	11.239
707.15	8.995
707.47	10.047
707.79	11.354
708.11	8.051
708.43	10.323
708.74	10.268
709.06	11.601
709.38	13.615
709.70	11.166
710.02	13.178
710.34	11.436
710.66	9.218
710.98	10.656
711.29	12.912
711.61	13.277
711.93	9.972
712.25	13.514
712.57	18.584
712.89	13.529
713.20	12.130
713.52	12.428
713.84	10.028
714.16	13.158
714.48	12.629
714.80	17.922
715.11	8.399
715.43	11.406
715.75	11.316
716.07	12.155
716.39	12.842
716.70	9.036
717.02	12.131
717.34	12.544
717.66	10.067
717.97	8.219
718.29	8.591
718.61	8.882
718.93	7.767
719.24	10.559
719.56	15.337
719.88	13.814
720.20	10.000
720.51	12.112
720.83	9.063
721.15	9.868
721.46	8.219
721.78	10.667
722.10	6.796
722.42	8.054
722.73	12.903
723.05	8.772
723.37	10.069
723.68	11.828
724.00	13.357
724.32	13.028
724.63	8.392
724.95	12.766
725.27	11.150
725.58	8.127
725.90	13.448
726.22	10.031
726.53	17.208
726.85	13.208
727.16	11.178
727.48	14.679
727.80	11.921
728.11	9.541
728.43	9.091
728.74	9.365
729.06	11.258
729.38	8.442
729.69	12.081
730.01	13.095
730.32	9.697
730.64	14.151
730.96	7.143
731.27	14.246
731.59	9.890
731.90	8.571
732.22	10.417
732.53	8.287
732.85	11.429
733.16	10.264
733.48	9.146
733.80	11.421
734.11	10.256
734.43	12.162
734.74	12.658
735.06	10.050
735.37	12.973
735.69	12.973
736.00	11.299
736.32	10.512
736.63	13.333
736.95	7.471
737.26	12.727
737.58	10.303
737.89	15.000
738.21	7.645
738.52	11.148
738.83	15.017
739.15	10.638
739.46	11.565
739.78	14.110
740.09	8.309
740.41	11.370
740.72	9.000
741.04	11.650
741.35	12.281
741.66	11.373
741.98	11.066
742.29	10.042
742.61	7.018
742.92	8.462
743.23	11.913
743.55	6.977
743.86	8.800
744.18	1.653
744.49	7.595
744.80	11.523
745.12	14.346
745.43	10.976
745.74	6.034
746.06	8.475
746.37	14.346
746.68	15.447
747.00	9.167
747.31	10.300
747.62	20.000
747.94	7.287
748.25	5.221
748.56	8.163
748.88	5.128
749.19	13.362
749.50	11.688
749.82	13.655
750.13	13.167
750.44	10.000
750.75	9.231
751.07	9.846
751.38	12.303
751.69	10.863
752.01	9.061
752.32	11.765
752.63	7.143
752.94	13.149
753.26	8.178
753.57	6.296
753.88	5.618
754.19	8.682
754.51	11.897
754.82	10.611
755.13	12.787
755.44	11.604
755.75	9.868
756.07	11.642
756.38	6.289
756.69	13.855
757.00	8.033
757.31	13.388
757.63	9.974
757.94	10.329
758.25	11.061
758.56	9.586
758.87	12.500
759.18	10.667
759.50	11.048
759.81	12.045
760.12	11.321
760.43	11.198
760.74	10.837
761.05	10.750
761.36	9.880
761.67	9.391
761.99	10.541
762.30	9.451
762.61	10.891
762.92	11.194
763.23	10.487
763.54	10.072
763.85	7.904
764.16	9.764
764.47	13.028
764.78	8.946
765.10	11.144
765.41	12.051
765.72	7.937
766.03	12.429
766.34	8.777
766.65	7.317
766.96	7.570
767.27	8.756
767.58	4.478
767.89	17.308
768.20	8.451
768.51	8.796
768.82	8.434
769.13	9.848
769.44	6.154
769.75	14.440
770.06	8.077
770.37	11.811
770.68	8.085
770.99	4.858
771.30	16.667
771.61	8.745
771.92	6.667
772.23	10.526
772.54	6.944
772.85	13.364
773.16	16.190
773.47	9.524
773.78	1.081
774.09	8.523
774.39	15.500
774.70	4.918
775.01	6.098
775.32	10.588
775.63	9.816
775.94	4.459
776.25	14.839
776.56	9.615
776.87	12.245
777.18	4.828
777.48	6.294
777.79	2.703
778.10	4.412
778.41	7.639
778.72	11.724
779.03	11.728
779.34	10.303
779.65	8.290
779.95	13.889
780.26	11.932
780.57	9.032
780.88	11.594
781.19	13.548
781.50	12.353
781.80	13.441
782.11	12.169
782.42	5.556
782.73	12.575
783.04	11.173
783.34	1.212
783.65	4.575
783.96	4.969
784.27	12.500
784.57	6.623
784.88	12.857
785.19	3.937
785.50	13.386
785.81	14.286
786.11	7.692
786.42	3.597
786.73	0.000
787.04	14.286
787.34	7.377
787.65	7.200
787.96	8.955
788.26	20.280
788.57	18.182
788.88	12.500
789.19	15.686
789.49	9.589
789.80	18.440
790.11	9.449
790.41	15.625
790.72	8.475
791.03	1.942
791.33	14.783
791.64	3.509
791.95	6.250
792.25	11.429
792.56	15.179
792.87	10.417
793.17	15.179
793.48	5.208
793.79	3.614
794.09	7.339
794.40	1.835
794.70	18.367
795.01	10.390
795.32	6.849
795.62	9.859
795.93	8.333
796.23	12.295
796.54	5.357
796.85	9.574
797.15	6.522
797.46	0.000
797.76	12.500
798.07	2.174
798.37	-2.062
798.68	5.195
798.99	6.897
799.29	17.978
799.60	17.021
799.90	12.048
800.21	0.000
800.51	10.448
800.82	7.353
801.12	2.740
801.43	-17.647
801.73	10.169
802.04	1.515
802.34	-8.333
802.65	10.169
802.95	0.000
803.26	1.695
803.56	0.000
803.87	2.857
804.17	19.178
804.48	-10.526
804.78	-4.167
805.09	-3.448
805.39	2.703
805.70	-12.676
806.00	6.098
806.30	13.253
806.61	10.959
806.91	10.577
807.22	6.667
807.52	-1.149
807.83	16.667
808.13	13.253
808.43	10.112
808.74	11.250
809.04	-1.471
809.35	4.000
809.65	-2.857
809.95	5.479
810.26	3.509
810.56	-5.172
810.86	16.176
811.17	1.754
811.47	14.754
811.77	-4.444
812.08	5.085
812.38	6.667
812.69	18.966
812.99	9.434
813.29	-7.692
813.59	20.000
813.90	15.789
814.20	10.909
814.50	15.493
814.81	15.385
815.11	13.115
815.41	17.910
815.72	18.966
816.02	8.929
816.32	11.111
816.62	18.182
816.93	8.889
817.23	9.259
817.53	6.383
817.84	9.524
818.14	0.000
818.44	-18.367
818.74	11.111
819.04	-5.128
819.35	-8.571
819.65	-26.923
819.95	3.774
820.25	11.111
820.56	2.381
820.86	-25.000
821.16	15.385
821.46	-11.628
821.76	-4.000
822.07	0.000
822.37	4.348
822.67	2.128
822.97	-2.703
823.27	32.500
823.57	14.286
823.88	26.667
824.18	5.000
824.48	10.000
824.78	20.000
825.08	-3.030
825.38	15.556
825.69	21.277
825.99	11.111
826.29	-17.143
826.59	-12.821
826.89	-16.279
827.19	4.000
827.49	-5.882
827.79	18.750
828.09	10.811
828.39	-30.000
828.70	-7.317
829.00	23.256
829.30	-10.714
829.60	5.882
829.90	-13.043
830.20	2.857
830.50	3.448
830.80	-11.111
831.10	-30.769
831.40	14.706
831.70	19.048
832.00	25.806
832.30	-82.353
832.60	-37.500
832.90	-53.846
833.20	-26.316
833.50	-45.000
833.80	5.263
834.10	-57.143
834.40	8.333
834.70	31.250
835.00	-28.571
835.30	23.529
835.60	6.667
835.90	-12.000
836.20	-40.909
836.50	-16.000
836.80	6.061
837.10	-33.333
837.40	22.222
837.70	-6.250
838.00	25.000
838.30	4.348
838.60	6.897
838.90	0.000
839.19	-43.478
839.49	-66.667
839.79	4.348
840.09	-12.500
840.39	-10.000
840.69	16.129
840.99	-17.857
841.29	-33.333
841.59	-15.789
841.88	7.692
842.18	0.000
842.48	-50.000
842.78	-20.000
843.08	33.333
843.38	0.000
843.68	-66.667
843.97	29.412
844.27	25.000
844.57	0.000
844.87	10.000
845.17	33.333
845.47	71.429
845.76	-28.571
846.06	22.222
846.36	5.882
846.66	19.231
846.96	66.667
847.25	-41.176
847.55	47.826
847.85	20.000
848.15	35.294
848.44	9.091
848.74	47.619
849.04	-4.167
849.34	25.000
849.63	34.783
849.93	750.000
850.23	53.333
850.53	46.154
850.82	0.000
851.12	40.909
851.42	-36.364
851.71	30.769
852.01	-65.000
852.31	30.769
852.61	0.000
852.90	100.000
853.20	5.556
853.50	-100.000
853.79	-19.048
854.09	-4.545
854.39	-50.000
854.68	35.484
854.98	11.538
855.28	-11.111
855.57	7.143
855.87	4.000
856.17	18.182
856.46	14.815
856.76	-22.222
857.05	-21.739
857.35	8.333
857.65	0.000
857.94	28.571
858.24	44.444
858.53	34.783
858.83	-11.765
859.13	-29.412
859.42	11.765
859.72	-21.429
860.01	-20.000
860.31	-11.111
860.60	70.000
860.90	33.333
861.20	11.111
861.49	38.462
861.79	16.667
862.08	-23.077
862.38	31.250
862.67	29.412
862.97	-12.500
863.26	-22.222
863.56	50.000
863.85	-36.364
864.15	-11.111
864.44	200.000
864.74	-28.571
865.03	-37.500
865.33	-80.000
865.62	-16.129
865.92	68.182
866.21	8.696
866.51	7.143
866.80	-100.000
867.10	-8.333
867.39	-108.333
867.69	2000.000
867.98	14.286
868.27	5.882
868.57	-1300.000
868.86	0.000
869.16	-4.762
869.45	-20.833
869.75	0.000
870.04	-57.143
870.33	75.000
870.63	-185.714
870.92	75.000
871.22	-125.000
871.51	0.000
871.80	-666.667
872.10	-500.000
>>>>>End Processed Spectral Data<<<<<
