SpectraSuite Data File
++++++++++++++++++++++++++++++++++++
Date: Thu May 14 16:39:20 PDT 2015
User: schluterlab
Dark Spectrum Present: Yes
Reference Spectrum Present: Yes
Number of Sampled Component Spectra: 1
Spectrometers: USB2E3373
Integration Time (usec): 3000 (USB2E3373)
Spectra Averaged: 3 (USB2E3373)
Boxcar Smoothing: 0 (USB2E3373)
Correct for Electrical Dark: No (USB2E3373)
Strobe/Lamp Enabled: No (USB2E3373)
Correct for Detector Non-linearity: No (USB2E3373)
Correct for Stray Light: No (USB2E3373)
Number of Pixels in Processed Spectrum: 2048
>>>>>Begin Processed Spectral Data<<<<<
178.53	0.000
178.91	-28.571
179.29	-1100.000
179.67	-100.000
180.04	142.857
180.42	30.000
180.80	120.000
181.18	300.000
181.56	-500.000
181.94	100.000
182.31	100.000
182.69	200.000
183.07	-550.000
183.45	250.000
183.83	-66.667
184.20	33.333
184.58	-500.000
184.96	-25.000
185.34	-22.222
185.72	-40.000
186.09	200.000
186.47	500.000
186.85	180.000
187.23	-33.333
187.61	-1300.000
187.98	160.000
188.36	225.000
188.74	125.000
189.12	-300.000
189.49	-6.250
189.87	-62.500
190.25	88.889
190.63	-140.000
191.00	-88.889
191.38	0.000
191.76	-300.000
192.14	-33.333
192.51	350.000
192.89	-33.333
193.27	0.000
193.65	-100.000
194.02	-600.000
194.40	-14.286
194.78	-71.429
195.15	0.000
195.53	54.545
195.91	0.000
196.29	50.000
196.66	0.000
197.04	-1100.000
197.42	-57.143
197.79	-150.000
198.17	-75.000
198.55	-28.571
198.92	-11.111
199.30	37.500
199.68	63.636
200.05	21.429
200.43	-1100.000
200.81	142.857
201.18	0.000
201.56	155.556
201.94	0.000
202.31	33.333
202.69	-88.889
203.07	400.000
203.44	33.333
203.82	-50.000
204.19	16.667
204.57	-33.333
204.95	-62.500
205.32	-800.000
205.70	25.000
206.08	16.667
206.45	0.000
206.83	240.000
207.20	-133.333
207.58	-200.000
207.96	-66.667
208.33	116.667
208.71	75.000
209.08	16.667
209.46	0.000
209.84	216.667
210.21	200.000
210.59	250.000
210.96	133.333
211.34	-25.000
211.71	-37.500
212.09	-800.000
212.46	0.000
212.84	600.000
213.22	-140.000
213.59	50.000
213.97	40.000
214.34	66.667
214.72	-0.000
215.09	-150.000
215.47	0.000
215.84	200.000
216.22	200.000
216.59	-60.000
216.97	-80.000
217.34	-175.000
217.72	0.000
218.09	-250.000
218.47	-100.000
218.84	0.000
219.22	-100.000
219.59	-17.647
219.97	10.000
220.34	100.000
220.72	33.333
221.09	30.769
221.47	-233.333
221.84	-40.000
222.22	14.286
222.59	0.000
222.97	62.500
223.34	-280.000
223.72	-400.000
224.09	-75.000
224.46	-225.000
224.84	-40.000
225.21	-100.000
225.59	25.000
225.96	-75.000
226.34	7.692
226.71	150.000
227.08	-400.000
227.46	-13.333
227.83	-25.000
228.21	42.105
228.58	125.000
228.95	500.000
229.33	16.667
229.70	-20.000
230.08	94.737
230.45	60.000
230.82	-166.667
231.20	-7.143
231.57	16.667
231.95	-45.455
232.32	72.727
232.69	10.000
233.07	75.000
233.44	-5.882
233.81	-80.000
234.19	5.556
234.56	27.273
234.93	-6.897
235.31	-21.053
235.68	61.111
236.05	20.000
236.43	-19.231
236.80	20.000
237.17	7.407
237.55	-3.030
237.92	-90.000
238.29	-19.355
238.67	-13.636
239.04	11.111
239.41	-7.143
239.79	4.348
240.16	-18.519
240.53	4.348
240.91	-5.882
241.28	11.475
241.65	11.940
242.02	13.514
242.40	-4.615
242.77	-2.667
243.14	6.098
243.51	-1.316
243.89	-2.564
244.26	6.931
244.63	11.765
245.00	8.411
245.38	-1.754
245.75	-12.389
246.12	8.730
246.49	2.326
246.87	7.857
247.24	11.258
247.61	1.316
247.98	-0.671
248.36	-3.086
248.73	3.067
249.10	3.279
249.47	5.970
249.84	7.853
250.22	4.663
250.59	6.111
250.96	5.455
251.33	2.041
251.70	7.692
252.08	6.250
252.45	5.328
252.82	2.479
253.19	2.344
253.56	6.464
253.94	3.462
254.31	6.061
254.68	6.294
255.05	8.469
255.42	1.701
255.79	4.854
256.16	3.974
256.54	2.649
256.91	3.607
257.28	3.279
257.65	1.911
258.02	2.065
258.39	6.553
258.76	11.315
259.14	7.471
259.51	3.746
259.88	5.099
260.25	5.000
260.62	6.849
260.99	8.470
261.36	4.558
261.73	0.531
262.10	4.396
262.47	5.362
262.85	8.333
263.22	3.896
263.59	1.316
263.96	4.348
264.33	3.836
264.70	7.160
265.07	5.489
265.44	7.256
265.81	4.630
266.18	5.669
266.55	4.911
266.92	4.556
267.29	5.252
267.66	2.217
268.03	6.987
268.40	6.681
268.77	4.784
269.14	4.185
269.51	5.044
269.88	6.148
270.25	6.036
270.62	4.641
270.99	7.273
271.36	6.733
271.73	5.697
272.10	5.611
272.47	3.607
272.84	4.418
273.21	5.812
273.58	3.831
273.95	3.846
274.32	4.373
274.69	2.515
275.06	4.762
275.43	4.621
275.80	6.702
276.17	4.259
276.54	6.343
276.91	5.188
277.28	5.425
277.65	5.925
278.02	6.066
278.39	3.986
278.76	3.866
279.13	5.496
279.50	8.247
279.87	5.188
280.23	3.345
280.60	7.458
280.97	5.592
281.34	3.905
281.71	6.768
282.08	5.482
282.45	4.583
282.82	4.239
283.19	2.423
283.56	3.443
283.92	6.607
284.29	6.003
284.66	5.747
285.03	4.006
285.40	4.946
285.77	4.334
286.14	5.496
286.51	4.262
286.87	4.265
287.24	4.819
287.61	4.484
287.98	3.927
288.35	5.325
288.72	3.107
289.08	6.149
289.45	3.402
289.82	3.614
290.19	3.879
290.56	5.493
290.93	4.993
291.29	3.857
291.66	4.959
292.03	3.256
292.40	4.898
292.77	5.121
293.13	6.495
293.50	2.497
293.87	4.966
294.24	4.933
294.60	6.068
294.97	2.550
295.34	4.738
295.71	2.522
296.08	3.618
296.44	3.676
296.81	5.481
297.18	3.238
297.55	4.481
297.91	3.915
298.28	1.185
298.65	4.875
299.02	3.660
299.38	4.577
299.75	4.556
300.12	3.009
300.48	4.954
300.85	3.600
301.22	3.803
301.59	3.082
301.95	3.616
302.32	5.333
302.69	3.286
303.05	3.700
303.42	2.993
303.79	3.646
304.15	5.047
304.52	3.488
304.89	4.503
305.25	4.141
305.62	2.821
305.99	5.155
306.35	4.032
306.72	3.206
307.09	3.858
307.45	3.934
307.82	3.330
308.19	3.935
308.55	4.725
308.92	3.895
309.29	4.502
309.65	3.606
310.02	3.465
310.38	3.543
310.75	3.204
311.12	4.410
311.48	2.542
311.85	4.558
312.22	4.364
312.58	4.131
312.95	2.964
313.31	3.884
313.68	4.670
314.05	5.059
314.41	4.827
314.78	4.450
315.14	5.898
315.51	5.540
315.87	4.950
316.24	4.658
316.61	5.773
316.97	5.068
317.34	4.586
317.70	6.201
318.07	5.996
318.43	5.612
318.80	7.441
319.16	5.751
319.53	5.398
319.89	5.346
320.26	8.363
320.62	6.383
320.99	6.741
321.35	6.562
321.72	8.372
322.08	7.033
322.45	8.220
322.81	8.664
323.18	7.965
323.54	7.931
323.91	8.986
324.27	8.864
324.64	9.152
325.00	9.038
325.37	9.582
325.73	9.587
326.10	9.976
326.46	10.098
326.83	10.168
327.19	10.866
327.56	11.146
327.92	10.149
328.29	10.645
328.65	10.134
329.01	12.267
329.38	10.952
329.74	12.072
330.11	12.158
330.47	12.637
330.84	11.628
331.20	12.250
331.56	12.045
331.93	11.967
332.29	12.288
332.66	11.960
333.02	13.149
333.38	13.507
333.75	11.785
334.11	11.176
334.48	12.459
334.84	12.489
335.20	12.678
335.57	13.153
335.93	13.140
336.29	12.978
336.66	12.868
337.02	13.211
337.38	13.861
337.75	13.554
338.11	13.457
338.47	12.986
338.84	12.521
339.20	12.637
339.56	13.756
339.93	13.547
340.29	13.285
340.65	12.571
341.02	13.727
341.38	13.258
341.74	13.236
342.11	13.998
342.47	12.629
342.83	14.010
343.20	14.309
343.56	12.510
343.92	13.131
344.28	14.062
344.65	11.938
345.01	14.509
345.37	13.686
345.73	13.016
346.10	14.509
346.46	12.816
346.82	14.457
347.19	14.439
347.55	14.719
347.91	13.447
348.27	14.492
348.63	14.928
349.00	13.572
349.36	13.829
349.72	13.839
350.08	15.082
350.45	13.764
350.81	14.253
351.17	13.835
351.53	14.784
351.89	14.806
352.26	14.030
352.62	13.433
352.98	13.206
353.34	13.069
353.70	14.561
354.07	14.456
354.43	14.427
354.79	13.987
355.15	14.422
355.51	14.985
355.87	14.510
356.24	14.753
356.60	13.747
356.96	14.603
357.32	14.349
357.68	14.056
358.04	14.746
358.40	14.328
358.77	15.058
359.13	13.368
359.49	13.755
359.85	15.228
360.21	15.495
360.57	13.209
360.93	14.810
361.29	15.789
361.66	14.048
362.02	15.449
362.38	14.336
362.74	15.014
363.10	15.131
363.46	15.235
363.82	14.773
364.18	14.919
364.54	15.145
364.90	15.184
365.26	14.483
365.62	15.933
365.98	15.317
366.35	15.302
366.71	15.646
367.07	15.426
367.43	15.758
367.79	15.727
368.15	15.251
368.51	15.359
368.87	16.395
369.23	15.933
369.59	15.096
369.95	16.430
370.31	16.475
370.67	15.956
371.03	16.136
371.39	15.379
371.75	16.162
372.11	15.312
372.47	15.572
372.83	16.034
373.19	16.211
373.55	17.547
373.91	16.155
374.27	16.365
374.63	16.847
374.99	16.114
375.35	17.403
375.71	16.903
376.07	16.656
376.42	17.380
376.78	17.216
377.14	16.656
377.50	17.078
377.86	17.118
378.22	18.263
378.58	17.658
378.94	17.019
379.30	17.809
379.66	17.519
380.02	17.715
380.38	18.376
380.74	17.972
381.09	17.886
381.45	17.500
381.81	18.735
382.17	18.468
382.53	17.953
382.89	18.397
383.25	18.933
383.61	18.403
383.97	18.905
384.32	18.900
384.68	18.155
385.04	19.086
385.40	18.857
385.76	19.871
386.12	19.090
386.48	19.353
386.83	20.203
387.19	19.525
387.55	19.953
387.91	19.349
388.27	19.457
388.62	20.619
388.98	19.459
389.34	20.212
389.70	20.105
390.06	18.887
390.42	20.482
390.77	20.951
391.13	20.423
391.49	20.531
391.85	21.152
392.20	21.174
392.56	21.264
392.92	21.101
393.28	21.448
393.64	20.168
393.99	21.615
394.35	21.612
394.71	22.695
395.07	21.317
395.42	21.531
395.78	21.633
396.14	22.222
396.50	22.565
396.85	21.884
397.21	22.189
397.57	22.320
397.92	22.509
398.28	22.814
398.64	22.941
399.00	21.361
399.35	22.827
399.71	22.880
400.07	23.919
400.42	23.399
400.78	23.264
401.14	23.278
401.49	23.309
401.85	23.081
402.21	23.812
402.57	23.063
402.92	22.991
403.28	23.946
403.63	23.508
403.99	24.584
404.35	23.081
404.70	24.419
405.06	24.130
405.42	24.649
405.77	24.864
406.13	24.581
406.49	24.662
406.84	24.432
407.20	25.601
407.55	24.531
407.91	26.210
408.27	25.029
408.62	25.364
408.98	26.117
409.34	25.689
409.69	26.452
410.05	26.495
410.40	26.508
410.76	25.463
411.11	26.125
411.47	26.044
411.83	26.808
412.18	28.012
412.54	26.793
412.89	26.775
413.25	27.032
413.60	26.939
413.96	27.622
414.31	27.082
414.67	27.013
415.03	27.815
415.38	26.671
415.74	27.367
416.09	27.946
416.45	28.178
416.80	27.356
417.16	28.352
417.51	28.394
417.87	28.387
418.22	28.443
418.58	28.686
418.93	28.347
419.29	27.928
419.64	28.631
420.00	28.012
420.35	29.702
420.71	29.006
421.06	28.580
421.42	29.358
421.77	29.510
422.12	29.281
422.48	30.671
422.83	29.737
423.19	29.920
423.54	30.199
423.90	29.707
424.25	30.400
424.61	29.564
424.96	30.313
425.31	30.414
425.67	29.737
426.02	30.050
426.38	29.793
426.73	30.469
427.09	31.949
427.44	30.475
427.79	31.399
428.15	30.708
428.50	30.000
428.85	30.080
429.21	31.277
429.56	30.750
429.92	31.106
430.27	30.024
430.62	31.363
430.98	30.349
431.33	30.987
431.68	30.651
432.04	30.929
432.39	32.137
432.74	31.221
433.10	31.260
433.45	31.159
433.80	32.189
434.16	31.457
434.51	31.963
434.86	33.062
435.22	32.412
435.57	32.193
435.92	31.720
436.28	32.537
436.63	32.933
436.98	32.797
437.34	32.638
437.69	32.031
438.04	32.522
438.39	32.395
438.75	31.212
439.10	32.875
439.45	31.805
439.81	32.655
440.16	32.869
440.51	32.219
440.86	31.795
441.22	31.565
441.57	33.019
441.92	32.396
442.27	32.071
442.63	32.240
442.98	32.978
443.33	32.614
443.68	33.647
444.03	33.537
444.39	33.564
444.74	33.640
445.09	33.046
445.44	33.087
445.79	31.944
446.15	33.505
446.50	32.920
446.85	32.636
447.20	33.317
447.55	32.688
447.91	32.670
448.26	32.875
448.61	33.050
448.96	32.886
449.31	33.775
449.66	32.462
450.02	33.281
450.37	32.818
450.72	32.616
451.07	34.852
451.42	32.293
451.77	33.185
452.12	32.788
452.47	31.848
452.83	33.559
453.18	33.975
453.53	33.601
453.88	32.468
454.23	33.446
454.58	33.894
454.93	33.192
455.28	34.076
455.63	32.860
455.98	32.402
456.34	33.098
456.69	33.275
457.04	33.215
457.39	33.537
457.74	33.221
458.09	33.004
458.44	33.513
458.79	33.522
459.14	33.823
459.49	34.126
459.84	33.316
460.19	32.926
460.54	35.207
460.89	34.145
461.24	33.161
461.59	33.868
461.94	33.029
462.29	34.211
462.64	33.977
462.99	33.584
463.34	33.355
463.69	32.708
464.04	33.519
464.39	32.287
464.74	33.922
465.09	33.564
465.44	32.564
465.79	33.474
466.14	31.527
466.49	33.000
466.84	33.223
467.19	33.237
467.54	33.666
467.89	32.356
468.24	33.075
468.59	33.353
468.94	33.100
469.29	33.353
469.64	33.694
469.99	33.779
470.34	33.601
470.68	33.424
471.03	33.006
471.38	34.075
471.73	31.795
472.08	33.820
472.43	33.113
472.78	34.194
473.13	34.387
473.48	34.139
473.83	33.894
474.17	33.411
474.52	34.095
474.87	32.558
475.22	33.465
475.57	33.437
475.92	33.649
476.27	33.759
476.61	33.697
476.96	32.951
477.31	32.921
477.66	34.627
478.01	33.604
478.36	33.300
478.70	33.990
479.05	33.589
479.40	33.514
479.75	33.333
480.10	34.060
480.45	32.954
480.79	34.104
481.14	32.445
481.49	33.667
481.84	33.246
482.19	33.978
482.53	34.062
482.88	33.363
483.23	34.015
483.58	33.231
483.92	33.289
484.27	33.446
484.62	33.251
484.97	33.398
485.31	31.855
485.66	30.300
486.01	29.825
486.36	30.491
486.70	32.129
487.05	32.647
487.40	33.016
487.75	32.468
488.09	32.995
488.44	32.552
488.79	33.255
489.13	33.454
489.48	32.699
489.83	32.757
490.17	32.361
490.52	32.348
490.87	33.249
491.22	33.406
491.56	32.935
491.91	33.275
492.26	33.449
492.60	32.750
492.95	34.006
493.30	32.631
493.64	33.071
493.99	33.202
494.34	32.796
494.68	33.576
495.03	33.260
495.37	33.511
495.72	33.605
496.07	33.085
496.41	32.175
496.76	32.986
497.11	32.909
497.45	32.628
497.80	33.407
498.14	33.152
498.49	32.675
498.84	33.547
499.18	32.434
499.53	33.767
499.87	33.626
500.22	32.102
500.56	33.198
500.91	33.272
501.26	33.864
501.60	32.700
501.95	33.391
502.29	33.787
502.64	32.882
502.98	32.442
503.33	32.786
503.67	32.534
504.02	33.450
504.36	33.735
504.71	32.843
505.06	33.106
505.40	32.587
505.75	33.561
506.09	33.564
506.44	33.287
506.78	33.578
507.13	33.379
507.47	33.491
507.82	32.812
508.16	33.509
508.51	33.333
508.85	33.444
509.19	34.154
509.54	33.141
509.88	33.317
510.23	34.823
510.57	33.253
510.92	34.543
511.26	33.237
511.61	32.883
511.95	33.577
512.30	34.417
512.64	33.483
512.98	33.517
513.33	34.375
513.67	33.707
514.02	33.265
514.36	34.885
514.70	33.542
515.05	33.785
515.39	34.751
515.74	34.730
516.08	33.597
516.42	33.804
516.77	33.859
517.11	33.780
517.46	33.881
517.80	34.741
518.14	34.331
518.49	35.087
518.83	34.699
519.17	33.764
519.52	34.434
519.86	33.897
520.20	34.026
520.55	34.721
520.89	34.854
521.23	33.724
521.58	35.254
521.92	34.448
522.26	33.219
522.61	35.243
522.95	34.314
523.29	35.115
523.64	34.417
523.98	35.824
524.32	35.817
524.66	34.434
525.01	34.088
525.35	34.003
525.69	34.455
526.04	34.099
526.38	35.057
526.72	34.371
527.06	35.191
527.41	34.752
527.75	35.867
528.09	35.006
528.43	34.517
528.78	34.451
529.12	33.945
529.46	34.458
529.80	34.954
530.15	34.493
530.49	34.579
530.83	34.179
531.17	34.946
531.51	35.138
531.86	34.435
532.20	34.634
532.54	34.291
532.88	35.939
533.22	34.473
533.57	34.680
533.91	34.400
534.25	33.861
534.59	34.368
534.93	33.729
535.27	34.930
535.62	35.247
535.96	34.863
536.30	33.255
536.64	35.075
536.98	34.994
537.32	34.630
537.66	34.560
538.01	33.172
538.35	33.618
538.69	34.675
539.03	35.132
539.37	34.452
539.71	35.856
540.05	34.293
540.39	34.046
540.73	34.062
541.07	34.273
541.42	34.082
541.76	33.155
542.10	33.957
542.44	34.592
542.78	34.672
543.12	33.909
543.46	34.371
543.80	33.213
544.14	32.974
544.48	34.515
544.82	35.847
545.16	33.930
545.50	33.733
545.84	33.190
546.18	35.679
546.52	33.057
546.86	34.088
547.20	33.969
547.54	33.645
547.88	33.333
548.22	33.977
548.56	33.294
548.90	33.134
549.24	34.772
549.58	34.196
549.92	35.013
550.26	33.657
550.60	34.780
550.94	34.864
551.28	34.521
551.62	34.906
551.96	33.269
552.30	34.544
552.64	34.287
552.98	33.188
553.32	33.891
553.66	34.469
554.00	34.426
554.34	33.912
554.68	33.699
555.02	32.720
555.36	34.845
555.69	32.223
556.03	33.859
556.37	33.229
556.71	33.862
557.05	34.441
557.39	33.709
557.73	33.950
558.07	33.576
558.41	34.817
558.75	33.739
559.08	34.725
559.42	33.333
559.76	33.786
560.10	33.356
560.44	34.235
560.78	33.500
561.12	33.805
561.45	32.482
561.79	33.272
562.13	34.874
562.47	32.121
562.81	33.671
563.15	33.838
563.48	34.183
563.82	33.011
564.16	32.889
564.50	32.181
564.84	31.976
565.17	33.235
565.51	31.933
565.85	31.651
566.19	33.871
566.52	32.709
566.86	32.258
567.20	31.485
567.54	32.501
567.88	32.161
568.21	31.423
568.55	31.799
568.89	32.002
569.23	30.756
569.56	30.012
569.90	30.470
570.24	30.118
570.57	30.468
570.91	29.547
571.25	30.113
571.59	29.641
571.92	28.918
572.26	29.645
572.60	29.539
572.93	30.253
573.27	29.475
573.61	29.116
573.95	28.963
574.28	28.451
574.62	28.422
574.96	28.055
575.29	28.266
575.63	28.505
575.97	28.647
576.30	28.399
576.64	28.490
576.98	28.747
577.31	28.647
577.65	28.787
577.98	27.654
578.32	28.020
578.66	27.704
578.99	27.504
579.33	28.635
579.67	27.856
580.00	27.602
580.34	28.360
580.67	27.714
581.01	28.429
581.35	28.229
581.68	27.631
582.02	27.394
582.35	27.688
582.69	27.763
583.02	28.088
583.36	27.768
583.70	27.948
584.03	28.174
584.37	28.289
584.70	27.873
585.04	27.924
585.37	27.618
585.71	27.659
586.04	27.719
586.38	27.994
586.72	27.501
587.05	27.756
587.39	27.923
587.72	28.062
588.06	28.312
588.39	27.558
588.73	28.228
589.06	27.878
589.40	27.873
589.73	27.988
590.07	28.747
590.40	28.905
590.73	28.597
591.07	29.077
591.40	28.460
591.74	28.060
592.07	28.745
592.41	28.155
592.74	27.902
593.08	27.994
593.41	27.938
593.75	27.759
594.08	27.901
594.41	27.756
594.75	27.964
595.08	27.793
595.42	27.857
595.75	28.415
596.09	27.347
596.42	28.019
596.75	28.483
597.09	29.576
597.42	28.407
597.75	28.303
598.09	28.532
598.42	29.071
598.76	27.780
599.09	27.269
599.42	27.556
599.76	27.171
600.09	27.461
600.42	28.028
600.76	27.543
601.09	27.746
601.42	27.291
601.76	27.586
602.09	27.341
602.42	27.626
602.76	27.934
603.09	28.157
603.42	28.035
603.76	27.343
604.09	28.176
604.42	28.147
604.76	26.712
605.09	27.962
605.42	27.512
605.75	26.846
606.09	27.361
606.42	27.034
606.75	27.174
607.09	26.997
607.42	27.514
607.75	27.472
608.08	26.953
608.42	27.690
608.75	27.861
609.08	26.868
609.41	27.658
609.75	27.946
610.08	27.529
610.41	27.358
610.74	26.933
611.07	27.487
611.41	27.758
611.74	28.637
612.07	27.396
612.40	27.519
612.73	27.482
613.07	27.628
613.40	27.238
613.73	27.925
614.06	27.723
614.39	27.308
614.72	26.735
615.06	26.708
615.39	26.583
615.72	27.109
616.05	27.149
616.38	27.750
616.71	27.900
617.05	27.103
617.38	28.250
617.71	27.430
618.04	26.983
618.37	28.361
618.70	28.111
619.03	27.658
619.36	28.422
619.69	27.482
620.03	27.495
620.36	27.853
620.69	27.576
621.02	28.478
621.35	29.536
621.68	28.778
622.01	28.541
622.34	28.312
622.67	28.110
623.00	26.788
623.33	28.069
623.66	28.988
623.99	28.045
624.32	27.940
624.65	26.705
624.99	28.088
625.32	28.282
625.65	29.198
625.98	27.458
626.31	28.065
626.64	28.718
626.97	27.682
627.30	27.259
627.63	27.907
627.96	28.679
628.29	29.105
628.62	27.540
628.95	29.360
629.28	28.547
629.61	29.293
629.94	28.201
630.26	27.119
630.59	27.634
630.92	29.091
631.25	29.606
631.58	29.755
631.91	29.428
632.24	29.395
632.57	29.507
632.90	29.188
633.23	28.776
633.56	29.082
633.89	28.099
634.22	30.665
634.55	29.958
634.88	30.195
635.20	30.678
635.53	29.153
635.86	28.602
636.19	30.541
636.52	29.641
636.85	28.907
637.18	28.898
637.51	28.817
637.83	29.125
638.16	30.415
638.49	29.343
638.82	28.523
639.15	27.950
639.48	28.753
639.81	29.330
640.13	30.035
640.46	28.121
640.79	27.328
641.12	30.559
641.45	30.238
641.77	33.119
642.10	29.790
642.43	30.186
642.76	29.268
643.09	30.548
643.41	30.812
643.74	28.138
644.07	31.586
644.40	29.279
644.73	31.205
645.05	28.341
645.38	30.647
645.71	28.886
646.04	31.133
646.36	28.175
646.69	30.061
647.02	29.664
647.35	31.450
647.67	29.469
648.00	31.369
648.33	31.381
648.66	29.529
648.98	27.891
649.31	28.417
649.64	29.482
649.96	28.647
650.29	27.121
650.62	28.854
650.94	27.778
651.27	29.641
651.60	25.585
651.92	30.547
652.25	30.391
652.58	28.198
652.90	28.488
653.23	29.296
653.56	26.534
653.88	30.758
654.21	27.183
654.54	28.035
654.86	27.620
655.19	25.972
655.52	25.459
655.84	21.443
656.17	24.701
656.49	35.090
656.82	38.856
657.15	30.759
657.47	23.577
657.80	17.447
658.13	13.773
658.45	18.198
658.78	22.583
659.10	22.365
659.43	22.113
659.75	22.173
660.08	23.193
660.41	24.648
660.73	25.086
661.06	26.432
661.38	26.794
661.71	29.483
662.03	27.337
662.36	30.411
662.68	29.268
663.01	29.381
663.33	27.599
663.66	31.319
663.98	29.231
664.31	29.081
664.63	28.709
664.96	28.494
665.28	29.583
665.61	27.972
665.93	28.750
666.26	27.778
666.58	28.044
666.91	28.785
667.23	30.667
667.56	27.613
667.88	29.800
668.21	29.297
668.53	25.869
668.86	30.059
669.18	26.680
669.50	29.225
669.83	27.200
670.15	26.772
670.48	29.167
670.80	24.857
671.13	27.599
671.45	26.181
671.77	28.437
672.10	26.500
672.42	26.052
672.75	25.499
673.07	24.478
673.39	24.807
673.72	28.691
674.04	27.931
674.37	29.159
674.69	26.279
675.01	24.762
675.34	25.763
675.66	27.154
675.98	27.425
676.31	27.344
676.63	29.848
676.95	28.352
677.28	27.016
677.60	25.787
677.92	25.144
678.25	28.154
678.57	26.335
678.89	28.328
679.22	22.997
679.54	21.538
679.86	24.576
680.18	25.373
680.51	24.371
680.83	26.514
681.15	22.931
681.48	27.116
681.80	26.943
682.12	23.951
682.44	26.711
682.77	24.113
683.09	27.083
683.41	25.000
683.73	25.996
684.06	25.646
684.38	26.655
684.70	25.135
685.02	25.990
685.34	25.125
685.67	22.555
685.99	23.466
686.31	23.837
686.63	23.223
686.96	25.237
687.28	24.104
687.60	22.559
687.92	21.704
688.24	24.541
688.56	22.241
688.89	27.223
689.21	25.832
689.53	22.941
689.85	25.641
690.17	23.333
690.49	25.100
690.82	26.931
691.14	24.089
691.46	25.813
691.78	24.494
692.10	23.486
692.42	24.643
692.74	22.505
693.06	21.852
693.39	22.201
693.71	23.684
694.03	23.792
694.35	23.619
694.67	24.230
694.99	23.830
695.31	25.386
695.63	24.242
695.95	22.981
696.27	23.956
696.59	27.876
696.91	24.550
697.23	25.275
697.56	23.422
697.88	23.295
698.20	22.787
698.52	25.947
698.84	23.285
699.16	27.551
699.48	21.967
699.80	23.191
700.12	24.236
700.44	23.041
700.76	23.278
701.08	27.119
701.40	27.979
701.72	23.383
702.04	25.668
702.36	23.822
702.68	21.516
703.00	24.694
703.32	21.921
703.64	26.406
703.96	26.014
704.28	21.867
704.60	25.063
704.91	25.255
705.23	24.658
705.55	22.563
705.87	25.758
706.19	25.767
706.51	19.880
706.83	23.055
707.15	20.899
707.47	20.561
707.79	22.926
708.11	18.220
708.43	22.796
708.74	18.973
709.06	21.810
709.38	23.474
709.70	23.821
710.02	24.289
710.34	25.000
710.66	21.229
710.98	22.404
711.29	20.879
711.61	22.034
711.93	21.368
712.25	22.162
712.57	23.009
712.89	27.353
713.20	23.373
713.52	23.410
713.84	25.070
714.16	23.421
714.48	21.649
714.80	24.156
715.11	21.260
715.43	20.690
715.75	22.105
716.07	22.099
716.39	24.044
716.70	21.084
717.02	22.295
717.34	21.951
717.66	25.503
717.97	20.548
718.29	22.680
718.61	20.066
718.93	20.712
719.24	21.429
719.56	21.472
719.88	18.919
720.20	24.194
720.51	18.944
720.83	23.125
721.15	22.368
721.46	21.918
721.78	23.667
722.10	21.683
722.42	20.805
722.73	21.935
723.05	23.158
723.37	19.792
723.68	24.373
724.00	21.661
724.32	19.014
724.63	20.280
724.95	24.113
725.27	20.906
725.58	21.555
725.90	25.517
726.22	18.182
726.53	20.130
726.85	22.327
727.16	22.054
727.48	22.936
727.80	19.205
728.11	14.488
728.43	19.192
728.74	18.060
729.06	18.543
729.38	16.234
729.69	20.134
730.01	19.345
730.32	15.758
730.64	20.755
730.96	20.497
731.27	20.950
731.59	20.604
731.90	16.364
732.22	18.750
732.53	15.193
732.85	20.571
733.16	17.889
733.48	17.683
733.80	19.220
734.11	19.943
734.43	16.486
734.74	22.278
735.06	19.849
735.37	20.000
735.69	17.568
736.00	22.316
736.32	21.024
736.63	19.167
736.95	17.529
737.26	20.909
737.58	18.485
737.89	17.647
738.21	17.125
738.52	20.000
738.83	24.232
739.15	17.376
739.46	16.327
739.78	19.939
740.09	18.052
740.41	21.283
740.72	20.667
741.04	17.152
741.35	22.105
741.66	16.471
741.98	18.443
742.29	17.992
742.61	18.860
742.92	18.846
743.23	23.827
743.55	17.054
743.86	20.000
744.18	14.876
744.49	16.034
744.80	16.461
745.12	21.097
745.43	21.951
745.74	15.086
746.06	20.339
746.37	20.253
746.68	19.106
747.00	16.667
747.31	21.888
747.62	21.538
747.94	17.814
748.25	18.474
748.56	17.143
748.88	20.940
749.19	22.845
749.50	15.152
749.82	20.482
750.13	23.843
750.44	17.667
750.75	18.769
751.07	21.231
751.38	16.719
751.69	15.974
752.01	18.123
752.32	18.301
752.63	15.646
752.94	15.917
753.26	15.613
753.57	16.667
753.88	17.603
754.19	19.293
754.51	17.363
754.82	17.685
755.13	21.311
755.44	17.747
755.75	20.395
756.07	20.299
756.38	18.239
756.69	22.289
757.00	15.512
757.31	19.945
757.63	16.368
757.94	17.840
758.25	16.253
758.56	14.815
758.87	19.318
759.18	16.267
759.50	21.530
759.81	18.207
760.12	15.903
760.43	17.708
760.74	18.966
761.05	19.000
761.36	16.867
761.67	18.782
761.99	16.757
762.30	14.329
762.61	16.172
762.92	18.657
763.23	21.723
763.54	19.424
763.85	10.997
764.16	16.498
764.47	16.901
764.78	19.169
765.10	16.129
765.41	19.231
765.72	17.725
766.03	17.797
766.34	16.301
766.65	14.983
766.96	17.131
767.27	18.433
767.58	16.915
767.89	20.673
768.20	20.188
768.51	16.204
768.82	14.056
769.13	18.182
769.44	12.692
769.75	19.134
770.06	17.692
770.37	20.866
770.68	12.766
770.99	10.526
771.30	21.852
771.61	19.011
771.92	15.185
772.23	20.648
772.54	14.352
772.85	23.502
773.16	23.333
773.47	12.169
773.78	12.973
774.09	17.045
774.39	26.500
774.70	20.765
775.01	20.732
775.32	18.824
775.63	21.472
775.94	14.650
776.25	20.645
776.56	26.282
776.87	24.490
777.18	13.103
777.48	16.084
777.79	17.568
778.10	9.559
778.41	20.833
778.72	20.690
779.03	17.901
779.34	13.333
779.65	17.098
779.95	23.333
780.26	15.341
780.57	19.355
780.88	23.188
781.19	21.935
781.50	27.059
781.80	16.129
782.11	16.931
782.42	14.646
782.73	11.976
783.04	16.201
783.34	13.333
783.65	18.301
783.96	11.180
784.27	14.881
784.57	16.556
784.88	10.000
785.19	14.173
785.50	17.323
785.81	18.797
786.11	28.462
786.42	10.072
786.73	12.950
787.04	24.060
787.34	16.393
787.65	17.600
787.96	14.179
788.26	23.776
788.57	17.483
788.88	20.395
789.19	25.490
789.49	13.699
789.80	13.475
790.11	18.898
790.41	15.625
790.72	18.644
791.03	10.680
791.33	16.522
791.64	20.175
791.95	13.393
792.25	3.810
792.56	12.500
792.87	7.292
793.17	15.179
793.48	10.417
793.79	9.639
794.09	9.174
794.40	11.009
794.70	12.925
795.01	11.688
795.32	13.014
795.62	24.648
795.93	16.667
796.23	8.197
796.54	10.714
796.85	23.404
797.15	17.391
797.46	8.219
797.76	16.250
798.07	16.304
798.37	13.402
798.68	2.597
798.99	20.690
799.29	20.225
799.60	18.085
799.90	20.482
800.21	6.154
800.51	5.970
800.82	-2.941
801.12	-10.959
801.43	7.353
801.73	0.000
802.04	16.667
802.34	5.000
802.65	11.864
802.95	25.373
803.26	18.644
803.56	4.110
803.87	14.286
804.17	17.808
804.48	-15.789
804.78	15.278
805.09	0.000
805.39	22.973
805.70	-5.634
806.00	12.195
806.30	14.458
806.61	13.699
806.91	9.615
807.22	14.444
807.52	0.000
807.83	19.444
808.13	24.096
808.43	10.112
808.74	12.500
809.04	2.941
809.35	10.667
809.65	21.429
809.95	15.068
810.26	-5.263
810.56	8.621
810.86	11.765
811.17	10.526
811.47	-1.639
811.77	-20.000
812.08	5.085
812.38	13.333
812.69	18.966
812.99	-11.321
813.29	-5.128
813.59	6.000
813.90	17.544
814.20	3.636
814.50	26.761
814.81	21.795
815.11	8.197
815.41	10.448
815.72	27.586
816.02	7.143
816.32	15.556
816.62	25.000
816.93	-11.111
817.23	22.222
817.53	8.511
817.84	26.190
818.14	8.824
818.44	14.286
818.74	8.889
819.04	-7.692
819.35	-14.286
819.65	-34.615
819.95	0.000
820.25	17.778
820.56	-28.571
820.86	21.875
821.16	-20.513
821.46	16.279
821.76	-12.000
822.07	25.000
822.37	13.043
822.67	-2.128
822.97	0.000
823.27	10.000
823.57	18.367
823.88	28.889
824.18	15.000
824.48	3.333
824.78	-4.000
825.08	18.182
825.38	11.111
825.69	10.638
825.99	16.667
826.29	-34.286
826.59	2.564
826.89	4.651
827.19	0.000
827.49	14.706
827.79	2.083
828.09	-27.027
828.39	10.000
828.70	7.317
829.00	4.651
829.30	0.000
829.60	5.882
829.90	15.217
830.20	-14.286
830.50	-3.448
830.80	38.889
831.10	38.462
831.40	8.824
831.70	-38.095
832.00	16.129
832.30	-70.588
832.60	-4.167
832.90	-7.692
833.20	-5.263
833.50	-35.000
833.80	-31.579
834.10	-61.905
834.40	33.333
834.70	12.500
835.00	2.857
835.30	41.176
835.60	3.333
835.90	-12.000
836.20	-45.455
836.50	-16.000
836.80	9.091
837.10	-22.222
837.40	7.407
837.70	-6.250
838.00	21.429
838.30	-4.348
838.60	27.586
838.90	28.571
839.19	-47.826
839.49	-58.333
839.79	30.435
840.09	-6.250
840.39	5.000
840.69	35.484
840.99	-3.571
841.29	6.667
841.59	52.632
841.88	35.897
842.18	-19.231
842.48	-70.000
842.78	15.000
843.08	26.667
843.38	16.129
843.68	-66.667
843.97	14.706
844.27	6.250
844.57	-26.316
844.87	-120.000
845.17	-33.333
845.47	23.810
845.76	0.000
846.06	-111.111
846.36	0.000
846.66	26.923
846.96	-113.333
847.25	-35.294
847.55	17.391
847.85	-30.000
848.15	-23.529
848.44	9.091
848.74	23.810
849.04	-20.833
849.34	-18.750
849.63	4.348
849.93	600.000
850.23	40.000
850.53	34.615
850.82	-9.091
851.12	9.091
851.42	-72.727
851.71	-30.769
852.01	10.000
852.31	7.692
852.61	5.263
852.90	-8.333
853.20	44.444
853.50	11.111
853.79	-9.524
854.09	36.364
854.39	-108.333
854.68	22.581
854.98	-3.846
855.28	5.556
855.57	3.571
855.87	20.000
856.17	0.000
856.46	29.630
856.76	5.556
857.05	-17.391
857.35	-25.000
857.65	-100.000
857.94	-19.048
858.24	-7.407
858.53	-4.348
858.83	0.000
859.13	17.647
859.42	0.000
859.72	78.571
860.01	-30.000
860.31	-55.556
860.60	20.000
860.90	-40.000
861.20	55.556
861.49	15.385
861.79	-6.667
862.08	-23.077
862.38	3.125
862.67	-23.529
862.97	0.000
863.26	-133.333
863.56	-10.000
863.85	-9.091
864.15	27.778
864.44	-200.000
864.74	14.286
865.03	-18.750
865.33	-60.000
865.62	-6.452
865.92	9.091
866.21	17.391
866.51	14.286
866.80	-40.000
867.10	-66.667
867.39	-41.667
867.69	1200.000
867.98	42.857
868.27	35.294
868.57	-900.000
868.86	-150.000
869.16	19.048
869.45	20.833
869.75	54.545
870.04	-85.714
870.33	25.000
870.63	-128.571
870.92	-175.000
871.22	-100.000
871.51	-9.091
871.80	-133.333
872.10	-650.000
>>>>>End Processed Spectral Data<<<<<
