SpectraSuite Data File
++++++++++++++++++++++++++++++++++++
Date: Thu May 14 16:39:24 PDT 2015
User: schluterlab
Dark Spectrum Present: Yes
Reference Spectrum Present: Yes
Number of Sampled Component Spectra: 1
Spectrometers: USB2E3373
Integration Time (usec): 3000 (USB2E3373)
Spectra Averaged: 3 (USB2E3373)
Boxcar Smoothing: 0 (USB2E3373)
Correct for Electrical Dark: No (USB2E3373)
Strobe/Lamp Enabled: No (USB2E3373)
Correct for Detector Non-linearity: No (USB2E3373)
Correct for Stray Light: No (USB2E3373)
Number of Pixels in Processed Spectrum: 2048
>>>>>Begin Processed Spectral Data<<<<<
178.53	0.000
178.91	-0.000
179.29	-1000.000
179.67	-900.000
180.04	142.857
180.42	70.000
180.80	-60.000
181.18	300.000
181.56	700.000
181.94	100.000
182.31	-200.000
182.69	100.000
183.07	400.000
183.45	100.000
183.83	83.333
184.20	133.333
184.58	300.000
184.96	-150.000
185.34	22.222
185.72	-120.000
186.09	177.778
186.47	600.000
186.85	100.000
187.23	-77.778
187.61	-1000.000
187.98	-100.000
188.36	150.000
188.74	-250.000
189.12	266.667
189.49	43.750
189.87	-75.000
190.25	44.444
190.63	80.000
191.00	-155.556
191.38	0.000
191.76	-150.000
192.14	0.000
192.51	-100.000
192.89	33.333
193.27	0.000
193.65	-14.286
194.02	-1600.000
194.40	-14.286
194.78	157.143
195.15	0.000
195.53	-18.182
195.91	0.000
196.29	200.000
196.66	-30.769
197.04	-1500.000
197.42	-85.714
197.79	-550.000
198.17	-50.000
198.55	0.000
198.92	44.444
199.30	-162.500
199.68	27.273
200.05	28.571
200.43	-400.000
200.81	114.286
201.18	0.000
201.56	122.222
201.94	0.000
202.31	133.333
202.69	-66.667
203.07	-900.000
203.44	0.000
203.82	175.000
204.19	-25.000
204.57	-33.333
204.95	37.500
205.32	-100.000
205.70	25.000
206.08	16.667
206.45	-66.667
206.83	180.000
207.20	-66.667
207.58	-200.000
207.96	-33.333
208.33	16.667
208.71	50.000
209.08	66.667
209.46	0.000
209.84	200.000
210.21	-0.000
210.59	600.000
210.96	400.000
211.34	125.000
211.71	-50.000
212.09	-200.000
212.46	0.000
212.84	350.000
213.22	-140.000
213.59	-75.000
213.97	-30.000
214.34	200.000
214.72	-150.000
215.09	25.000
215.47	0.000
215.84	28.571
216.22	300.000
216.59	-140.000
216.97	20.000
217.34	25.000
217.72	-25.000
218.09	-150.000
218.47	-100.000
218.84	0.000
219.22	-0.000
219.59	29.412
219.97	55.000
220.34	100.000
220.72	11.111
221.09	46.154
221.47	66.667
221.84	-30.000
222.22	-42.857
222.59	0.000
222.97	12.500
223.34	-200.000
223.72	-700.000
224.09	25.000
224.46	-100.000
224.84	0.000
225.21	-42.857
225.59	-200.000
225.96	-150.000
226.34	19.231
226.71	66.667
227.08	0.000
227.46	13.333
227.83	-175.000
228.21	0.000
228.58	75.000
228.95	50.000
229.33	-58.333
229.70	70.000
230.08	68.421
230.45	90.000
230.82	-33.333
231.20	-7.143
231.57	25.000
231.95	-36.364
232.32	118.182
232.69	-15.000
233.07	-25.000
233.44	-17.647
233.81	-100.000
234.19	38.889
234.56	27.273
234.93	41.379
235.31	73.684
235.68	16.667
236.05	15.000
236.43	38.462
236.80	92.000
237.17	25.926
237.55	39.394
237.92	50.000
238.29	35.484
238.67	25.000
239.04	30.556
239.41	16.667
239.79	34.783
240.16	29.630
240.53	15.217
240.91	29.412
241.28	22.951
241.65	49.254
242.02	39.189
242.40	49.231
242.77	32.000
243.14	26.829
243.51	19.737
243.89	17.949
244.26	38.614
244.63	48.039
245.00	36.449
245.38	33.333
245.75	28.319
246.12	38.095
246.49	30.233
246.87	40.000
247.24	39.735
247.61	36.184
247.98	30.872
248.36	29.630
248.73	37.423
249.10	32.240
249.47	37.811
249.84	43.979
250.22	33.679
250.59	40.556
250.96	40.455
251.33	32.143
251.70	32.906
252.08	34.167
252.45	31.967
252.82	33.471
253.19	31.641
253.56	37.643
253.94	30.769
254.31	37.121
254.68	39.161
255.05	35.179
255.42	30.272
255.79	33.010
256.16	35.762
256.54	35.099
256.91	36.066
257.28	30.820
257.65	35.350
258.02	35.398
258.39	33.048
258.76	40.061
259.14	37.644
259.51	34.870
259.88	34.278
260.25	36.944
260.62	35.616
260.99	39.617
261.36	37.265
261.73	35.013
262.10	39.011
262.47	38.070
262.85	37.879
263.22	32.987
263.59	33.947
263.96	32.737
264.33	38.107
264.70	34.568
265.07	36.993
265.44	38.095
265.81	37.269
266.18	37.188
266.55	38.616
266.92	40.091
267.29	40.044
267.66	38.581
268.03	37.555
268.40	35.282
268.77	35.991
269.14	34.802
269.51	35.307
269.88	36.475
270.25	36.620
270.62	37.553
270.99	38.384
271.36	36.832
271.73	38.114
272.10	37.475
272.47	34.870
272.84	34.337
273.21	35.271
273.58	34.879
273.95	35.385
274.32	35.932
274.69	34.236
275.06	35.897
275.43	33.826
275.80	35.626
276.17	31.296
276.54	36.381
276.91	33.274
277.28	36.166
277.65	34.650
278.02	34.007
278.39	33.696
278.76	35.149
279.13	32.801
279.50	35.052
279.87	35.957
280.23	34.155
280.60	35.593
280.97	33.717
281.34	35.484
281.71	34.518
282.08	32.890
282.45	32.897
282.82	31.083
283.19	34.087
283.56	32.623
283.92	33.634
284.29	34.123
284.66	33.169
285.03	31.571
285.40	33.539
285.77	32.817
286.14	34.809
286.51	35.160
286.87	31.912
287.24	32.380
287.61	33.931
287.98	33.082
288.35	34.320
288.72	32.249
289.08	33.089
289.45	30.030
289.82	30.422
290.19	31.034
290.56	32.254
290.93	33.381
291.29	32.231
291.66	29.201
292.03	29.308
292.40	31.020
292.77	29.111
293.13	28.552
293.50	27.858
293.87	28.322
294.24	31.200
294.60	28.066
294.97	27.919
295.34	31.242
295.71	28.247
296.08	27.649
296.44	26.593
296.81	28.258
297.18	28.394
297.55	26.651
297.91	26.928
298.28	25.829
298.65	27.705
299.02	26.919
299.38	25.858
299.75	27.453
300.12	26.389
300.48	26.498
300.85	27.447
301.22	26.510
301.59	26.598
301.95	25.424
302.32	26.667
302.69	25.192
303.05	27.530
303.42	27.273
303.79	25.104
304.15	25.973
304.52	24.841
304.89	25.759
305.25	24.948
305.62	25.705
305.99	25.155
306.35	25.302
306.72	26.784
307.09	25.178
307.45	25.155
307.82	26.438
308.19	25.227
308.55	26.712
308.92	25.901
309.29	26.724
309.65	25.439
310.02	24.851
310.38	24.606
310.75	26.019
311.12	25.216
311.48	25.806
311.85	26.496
312.22	25.522
312.58	26.854
312.95	26.577
313.31	26.829
313.68	26.190
314.05	26.016
314.41	27.231
314.78	26.975
315.14	27.677
315.51	27.886
315.87	27.003
316.24	29.132
316.61	28.064
316.97	28.416
317.34	28.395
317.70	30.393
318.07	30.600
318.43	28.997
318.80	29.682
319.16	28.927
319.53	28.620
319.89	30.675
320.26	30.071
320.62	30.408
320.99	30.379
321.35	31.238
321.72	30.791
322.08	30.929
322.45	32.249
322.81	33.845
323.18	33.274
323.54	33.707
323.91	34.253
324.27	33.907
324.64	33.417
325.00	34.080
325.37	34.562
325.73	33.967
326.10	37.632
326.46	36.482
326.83	37.230
327.19	36.693
327.56	38.182
327.92	37.530
328.29	38.306
328.65	38.023
329.01	39.255
329.38	40.270
329.74	39.298
330.11	39.983
330.47	39.006
330.84	38.846
331.20	40.750
331.56	40.035
331.93	40.586
332.29	41.271
332.66	40.864
333.02	40.201
333.38	42.030
333.75	40.909
334.11	40.117
334.48	38.944
334.84	41.461
335.20	41.310
335.57	40.472
335.93	42.562
336.29	41.015
336.66	40.706
337.02	42.391
337.38	40.986
337.75	42.066
338.11	41.716
338.47	40.447
338.84	42.470
339.20	41.449
339.56	41.516
339.93	40.805
340.29	41.787
340.65	41.606
341.02	41.341
341.38	41.229
341.74	41.404
342.11	42.397
342.47	40.747
342.83	42.593
343.20	42.273
343.56	41.700
343.92	42.754
344.28	41.641
344.65	42.093
345.01	41.498
345.37	42.302
345.73	42.245
346.10	42.512
346.46	42.405
346.82	42.397
347.19	42.399
347.55	43.171
347.91	42.199
348.27	42.033
348.63	42.650
349.00	42.282
349.36	41.933
349.72	42.560
350.08	42.719
350.45	41.597
350.81	42.760
351.17	43.083
351.53	44.124
351.89	42.976
352.26	42.687
352.62	42.836
352.98	43.969
353.34	42.420
353.70	44.222
354.07	43.666
354.43	43.964
354.79	42.932
355.15	43.782
355.51	43.860
355.87	42.109
356.24	43.194
356.60	42.350
356.96	42.105
357.32	42.677
357.68	43.631
358.04	42.740
358.40	43.507
358.77	42.471
359.13	43.353
359.49	42.454
359.85	42.930
360.21	43.400
360.57	42.498
360.93	43.159
361.29	44.772
361.66	43.881
362.02	44.676
362.38	43.921
362.74	44.204
363.10	44.292
363.46	45.083
363.82	44.105
364.18	45.109
364.54	44.260
364.90	45.351
365.26	44.414
365.62	45.000
365.98	43.975
366.35	44.966
366.71	45.918
367.07	44.114
367.43	44.649
367.79	45.521
368.15	44.415
368.51	45.602
368.87	45.460
369.23	45.000
369.59	46.038
369.95	47.059
370.31	47.400
370.67	46.768
371.03	45.568
371.39	45.937
371.75	46.561
372.11	46.680
372.47	45.295
372.83	47.251
373.19	44.696
373.55	46.951
373.91	45.671
374.27	46.313
374.63	45.535
374.99	46.485
375.35	46.494
375.71	45.484
376.07	46.223
376.42	46.411
376.78	47.359
377.14	47.037
377.50	47.818
377.86	47.537
378.22	47.485
378.58	47.681
378.94	47.653
379.30	47.686
379.66	49.148
380.02	48.009
380.38	49.136
380.74	47.662
381.09	46.922
381.45	47.500
381.81	49.824
382.17	48.515
382.53	47.602
382.89	48.646
383.25	47.948
383.61	49.248
383.97	48.351
384.32	49.581
384.68	49.188
385.04	48.930
385.40	49.794
385.76	50.645
386.12	48.893
386.48	49.118
386.83	50.119
387.19	49.652
387.55	48.063
387.91	49.772
388.27	51.155
388.62	48.339
388.98	48.731
389.34	50.265
389.70	50.320
390.06	50.562
390.42	49.639
390.77	50.692
391.13	49.178
391.49	50.302
391.85	50.182
392.20	51.779
392.56	51.447
392.92	50.600
393.28	51.852
393.64	49.832
393.99	50.959
394.35	52.103
394.71	51.497
395.07	51.018
395.42	50.543
395.78	52.468
396.14	51.337
396.50	51.900
396.85	51.580
397.21	50.828
397.57	53.416
397.92	52.405
398.28	51.222
398.64	50.515
399.00	50.419
399.35	50.419
399.71	51.304
400.07	52.162
400.42	52.561
400.78	51.910
401.14	50.655
401.49	52.644
401.85	52.093
402.21	53.187
402.57	52.876
402.92	52.719
403.28	51.112
403.63	52.745
403.99	50.238
404.35	51.848
404.70	52.578
405.06	52.337
405.42	51.874
405.77	53.653
406.13	51.918
406.49	53.153
406.84	52.022
407.20	52.264
407.55	53.180
407.91	54.180
408.27	52.886
408.62	53.869
408.98	51.886
409.34	53.431
409.69	54.141
410.05	54.162
410.40	54.292
410.76	52.888
411.11	53.185
411.47	53.256
411.83	54.556
412.18	54.578
412.54	53.586
412.89	54.773
413.25	53.217
413.60	52.843
413.96	52.914
414.31	52.805
414.67	54.085
415.03	54.462
415.38	53.720
415.74	54.246
416.09	55.213
416.45	53.663
416.80	54.223
417.16	53.512
417.51	53.549
417.87	54.506
418.22	54.491
418.58	54.957
418.93	54.773
419.29	55.795
419.64	54.262
420.00	54.777
420.35	55.138
420.71	56.117
421.06	54.859
421.42	55.677
421.77	54.712
422.12	54.757
422.48	55.556
422.83	55.915
423.19	55.862
423.54	56.029
423.90	54.611
424.25	56.373
424.61	56.487
424.96	56.068
425.31	56.104
425.67	54.697
426.02	56.502
426.38	56.774
426.73	55.357
427.09	58.766
427.44	55.871
427.79	56.661
428.15	56.050
428.50	56.517
428.85	56.372
429.21	56.755
429.56	55.676
429.92	55.479
430.27	55.904
430.62	56.033
430.98	57.403
431.33	56.061
431.68	55.843
432.04	56.882
432.39	58.222
432.74	55.822
433.10	57.166
433.45	58.194
433.80	57.242
434.16	57.696
434.51	57.091
434.86	58.415
435.22	58.555
435.57	58.491
435.92	57.262
436.28	57.907
436.63	58.329
436.98	57.542
437.34	58.343
437.69	58.723
438.04	58.593
438.39	58.300
438.75	58.605
439.10	59.355
439.45	58.524
439.81	57.345
440.16	57.158
440.51	58.974
440.86	57.532
441.22	58.467
441.57	59.067
441.92	57.565
442.27	58.939
442.63	58.818
442.98	58.858
443.33	58.496
443.68	58.325
444.03	60.019
444.39	59.639
444.74	59.469
445.09	59.047
445.44	59.852
445.79	59.914
446.15	59.404
446.50	58.811
446.85	59.339
447.20	58.511
447.55	58.891
447.91	58.691
448.26	59.355
448.61	59.936
448.96	60.837
449.31	59.120
449.66	58.279
450.02	58.966
450.37	59.243
450.72	59.688
451.07	59.510
451.42	59.734
451.77	58.477
452.12	60.102
452.47	59.358
452.83	62.050
453.18	59.953
453.53	59.621
453.88	60.353
454.23	59.661
454.58	59.141
454.93	59.102
455.28	59.542
455.63	59.977
455.98	59.330
456.34	59.953
456.69	59.259
457.04	60.461
457.39	59.479
457.74	60.459
458.09	59.802
458.44	59.860
458.79	57.762
459.14	59.465
459.49	60.555
459.84	59.601
460.19	58.856
460.54	60.931
460.89	60.244
461.24	59.655
461.59	59.768
461.94	57.901
462.29	60.414
462.64	58.600
462.99	59.636
463.34	60.545
463.69	58.558
464.04	59.811
464.39	60.090
464.74	58.780
465.09	59.285
465.44	60.139
465.79	59.228
466.14	58.572
466.49	58.526
466.84	60.496
467.19	59.075
467.54	58.519
467.89	58.448
468.24	58.947
468.59	59.178
468.94	58.275
469.29	59.388
469.64	58.551
469.99	59.401
470.34	59.406
470.68	61.176
471.03	61.690
471.38	60.759
471.73	59.688
472.08	59.772
472.43	58.880
472.78	59.572
473.13	59.671
473.48	58.792
473.83	59.837
474.17	59.086
474.52	60.613
474.87	57.973
475.22	59.268
475.57	57.944
475.92	57.690
476.27	58.999
476.61	58.671
476.96	59.228
477.31	58.465
477.66	60.231
478.01	59.329
478.36	57.527
478.70	58.966
479.05	60.583
479.40	59.181
479.75	59.366
480.10	59.877
480.45	59.070
480.79	57.642
481.14	59.007
481.49	58.928
481.84	59.791
482.19	58.409
482.53	58.679
482.88	59.548
483.23	59.271
483.58	58.515
483.92	57.624
484.27	58.679
484.62	58.333
484.97	58.243
485.31	57.621
485.66	54.523
486.01	53.961
486.36	55.503
486.70	56.776
487.05	58.617
487.40	58.625
487.75	59.364
488.09	59.707
488.44	57.830
488.79	59.393
489.13	59.088
489.48	58.951
489.83	58.229
490.17	57.878
490.52	57.020
490.87	58.841
491.22	59.315
491.56	58.404
491.91	58.613
492.26	58.330
492.60	58.330
492.95	58.491
493.30	57.866
493.64	57.994
493.99	58.684
494.34	57.578
494.68	57.816
495.03	58.370
495.37	58.722
495.72	58.549
496.07	58.370
496.41	57.829
496.76	58.924
497.11	58.301
497.45	57.877
497.80	57.441
498.14	57.732
498.49	58.915
498.84	58.592
499.18	57.805
499.53	57.309
499.87	57.582
500.22	57.257
500.56	58.210
500.91	57.941
501.26	58.318
501.60	57.313
501.95	56.665
502.29	56.999
502.64	57.980
502.98	56.342
503.33	57.451
503.67	57.130
504.02	57.312
504.36	57.909
504.71	57.327
505.06	57.253
505.40	57.678
505.75	57.468
506.09	57.228
506.44	57.985
506.78	57.936
507.13	57.031
507.47	58.219
507.82	58.144
508.16	58.365
508.51	57.337
508.85	58.196
509.19	58.550
509.54	58.309
509.88	57.649
510.23	59.592
510.57	58.627
510.92	57.571
511.26	57.912
511.61	57.605
511.95	57.589
512.30	58.690
512.64	58.021
512.98	58.929
513.33	59.224
513.67	58.593
514.02	58.968
514.36	59.386
514.70	58.958
515.05	59.020
515.39	59.108
515.74	58.749
516.08	58.848
516.42	59.131
516.77	58.780
517.11	58.226
517.46	59.491
517.80	59.861
518.14	60.609
518.49	59.328
518.83	58.542
519.17	58.051
519.52	59.277
519.86	58.501
520.20	59.425
520.55	59.036
520.89	59.403
521.23	58.124
521.58	60.282
521.92	58.810
522.26	59.393
522.61	60.127
522.95	59.631
523.29	60.230
523.64	59.641
523.98	60.582
524.32	61.375
524.66	60.956
525.01	59.230
525.35	59.678
525.69	59.339
526.04	59.701
526.38	61.092
526.72	59.862
527.06	60.880
527.41	59.534
527.75	60.926
528.09	60.331
528.43	59.325
528.78	60.058
529.12	59.690
529.46	59.696
529.80	59.840
530.15	60.580
530.49	61.447
530.83	60.744
531.17	60.932
531.51	61.252
531.86	61.538
532.20	61.402
532.54	59.785
532.88	60.000
533.22	59.399
533.57	58.973
533.91	59.708
534.25	58.508
534.59	60.402
534.93	60.102
535.27	59.324
535.62	59.807
535.96	61.360
536.30	60.693
536.64	62.162
536.98	61.562
537.32	60.802
537.66	61.260
538.01	59.517
538.35	60.962
538.69	59.916
539.03	60.883
539.37	60.071
539.71	61.441
540.05	61.331
540.39	61.430
540.73	60.109
541.07	60.515
541.42	59.362
541.76	60.735
542.10	59.590
542.44	59.988
542.78	61.192
543.12	58.939
543.46	60.562
543.80	59.113
544.14	60.742
544.48	59.811
544.82	61.580
545.16	59.988
545.50	60.455
545.84	59.767
546.18	60.556
546.52	60.955
546.86	62.138
547.20	61.641
547.54	59.800
547.88	60.579
548.22	59.064
548.56	59.274
548.90	60.418
549.24	60.973
549.58	61.640
549.92	59.885
550.26	61.165
550.60	60.051
550.94	62.419
551.28	60.198
551.62	60.714
551.96	59.159
552.30	60.676
552.64	60.236
552.98	60.823
553.32	60.386
553.66	61.736
554.00	60.656
554.34	61.776
554.68	60.426
555.02	60.907
555.36	62.525
555.69	60.154
556.03	60.593
556.37	60.263
556.71	60.938
557.05	60.256
557.39	60.650
557.73	60.172
558.07	61.126
558.41	60.332
558.75	60.514
559.08	62.630
559.42	59.396
559.76	60.448
560.10	60.683
560.44	60.488
560.78	60.438
561.12	59.113
561.45	60.097
561.79	60.623
562.13	60.320
562.47	59.248
562.81	60.570
563.15	59.470
563.48	60.907
563.82	59.371
564.16	60.145
564.50	60.012
564.84	58.525
565.17	59.882
565.51	59.148
565.85	60.154
566.19	58.871
566.52	58.982
566.86	60.215
567.20	57.912
567.54	58.577
567.88	59.225
568.21	58.943
568.55	58.993
568.89	58.920
569.23	58.006
569.56	57.014
569.90	58.019
570.24	57.302
570.57	56.735
570.91	55.542
571.25	55.568
571.59	56.248
571.92	55.917
572.26	55.109
572.60	55.829
572.93	56.165
573.27	56.083
573.61	55.532
573.95	55.450
574.28	54.333
574.62	55.161
574.96	53.551
575.29	53.977
575.63	54.054
575.97	55.234
576.30	54.503
576.64	54.784
576.98	54.556
577.31	54.512
577.65	54.787
577.98	54.085
578.32	53.337
578.66	53.619
578.99	54.331
579.33	55.625
579.67	54.329
580.00	54.417
580.34	54.668
580.67	54.391
581.01	54.738
581.35	53.770
581.68	53.381
582.02	53.355
582.35	53.979
582.69	54.430
583.02	55.149
583.36	54.652
583.70	55.715
584.03	55.028
584.37	55.591
584.70	54.621
585.04	55.057
585.37	53.955
585.71	53.355
586.04	53.831
586.38	54.666
586.72	53.497
587.05	54.797
587.39	54.849
587.72	54.976
588.06	54.255
588.39	55.290
588.73	54.339
589.06	55.361
589.40	55.839
589.73	54.756
590.07	55.405
590.40	54.868
590.73	55.143
591.07	55.994
591.40	55.754
591.74	54.889
592.07	55.177
592.41	55.481
592.74	54.455
593.08	53.599
593.41	54.127
593.75	53.563
594.08	54.529
594.41	54.936
594.75	53.969
595.08	54.576
595.42	55.357
595.75	53.826
596.09	56.083
596.42	54.962
596.75	56.619
597.09	55.758
597.42	54.390
597.75	54.096
598.09	54.841
598.42	54.162
598.76	54.413
599.09	52.937
599.42	52.665
599.76	52.856
600.09	54.555
600.42	53.820
600.76	53.534
601.09	53.701
601.42	53.347
601.76	53.621
602.09	53.967
602.42	53.726
602.76	53.838
603.09	54.112
603.42	53.829
603.76	53.700
604.09	54.258
604.42	53.725
604.76	53.577
605.09	53.889
605.42	54.386
605.75	53.385
606.09	53.378
606.42	52.280
606.75	52.211
607.09	52.343
607.42	52.871
607.75	53.419
608.08	53.946
608.42	53.446
608.75	53.856
609.08	53.778
609.41	54.301
609.75	54.152
610.08	54.485
610.41	53.271
610.74	54.118
611.07	53.774
611.41	53.408
611.74	54.688
612.07	53.950
612.40	53.755
612.73	54.719
613.07	53.692
613.40	53.994
613.73	53.298
614.06	53.680
614.39	52.964
614.72	52.547
615.06	53.032
615.39	52.779
615.72	52.607
616.05	52.938
616.38	54.238
616.71	54.389
617.05	55.165
617.38	53.184
617.71	54.320
618.04	53.859
618.37	55.191
618.70	54.977
619.03	54.182
619.36	55.117
619.69	53.940
620.03	53.421
620.36	53.497
620.69	54.781
621.02	54.265
621.35	56.531
621.68	57.050
622.01	54.875
622.34	53.766
622.67	54.364
623.00	53.374
623.33	54.015
623.66	53.891
623.99	54.510
624.32	55.945
624.65	52.252
624.99	54.486
625.32	53.886
625.65	54.754
625.98	53.288
626.31	55.918
626.64	55.092
626.97	56.039
627.30	55.125
627.63	55.589
627.96	56.381
628.29	55.097
628.62	55.584
628.95	56.004
629.28	54.715
629.61	56.397
629.94	54.142
630.26	55.593
630.59	53.195
630.92	56.017
631.25	54.741
631.58	57.627
631.91	54.639
632.24	54.947
632.57	54.839
632.90	56.770
633.23	56.735
633.56	57.347
633.89	55.269
634.22	56.549
634.55	55.741
634.88	56.061
635.20	56.943
635.53	56.949
635.86	55.146
636.19	56.628
636.52	56.224
636.85	54.443
637.18	55.301
637.51	54.194
637.83	56.589
638.16	55.991
638.49	54.812
638.82	54.904
639.15	53.952
639.48	56.005
639.81	53.464
640.13	55.713
640.46	54.424
640.79	55.392
641.12	56.522
641.45	56.211
641.77	58.280
642.10	56.037
642.43	56.649
642.76	57.724
643.09	57.123
643.41	57.423
643.74	55.586
644.07	58.345
644.40	56.719
644.73	54.717
645.05	58.590
645.38	55.683
645.71	55.279
646.04	55.093
646.36	55.620
646.69	58.589
647.02	57.798
647.35	57.405
647.67	58.132
648.00	57.962
648.33	57.357
648.66	56.633
648.98	52.925
649.31	53.586
649.64	56.308
649.96	55.438
650.29	54.242
650.62	56.011
650.94	56.156
651.27	53.144
651.60	55.409
651.92	56.079
652.25	55.572
652.58	52.957
652.90	55.233
653.23	54.930
653.56	53.352
653.88	56.180
654.21	52.958
654.54	53.757
654.86	52.833
655.19	51.066
655.52	51.636
655.84	45.596
656.17	52.795
656.49	74.085
656.82	82.846
657.15	66.695
657.47	51.802
657.80	38.906
658.13	30.930
658.45	41.808
658.78	52.159
659.10	51.124
659.43	51.047
659.75	51.682
660.08	50.924
660.41	51.199
660.73	52.908
661.06	57.416
661.38	54.226
661.71	54.655
662.03	53.616
662.36	58.318
662.68	55.910
663.01	53.451
663.33	58.034
663.66	56.410
663.98	54.808
664.31	57.974
664.63	52.408
664.96	54.446
665.28	50.454
665.61	54.196
665.93	53.750
666.26	53.405
666.58	53.690
666.91	53.645
667.23	53.333
667.56	54.832
667.88	57.200
668.21	53.711
668.53	53.089
668.86	54.420
669.18	55.397
669.50	55.666
669.83	51.800
670.15	52.362
670.48	54.365
670.80	54.685
671.13	51.985
671.45	54.331
671.77	53.672
672.10	51.000
672.42	50.324
672.75	52.074
673.07	50.746
673.39	52.080
673.72	54.866
674.04	52.931
674.37	53.667
674.69	53.086
675.01	53.524
675.34	50.954
675.66	50.936
675.98	54.664
676.31	55.078
676.63	55.323
676.95	53.065
677.28	51.210
677.60	50.394
677.92	53.743
678.25	52.651
678.57	48.221
678.89	50.853
679.22	50.000
679.54	49.915
679.86	49.322
680.18	50.580
680.51	51.101
680.83	49.427
681.15	51.897
681.48	52.159
681.80	53.713
682.12	52.448
682.44	50.083
682.77	50.177
683.09	51.515
683.41	52.519
683.73	51.613
684.06	48.893
684.38	50.268
684.70	52.603
685.02	50.602
685.34	50.083
685.67	47.634
685.99	48.006
686.31	48.547
686.63	49.131
686.96	47.476
687.28	51.466
687.60	49.663
687.92	48.875
688.24	49.750
688.56	48.966
688.89	46.461
689.21	52.642
689.53	52.549
689.85	50.296
690.17	49.259
690.49	49.602
690.82	51.089
691.14	48.583
691.46	47.610
691.78	49.355
692.10	48.807
692.42	48.393
692.74	49.365
693.06	46.852
693.39	49.715
693.71	48.308
694.03	46.097
694.35	49.524
694.67	49.076
694.99	50.426
695.31	47.020
695.63	50.433
695.95	48.033
696.27	50.769
696.59	46.239
696.91	47.523
697.23	50.989
697.56	49.084
697.88	46.591
698.20	46.328
698.52	51.326
698.84	50.728
699.16	50.000
699.48	47.908
699.80	46.809
700.12	48.253
700.44	47.465
700.76	48.219
701.08	47.458
701.40	52.332
701.72	47.512
702.04	51.337
702.36	45.550
702.68	45.721
703.00	49.389
703.32	49.261
703.64	47.677
703.96	49.165
704.28	44.963
704.60	49.367
704.91	48.469
705.23	50.411
705.55	49.304
705.87	53.636
706.19	53.374
706.51	49.699
706.83	50.144
707.15	47.619
707.47	44.626
707.79	46.070
708.11	43.008
708.43	46.452
708.74	47.321
709.06	45.244
709.38	45.775
709.70	48.387
710.02	48.579
710.34	47.872
710.66	48.045
710.98	46.448
711.29	45.055
711.61	50.282
711.93	47.293
712.25	45.676
712.57	49.853
712.89	47.941
713.20	44.970
713.52	48.555
713.84	44.011
714.16	44.211
714.48	44.072
714.80	50.649
715.11	46.457
715.43	48.276
715.75	47.105
716.07	45.580
716.39	46.995
716.70	42.169
717.02	47.213
717.34	47.038
717.66	45.638
717.97	46.233
718.29	46.048
718.61	46.053
718.93	44.984
719.24	43.789
719.56	48.160
719.88	42.342
720.20	46.129
720.51	45.963
720.83	44.375
721.15	45.066
721.46	43.836
721.78	47.000
722.10	41.424
722.42	39.933
722.73	48.710
723.05	48.070
723.37	44.097
723.68	50.538
724.00	48.736
724.32	42.606
724.63	45.455
724.95	50.000
725.27	47.735
725.58	45.230
725.90	48.276
726.22	47.335
726.53	45.130
726.85	44.654
727.16	46.224
727.48	42.508
727.80	50.331
728.11	42.049
728.43	46.128
728.74	46.823
729.06	45.364
729.38	47.403
729.69	45.973
730.01	42.560
730.32	40.909
730.64	39.937
730.96	40.683
731.27	42.458
731.59	42.033
731.90	41.818
732.22	42.969
732.53	40.608
732.85	44.000
733.16	43.988
733.48	44.207
733.80	40.111
734.11	41.026
734.43	43.514
734.74	46.076
735.06	39.698
735.37	47.027
735.69	42.432
736.00	44.915
736.32	42.588
736.63	38.889
736.95	42.816
737.26	46.364
737.58	40.606
737.89	46.765
738.21	41.284
738.52	43.279
738.83	41.638
739.15	44.681
739.46	41.156
739.78	43.252
740.09	42.693
740.41	43.440
740.72	45.333
741.04	43.042
741.35	44.561
741.66	47.059
741.98	46.311
742.29	43.933
742.61	48.246
742.92	41.923
743.23	42.599
743.55	41.860
743.86	41.600
744.18	37.190
744.49	40.084
744.80	47.325
745.12	46.835
745.43	40.244
745.74	44.397
746.06	47.034
746.37	44.304
746.68	45.935
747.00	44.583
747.31	45.064
747.62	44.615
747.94	41.296
748.25	42.570
748.56	37.551
748.88	39.316
749.19	46.552
749.50	40.693
749.82	41.767
750.13	43.772
750.44	44.333
750.75	39.077
751.07	44.615
751.38	41.009
751.69	38.019
752.01	42.718
752.32	43.464
752.63	37.075
752.94	40.138
753.26	42.007
753.57	42.593
753.88	38.577
754.19	40.514
754.51	42.444
754.82	42.765
755.13	41.967
755.44	38.225
755.75	43.092
756.07	42.687
756.38	39.623
756.69	43.373
757.00	37.673
757.31	38.525
757.63	39.130
757.94	37.793
758.25	37.698
758.56	38.998
758.87	38.182
759.18	37.067
759.50	43.626
759.81	40.056
760.12	40.431
760.43	39.583
760.74	42.118
761.05	38.250
761.36	35.181
761.67	40.609
761.99	36.486
762.30	39.939
762.61	38.614
762.92	40.672
763.23	41.573
763.54	42.806
763.85	37.113
764.16	39.057
764.47	41.549
764.78	37.700
765.10	36.657
765.41	39.487
765.72	35.714
766.03	39.266
766.34	33.542
766.65	38.676
766.96	36.653
767.27	39.631
767.58	39.303
767.89	41.827
768.20	40.376
768.51	38.889
768.82	37.751
769.13	38.258
769.44	31.154
769.75	40.433
770.06	39.231
770.37	45.276
770.68	39.149
770.99	31.984
771.30	38.519
771.61	39.924
771.92	37.778
772.23	39.271
772.54	36.111
772.85	41.475
773.16	43.333
773.47	39.683
773.78	38.919
774.09	41.477
774.39	38.000
774.70	38.251
775.01	33.537
775.32	29.412
775.63	35.583
775.94	34.395
776.25	34.194
776.56	35.256
776.87	47.619
777.18	43.448
777.48	39.161
777.79	33.108
778.10	30.147
778.41	43.750
778.72	44.138
779.03	43.827
779.34	34.545
779.65	36.269
779.95	39.444
780.26	38.068
780.57	33.548
780.88	45.652
781.19	42.581
781.50	38.824
781.80	38.172
782.11	42.857
782.42	29.798
782.73	37.126
783.04	41.899
783.34	37.576
783.65	28.758
783.96	34.783
784.27	32.738
784.57	40.397
784.88	42.857
785.19	42.520
785.50	36.220
785.81	31.579
786.11	42.308
786.42	28.777
786.73	35.971
787.04	36.090
787.34	36.885
787.65	41.600
787.96	34.328
788.26	37.063
788.57	41.958
788.88	38.158
789.19	43.137
789.49	34.247
789.80	32.624
790.11	43.307
790.41	35.938
790.72	36.441
791.03	33.981
791.33	38.261
791.64	34.211
791.95	31.250
792.25	37.143
792.56	31.250
792.87	37.500
793.17	31.250
793.48	29.167
793.79	34.940
794.09	36.697
794.40	44.954
794.70	35.374
795.01	29.870
795.32	34.932
795.62	38.028
795.93	37.121
796.23	36.066
796.54	36.607
796.85	38.298
797.15	25.000
797.46	36.986
797.76	23.750
798.07	31.522
798.37	21.649
798.68	37.662
798.99	41.379
799.29	32.584
799.60	40.426
799.90	31.325
800.21	46.154
800.51	26.866
800.82	39.706
801.12	27.397
801.43	10.294
801.73	25.424
802.04	24.242
802.34	26.667
802.65	38.983
802.95	29.851
803.26	47.458
803.56	23.288
803.87	41.429
804.17	39.726
804.48	19.298
804.78	50.000
805.09	25.862
805.39	37.838
805.70	16.901
806.00	19.512
806.30	25.301
806.61	20.548
806.91	35.577
807.22	32.222
807.52	26.437
807.83	27.778
808.13	26.506
808.43	32.584
808.74	31.250
809.04	14.706
809.35	25.333
809.65	35.714
809.95	36.986
810.26	35.088
810.56	41.379
810.86	52.941
811.17	38.596
811.47	9.836
811.77	31.111
812.08	32.203
812.38	23.333
812.69	34.483
812.99	33.962
813.29	12.821
813.59	42.000
813.90	19.298
814.20	32.727
814.50	39.437
814.81	34.615
815.11	42.623
815.41	35.821
815.72	31.034
816.02	33.929
816.32	48.889
816.62	47.727
816.93	8.889
817.23	33.333
817.53	34.043
817.84	21.429
818.14	29.412
818.44	38.776
818.74	55.556
819.04	10.256
819.35	20.000
819.65	-19.231
819.95	43.396
820.25	28.889
820.56	11.905
820.86	3.125
821.16	38.462
821.46	25.581
821.76	14.000
822.07	48.214
822.37	19.565
822.67	36.170
822.97	27.027
823.27	22.500
823.57	44.898
823.88	37.778
824.18	35.000
824.48	43.333
824.78	52.000
825.08	33.333
825.38	44.444
825.69	44.681
825.99	25.000
826.29	-22.857
826.59	30.769
826.89	39.535
827.19	22.000
827.49	61.765
827.79	16.667
828.09	5.405
828.39	10.000
828.70	9.756
829.00	41.860
829.30	-3.571
829.60	64.706
829.90	39.130
830.20	34.286
830.50	41.379
830.80	-11.111
831.10	26.923
831.40	20.588
831.70	80.952
832.00	38.710
832.30	-82.353
832.60	-4.167
832.90	-38.462
833.20	10.526
833.50	25.000
833.80	47.368
834.10	-23.810
834.40	27.778
834.70	65.625
835.00	8.571
835.30	38.235
835.60	-26.667
835.90	12.000
836.20	-9.091
836.50	32.000
836.80	0.000
837.10	-14.815
837.40	11.111
837.70	-43.750
838.00	57.143
838.30	0.000
838.60	34.483
838.90	7.143
839.19	-56.522
839.49	-125.000
839.79	8.696
840.09	0.000
840.39	25.000
840.69	25.806
840.99	-35.714
841.29	26.667
841.59	63.158
841.88	51.282
842.18	30.769
842.48	10.000
842.78	-45.000
843.08	23.333
843.38	16.129
843.68	-16.667
843.97	52.941
844.27	-31.250
844.57	-15.789
844.87	30.000
845.17	6.667
845.47	23.810
845.76	-23.810
846.06	-44.444
846.36	47.059
846.66	19.231
846.96	-13.333
847.25	23.529
847.55	39.130
847.85	45.000
848.15	52.941
848.44	-9.091
848.74	42.857
849.04	20.833
849.34	6.250
849.63	43.478
849.93	150.000
850.23	80.000
850.53	61.538
850.82	-100.000
851.12	13.636
851.42	-27.273
851.71	46.154
852.01	-40.000
852.31	38.462
852.61	21.053
852.90	25.000
853.20	44.444
853.50	-111.111
853.79	4.762
854.09	-4.545
854.39	-41.667
854.68	-9.677
854.98	30.769
855.28	22.222
855.57	17.857
855.87	8.000
856.17	-13.636
856.46	-7.407
856.76	55.556
857.05	4.348
857.35	0.000
857.65	38.462
857.94	38.095
858.24	11.111
858.53	60.870
858.83	23.529
859.13	23.529
859.42	29.412
859.72	64.286
860.01	15.000
860.31	-33.333
860.60	-50.000
860.90	80.000
861.20	0.000
861.49	38.462
861.79	10.000
862.08	-30.769
862.38	50.000
862.67	5.882
862.97	12.500
863.26	-44.444
863.56	80.000
863.85	-9.091
864.15	-33.333
864.44	-100.000
864.74	-14.286
865.03	12.500
865.33	-130.000
865.62	-6.452
865.92	9.091
866.21	21.739
866.51	21.429
866.80	-20.000
867.10	-16.667
867.39	-75.000
867.69	1300.000
867.98	-42.857
868.27	-5.882
868.57	-900.000
868.86	-60.000
869.16	-38.095
869.45	41.667
869.75	90.909
870.04	42.857
870.33	-50.000
870.63	-185.714
870.92	50.000
871.22	-100.000
871.51	0.000
871.80	-366.667
872.10	-200.000
>>>>>End Processed Spectral Data<<<<<
