SpectraSuite Data File
++++++++++++++++++++++++++++++++++++
Date: Thu May 14 16:42:29 PDT 2015
User: schluterlab
Dark Spectrum Present: Yes
Reference Spectrum Present: Yes
Number of Sampled Component Spectra: 1
Spectrometers: USB2E3373
Integration Time (usec): 3000 (USB2E3373)
Spectra Averaged: 3 (USB2E3373)
Boxcar Smoothing: 0 (USB2E3373)
Correct for Electrical Dark: No (USB2E3373)
Strobe/Lamp Enabled: No (USB2E3373)
Correct for Detector Non-linearity: No (USB2E3373)
Correct for Stray Light: No (USB2E3373)
Number of Pixels in Processed Spectrum: 2048
>>>>>Begin Processed Spectral Data<<<<<
178.53	0.000
178.91	-28.571
179.29	-700.000
179.67	-700.000
180.04	128.571
180.42	150.000
180.80	120.000
181.18	-400.000
181.56	300.000
181.94	-25.000
182.31	50.000
182.69	66.667
183.07	-250.000
183.45	-175.000
183.83	16.667
184.20	-33.333
184.58	400.000
184.96	-225.000
185.34	-33.333
185.72	0.000
186.09	133.333
186.47	500.000
186.85	380.000
187.23	-66.667
187.61	-700.000
187.98	140.000
188.36	150.000
188.74	-25.000
189.12	33.333
189.49	50.000
189.87	-100.000
190.25	66.667
190.63	-100.000
191.00	-111.111
191.38	0.000
191.76	25.000
192.14	66.667
192.51	350.000
192.89	133.333
193.27	0.000
193.65	-14.286
194.02	-1000.000
194.40	-28.571
194.78	-14.286
195.15	0.000
195.53	36.364
195.91	0.000
196.29	50.000
196.66	-7.692
197.04	-400.000
197.42	57.143
197.79	-250.000
198.17	-87.500
198.55	-128.571
198.92	100.000
199.30	37.500
199.68	54.545
200.05	7.143
200.43	-150.000
200.81	42.857
201.18	0.000
201.56	-44.444
201.94	0.000
202.31	400.000
202.69	-166.667
203.07	200.000
203.44	-66.667
203.82	100.000
204.19	33.333
204.57	-33.333
204.95	-12.500
205.32	-900.000
205.70	100.000
206.08	-66.667
206.45	-50.000
206.83	100.000
207.20	83.333
207.58	-160.000
207.96	-166.667
208.33	0.000
208.71	33.333
209.08	150.000
209.46	0.000
209.84	200.000
210.21	-0.000
210.59	-150.000
210.96	-33.333
211.34	-250.000
211.71	-25.000
212.09	200.000
212.46	0.000
212.84	400.000
213.22	-200.000
213.59	-100.000
213.97	-40.000
214.34	-133.333
214.72	100.000
215.09	-50.000
215.47	0.000
215.84	57.143
216.22	300.000
216.59	60.000
216.97	-40.000
217.34	-25.000
217.72	0.000
218.09	-50.000
218.47	-25.000
218.84	0.000
219.22	140.000
219.59	17.647
219.97	10.000
220.34	50.000
220.72	-88.889
221.09	53.846
221.47	-333.333
221.84	-40.000
222.22	-185.714
222.59	0.000
222.97	25.000
223.34	-60.000
223.72	600.000
224.09	-25.000
224.46	-125.000
224.84	180.000
225.21	-114.286
225.59	-50.000
225.96	-75.000
226.34	19.231
226.71	216.667
227.08	300.000
227.46	6.667
227.83	-125.000
228.21	0.000
228.58	200.000
228.95	300.000
229.33	0.000
229.70	60.000
230.08	42.105
230.45	150.000
230.82	-166.667
231.20	-14.286
231.57	-41.667
231.95	9.091
232.32	27.273
232.69	55.000
233.07	125.000
233.44	5.882
233.81	-40.000
234.19	5.556
234.56	27.273
234.93	17.241
235.31	21.053
235.68	5.556
236.05	-45.000
236.43	7.692
236.80	16.000
237.17	-3.704
237.55	21.212
237.92	-40.000
238.29	6.452
238.67	-15.909
239.04	5.556
239.41	-9.524
239.79	19.565
240.16	0.000
240.53	-8.696
240.91	-15.686
241.28	1.639
241.65	-7.463
242.02	16.216
242.40	-12.308
242.77	-5.333
243.14	-19.512
243.51	-25.000
243.89	-11.538
244.26	-1.980
244.63	4.902
245.00	0.000
245.38	-3.509
245.75	-9.735
246.12	3.968
246.49	-5.426
246.87	-0.714
247.24	4.636
247.61	0.658
247.98	-1.342
248.36	-1.852
248.73	-4.908
249.10	-2.732
249.47	4.975
249.84	7.330
250.22	-3.109
250.59	1.111
250.96	2.273
251.33	1.531
251.70	4.274
252.08	3.750
252.45	0.820
252.82	-4.132
253.19	1.172
253.56	0.000
253.94	0.000
254.31	0.758
254.68	5.944
255.05	4.560
255.42	-1.701
255.79	2.265
256.16	5.298
256.54	0.000
256.91	0.656
257.28	0.000
257.65	0.955
258.02	-2.655
258.39	3.989
258.76	4.281
259.14	7.184
259.51	1.153
259.88	-0.850
260.25	0.278
260.62	3.288
260.99	6.011
261.36	1.877
261.73	-1.326
262.10	-0.549
262.47	-0.804
262.85	3.535
263.22	1.299
263.59	-0.526
263.96	5.115
264.33	1.535
264.70	2.716
265.07	2.625
265.44	5.896
265.81	0.926
266.18	3.175
266.55	0.000
266.92	-0.911
267.29	3.063
267.66	1.109
268.03	1.310
268.40	2.923
268.77	2.733
269.14	-0.441
269.51	2.412
269.88	2.254
270.25	4.024
270.62	2.532
270.99	3.434
271.36	2.970
271.73	2.161
272.10	3.407
272.47	1.403
272.84	1.205
273.21	0.401
273.58	0.202
273.95	1.923
274.32	0.951
274.69	0.967
275.06	1.648
275.43	-0.555
275.80	2.469
276.17	-0.185
276.54	0.187
276.91	1.610
277.28	0.723
277.65	0.180
278.02	2.757
278.39	3.442
278.76	0.351
279.13	2.660
279.50	3.436
279.87	3.220
280.23	-1.761
280.60	3.051
280.97	1.480
281.34	-0.679
281.71	3.892
282.08	1.661
282.45	1.964
282.82	1.099
283.19	1.616
283.56	0.820
283.92	2.402
284.29	3.318
284.66	2.299
285.03	0.962
285.40	3.555
285.77	2.632
286.14	3.053
286.51	1.979
286.87	3.160
287.24	1.958
287.61	-0.299
287.98	1.662
288.35	1.627
288.72	1.627
289.08	3.221
289.45	0.296
289.82	0.301
290.19	0.718
290.56	2.394
290.93	3.424
291.29	2.066
291.66	3.444
292.03	0.407
292.40	2.585
292.77	2.426
293.13	3.518
293.50	2.234
293.87	2.013
294.24	2.933
294.60	2.276
294.97	1.879
295.34	2.049
295.71	1.261
296.08	2.455
296.44	3.309
296.81	2.436
297.18	1.868
297.55	2.358
297.91	2.372
298.28	2.370
298.65	2.021
299.02	2.243
299.38	4.233
299.75	3.855
300.12	2.199
300.48	3.802
300.85	2.475
301.22	2.685
301.59	3.539
301.95	4.520
302.32	4.444
302.69	3.943
303.05	3.808
303.42	3.991
303.79	3.958
304.15	3.575
304.52	3.383
304.89	3.351
305.25	3.623
305.62	3.762
305.99	4.845
306.35	3.024
306.72	3.516
307.09	3.350
307.45	5.383
307.82	4.945
308.19	4.844
308.55	5.014
308.92	4.674
309.29	5.077
309.65	4.191
310.02	4.554
310.38	5.020
310.75	5.922
311.12	5.657
311.48	4.888
311.85	5.793
312.22	6.357
312.58	6.385
312.95	6.214
313.31	7.769
313.68	8.059
314.05	8.582
314.41	9.107
314.78	8.265
315.14	8.167
315.51	8.218
315.87	10.261
316.24	9.406
316.61	9.591
316.97	9.050
317.34	9.347
317.70	10.306
318.07	9.788
318.43	10.629
318.80	11.037
319.16	10.730
319.53	9.854
319.89	10.868
320.26	10.854
320.62	10.904
320.99	12.373
321.35	13.863
321.72	14.233
322.08	11.181
322.45	13.008
322.81	14.170
323.18	14.071
323.54	14.914
323.91	14.324
324.27	14.028
324.64	14.526
325.00	13.682
325.37	15.479
325.73	15.537
326.10	15.004
326.46	17.427
326.83	16.733
327.19	15.433
327.56	16.126
327.92	16.208
328.29	16.129
328.65	16.834
329.01	16.920
329.38	17.018
329.74	16.866
330.11	17.466
330.47	16.007
330.84	17.313
331.20	17.333
331.56	16.638
331.93	17.071
332.29	17.881
332.66	18.439
333.02	17.085
333.38	17.282
333.75	17.677
334.11	16.764
334.48	18.482
334.84	17.247
335.20	17.632
335.57	18.212
335.93	17.603
336.29	17.471
336.66	15.896
337.02	17.224
337.38	17.857
337.75	16.694
338.11	18.503
338.47	17.618
338.84	17.597
339.20	16.933
339.56	17.463
339.93	16.831
340.29	15.942
340.65	16.464
341.02	16.840
341.38	17.947
341.74	16.384
342.11	16.975
342.47	17.156
342.83	18.599
343.20	17.825
343.56	17.642
343.92	16.413
344.28	17.812
344.65	17.984
345.01	17.161
345.37	17.807
345.73	16.680
346.10	17.395
346.46	16.218
346.82	17.828
347.19	16.960
347.55	17.223
347.91	17.162
348.27	17.147
348.63	16.603
349.00	17.599
349.36	17.100
349.72	16.518
350.08	17.385
350.45	17.643
350.81	17.195
351.17	17.293
351.53	17.817
351.89	18.147
352.26	16.866
352.62	17.463
352.98	16.336
353.34	17.028
353.70	18.336
354.07	17.437
354.43	17.464
354.79	17.502
355.15	16.630
355.51	17.982
355.87	18.175
356.24	19.087
356.60	16.408
356.96	17.420
357.32	17.695
357.68	17.570
358.04	17.066
358.40	18.134
358.77	18.494
359.13	17.356
359.49	16.729
359.85	17.549
360.21	18.293
360.57	17.947
360.93	18.195
361.29	18.526
361.66	17.813
362.02	18.998
362.38	18.201
362.74	18.855
363.10	18.226
363.46	18.283
363.82	19.531
364.18	18.649
364.54	19.295
364.90	18.595
365.26	18.483
365.62	18.400
365.98	18.788
366.35	19.329
366.71	19.388
367.07	19.080
367.43	19.173
367.79	19.177
368.15	19.398
368.51	19.892
368.87	18.746
369.23	18.867
369.59	19.399
369.95	19.608
370.31	20.257
370.67	19.326
371.03	19.598
371.39	18.402
371.75	19.670
372.11	20.190
372.47	19.025
372.83	19.699
373.19	20.080
373.55	19.512
373.91	19.359
374.27	20.440
374.63	19.824
374.99	20.225
375.35	20.844
375.71	20.000
376.07	20.852
376.42	19.962
376.78	20.945
377.14	21.023
377.50	19.798
377.86	21.367
378.22	21.437
378.58	20.749
378.94	20.775
379.30	21.324
379.66	21.105
380.02	21.523
380.38	21.313
380.74	21.577
381.09	21.429
381.45	20.909
381.81	22.482
382.17	22.268
382.53	21.988
382.89	21.445
383.25	22.333
383.61	22.454
383.97	22.203
384.32	22.847
384.68	21.752
385.04	22.152
385.40	21.980
385.76	22.743
386.12	22.561
386.48	23.000
386.83	23.004
387.19	22.190
387.55	22.829
387.91	22.603
388.27	22.575
388.62	22.509
388.98	22.279
389.34	23.807
389.70	23.475
390.06	23.268
390.42	23.675
390.77	24.684
391.13	22.887
391.49	22.826
391.85	23.879
392.20	23.488
392.56	24.572
392.92	23.664
393.28	24.433
393.64	23.464
393.99	24.172
394.35	24.357
394.71	24.491
395.07	22.335
395.42	24.386
395.78	24.619
396.14	24.599
396.50	23.812
396.85	23.912
397.21	23.846
397.57	24.087
397.92	24.685
398.28	24.172
398.64	25.114
399.00	23.979
399.35	24.607
399.71	23.750
400.07	25.154
400.42	23.516
400.78	24.769
401.14	24.815
401.49	25.128
401.85	23.953
402.21	24.913
402.57	25.880
402.92	25.650
403.28	24.063
403.63	24.582
403.99	24.466
404.35	24.105
404.70	25.042
405.06	23.750
405.42	25.820
405.77	25.409
406.13	25.284
406.49	24.831
406.84	25.540
407.20	24.762
407.55	24.712
407.91	24.450
408.27	25.559
408.62	24.666
408.98	24.202
409.34	24.575
409.69	25.155
410.05	24.971
410.40	25.696
410.76	24.846
411.11	25.599
411.47	25.307
411.83	25.808
412.18	25.783
412.54	24.837
412.89	25.611
413.25	25.056
413.60	24.986
413.96	24.942
414.31	24.759
414.67	25.999
415.03	25.600
415.38	25.032
415.74	25.779
416.09	25.478
416.45	24.984
416.80	25.092
417.16	25.862
417.51	25.778
417.87	25.445
418.22	25.449
418.58	26.022
418.93	26.717
419.29	25.154
419.64	26.411
420.00	25.282
420.35	25.547
420.71	25.503
421.06	25.647
421.42	25.631
421.77	24.987
422.12	25.529
422.48	25.346
422.83	26.177
423.19	26.472
423.54	26.715
423.90	25.511
424.25	26.507
424.61	25.316
424.96	26.139
425.31	26.964
425.67	26.355
426.02	25.567
426.38	25.545
426.73	25.446
427.09	26.240
427.44	25.614
427.79	26.368
428.15	25.342
428.50	25.393
428.85	26.464
429.21	26.436
429.56	26.555
429.92	25.504
430.27	26.699
430.62	26.136
430.98	25.627
431.33	25.562
431.68	25.862
432.04	25.851
432.39	26.031
432.74	26.541
433.10	26.501
433.45	25.139
433.80	25.751
434.16	25.981
434.51	25.951
434.86	26.927
435.22	26.833
435.57	26.710
435.92	26.656
436.28	25.768
436.63	26.324
436.98	26.516
437.34	26.437
437.69	26.968
438.04	26.388
438.39	26.766
438.75	26.010
439.10	26.850
439.45	26.775
439.81	25.989
440.16	26.327
440.51	26.143
440.86	26.181
441.22	26.099
441.57	26.520
441.92	26.576
442.27	27.424
442.63	26.230
442.98	27.054
443.33	25.829
443.68	26.511
444.03	27.563
444.39	27.369
444.74	27.463
445.09	26.761
445.44	26.765
445.79	26.389
446.15	26.670
446.50	25.840
446.85	27.286
447.20	26.692
447.55	27.458
447.91	26.387
448.26	26.480
448.61	26.727
448.96	27.414
449.31	26.776
449.66	27.015
450.02	27.373
450.37	26.958
450.72	26.642
451.07	26.993
451.42	26.459
451.77	26.292
452.12	27.201
452.47	26.263
452.83	27.252
453.18	25.919
453.53	26.364
453.88	26.394
454.23	26.610
454.58	27.046
454.93	27.063
455.28	27.152
455.63	26.606
455.98	26.648
456.34	26.384
456.69	26.867
457.04	26.950
457.39	26.164
457.74	26.846
458.09	26.689
458.44	26.832
458.79	26.818
459.14	26.272
459.49	26.259
459.84	26.967
460.19	25.986
460.54	27.257
460.89	26.945
461.24	26.264
461.59	26.840
461.94	26.070
462.29	26.876
462.64	26.011
462.99	25.361
463.34	25.957
463.69	24.736
464.04	27.293
464.39	26.065
464.74	26.796
465.09	25.779
465.44	26.717
465.79	26.494
466.14	25.534
466.49	26.211
466.84	26.281
467.19	25.491
467.54	25.147
467.89	25.690
468.24	26.260
468.59	24.609
468.94	24.184
469.29	25.375
469.64	25.811
469.99	25.940
470.34	25.248
470.68	26.726
471.03	25.409
471.38	25.899
471.73	25.423
472.08	26.079
472.43	25.467
472.78	25.567
473.13	24.842
473.48	25.076
473.83	25.073
474.17	26.202
474.52	25.676
474.87	24.806
475.22	25.239
475.57	25.545
475.92	24.988
476.27	24.601
476.61	24.974
476.96	24.557
477.31	25.198
477.66	25.866
478.01	25.114
478.36	23.978
478.70	24.384
479.05	25.818
479.40	25.617
479.75	25.312
480.10	24.775
480.45	24.521
480.79	25.306
481.14	24.770
481.49	25.352
481.84	24.326
482.19	23.957
482.53	24.311
482.88	25.476
483.23	24.055
483.58	24.410
483.92	24.645
484.27	24.259
484.62	23.680
484.97	24.456
485.31	24.006
485.66	23.738
486.01	23.546
486.36	23.955
486.70	24.855
487.05	24.643
487.40	24.658
487.75	24.122
488.09	24.148
488.44	23.181
488.79	24.047
489.13	23.678
489.48	22.951
489.83	23.018
490.17	22.924
490.52	23.604
490.87	23.393
491.22	23.180
491.56	23.635
491.91	23.288
492.26	23.626
492.60	23.481
492.95	23.475
493.30	22.860
493.64	22.996
493.99	23.114
494.34	23.301
494.68	23.169
495.03	23.480
495.37	23.347
495.72	23.311
496.07	22.524
496.41	22.265
496.76	22.519
497.11	22.208
497.45	22.831
497.80	23.412
498.14	22.721
498.49	22.426
498.84	22.761
499.18	22.807
499.53	22.870
499.87	22.725
500.22	21.460
500.56	21.727
500.91	22.151
501.26	22.773
501.60	22.316
501.95	21.928
502.29	21.896
502.64	22.519
502.98	22.174
503.33	21.210
503.67	21.849
504.02	22.110
504.36	22.073
504.71	22.232
505.06	21.101
505.40	21.572
505.75	21.357
506.09	22.145
506.44	21.495
506.78	21.606
507.13	21.392
507.47	21.743
507.82	21.449
508.16	21.797
508.51	21.097
508.85	21.304
509.19	21.317
509.54	21.566
509.88	21.612
510.23	21.418
510.57	22.088
510.92	21.239
511.26	21.020
511.61	20.183
511.95	21.376
512.30	21.664
512.64	20.690
512.98	20.160
513.33	21.321
513.67	20.857
514.02	21.410
514.36	20.818
514.70	21.302
515.05	21.637
515.39	20.892
515.74	20.891
516.08	20.814
516.42	21.612
516.77	20.978
517.11	19.959
517.46	20.838
517.80	21.058
518.14	21.001
518.49	20.228
518.83	20.330
519.17	20.086
519.52	21.017
519.86	20.591
520.20	20.607
520.55	19.551
520.89	20.327
521.23	19.765
521.58	20.395
521.92	20.170
522.26	20.218
522.61	19.618
522.95	19.896
523.29	20.172
523.64	19.563
523.98	20.251
524.32	21.032
524.66	20.376
525.01	19.819
525.35	19.586
525.69	19.432
526.04	18.599
526.38	20.115
526.72	19.839
527.06	19.824
527.41	20.058
527.75	20.487
528.09	20.366
528.43	18.828
528.78	19.075
529.12	19.381
529.46	19.505
529.80	18.993
530.15	19.884
530.49	19.751
530.83	20.307
531.17	19.474
531.51	19.795
531.86	19.231
532.20	19.939
532.54	19.270
532.88	18.970
533.22	18.916
533.57	19.965
533.91	18.911
534.25	20.068
534.59	19.540
534.93	18.676
535.27	19.493
535.62	19.784
535.96	18.652
536.30	18.449
536.64	19.700
536.98	19.311
537.32	19.074
537.66	19.276
538.01	18.369
538.35	18.514
538.69	18.990
539.03	19.007
539.37	18.963
539.71	18.619
540.05	19.185
540.39	18.399
540.73	18.033
541.07	19.252
541.42	18.488
541.76	18.505
542.10	18.818
542.44	17.722
542.78	18.796
543.12	17.998
543.46	18.742
543.80	17.866
544.14	17.953
544.48	18.617
544.82	18.851
545.16	18.187
545.50	17.555
545.84	18.065
546.18	19.198
546.52	18.217
546.86	18.553
547.20	18.257
547.54	17.915
547.88	17.480
548.22	18.129
548.56	17.671
548.90	17.134
549.24	17.568
549.58	18.044
549.92	17.857
550.26	18.188
550.60	17.294
550.94	17.723
551.28	17.756
551.62	17.183
551.96	17.670
552.30	17.973
552.64	17.735
552.98	17.093
553.32	17.621
553.66	17.363
554.00	18.600
554.34	16.667
554.68	16.914
555.02	17.806
555.36	17.160
555.69	16.848
556.03	17.024
556.37	18.461
556.71	17.121
557.05	17.572
557.39	17.319
557.73	16.513
558.07	16.424
558.41	16.744
558.75	16.903
559.08	17.954
559.42	15.981
559.76	17.571
560.10	16.008
560.44	16.557
560.78	17.000
561.12	16.626
561.45	17.397
561.79	16.728
562.13	16.697
562.47	16.461
562.81	16.076
563.15	16.477
563.48	17.029
563.82	16.143
564.16	15.748
564.50	16.865
564.84	17.699
565.17	16.824
565.51	16.283
565.85	16.508
566.19	15.611
566.52	15.740
566.86	16.129
567.20	15.878
567.54	16.198
567.88	16.820
568.21	17.045
568.55	16.787
568.89	16.069
569.23	15.927
569.56	16.139
569.90	16.073
570.24	16.627
570.57	15.715
570.91	15.922
571.25	16.228
571.59	15.614
571.92	16.125
572.26	15.299
572.60	15.588
572.93	15.558
573.27	15.622
573.61	15.193
573.95	15.562
574.28	15.651
574.62	15.211
574.96	15.329
575.29	15.642
575.63	15.431
575.97	15.569
576.30	15.445
576.64	15.319
576.98	15.125
577.31	15.659
577.65	15.559
577.98	15.569
578.32	15.150
578.66	14.964
578.99	15.011
579.33	15.162
579.67	15.413
580.00	15.105
580.34	15.161
580.67	14.740
581.01	14.950
581.35	15.254
581.68	15.155
582.02	15.016
582.35	15.275
582.69	15.002
583.02	15.193
583.36	15.239
583.70	14.633
584.03	14.663
584.37	15.206
584.70	15.110
585.04	14.648
585.37	15.046
585.71	15.254
586.04	15.037
586.38	14.717
586.72	14.766
587.05	14.607
587.39	14.734
587.72	14.809
588.06	14.676
588.39	14.812
588.73	14.603
589.06	15.011
589.40	14.597
589.73	14.685
590.07	14.556
590.40	14.943
590.73	14.776
591.07	14.669
591.40	14.658
591.74	14.229
592.07	14.170
592.41	14.314
592.74	14.483
593.08	14.618
593.41	14.552
593.75	14.828
594.08	14.662
594.41	14.776
594.75	14.248
595.08	13.997
595.42	14.123
595.75	14.562
596.09	14.368
596.42	14.690
596.75	14.550
597.09	14.545
597.42	14.660
597.75	13.642
598.09	14.127
598.42	13.993
598.76	14.215
599.09	14.382
599.42	13.946
599.76	13.965
600.09	14.314
600.42	14.348
600.76	14.201
601.09	13.740
601.42	13.835
601.76	13.862
602.09	13.903
602.42	13.813
602.76	13.727
603.09	14.244
603.42	14.487
603.76	13.425
604.09	13.769
604.42	13.725
604.76	13.699
605.09	13.642
605.42	14.195
605.75	13.577
606.09	13.139
606.42	13.681
606.75	13.381
607.09	13.210
607.42	14.066
607.75	14.029
608.08	13.852
608.42	13.503
608.75	13.599
609.08	13.667
609.41	13.542
609.75	13.616
610.08	13.720
610.41	13.169
610.74	13.571
611.07	13.632
611.41	13.901
611.74	13.949
612.07	13.651
612.40	12.928
612.73	13.936
613.07	14.377
613.40	13.811
613.73	12.855
614.06	13.297
614.39	13.460
614.72	12.955
615.06	12.849
615.39	13.098
615.72	13.365
616.05	13.453
616.38	13.370
616.71	13.845
617.05	12.673
617.38	13.858
617.71	13.607
618.04	13.600
618.37	13.443
618.70	13.631
619.03	12.425
619.36	13.625
619.69	12.556
620.03	13.183
620.36	13.190
620.69	13.634
621.02	13.714
621.35	14.296
621.68	13.521
622.01	13.310
622.34	12.343
622.67	12.371
623.00	12.888
623.33	14.399
623.66	13.554
623.99	12.508
624.32	13.515
624.65	12.613
624.99	13.589
625.32	13.194
625.65	12.879
625.98	12.881
626.31	12.403
626.64	13.626
626.97	13.428
627.30	12.453
627.63	13.203
627.96	13.514
628.29	12.763
628.62	12.007
628.95	12.971
629.28	12.150
629.61	13.047
629.94	12.552
630.26	12.881
630.59	12.090
630.92	12.035
631.25	13.864
631.58	12.806
631.91	12.840
632.24	12.872
632.57	12.334
632.90	12.738
633.23	13.367
633.56	13.673
633.89	11.674
634.22	12.058
634.55	12.317
634.88	12.554
635.20	12.917
635.53	11.751
635.86	12.459
636.19	15.164
636.52	12.025
636.85	13.687
637.18	12.682
637.51	13.118
637.83	12.292
638.16	12.558
638.49	12.911
638.82	13.078
639.15	11.569
639.48	13.395
639.81	11.547
640.13	12.721
640.46	10.667
640.79	11.275
641.12	13.913
641.45	11.669
641.77	13.607
642.10	12.073
642.43	14.229
642.76	12.466
643.09	11.507
643.41	11.765
643.74	13.379
644.07	14.207
644.40	11.740
644.73	12.046
645.05	10.866
645.38	12.086
645.71	10.997
646.04	13.343
646.36	11.095
646.69	12.423
647.02	12.997
647.35	13.893
647.67	13.849
648.00	11.943
648.33	12.462
648.66	12.553
648.98	10.476
649.31	13.396
649.64	13.015
649.96	11.008
650.29	10.570
650.62	13.013
650.94	11.712
651.27	9.731
651.60	11.550
651.92	10.486
652.25	12.446
652.58	11.692
652.90	9.884
653.23	12.113
653.56	10.414
653.88	12.219
654.21	11.408
654.54	11.994
654.86	11.898
655.19	10.163
655.52	11.971
655.84	11.584
656.17	13.784
656.49	19.251
656.82	20.769
657.15	15.770
657.47	11.797
657.80	8.499
658.13	6.683
658.45	8.601
658.78	10.393
659.10	10.141
659.43	9.934
659.75	9.283
660.08	9.748
660.41	10.339
660.73	9.806
661.06	9.985
661.38	12.440
661.71	9.310
662.03	12.522
662.36	13.417
662.68	12.195
663.01	12.920
663.33	10.586
663.66	13.919
663.98	11.346
664.31	10.131
664.63	7.707
664.96	11.797
665.28	9.619
665.61	12.762
665.93	9.821
666.26	12.903
666.58	10.701
666.91	10.841
667.23	11.048
667.56	11.045
667.88	10.400
668.21	8.984
668.53	10.425
668.86	10.413
669.18	12.016
669.50	13.121
669.83	9.200
670.15	12.205
670.48	11.706
670.80	11.663
671.13	11.720
671.45	10.236
671.77	11.676
672.10	11.333
672.42	10.841
672.75	9.831
673.07	10.149
673.39	9.861
673.72	12.248
674.04	12.069
674.37	11.449
674.69	12.169
675.01	10.476
675.34	11.260
675.66	8.427
675.98	9.888
676.31	10.742
676.63	14.829
676.95	11.686
677.28	7.661
677.60	9.449
677.92	11.132
678.25	12.431
678.57	11.210
678.89	11.604
679.22	10.279
679.54	12.308
679.86	8.136
680.18	10.614
680.51	10.692
680.83	11.129
681.15	9.828
681.48	11.399
681.80	11.744
682.12	11.189
682.44	9.015
682.77	9.574
683.09	11.932
683.41	10.853
683.73	11.006
684.06	9.779
684.38	8.587
684.70	11.311
685.02	11.704
685.34	10.982
685.67	9.779
685.99	9.816
686.31	8.721
686.63	10.900
686.96	10.095
687.28	10.912
687.60	8.418
687.92	8.521
688.24	11.519
688.56	10.000
688.89	10.889
689.21	10.959
689.53	8.824
689.85	7.890
690.17	9.074
690.49	10.159
690.82	11.485
691.14	7.287
691.46	11.090
691.78	12.707
692.10	7.890
692.42	8.214
692.74	9.800
693.06	8.148
693.39	11.195
693.71	8.459
694.03	10.595
694.35	10.857
694.67	9.651
694.99	10.851
695.31	10.817
695.63	10.173
695.95	9.524
696.27	11.648
696.59	9.735
696.91	8.108
697.23	10.110
697.56	8.147
697.88	8.144
698.20	11.111
698.52	9.659
698.84	9.563
699.16	11.633
699.48	10.251
699.80	10.426
700.12	5.895
700.44	8.525
700.76	9.976
701.08	9.927
701.40	10.104
701.72	10.199
702.04	11.230
702.36	8.901
702.68	8.557
703.00	10.024
703.32	8.128
703.64	7.824
703.96	10.263
704.28	7.862
704.60	10.633
704.91	13.010
705.23	8.493
705.55	10.864
705.87	10.303
706.19	10.123
706.51	8.735
706.83	9.510
707.15	7.672
707.47	8.411
707.79	8.297
708.11	7.627
708.43	7.957
708.74	6.920
709.06	8.121
709.38	11.502
709.70	13.151
710.02	9.819
710.34	9.043
710.66	6.983
710.98	9.563
711.29	7.692
711.61	10.452
711.93	7.692
712.25	8.919
712.57	12.684
712.89	11.471
713.20	8.580
713.52	9.249
713.84	7.242
714.16	10.263
714.48	7.216
714.80	10.649
715.11	6.824
715.43	12.732
715.75	10.789
716.07	6.354
716.39	10.383
716.70	7.530
717.02	8.852
717.34	8.711
717.66	8.054
717.97	8.904
718.29	7.560
718.61	8.224
718.93	9.385
719.24	9.627
719.56	7.362
719.88	5.706
720.20	5.161
720.51	7.453
720.83	10.000
721.15	9.211
721.46	5.137
721.78	10.000
722.10	6.149
722.42	4.698
722.73	8.065
723.05	8.772
723.37	9.028
723.68	8.244
724.00	9.386
724.32	6.338
724.63	5.944
724.95	10.284
725.27	10.453
725.58	1.413
725.90	13.103
726.22	7.837
726.53	12.338
726.85	7.862
727.16	9.668
727.48	11.009
727.80	8.278
728.11	5.654
728.43	10.101
728.74	8.027
729.06	6.623
729.38	8.117
729.69	6.040
730.01	7.143
730.32	4.242
730.64	9.434
730.96	6.522
731.27	10.615
731.59	9.341
731.90	7.532
732.22	7.552
732.53	3.867
732.85	10.000
733.16	11.144
733.48	4.573
733.80	8.635
734.11	7.123
734.43	8.649
734.74	12.405
735.06	7.286
735.37	9.730
735.69	8.378
736.00	9.040
736.32	7.547
736.63	10.278
736.95	6.609
737.26	6.970
737.58	7.576
737.89	7.353
738.21	5.199
738.52	5.574
738.83	8.874
739.15	9.220
739.46	9.184
739.78	8.282
740.09	7.163
740.41	10.496
740.72	5.333
741.04	9.061
741.35	10.877
741.66	5.882
741.98	6.148
742.29	4.184
742.61	3.947
742.92	8.462
743.23	9.386
743.55	8.527
743.86	7.600
744.18	0.413
744.49	4.219
744.80	12.346
745.12	8.861
745.43	8.943
745.74	5.603
746.06	6.356
746.37	7.595
746.68	12.602
747.00	7.500
747.31	12.017
747.62	10.385
747.94	11.336
748.25	6.426
748.56	7.347
748.88	5.983
749.19	9.052
749.50	9.091
749.82	7.631
750.13	8.897
750.44	5.333
750.75	5.846
751.07	7.692
751.38	7.571
751.69	8.626
752.01	4.854
752.32	5.556
752.63	8.503
752.94	6.920
753.26	3.717
753.57	0.741
753.88	2.996
754.19	8.360
754.51	7.074
754.82	10.611
755.13	9.836
755.44	7.167
755.75	3.947
756.07	8.955
756.38	4.717
756.69	9.036
757.00	3.601
757.31	6.284
757.63	4.859
757.94	6.103
758.25	6.095
758.56	7.625
758.87	7.727
759.18	6.667
759.50	7.649
759.81	6.162
760.12	5.930
760.43	7.552
760.74	9.852
761.05	7.500
761.36	7.229
761.67	7.107
761.99	4.595
762.30	3.354
762.61	5.941
762.92	8.209
763.23	8.989
763.54	7.914
763.85	3.093
764.16	10.438
764.47	8.451
764.78	10.543
765.10	9.384
765.41	10.256
765.72	3.968
766.03	7.345
766.34	5.956
766.65	1.394
766.96	6.773
767.27	6.912
767.58	2.985
767.89	9.135
768.20	3.756
768.51	4.167
768.82	7.229
769.13	8.333
769.44	5.385
769.75	7.220
770.06	5.000
770.37	11.024
770.68	0.426
770.99	4.453
771.30	11.481
771.61	5.323
771.92	4.074
772.23	6.883
772.54	4.167
772.85	5.530
773.16	7.143
773.47	0.000
773.78	1.081
774.09	3.409
774.39	14.500
774.70	9.290
775.01	2.439
775.32	3.529
775.63	6.748
775.94	1.274
776.25	9.032
776.56	12.179
776.87	11.565
777.18	8.966
777.48	-2.797
777.79	5.405
778.10	-1.471
778.41	9.028
778.72	5.517
779.03	6.173
779.34	3.636
779.65	5.699
779.95	7.778
780.26	7.386
780.57	5.161
780.88	8.696
781.19	6.452
781.50	14.118
781.80	7.527
782.11	13.228
782.42	7.071
782.73	3.593
783.04	11.173
783.34	3.636
783.65	5.882
783.96	6.832
784.27	3.571
784.57	13.907
784.88	8.571
785.19	3.937
785.50	5.512
785.81	9.774
786.11	6.923
786.42	7.194
786.73	2.878
787.04	15.038
787.34	7.377
787.65	2.400
787.96	0.746
788.26	16.783
788.57	12.587
788.88	7.237
789.19	9.804
789.49	7.534
789.80	9.929
790.11	13.386
790.41	2.344
790.72	3.390
791.03	-4.854
791.33	10.435
791.64	6.140
791.95	9.821
792.25	-1.905
792.56	2.679
792.87	8.333
793.17	14.286
793.48	5.208
793.79	-4.819
794.09	1.835
794.40	-0.917
794.70	5.442
795.01	5.195
795.32	7.534
795.62	7.042
795.93	11.364
796.23	12.295
796.54	4.464
796.85	-3.191
797.15	4.348
797.46	0.000
797.76	3.750
798.07	9.783
798.37	5.155
798.68	0.000
798.99	0.000
799.29	-1.124
799.60	7.447
799.90	1.205
800.21	9.231
800.51	-13.433
800.82	-4.412
801.12	-10.959
801.43	0.000
801.73	-10.169
802.04	6.061
802.34	-11.667
802.65	-3.390
802.95	4.478
803.26	11.864
803.56	4.110
803.87	17.143
804.17	19.178
804.48	-22.807
804.78	2.778
805.09	-1.724
805.39	17.568
805.70	-2.817
806.00	4.878
806.30	2.410
806.61	-8.219
806.91	4.808
807.22	8.889
807.52	3.448
807.83	9.722
808.13	6.024
808.43	15.730
808.74	3.750
809.04	-1.471
809.35	6.667
809.65	14.286
809.95	10.959
810.26	-26.316
810.56	0.000
810.86	11.765
811.17	-5.263
811.47	-11.475
811.77	-2.222
812.08	-5.085
812.38	18.333
812.69	5.172
812.99	-15.094
813.29	-7.692
813.59	0.000
813.90	19.298
814.20	-1.818
814.50	11.268
814.81	17.949
815.11	11.475
815.41	10.448
815.72	29.310
816.02	10.714
816.32	8.889
816.62	-4.545
816.93	-6.667
817.23	18.519
817.53	4.255
817.84	11.905
818.14	2.941
818.44	8.163
818.74	-17.778
819.04	-17.949
819.35	2.857
819.65	-42.308
819.95	11.321
820.25	6.667
820.56	7.143
820.86	-12.500
821.16	5.128
821.46	0.000
821.76	0.000
822.07	0.000
822.37	15.217
822.67	10.638
822.97	-35.135
823.27	2.500
823.57	4.082
823.88	26.667
824.18	25.000
824.48	-13.333
824.78	20.000
825.08	39.394
825.38	17.778
825.69	-2.128
825.99	2.778
826.29	-25.714
826.59	-7.692
826.89	-6.977
827.19	-2.000
827.49	-14.706
827.79	10.417
828.09	0.000
828.39	-13.333
828.70	0.000
829.00	2.326
829.30	-28.571
829.60	11.765
829.90	6.522
830.20	-8.571
830.50	-24.138
830.80	5.556
831.10	3.846
831.40	8.824
831.70	4.762
832.00	19.355
832.30	-100.000
832.60	-33.333
832.90	-53.846
833.20	-5.263
833.50	-55.000
833.80	-21.053
834.10	-19.048
834.40	13.889
834.70	9.375
835.00	-31.429
835.30	38.235
835.60	-3.333
835.90	8.000
836.20	-50.000
836.50	8.000
836.80	-24.242
837.10	-14.815
837.40	-37.037
837.70	-31.250
838.00	10.714
838.30	-43.478
838.60	24.138
838.90	-78.571
839.19	-56.522
839.49	-58.333
839.79	-21.739
840.09	-25.000
840.39	-30.000
840.69	25.806
840.99	-28.571
841.29	53.333
841.59	-5.263
841.88	33.333
842.18	-7.692
842.48	-30.000
842.78	-15.000
843.08	0.000
843.38	19.355
843.68	-94.444
843.97	14.706
844.27	87.500
844.57	-36.842
844.87	-120.000
845.17	-26.667
845.47	28.571
845.76	0.000
846.06	55.556
846.36	-58.824
846.66	0.000
846.96	-6.667
847.25	-23.529
847.55	56.522
847.85	-10.000
848.15	17.647
848.44	36.364
848.74	38.095
849.04	-20.833
849.34	-12.500
849.63	4.348
849.93	350.000
850.23	6.667
850.53	61.538
850.82	-9.091
851.12	50.000
851.42	-36.364
851.71	30.769
852.01	-30.000
852.31	23.077
852.61	-26.316
852.90	0.000
853.20	44.444
853.50	-22.222
853.79	-9.524
854.09	-27.273
854.39	-50.000
854.68	-9.677
854.98	26.923
855.28	5.556
855.57	-10.714
855.87	-20.000
856.17	13.636
856.46	-3.704
856.76	38.889
857.05	0.000
857.35	-12.500
857.65	-46.154
857.94	38.095
858.24	22.222
858.53	4.348
858.83	17.647
859.13	5.882
859.42	23.529
859.72	21.429
860.01	-15.000
860.31	-111.111
860.60	-50.000
860.90	33.333
861.20	16.667
861.49	15.385
861.79	3.333
862.08	30.769
862.38	28.125
862.67	-23.529
862.97	18.750
863.26	-22.222
863.56	60.000
863.85	54.545
864.15	-11.111
864.44	-300.000
864.74	35.714
865.03	-6.250
865.33	-80.000
865.62	12.903
865.92	9.091
866.21	21.739
866.51	14.286
866.80	-280.000
867.10	-66.667
867.39	-91.667
867.69	900.000
867.98	171.429
868.27	52.941
868.57	-1400.000
868.86	-170.000
869.16	-42.857
869.45	29.167
869.75	81.818
870.04	-28.571
870.33	-33.333
870.63	-171.429
870.92	125.000
871.22	-125.000
871.51	-27.273
871.80	-100.000
872.10	150.000
>>>>>End Processed Spectral Data<<<<<
