SpectraSuite Data File
++++++++++++++++++++++++++++++++++++
Date: Thu May 14 15:57:01 PDT 2015
User: schluterlab
Dark Spectrum Present: Yes
Reference Spectrum Present: Yes
Number of Sampled Component Spectra: 1
Spectrometers: USB2E3373
Integration Time (usec): 3000 (USB2E3373)
Spectra Averaged: 3 (USB2E3373)
Boxcar Smoothing: 0 (USB2E3373)
Correct for Electrical Dark: No (USB2E3373)
Strobe/Lamp Enabled: No (USB2E3373)
Correct for Detector Non-linearity: No (USB2E3373)
Correct for Stray Light: No (USB2E3373)
Number of Pixels in Processed Spectrum: 2048
>>>>>Begin Processed Spectral Data<<<<<
178.53	0.000
178.91	328.571
179.29	-3900.000
179.67	-3300.000
180.04	278.571
180.42	290.000
180.80	600.000
181.18	-2600.000
181.56	-2000.000
181.94	650.000
182.31	-475.000
182.69	833.333
183.07	-900.000
183.45	625.000
183.83	-433.333
184.20	-800.000
184.58	1500.000
184.96	-425.000
185.34	-300.000
185.72	-240.000
186.09	433.333
186.47	1250.000
186.85	640.000
187.23	-333.333
187.61	-2800.000
187.98	380.000
188.36	650.000
188.74	-450.000
189.12	-800.000
189.49	-162.500
189.87	-300.000
190.25	-222.222
190.63	-420.000
191.00	-233.333
191.38	0.000
191.76	-550.000
192.14	-600.000
192.51	1450.000
192.89	-300.000
193.27	0.000
193.65	-371.429
194.02	-2900.000
194.40	-242.857
194.78	371.429
195.15	0.000
195.53	-245.455
195.91	0.000
196.29	-725.000
196.66	-176.923
197.04	-3000.000
197.42	-271.429
197.79	-800.000
198.17	-275.000
198.55	-342.857
198.92	-166.667
199.30	-300.000
199.68	-118.182
200.05	-192.857
200.43	-1450.000
200.81	442.857
201.18	0.000
201.56	366.667
201.94	0.000
202.31	1033.333
202.69	-311.111
203.07	2300.000
203.44	-211.111
203.82	-625.000
204.19	-191.667
204.57	-483.333
204.95	-275.000
205.32	-3600.000
205.70	450.000
206.08	-483.333
206.45	-283.333
206.83	640.000
207.20	-500.000
207.58	-520.000
207.96	-416.667
208.33	-316.667
208.71	300.000
209.08	-333.333
209.46	0.000
209.84	533.333
210.21	1500.000
210.59	1450.000
210.96	1166.667
211.34	-575.000
211.71	-350.000
212.09	-2600.000
212.46	0.000
212.84	1700.000
213.22	-540.000
213.59	-525.000
213.97	-220.000
214.34	-933.333
214.72	433.333
215.09	-650.000
215.47	0.000
215.84	385.714
216.22	1750.000
216.59	-480.000
216.97	-520.000
217.34	-550.000
217.72	-150.000
218.09	-675.000
218.47	-800.000
218.84	0.000
219.22	580.000
219.59	-147.059
219.97	-105.000
220.34	1700.000
220.72	-288.889
221.09	-84.615
221.47	-666.667
221.84	-180.000
222.22	-257.143
222.59	0.000
222.97	-312.500
223.34	-620.000
223.72	-2400.000
224.09	-550.000
224.46	-700.000
224.84	-380.000
225.21	-328.571
225.59	-500.000
225.96	-725.000
226.34	-69.231
226.71	516.667
227.08	-1100.000
227.46	-200.000
227.83	-600.000
228.21	-100.000
228.58	312.500
228.95	1300.000
229.33	-158.333
229.70	-200.000
230.08	-52.632
230.45	280.000
230.82	-833.333
231.20	-114.286
231.57	-166.667
231.95	-200.000
232.32	-190.909
232.69	-110.000
233.07	-650.000
233.44	-105.882
233.81	-280.000
234.19	-127.778
234.56	-86.364
234.93	-51.724
235.31	-100.000
235.68	-94.444
236.05	-105.000
236.43	-19.231
236.80	-76.000
237.17	-66.667
237.55	-27.273
237.92	-190.000
238.29	-51.613
238.67	-36.364
239.04	-36.111
239.41	-38.095
239.79	-39.130
240.16	-12.963
240.53	-43.478
240.91	-29.412
241.28	-6.557
241.65	0.000
242.02	5.405
242.40	-6.154
242.77	-6.667
243.14	-9.756
243.51	-23.684
243.89	-2.564
244.26	18.812
244.63	5.882
245.00	5.607
245.38	2.632
245.75	-10.619
246.12	13.492
246.49	3.101
246.87	7.143
247.24	16.556
247.61	6.579
247.98	13.423
248.36	10.494
248.73	6.748
249.10	18.033
249.47	19.900
249.84	19.372
250.22	11.917
250.59	16.667
250.96	18.182
251.33	14.796
251.70	18.376
252.08	17.917
252.45	19.672
252.82	14.876
253.19	19.141
253.56	22.433
253.94	19.615
254.31	23.864
254.68	21.678
255.05	21.498
255.42	21.088
255.79	16.828
256.16	21.523
256.54	19.205
256.91	22.295
257.28	21.311
257.65	21.019
258.02	19.469
258.39	21.083
258.76	23.547
259.14	23.851
259.51	24.496
259.88	20.397
260.25	25.833
260.62	23.836
260.99	23.770
261.36	21.448
261.73	23.342
262.10	23.901
262.47	21.448
262.85	26.768
263.22	24.675
263.59	20.000
263.96	22.506
264.33	21.228
264.70	21.235
265.07	26.492
265.44	27.664
265.81	22.685
266.18	26.077
266.55	20.536
266.92	23.462
267.29	23.414
267.66	26.164
268.03	24.454
268.40	24.217
268.77	23.690
269.14	21.806
269.51	22.149
269.88	24.385
270.25	22.133
270.62	27.215
270.99	21.212
271.36	24.554
271.73	24.361
272.10	24.850
272.47	26.052
272.84	22.088
273.21	22.244
273.58	24.597
273.95	22.500
274.32	23.194
274.69	21.277
275.06	24.725
275.43	22.551
275.80	22.399
276.17	22.037
276.54	22.575
276.91	23.792
277.28	22.604
277.65	24.057
278.02	22.794
278.39	21.739
278.76	21.793
279.13	22.163
279.50	24.055
279.87	22.719
280.23	21.303
280.60	24.407
280.97	22.204
281.34	23.430
281.71	24.196
282.08	23.588
282.45	21.277
282.82	21.036
283.19	22.294
283.56	21.475
283.92	24.474
284.29	24.803
284.66	25.616
285.03	19.872
285.40	23.648
285.77	22.601
286.14	22.595
286.51	23.744
286.87	22.275
287.24	23.042
287.61	22.422
287.98	21.148
288.35	20.414
288.72	22.337
289.08	24.744
289.45	24.704
289.82	20.783
290.19	22.270
290.56	20.986
290.93	20.685
291.29	21.212
291.66	20.386
292.03	18.046
292.40	21.088
292.77	19.407
293.13	20.839
293.50	20.631
293.87	19.597
294.24	21.600
294.60	20.607
294.97	18.658
295.34	18.694
295.71	18.537
296.08	18.992
296.44	18.627
296.81	19.367
297.18	18.680
297.55	17.571
297.91	17.794
298.28	15.640
298.65	19.382
299.02	18.536
299.38	20.023
299.75	17.991
300.12	16.435
300.48	19.355
300.85	18.560
301.22	16.890
301.59	18.265
301.95	17.401
302.32	17.333
302.69	16.977
303.05	17.519
303.42	17.627
303.79	17.812
304.15	18.822
304.52	17.759
304.89	17.173
305.25	17.391
305.62	18.077
305.99	17.113
306.35	16.734
306.72	18.925
307.09	16.041
307.45	17.598
307.82	17.558
308.19	16.953
308.55	18.997
308.92	16.650
309.29	17.816
309.65	18.129
310.02	16.832
310.38	17.224
310.75	17.476
311.12	18.792
311.48	17.791
311.85	18.519
312.22	17.932
312.58	17.746
312.95	17.973
313.31	17.615
313.68	18.773
314.05	19.241
314.41	19.126
314.78	18.438
315.14	20.236
315.51	19.114
315.87	19.892
316.24	20.365
316.61	21.403
316.97	19.548
317.34	18.430
317.70	21.135
318.07	20.459
318.43	21.599
318.80	20.652
319.16	21.030
319.53	19.709
319.89	21.385
320.26	22.331
320.62	22.695
320.99	23.084
321.35	21.534
321.72	24.465
322.08	22.813
322.45	24.661
322.81	24.639
323.18	24.690
323.54	23.879
323.91	25.267
324.27	24.957
324.64	26.029
325.00	25.622
325.37	26.044
325.73	26.529
326.10	25.710
326.46	25.896
326.83	26.902
327.19	26.693
327.56	26.324
327.92	26.829
328.29	25.968
328.65	26.717
329.01	27.834
329.38	27.717
329.74	28.510
330.11	28.082
330.47	28.138
330.84	26.873
331.20	28.417
331.56	27.990
331.93	28.787
332.29	29.915
332.66	28.738
333.02	28.057
333.38	27.852
333.75	27.441
334.11	28.524
334.48	28.795
334.84	28.547
335.20	27.288
335.57	28.499
335.93	27.769
336.29	27.371
336.66	27.166
337.02	27.926
337.38	28.316
337.75	26.777
338.11	29.100
338.47	27.626
338.84	27.242
339.20	27.380
339.56	26.277
339.93	26.683
340.29	26.892
340.65	26.926
341.02	26.576
341.38	27.486
341.74	26.231
342.11	28.077
342.47	26.608
342.83	26.812
343.20	27.637
343.56	27.666
343.92	27.142
344.28	27.500
344.65	27.442
345.01	26.443
345.37	27.838
345.73	27.202
346.10	28.159
346.46	26.741
346.82	27.491
347.19	27.196
347.55	27.997
347.91	26.746
348.27	27.390
348.63	26.885
349.00	27.069
349.36	26.840
349.72	26.637
350.08	27.860
350.45	27.529
350.81	26.998
351.17	25.789
351.53	27.142
351.89	26.803
352.26	26.866
352.62	26.119
352.98	25.954
353.34	26.214
353.70	25.886
354.07	27.124
354.43	26.120
354.79	25.729
355.15	26.049
355.51	27.120
355.87	25.206
356.24	27.148
356.60	25.277
356.96	26.983
357.32	25.948
357.68	26.428
358.04	25.449
358.40	25.672
358.77	26.462
359.13	25.480
359.49	25.725
359.85	26.251
360.21	26.399
360.57	26.202
360.93	25.811
361.29	26.246
361.66	25.272
362.02	25.748
362.38	26.142
362.74	26.536
363.10	26.891
363.46	26.801
363.82	26.776
364.18	26.812
364.54	26.418
364.90	27.559
365.26	26.276
365.62	26.933
365.98	25.936
366.35	25.369
366.71	26.054
367.07	27.131
367.43	25.804
367.79	27.671
368.15	27.826
368.51	26.996
368.87	26.976
369.23	26.267
369.59	26.708
369.95	27.113
370.31	27.346
370.67	27.235
371.03	27.285
371.39	26.461
371.75	26.685
372.11	26.626
372.47	27.420
372.83	27.160
373.19	27.819
373.55	26.558
373.91	26.585
374.27	26.908
374.63	27.199
374.99	27.122
375.35	27.727
375.71	27.742
376.07	27.695
376.42	26.826
376.78	27.719
377.14	28.135
377.50	28.273
377.86	27.340
378.22	28.144
378.58	28.419
378.94	27.758
379.30	28.295
379.66	28.336
380.02	28.563
380.38	28.456
380.74	27.718
381.09	29.036
381.45	29.205
381.81	29.742
382.17	28.919
382.53	28.655
382.89	28.555
383.25	29.543
383.61	27.951
383.97	28.445
384.32	29.067
384.68	28.248
385.04	30.017
385.40	28.462
385.76	30.363
386.12	29.743
386.48	29.765
386.83	29.440
387.19	29.027
387.55	29.519
387.91	30.080
388.27	29.388
388.62	29.496
388.98	28.032
389.34	29.523
389.70	29.924
390.06	30.432
390.42	29.277
390.77	30.584
391.13	29.812
391.49	30.495
391.85	29.758
392.20	30.605
392.56	30.892
392.92	30.098
393.28	30.348
393.64	30.559
393.99	31.028
394.35	30.958
394.71	32.036
395.07	29.820
395.42	31.239
395.78	30.957
396.14	31.075
396.50	30.523
396.85	31.067
397.21	31.538
397.57	31.449
397.92	30.641
398.28	30.310
398.64	31.293
399.00	30.733
399.35	31.885
399.71	31.793
400.07	31.162
400.42	30.384
400.78	31.481
401.14	31.303
401.49	31.609
401.85	31.686
402.21	31.866
402.57	32.394
402.92	31.324
403.28	31.323
403.63	30.847
403.99	31.354
404.35	31.438
404.70	32.635
405.06	32.228
405.42	32.260
405.77	33.097
406.13	32.415
406.49	32.432
406.84	32.299
407.20	31.750
407.55	31.920
407.91	32.432
408.27	31.625
408.62	33.042
408.98	33.372
409.34	31.848
409.69	32.447
410.05	32.532
410.40	33.353
410.76	32.642
411.11	32.963
411.47	32.985
411.83	33.451
412.18	34.277
412.54	33.195
412.89	32.829
413.25	33.634
413.60	33.544
413.96	33.100
414.31	32.238
414.67	32.558
415.03	32.246
415.38	34.489
415.74	33.232
416.09	33.683
416.45	33.125
416.80	32.925
417.16	33.525
417.51	32.752
417.87	33.231
418.22	32.754
418.58	32.900
418.93	34.575
419.29	34.464
419.64	33.313
420.00	34.006
420.35	33.577
420.71	33.946
421.06	33.353
421.42	34.633
421.77	33.926
422.12	33.562
422.48	34.255
422.83	35.542
423.19	33.528
423.54	35.177
423.90	34.787
424.25	35.360
424.61	34.041
424.96	34.761
425.31	35.085
425.67	33.870
426.02	35.639
426.38	34.271
426.73	34.096
427.09	36.794
427.44	34.353
427.79	35.987
428.15	34.132
428.50	35.000
428.85	34.615
429.21	36.011
429.56	35.637
429.92	35.479
430.27	35.566
430.62	35.662
430.98	35.170
431.33	35.288
431.68	35.489
432.04	37.227
432.39	36.101
432.74	35.388
433.10	35.695
433.45	35.061
433.80	36.159
434.16	35.640
434.51	36.074
434.86	38.274
435.22	37.460
435.57	36.085
435.92	36.895
436.28	38.055
436.63	37.029
436.98	36.554
437.34	36.640
437.69	36.379
438.04	36.700
438.39	35.784
438.75	36.414
439.10	36.628
439.45	36.445
439.81	35.989
440.16	37.373
440.51	37.458
440.86	36.854
441.22	36.388
441.57	37.264
441.92	37.439
442.27	37.879
442.63	37.804
442.98	37.780
443.33	37.244
443.68	38.157
444.03	38.711
444.39	37.725
444.74	37.774
445.09	36.999
445.44	38.514
445.79	38.554
446.15	38.438
446.50	37.209
446.85	38.619
447.20	38.008
447.55	38.285
447.91	38.429
448.26	37.791
448.61	37.885
448.96	39.056
449.31	37.911
449.66	37.636
450.02	37.975
450.37	38.679
450.72	37.890
451.07	37.870
451.42	38.128
451.77	37.799
452.12	37.980
452.47	37.671
452.83	38.851
453.18	38.179
453.53	38.828
453.88	39.205
454.23	39.153
454.58	38.189
454.93	37.985
455.28	39.795
455.63	37.578
455.98	38.156
456.34	38.516
456.69	38.095
457.04	38.061
457.39	37.361
457.74	40.157
458.09	38.386
458.44	37.716
458.79	37.597
459.14	37.913
459.49	38.540
459.84	38.720
460.19	38.034
460.54	37.365
460.89	38.962
461.24	37.586
461.59	39.236
461.94	37.136
462.29	38.914
462.64	37.296
462.99	38.920
463.34	37.897
463.69	37.104
464.04	38.132
464.39	38.004
464.74	37.742
465.09	37.601
465.44	39.002
465.79	37.599
466.14	37.572
466.49	38.526
466.84	38.733
467.19	38.092
467.54	36.957
467.89	37.586
468.24	38.006
468.59	36.306
468.94	36.305
469.29	35.933
469.64	38.144
469.99	37.349
470.34	36.386
470.68	36.774
471.03	38.376
471.38	37.148
471.73	37.061
472.08	36.929
472.43	37.809
472.78	37.531
473.13	36.283
473.48	36.979
473.83	37.667
474.17	36.987
474.52	37.222
474.87	36.268
475.22	37.803
475.57	37.383
475.92	37.382
476.27	37.274
476.61	37.072
476.96	36.131
477.31	36.931
477.66	37.566
478.01	36.299
478.36	36.740
478.70	37.291
479.05	36.554
479.40	37.117
479.75	36.840
480.10	36.712
480.45	36.600
480.79	37.551
481.14	36.489
481.49	36.756
481.84	37.424
482.19	36.989
482.53	36.729
482.88	37.129
483.23	36.327
483.58	36.332
483.92	35.904
484.27	36.198
484.62	36.427
484.97	36.236
485.31	35.832
485.66	34.107
486.01	34.534
486.36	36.231
486.70	37.396
487.05	38.451
487.40	37.172
487.75	37.048
488.09	36.686
488.44	36.313
488.79	36.223
489.13	35.518
489.48	35.107
489.83	35.131
490.17	35.318
490.52	36.002
490.87	35.152
491.22	35.355
491.56	35.111
491.91	35.979
492.26	35.136
492.60	35.330
492.95	35.103
493.30	34.379
493.64	34.998
493.99	35.044
494.34	33.406
494.68	34.818
495.03	35.242
495.37	34.221
495.72	34.512
496.07	34.969
496.41	34.277
496.76	34.821
497.11	34.650
497.45	34.398
497.80	34.207
498.14	33.605
498.49	33.640
498.84	33.821
499.18	34.818
499.53	34.529
499.87	33.934
500.22	33.838
500.56	33.693
500.91	34.600
501.26	34.000
501.60	33.495
501.95	33.825
502.29	34.313
502.64	33.887
502.98	33.822
503.33	33.305
503.67	33.319
504.02	34.194
504.36	33.199
504.71	33.165
505.06	32.879
505.40	33.181
505.75	32.104
506.09	33.471
506.44	33.148
506.78	33.899
507.13	33.979
507.47	33.160
507.82	34.044
508.16	33.078
508.51	32.865
508.85	33.018
509.19	33.018
509.54	33.093
509.88	32.492
510.23	32.880
510.57	32.479
510.92	32.946
511.26	32.997
511.61	31.965
511.95	32.308
512.30	32.053
512.64	31.334
512.98	31.766
513.33	32.308
513.67	31.617
514.02	32.294
514.36	31.662
514.70	32.344
515.05	32.273
515.39	31.549
515.74	32.238
516.08	32.118
516.42	31.868
516.77	31.914
517.11	30.892
517.46	32.131
517.80	31.320
518.14	31.393
518.49	31.562
518.83	31.080
519.17	30.425
519.52	31.971
519.86	30.465
520.20	30.618
520.55	30.668
520.89	31.137
521.23	30.765
521.58	31.977
521.92	30.482
522.26	30.699
522.61	29.919
522.95	29.931
523.29	29.828
523.64	31.054
523.98	30.690
524.32	31.003
524.66	30.563
525.01	29.728
525.35	30.385
525.69	30.278
526.04	29.162
526.38	29.770
526.72	29.815
527.06	30.968
527.41	30.321
527.75	30.582
528.09	30.342
528.43	30.373
528.78	29.133
529.12	29.530
529.46	28.893
529.80	29.577
530.15	30.145
530.49	29.834
530.83	30.283
531.17	29.869
531.51	28.941
531.86	29.087
532.20	29.695
532.54	28.665
532.88	29.030
533.22	28.108
533.57	29.371
533.91	29.966
534.25	28.717
534.59	29.540
534.93	28.183
535.27	29.521
535.62	28.653
535.96	29.111
536.30	28.026
536.64	28.709
536.98	29.336
537.32	29.012
537.66	29.382
538.01	28.157
538.35	27.406
538.69	28.666
539.03	29.307
539.37	28.740
539.71	27.928
540.05	29.077
540.39	28.301
540.73	27.262
541.07	28.817
541.42	28.470
541.76	28.114
542.10	27.925
542.44	27.893
542.78	27.798
543.12	27.175
543.46	27.961
543.80	26.199
544.14	27.828
544.48	28.014
544.82	28.067
545.16	27.132
545.50	28.101
545.84	27.189
546.18	27.840
546.52	27.006
546.86	26.478
547.20	26.336
547.54	27.091
547.88	26.281
548.22	26.550
548.56	27.033
548.90	27.403
549.24	27.720
549.58	26.562
549.92	27.105
550.26	27.573
550.60	26.548
550.94	26.132
551.28	26.535
551.62	27.358
551.96	26.602
552.30	27.151
552.64	27.131
552.98	26.638
553.32	26.881
553.66	26.559
554.00	26.419
554.34	26.062
554.68	25.888
555.02	25.493
555.36	27.022
555.69	25.689
556.03	26.797
556.37	26.596
556.71	25.808
557.05	25.879
557.39	25.481
557.73	25.892
558.07	26.093
558.41	26.312
558.75	25.761
559.08	26.235
559.42	24.417
559.76	26.323
560.10	25.117
560.44	25.726
560.78	26.875
561.12	25.246
561.45	26.886
561.79	25.458
562.13	26.186
562.47	25.709
562.81	25.316
563.15	26.326
563.48	25.233
563.82	24.970
564.16	25.015
564.50	25.983
564.84	24.071
565.17	25.412
565.51	24.856
565.85	24.525
566.19	25.115
566.52	25.688
566.86	25.750
567.20	24.307
567.54	25.119
567.88	25.433
568.21	25.247
568.55	25.899
568.89	25.919
569.23	26.109
569.56	25.205
569.90	26.123
570.24	26.341
570.57	25.818
570.91	25.046
571.25	25.803
571.59	25.995
571.92	25.720
572.26	25.728
572.60	25.225
572.93	25.383
573.27	25.457
573.61	25.093
573.95	25.127
574.28	26.022
574.62	25.853
574.96	25.055
575.29	25.072
575.63	25.433
575.97	25.365
576.30	25.019
576.64	25.292
576.98	25.057
577.31	25.449
577.65	25.361
577.98	25.132
578.32	24.766
578.66	25.386
578.99	24.841
579.33	25.456
579.67	25.181
580.00	25.174
580.34	24.847
580.67	24.978
581.01	25.011
581.35	24.937
581.68	24.862
582.02	24.902
582.35	25.880
582.69	25.163
583.02	24.986
583.36	25.508
583.70	25.358
584.03	24.982
584.37	25.130
584.70	24.474
585.04	24.599
585.37	24.481
585.71	24.229
586.04	24.945
586.38	24.211
586.72	24.016
587.05	24.559
587.39	24.757
587.72	25.191
588.06	24.758
588.39	24.347
588.73	24.365
589.06	24.097
589.40	24.554
589.73	24.454
590.07	24.436
590.40	24.713
590.73	24.107
591.07	25.465
591.40	23.639
591.74	23.410
592.07	24.279
592.41	23.738
592.74	23.287
593.08	23.726
593.41	24.351
593.75	23.994
594.08	23.629
594.41	23.942
594.75	23.779
595.08	23.991
595.42	24.026
595.75	23.797
596.09	24.263
596.42	23.791
596.75	24.161
597.09	23.434
597.42	23.282
597.75	23.520
598.09	24.127
598.42	23.361
598.76	22.965
599.09	22.855
599.42	22.896
599.76	22.945
600.09	23.190
600.42	22.956
600.76	22.622
601.09	23.199
601.42	22.417
601.76	22.655
602.09	23.124
602.42	22.755
602.76	23.173
603.09	22.761
603.42	22.977
603.76	22.903
604.09	23.847
604.42	23.266
604.76	23.212
605.09	22.736
605.42	22.967
605.75	22.192
606.09	22.695
606.42	22.218
606.75	22.376
607.09	21.237
607.42	22.582
607.75	22.704
608.08	22.494
608.42	22.934
608.75	22.305
609.08	22.029
609.41	21.923
609.75	21.964
610.08	22.823
610.41	21.920
610.74	22.521
611.07	21.714
611.41	22.018
611.74	21.801
612.07	22.160
612.40	21.673
612.73	21.369
613.07	21.320
613.40	21.992
613.73	21.810
614.06	22.424
614.39	22.109
614.72	21.252
615.06	20.500
615.39	20.783
615.72	21.896
616.05	21.321
616.38	21.695
616.71	20.899
617.05	20.181
617.38	21.616
617.71	21.868
618.04	20.669
618.37	21.257
618.70	21.493
619.03	21.386
619.36	20.284
619.69	19.987
620.03	19.962
620.36	21.043
620.69	20.049
621.02	21.194
621.35	21.263
621.68	21.330
622.01	20.498
622.34	20.502
622.67	20.069
623.00	20.175
623.33	21.500
623.66	20.623
623.99	21.132
624.32	20.663
624.65	20.142
624.99	21.131
625.32	21.424
625.65	21.241
625.98	19.322
626.31	19.348
626.64	21.245
626.97	20.555
627.30	18.831
627.63	19.130
627.96	20.345
628.29	19.689
628.62	17.884
628.95	18.493
629.28	18.692
629.61	19.613
629.94	18.828
630.26	19.492
630.59	18.826
630.92	19.134
631.25	18.784
631.58	18.738
631.91	18.463
632.24	18.924
632.57	19.734
632.90	17.954
633.23	18.980
633.56	18.367
633.89	18.182
634.22	17.983
634.55	18.789
634.88	18.290
635.20	18.407
635.53	17.853
635.86	16.251
636.19	18.982
636.52	18.143
636.85	17.671
637.18	17.568
637.51	17.849
637.83	18.605
638.16	19.240
638.49	17.606
638.82	18.264
639.15	16.037
639.48	18.476
639.81	18.245
640.13	17.786
640.46	16.970
640.79	16.422
641.12	17.143
641.45	17.315
641.77	17.715
642.10	14.829
642.43	18.617
642.76	16.667
643.09	15.616
643.41	16.246
643.74	16.552
644.07	16.690
644.40	15.842
644.73	17.417
645.05	15.859
645.38	16.691
645.71	13.783
646.04	18.795
646.36	16.788
646.69	15.798
647.02	14.832
647.35	16.336
647.67	16.425
648.00	15.764
648.33	17.417
648.66	16.833
648.98	16.871
649.31	17.321
649.64	15.936
649.96	16.180
650.29	14.465
650.62	17.822
650.94	17.568
651.27	14.671
651.60	16.082
651.92	17.173
652.25	15.340
652.58	17.744
652.90	15.262
653.23	17.606
653.56	16.120
653.88	17.556
654.21	17.183
654.54	17.052
654.86	16.714
655.19	15.935
655.52	19.713
655.84	20.605
656.17	24.726
656.49	34.844
656.82	39.119
657.15	30.640
657.47	23.654
657.80	17.566
658.13	13.790
658.45	18.416
658.78	21.938
659.10	21.007
659.43	20.557
659.75	19.943
660.08	19.328
660.41	17.039
660.73	16.306
661.06	16.006
661.38	16.108
661.71	15.690
662.03	15.520
662.36	16.458
662.68	13.508
663.01	14.690
663.33	13.800
663.66	15.018
663.98	11.346
664.31	17.073
664.63	12.524
664.96	16.697
665.28	12.160
665.61	16.259
665.93	12.857
666.26	14.516
666.58	11.993
666.91	17.196
667.23	14.667
667.56	12.821
667.88	14.400
668.21	11.719
668.53	12.934
668.86	14.342
669.18	11.405
669.50	12.326
669.83	13.400
670.15	14.961
670.48	14.484
670.80	12.237
671.13	13.800
671.45	14.370
671.77	16.008
672.10	14.833
672.42	14.239
672.75	15.822
673.07	17.313
673.39	13.405
673.72	15.268
674.04	15.000
674.37	14.490
674.69	17.637
675.01	14.095
675.34	12.023
675.66	13.670
675.98	15.858
676.31	12.305
676.63	14.449
676.95	15.517
677.28	11.492
677.60	13.189
677.92	13.244
678.25	14.991
678.57	16.548
678.89	16.041
679.22	13.066
679.54	14.872
679.86	12.881
680.18	14.925
680.51	15.094
680.83	15.712
681.15	13.621
681.48	15.544
681.80	15.717
682.12	15.734
682.44	15.192
682.77	13.298
683.09	14.205
683.41	14.922
683.73	13.852
684.06	13.469
684.38	12.880
684.70	16.876
685.02	15.318
685.34	13.810
685.67	14.353
685.99	15.031
686.31	13.372
686.63	14.218
686.96	16.404
687.28	14.984
687.60	13.973
687.92	13.826
688.24	15.359
688.56	15.000
688.89	14.519
689.21	13.699
689.53	11.569
689.85	12.229
690.17	13.704
690.49	13.347
690.82	12.277
691.14	10.324
691.46	13.958
691.78	13.076
692.10	11.927
692.42	13.750
692.74	12.704
693.06	14.630
693.39	13.662
693.71	11.466
694.03	12.454
694.35	14.286
694.67	12.115
694.99	11.702
695.31	9.934
695.63	14.069
695.95	10.559
696.27	12.747
696.59	15.265
696.91	10.811
697.23	12.967
697.56	12.220
697.88	12.121
698.20	12.806
698.52	16.098
698.84	15.177
699.16	13.469
699.48	13.389
699.80	10.638
700.12	13.319
700.44	11.060
700.76	12.114
701.08	13.317
701.40	11.658
701.72	12.935
702.04	12.032
702.36	8.377
702.68	10.758
703.00	10.269
703.32	9.852
703.64	13.203
703.96	14.320
704.28	10.074
704.60	14.177
704.91	9.694
705.23	11.233
705.55	13.649
705.87	9.091
706.19	13.190
706.51	7.229
706.83	8.934
707.15	8.201
707.47	10.981
707.79	12.445
708.11	11.864
708.43	10.108
708.74	9.152
709.06	11.601
709.38	12.207
709.70	17.122
710.02	10.853
710.34	11.968
710.66	8.939
710.98	10.656
711.29	8.516
711.61	10.169
711.93	11.396
712.25	13.514
712.57	10.619
712.89	10.882
713.20	9.172
713.52	12.428
713.84	5.850
714.16	13.158
714.48	13.402
714.80	11.948
715.11	11.024
715.43	10.875
715.75	10.789
716.07	5.525
716.39	9.563
716.70	6.928
717.02	6.885
717.34	7.317
717.66	6.711
717.97	5.822
718.29	6.529
718.61	9.539
718.93	9.061
719.24	10.248
719.56	12.577
719.88	8.709
720.20	9.677
720.51	9.317
720.83	9.375
721.15	6.908
721.46	4.795
721.78	8.000
722.10	6.796
722.42	8.389
722.73	10.968
723.05	10.175
723.37	10.069
723.68	10.753
724.00	8.303
724.32	3.873
724.63	5.594
724.95	8.865
725.27	9.756
725.58	8.481
725.90	12.759
726.22	12.226
726.53	10.714
726.85	8.176
727.16	9.668
727.48	12.232
727.80	8.609
728.11	4.240
728.43	8.081
728.74	7.692
729.06	8.278
729.38	12.013
729.69	8.389
730.01	9.821
730.32	4.848
730.64	9.434
730.96	10.248
731.27	11.453
731.59	11.538
731.90	10.390
732.22	10.156
732.53	6.354
732.85	8.571
733.16	9.971
733.48	7.927
733.80	9.749
734.11	9.972
734.43	9.189
734.74	13.671
735.06	9.296
735.37	12.703
735.69	6.757
736.00	10.734
736.32	11.590
736.63	11.111
736.95	11.782
737.26	8.182
737.58	8.788
737.89	11.765
738.21	7.645
738.52	6.885
738.83	7.850
739.15	8.865
739.46	10.544
739.78	10.123
740.09	6.304
740.41	13.994
740.72	7.667
741.04	11.974
741.35	8.421
741.66	6.275
741.98	11.475
742.29	7.950
742.61	3.509
742.92	9.615
743.23	10.469
743.55	6.977
743.86	9.200
744.18	4.132
744.49	2.954
744.80	8.642
745.12	6.329
745.43	9.350
745.74	4.310
746.06	5.508
746.37	8.439
746.68	11.789
747.00	7.500
747.31	9.013
747.62	7.308
747.94	2.429
748.25	4.819
748.56	6.531
748.88	5.128
749.19	6.034
749.50	6.494
749.82	8.032
750.13	10.320
750.44	6.333
750.75	9.538
751.07	8.923
751.38	11.356
751.69	8.626
752.01	7.120
752.32	11.111
752.63	10.884
752.94	9.689
753.26	7.063
753.57	7.778
753.88	9.738
754.19	9.325
754.51	9.968
754.82	9.325
755.13	11.475
755.44	9.556
755.75	10.197
756.07	11.343
756.38	7.547
756.69	10.542
757.00	10.803
757.31	13.661
757.63	9.974
757.94	11.737
758.25	13.318
758.56	10.022
758.87	13.864
759.18	10.933
759.50	13.314
759.81	9.524
760.12	9.973
760.43	10.937
760.74	13.054
761.05	8.000
761.36	9.880
761.67	10.660
761.99	10.811
762.30	9.756
762.61	6.601
762.92	11.194
763.23	8.989
763.54	8.633
763.85	6.873
764.16	13.131
764.47	7.042
764.78	13.419
765.10	9.971
765.41	13.590
765.72	8.466
766.03	8.475
766.34	5.956
766.65	7.666
766.96	8.367
767.27	7.373
767.58	-3.483
767.89	8.173
768.20	5.164
768.51	3.704
768.82	10.040
769.13	8.712
769.44	-1.154
769.75	7.581
770.06	7.308
770.37	14.961
770.68	2.553
770.99	2.834
771.30	6.296
771.61	6.084
771.92	9.259
772.23	9.312
772.54	0.463
772.85	12.903
773.16	10.952
773.47	3.704
773.78	3.243
774.09	3.409
774.39	10.000
774.70	4.372
775.01	-1.829
775.32	0.000
775.63	-0.613
775.94	-6.369
776.25	5.806
776.56	3.205
776.87	-1.361
777.18	-0.690
777.48	-2.797
777.79	-8.108
778.10	-6.618
778.41	-3.472
778.72	-0.690
779.03	-2.469
779.34	1.818
779.65	0.518
779.95	0.556
780.26	1.136
780.57	1.935
780.88	0.000
781.19	6.452
781.50	2.941
781.80	5.376
782.11	2.646
782.42	-3.535
782.73	-6.587
783.04	0.559
783.34	1.212
783.65	-5.882
783.96	0.000
784.27	-1.190
784.57	2.649
784.88	-2.143
785.19	-7.087
785.50	-7.087
785.81	-4.511
786.11	-3.846
786.42	-5.755
786.73	-10.072
787.04	0.000
787.34	2.459
787.65	-4.800
787.96	0.000
788.26	-0.699
788.57	3.497
788.88	1.974
789.19	7.190
789.49	0.000
789.80	-2.837
790.11	-3.937
790.41	-5.469
790.72	-14.407
791.03	-19.417
791.33	-2.609
791.64	-6.140
791.95	-7.143
792.25	-3.810
792.56	-2.679
792.87	-14.583
793.17	1.786
793.48	-5.208
793.79	-20.482
794.09	-13.761
794.40	-12.844
794.70	0.680
795.01	-1.299
795.32	-2.055
795.62	2.817
795.93	-9.091
796.23	8.197
796.54	-8.929
796.85	-11.702
797.15	-16.304
797.46	-27.397
797.76	-26.250
798.07	-14.130
798.37	-24.742
798.68	-18.182
798.99	-16.092
799.29	-14.607
799.60	-6.383
799.90	-13.253
800.21	-29.231
800.51	-23.881
800.82	-22.059
801.12	-24.658
801.43	-22.059
801.73	-30.508
802.04	-13.636
802.34	-20.000
802.65	-20.339
802.95	-4.478
803.26	-27.119
803.56	-13.699
803.87	-14.286
804.17	-10.959
804.48	-59.649
804.78	-23.611
805.09	-50.000
805.39	-6.757
805.70	-11.268
806.00	-8.537
806.30	-13.253
806.61	-27.397
806.91	-6.731
807.22	-18.889
807.52	-24.138
807.83	-19.444
808.13	-7.229
808.43	-15.730
808.74	-11.250
809.04	-32.353
809.35	-20.000
809.65	-10.000
809.95	-19.178
810.26	-40.351
810.56	-50.000
810.86	-22.059
811.17	-28.070
811.47	-26.230
811.77	-44.444
812.08	-25.424
812.38	-26.667
812.69	-20.690
812.99	-54.717
813.29	-74.359
813.59	-30.000
813.90	-15.789
814.20	-40.000
814.50	-5.634
814.81	-11.538
815.11	-34.426
815.41	-22.388
815.72	-20.690
816.02	-42.857
816.32	-13.333
816.62	-29.545
816.93	-42.222
817.23	-31.481
817.53	-40.426
817.84	-26.190
818.14	-32.353
818.44	-32.653
818.74	-55.556
819.04	-79.487
819.35	-85.714
819.65	-119.231
819.95	-24.528
820.25	-51.111
820.56	-35.714
820.86	-43.750
821.16	-69.231
821.46	-62.791
821.76	-52.000
822.07	-32.143
822.37	-63.043
822.67	-53.191
822.97	-81.081
823.27	-47.500
823.57	-10.204
823.88	-22.222
824.18	-52.500
824.48	-56.667
824.78	-76.000
825.08	-57.576
825.38	-22.222
825.69	-38.298
825.99	-72.222
826.29	-88.571
826.59	-61.538
826.89	-72.093
827.19	-26.000
827.49	-76.471
827.79	-33.333
828.09	-64.865
828.39	-60.000
828.70	-29.268
829.00	-30.233
829.30	-85.714
829.60	-23.529
829.90	-41.304
830.20	-65.714
830.50	-75.862
830.80	-116.667
831.10	-88.462
831.40	-58.824
831.70	-104.762
832.00	-54.839
832.30	-205.882
832.60	-104.167
832.90	-253.846
833.20	-100.000
833.50	-140.000
833.80	-168.421
834.10	-133.333
834.40	-55.556
834.70	-43.750
835.00	-82.857
835.30	-38.235
835.60	-66.667
835.90	-88.000
836.20	-172.727
836.50	-88.000
836.80	-103.030
837.10	-88.889
837.40	-74.074
837.70	-143.750
838.00	-71.429
838.30	-86.957
838.60	-44.828
838.90	-242.857
839.19	-134.783
839.49	-266.667
839.79	-82.609
840.09	-156.250
840.39	-120.000
840.69	-41.935
840.99	-71.429
841.29	-106.667
841.59	-142.105
841.88	-25.641
842.18	-126.923
842.48	-240.000
842.78	-175.000
843.08	-63.333
843.38	-38.710
843.68	-155.556
843.97	-52.941
844.27	-150.000
844.57	-173.684
844.87	-250.000
845.17	-166.667
845.47	-66.667
845.76	-100.000
846.06	-255.556
846.36	-164.706
846.66	-88.462
846.96	-233.333
847.25	-117.647
847.55	-69.565
847.85	-75.000
848.15	-147.059
848.44	-254.545
848.74	-100.000
849.04	-120.833
849.34	-193.750
849.63	-86.957
849.93	1200.000
850.23	-140.000
850.53	-57.692
850.82	-209.091
851.12	-59.091
851.42	-218.182
851.71	-192.308
852.01	-160.000
852.31	-176.923
852.61	-147.368
852.90	-158.333
853.20	-83.333
853.50	-322.222
853.79	-119.048
854.09	-104.545
854.39	-258.333
854.68	-77.419
854.98	-96.154
855.28	-77.778
855.57	-100.000
855.87	-120.000
856.17	-81.818
856.46	-92.593
856.76	-155.556
857.05	-113.043
857.35	-87.500
857.65	-153.846
857.94	-104.762
858.24	-62.963
858.53	-86.957
858.83	-147.059
859.13	-135.294
859.42	-135.294
859.72	-114.286
860.01	-135.000
860.31	-288.889
860.60	-180.000
860.90	-113.333
861.20	-116.667
861.49	-161.538
861.79	-30.000
862.08	-176.923
862.38	-59.375
862.67	-76.471
862.97	-156.250
863.26	-277.778
863.56	-210.000
863.85	-200.000
864.15	-55.556
864.44	-933.333
864.74	-121.429
865.03	-162.500
865.33	-320.000
865.62	-80.645
865.92	-95.455
866.21	-95.652
866.51	-171.429
866.80	-540.000
867.10	-183.333
867.39	-141.667
867.69	2700.000
867.98	-442.857
868.27	-147.059
868.57	-3900.000
868.86	-340.000
869.16	-95.238
869.45	-83.333
869.75	-154.545
870.04	-285.714
870.33	-150.000
870.63	-500.000
870.92	-600.000
871.22	-475.000
871.51	-209.091
871.80	-833.333
872.10	-1350.000
>>>>>End Processed Spectral Data<<<<<
