SpectraSuite Data File
++++++++++++++++++++++++++++++++++++
Date: Thu May 14 15:56:16 PDT 2015
User: schluterlab
Dark Spectrum Present: Yes
Reference Spectrum Present: Yes
Number of Sampled Component Spectra: 1
Spectrometers: USB2E3373
Integration Time (usec): 3000 (USB2E3373)
Spectra Averaged: 3 (USB2E3373)
Boxcar Smoothing: 0 (USB2E3373)
Correct for Electrical Dark: No (USB2E3373)
Strobe/Lamp Enabled: No (USB2E3373)
Correct for Detector Non-linearity: No (USB2E3373)
Correct for Stray Light: No (USB2E3373)
Number of Pixels in Processed Spectrum: 2048
>>>>>Begin Processed Spectral Data<<<<<
178.53	0.000
178.91	485.714
179.29	-4400.000
179.67	-3000.000
180.04	307.143
180.42	240.000
180.80	680.000
181.18	-3100.000
181.56	-2300.000
181.94	625.000
182.31	-650.000
182.69	800.000
183.07	-1650.000
183.45	950.000
183.83	-450.000
184.20	-1000.000
184.58	2600.000
184.96	-600.000
185.34	-322.222
185.72	-480.000
186.09	388.889
186.47	1750.000
186.85	680.000
187.23	-300.000
187.61	-2700.000
187.98	600.000
188.36	875.000
188.74	-550.000
189.12	-833.333
189.49	-125.000
189.87	-425.000
190.25	-266.667
190.63	-280.000
191.00	-300.000
191.38	0.000
191.76	-775.000
192.14	-516.667
192.51	1500.000
192.89	-366.667
193.27	0.000
193.65	-285.714
194.02	-3700.000
194.40	-371.429
194.78	400.000
195.15	0.000
195.53	-200.000
195.91	0.000
196.29	-775.000
196.66	-200.000
197.04	-4000.000
197.42	-457.143
197.79	-1450.000
198.17	-325.000
198.55	-371.429
198.92	-344.444
199.30	-462.500
199.68	-254.545
200.05	-192.857
200.43	-1600.000
200.81	485.714
201.18	0.000
201.56	422.222
201.94	0.000
202.31	1333.333
202.69	-455.556
203.07	2900.000
203.44	-311.111
203.82	-800.000
204.19	-216.667
204.57	-500.000
204.95	-337.500
205.32	-3500.000
205.70	750.000
206.08	-433.333
206.45	-433.333
206.83	580.000
207.20	-383.333
207.58	-520.000
207.96	-550.000
208.33	-366.667
208.71	300.000
209.08	-400.000
209.46	0.000
209.84	616.667
210.21	1200.000
210.59	1050.000
210.96	933.333
211.34	-550.000
211.71	-362.500
212.09	-3700.000
212.46	0.000
212.84	2000.000
213.22	-600.000
213.59	-750.000
213.97	-150.000
214.34	-1333.333
214.72	583.333
215.09	-575.000
215.47	0.000
215.84	385.714
216.22	1650.000
216.59	-420.000
216.97	-440.000
217.34	-850.000
217.72	-262.500
218.09	-575.000
218.47	-950.000
218.84	0.000
219.22	440.000
219.59	-123.529
219.97	-110.000
220.34	1850.000
220.72	-377.778
221.09	-153.846
221.47	-733.333
221.84	-240.000
222.22	-471.429
222.59	0.000
222.97	-337.500
223.34	-640.000
223.72	-3200.000
224.09	-775.000
224.46	-850.000
224.84	-460.000
225.21	-400.000
225.59	-850.000
225.96	-1025.000
226.34	-96.154
226.71	583.333
227.08	-1750.000
227.46	-180.000
227.83	-800.000
228.21	-126.316
228.58	375.000
228.95	1000.000
229.33	-141.667
229.70	-170.000
230.08	-73.684
230.45	270.000
230.82	-600.000
231.20	-207.143
231.57	-258.333
231.95	-136.364
232.32	-172.727
232.69	-105.000
233.07	-625.000
233.44	-129.412
233.81	-280.000
234.19	-105.556
234.56	-90.909
234.93	-65.517
235.31	-121.053
235.68	-100.000
236.05	-170.000
236.43	-50.000
236.80	-32.000
237.17	-40.741
237.55	-66.667
237.92	-220.000
238.29	-45.161
238.67	-54.545
239.04	-61.111
239.41	-26.190
239.79	-17.391
240.16	-14.815
240.53	-23.913
240.91	-37.255
241.28	-16.393
241.65	1.493
242.02	13.514
242.40	1.538
242.77	-8.000
243.14	-6.098
243.51	-9.211
243.89	-5.128
244.26	13.861
244.63	17.647
245.00	7.477
245.38	2.632
245.75	-3.540
246.12	23.016
246.49	6.977
246.87	14.286
247.24	19.868
247.61	16.447
247.98	17.450
248.36	9.259
248.73	13.497
249.10	12.022
249.47	21.891
249.84	25.131
250.22	22.280
250.59	24.444
250.96	25.455
251.33	19.388
251.70	21.368
252.08	20.833
252.45	20.902
252.82	22.314
253.19	19.922
253.56	25.856
253.94	19.231
254.31	23.106
254.68	24.476
255.05	25.081
255.42	18.707
255.79	22.977
256.16	22.517
256.54	24.834
256.91	27.213
257.28	24.590
257.65	24.204
258.02	20.944
258.39	26.496
258.76	30.275
259.14	27.299
259.51	24.784
259.88	26.062
260.25	28.056
260.62	26.027
260.99	30.055
261.36	27.614
261.73	26.525
262.10	29.670
262.47	26.273
262.85	29.798
263.22	25.974
263.59	26.316
263.96	27.110
264.33	25.575
264.70	29.630
265.07	28.878
265.44	29.252
265.81	26.620
266.18	29.025
266.55	28.125
266.92	27.107
267.29	29.322
267.66	30.377
268.03	31.659
268.40	26.305
268.77	28.018
269.14	29.075
269.51	28.728
269.88	28.279
270.25	29.577
270.62	28.270
270.99	28.283
271.36	29.505
271.73	26.916
272.10	30.261
272.47	27.856
272.84	29.920
273.21	30.461
273.58	26.815
273.95	26.538
274.32	27.757
274.69	25.919
275.06	28.755
275.43	28.466
275.80	28.748
276.17	27.222
276.54	27.985
276.91	25.939
277.28	26.944
277.65	29.443
278.02	28.493
278.39	25.906
278.76	27.065
279.13	27.482
279.50	26.804
279.87	27.907
280.23	25.000
280.60	27.797
280.97	27.961
281.34	28.183
281.71	30.795
282.08	25.581
282.45	27.823
282.82	29.513
283.19	26.494
283.56	27.377
283.92	27.778
284.29	29.226
284.66	28.243
285.03	24.038
285.40	27.512
285.77	26.780
286.14	30.229
286.51	27.397
286.87	26.066
287.24	25.452
287.61	25.859
287.98	25.076
288.35	27.367
288.72	24.704
289.08	25.769
289.45	23.521
289.82	25.904
290.19	25.431
290.56	24.366
290.93	27.389
291.29	26.446
291.66	25.620
292.03	23.202
292.40	24.762
292.77	23.585
293.13	23.816
293.50	24.310
293.87	22.819
294.24	26.400
294.60	24.652
294.97	21.611
295.34	23.175
295.71	22.068
296.08	22.610
296.44	23.284
296.81	22.290
297.18	23.288
297.55	22.052
297.91	20.403
298.28	21.090
298.65	21.165
299.02	21.370
299.38	21.281
299.75	20.911
300.12	20.718
300.48	21.198
300.85	20.472
301.22	22.148
301.59	20.548
301.95	21.356
302.32	21.000
302.69	19.168
303.05	19.369
303.42	20.843
303.79	21.354
304.15	22.923
304.52	20.190
304.89	20.105
305.25	19.772
305.62	18.286
305.99	19.691
306.35	20.766
306.72	21.406
307.09	19.898
307.45	19.255
307.82	18.971
308.19	20.182
308.55	20.154
308.92	20.448
309.29	20.881
309.65	18.129
310.02	20.792
310.38	20.079
310.75	19.612
311.12	19.751
311.48	19.453
311.85	19.658
312.22	19.829
312.58	19.343
312.95	19.312
313.31	18.067
313.68	20.238
314.05	19.422
314.41	21.311
314.78	19.074
315.14	19.147
315.51	20.129
315.87	18.812
316.24	19.543
316.61	19.716
316.97	19.819
317.34	19.400
317.70	20.000
318.07	20.194
318.43	20.578
318.80	21.739
319.16	19.313
319.53	18.595
319.89	19.807
320.26	19.306
320.62	18.617
320.99	19.852
321.35	18.946
321.72	20.837
322.08	18.305
322.45	17.977
322.81	20.668
323.18	19.735
323.54	19.224
323.91	18.238
324.27	17.298
324.64	19.228
325.00	19.486
325.37	18.837
325.73	20.083
326.10	18.978
326.46	19.870
326.83	20.496
327.19	19.606
327.56	20.079
327.92	19.276
328.29	19.113
328.65	19.179
329.01	19.036
329.38	20.388
329.74	19.435
330.11	19.863
330.47	20.219
330.84	19.294
331.20	20.000
331.56	19.497
331.93	19.916
332.29	20.254
332.66	19.269
333.02	18.425
333.38	18.372
333.75	18.687
334.11	19.266
334.48	19.554
334.84	20.391
335.20	18.808
335.57	19.815
335.93	19.669
336.29	18.885
336.66	17.746
337.02	18.813
337.38	19.643
337.75	18.264
338.11	18.923
338.47	18.445
338.84	18.359
339.20	19.292
339.56	18.040
339.93	19.540
340.29	19.243
340.65	17.680
341.02	19.393
341.38	18.917
341.74	17.676
342.11	19.549
342.47	17.792
342.83	18.680
343.20	18.479
343.56	18.524
343.92	18.655
344.28	17.578
344.65	19.147
345.01	18.331
345.37	19.596
345.73	17.615
346.10	18.487
346.46	18.987
346.82	17.978
347.19	18.029
347.55	18.816
347.91	18.574
348.27	19.499
348.63	17.593
349.00	16.779
349.36	18.439
349.72	19.048
350.08	18.648
350.45	16.882
350.81	18.326
351.17	18.045
351.53	18.423
351.89	18.831
352.26	18.134
352.62	17.985
352.98	17.557
353.34	18.223
353.70	17.874
354.07	17.213
354.43	17.540
354.79	17.427
355.15	17.660
355.51	18.275
355.87	18.549
356.24	17.643
356.60	17.886
356.96	18.458
357.32	17.993
357.68	16.911
358.04	17.515
358.40	17.015
358.77	18.640
359.13	16.617
359.49	17.546
359.85	17.404
360.21	17.217
360.57	18.378
360.93	17.983
361.29	17.263
361.66	16.437
362.02	18.650
362.38	18.060
362.74	17.109
363.10	17.056
363.46	17.452
363.82	17.116
364.18	18.015
364.54	16.459
364.90	17.258
365.26	16.552
365.62	18.400
365.98	17.495
366.35	16.980
366.71	18.027
367.07	16.644
367.43	18.253
367.79	16.589
368.15	17.525
368.51	16.712
368.87	16.982
369.23	17.200
369.59	17.760
369.95	16.700
370.31	17.421
370.67	16.713
371.03	17.175
371.39	16.320
371.75	16.988
372.11	17.209
372.47	17.129
372.83	16.558
373.19	17.345
373.55	16.938
373.91	16.155
374.27	16.688
374.63	16.306
374.99	16.910
375.35	17.792
375.71	16.968
376.07	17.108
376.42	16.247
376.78	17.464
377.14	16.906
377.50	16.888
377.86	17.611
378.22	17.246
378.58	17.539
378.94	16.432
379.30	16.227
379.66	16.578
380.02	16.561
380.38	17.857
380.74	15.775
381.09	16.492
381.45	17.557
381.81	17.213
382.17	16.568
382.53	16.784
382.89	16.704
383.25	16.764
383.61	16.377
383.97	16.608
384.32	16.328
384.68	15.719
385.04	17.178
385.40	18.268
385.76	17.057
386.12	15.978
386.48	16.706
386.83	17.104
387.19	16.396
387.55	16.021
387.91	16.495
388.27	17.379
388.62	16.781
388.98	16.356
389.34	17.030
389.70	16.676
390.06	15.986
390.42	16.205
390.77	17.640
391.13	16.138
391.49	16.063
391.85	15.576
392.20	16.607
392.56	15.948
392.92	17.176
393.28	16.584
393.64	15.922
393.99	16.676
394.35	17.523
394.71	16.287
395.07	16.108
395.42	15.991
395.78	16.758
396.14	17.409
396.50	15.855
396.85	15.802
397.21	16.509
397.57	16.196
397.92	16.953
398.28	15.698
398.64	16.476
399.00	15.445
399.35	16.283
399.71	16.359
400.07	16.451
400.42	16.298
400.78	16.667
401.14	16.392
401.49	16.771
401.85	16.221
402.21	17.613
402.57	17.077
402.92	16.194
403.28	15.515
403.63	15.990
403.99	15.736
404.35	16.259
404.70	15.921
405.06	16.196
405.42	15.808
405.77	16.630
406.13	16.045
406.49	16.329
406.84	16.620
407.20	16.266
407.55	15.748
407.91	16.530
408.27	15.548
408.62	16.289
408.98	16.077
409.34	14.721
409.69	15.822
410.05	16.002
410.40	16.531
410.76	16.657
411.11	16.540
411.47	16.216
411.83	16.696
412.18	15.904
412.54	16.123
412.89	16.356
413.25	16.874
413.60	16.312
413.96	16.725
414.31	15.411
414.67	15.921
415.03	15.877
415.38	16.078
415.74	15.455
416.09	16.718
416.45	15.654
416.80	16.218
417.16	15.198
417.51	16.189
417.87	15.144
418.22	15.269
418.58	16.481
418.93	17.462
419.29	15.783
419.64	16.567
420.00	16.024
420.35	15.553
420.71	15.910
421.06	15.584
421.42	16.227
421.77	15.994
422.12	16.649
422.48	16.180
422.83	17.141
423.19	15.756
423.54	16.150
423.90	16.621
424.25	16.213
424.61	15.385
424.96	16.420
425.31	16.667
425.67	14.868
426.02	15.827
426.38	15.040
426.73	15.011
427.09	16.494
427.44	16.275
427.79	15.810
428.15	15.126
428.50	15.449
428.85	14.925
429.21	16.011
429.56	15.647
429.92	15.872
430.27	15.566
430.62	16.365
430.98	15.445
431.33	16.422
431.68	15.900
432.04	16.150
432.39	15.533
432.74	15.468
433.10	15.792
433.45	15.050
433.80	15.933
434.16	16.116
434.51	16.393
434.86	16.558
435.22	16.897
435.57	16.450
435.92	15.971
436.28	15.131
436.63	15.620
436.98	15.244
437.34	17.024
437.69	15.080
438.04	15.918
438.39	16.427
438.75	15.440
439.10	15.803
439.45	15.875
439.81	15.763
440.16	15.335
440.51	15.998
440.86	16.231
441.22	15.166
441.57	15.828
441.92	16.101
442.27	17.020
442.63	16.443
442.98	15.422
443.33	15.939
443.68	16.997
444.03	16.322
444.39	16.181
444.74	16.386
445.09	16.219
445.44	15.648
445.79	15.900
446.15	15.930
446.50	15.762
446.85	16.440
447.20	16.586
447.55	16.841
447.91	15.759
448.26	15.539
448.61	16.259
448.96	16.470
449.31	15.483
449.66	15.087
450.02	16.456
450.37	16.942
450.72	15.823
451.07	16.287
451.42	15.194
451.77	16.009
452.12	16.140
452.47	15.330
452.83	15.541
453.18	15.470
453.53	15.910
453.88	16.068
454.23	16.328
454.58	16.599
454.93	15.837
455.28	16.135
455.63	16.146
455.98	16.369
456.34	15.489
456.69	15.461
457.04	15.603
457.39	16.574
457.74	16.387
458.09	15.706
458.44	16.379
458.79	14.698
459.14	16.099
459.49	14.997
459.84	16.159
460.19	15.547
460.54	16.581
460.89	15.828
461.24	15.115
461.59	15.606
461.94	14.604
462.29	15.901
462.64	15.450
462.99	15.317
463.34	15.380
463.69	15.651
464.04	15.564
464.39	16.087
464.74	15.621
465.09	15.225
465.44	15.773
465.79	16.446
466.14	16.154
466.49	15.474
466.84	15.702
467.19	15.202
467.54	15.159
467.89	16.437
468.24	15.568
468.59	14.881
468.94	13.928
469.29	14.877
469.64	14.685
469.99	14.914
470.34	15.594
470.68	15.653
471.03	14.997
471.38	15.108
471.73	15.150
472.08	15.292
472.43	15.051
472.78	15.491
473.13	15.171
473.48	15.650
473.83	15.961
474.17	15.826
474.52	15.634
474.87	15.338
475.22	16.000
475.57	15.732
475.92	15.580
476.27	15.389
476.61	15.576
476.96	15.798
477.31	15.693
477.66	15.215
478.01	15.506
478.36	15.304
478.70	15.222
479.05	15.440
479.40	16.140
479.75	15.898
480.10	15.538
480.45	15.542
480.79	15.238
481.14	14.982
481.49	15.084
481.84	16.232
482.19	15.828
482.53	15.697
482.88	15.197
483.23	15.562
483.58	15.371
483.92	14.938
484.27	15.792
484.62	15.635
484.97	15.785
485.31	15.276
485.66	15.717
486.01	16.713
486.36	17.312
486.70	17.630
487.05	17.175
487.40	16.253
487.75	16.183
488.09	15.864
488.44	15.351
488.79	15.481
489.13	14.736
489.48	14.602
489.83	15.252
490.17	14.824
490.52	15.025
490.87	15.228
491.22	15.338
491.56	15.188
491.91	15.046
492.26	14.799
492.60	15.479
492.95	15.270
493.30	15.016
493.64	15.506
493.99	15.132
494.34	14.765
494.68	14.818
495.03	15.771
495.37	16.201
495.72	15.238
496.07	15.337
496.41	14.715
496.76	15.346
497.11	15.754
497.45	15.667
497.80	15.415
498.14	15.420
498.49	14.798
498.84	15.311
499.18	15.115
499.53	14.978
499.87	15.736
500.22	14.604
500.56	14.890
500.91	14.188
501.26	16.000
501.60	14.582
501.95	15.284
502.29	14.568
502.64	15.173
502.98	14.754
503.33	14.644
503.67	15.133
504.02	14.974
504.36	15.013
504.71	14.837
505.06	14.507
505.40	14.488
505.75	15.437
506.09	15.424
506.44	15.645
506.78	14.862
507.13	15.353
507.47	14.685
507.82	14.583
508.16	14.818
508.51	14.393
508.85	15.116
509.19	15.538
509.54	15.082
509.88	14.473
510.23	15.736
510.57	15.853
510.92	14.804
511.26	14.574
511.61	14.293
511.95	14.690
512.30	14.968
512.64	13.943
512.98	14.557
513.33	14.667
513.67	15.247
514.02	14.716
514.36	14.680
514.70	14.635
515.05	15.902
515.39	15.171
515.74	14.634
516.08	14.844
516.42	15.123
516.77	14.301
517.11	14.647
517.46	14.316
517.80	14.698
518.14	15.071
518.49	14.208
518.83	14.316
519.17	13.086
519.52	14.623
519.86	14.784
520.20	14.696
520.55	13.582
520.89	13.964
521.23	14.015
521.58	14.915
521.92	13.824
522.26	14.433
522.61	13.831
522.95	14.014
523.29	14.023
523.64	13.509
523.98	15.060
524.32	14.441
524.66	14.456
525.01	13.590
525.35	14.072
525.69	13.921
526.04	13.949
526.38	14.138
526.72	14.014
527.06	14.663
527.41	14.519
527.75	14.727
528.09	13.695
528.43	14.328
528.78	13.295
529.12	13.188
529.46	14.840
529.80	13.959
530.15	14.493
530.49	13.405
530.83	14.581
531.17	14.098
531.51	14.079
531.86	14.603
532.20	14.634
532.54	14.243
532.88	13.455
533.22	14.673
533.57	14.714
533.91	14.815
534.25	14.076
534.59	14.828
534.93	14.205
535.27	14.197
535.62	15.804
535.96	14.933
536.30	14.277
536.64	14.234
536.98	14.330
537.32	14.198
537.66	13.911
538.01	14.079
538.35	13.337
538.69	14.243
539.03	14.408
539.37	15.077
539.71	15.075
540.05	14.269
540.39	13.631
540.73	13.904
541.07	14.040
541.42	14.058
541.76	13.701
542.10	13.752
542.44	13.825
542.78	13.990
543.12	14.541
543.46	14.347
543.80	13.909
544.14	14.602
544.48	14.007
544.82	15.380
545.16	15.564
545.50	14.979
545.84	14.023
546.18	15.000
546.52	14.140
546.86	14.025
547.20	13.868
547.54	14.232
547.88	14.828
548.22	14.211
548.56	14.745
548.90	14.388
549.24	14.103
549.58	13.943
549.92	13.393
550.26	14.369
550.60	14.742
550.94	14.489
551.28	13.267
551.62	13.679
551.96	13.851
552.30	14.595
552.64	13.690
552.98	13.849
553.32	13.183
553.66	14.084
554.00	14.691
554.34	14.028
554.68	13.880
555.02	13.469
555.36	13.807
555.69	14.029
556.03	13.619
556.37	14.956
556.71	13.824
557.05	14.377
557.39	13.205
557.73	13.474
558.07	13.576
558.41	14.153
558.75	13.185
559.08	13.987
559.42	13.992
559.76	14.043
560.10	13.999
560.44	14.314
560.78	14.875
561.12	13.916
561.45	15.268
561.79	13.797
562.13	14.048
562.47	13.687
562.81	13.354
563.15	14.710
563.48	13.673
563.82	14.027
564.16	13.628
564.50	14.660
564.84	13.333
565.17	15.000
565.51	14.384
565.85	13.064
566.19	13.767
566.52	14.336
566.86	13.978
567.20	13.921
567.54	14.498
567.88	15.189
568.21	14.476
568.55	15.108
568.89	15.887
569.23	15.589
569.56	15.436
569.90	16.358
570.24	16.020
570.57	15.523
570.91	15.554
571.25	16.199
571.59	16.504
571.92	15.645
572.26	16.120
572.60	15.971
572.93	15.920
573.27	15.538
573.61	15.934
573.95	16.023
574.28	16.398
574.62	16.235
574.96	16.365
575.29	15.664
575.63	16.286
575.97	16.144
576.30	15.939
576.64	16.130
576.98	16.310
577.31	15.966
577.65	16.653
577.98	16.340
578.32	16.161
578.66	16.453
578.99	15.974
579.33	15.718
579.67	15.526
580.00	15.779
580.34	16.056
580.67	15.865
581.01	15.816
581.35	16.326
581.68	16.539
582.02	16.759
582.35	16.968
582.69	17.225
583.02	15.960
583.36	16.061
583.70	15.656
584.03	15.503
584.37	15.330
584.70	15.281
585.04	15.717
585.37	16.019
585.71	16.289
586.04	16.402
586.38	15.901
586.72	15.367
587.05	15.631
587.39	16.355
587.72	16.220
588.06	15.691
588.39	15.858
588.73	15.820
589.06	15.040
589.40	15.458
589.73	15.456
590.07	15.351
590.40	15.179
590.73	15.376
591.07	15.376
591.40	15.241
591.74	14.348
592.07	14.941
592.41	15.103
592.74	15.371
593.08	16.019
593.41	16.623
593.75	16.207
594.08	15.601
594.41	15.865
594.75	15.543
595.08	15.343
595.42	15.065
595.75	15.434
596.09	15.825
596.42	15.048
596.75	14.782
597.09	15.152
597.42	15.018
597.75	15.210
598.09	15.278
598.42	14.837
598.76	15.055
599.09	15.450
599.42	15.722
599.76	15.187
600.09	16.016
600.42	15.516
600.76	15.225
601.09	15.134
601.42	15.826
601.76	15.034
602.09	15.046
602.42	14.504
602.76	14.760
603.09	15.272
603.42	15.282
603.76	14.905
604.09	15.224
604.42	15.229
604.76	14.764
605.09	15.158
605.42	15.391
605.75	15.038
606.09	15.006
606.42	15.104
606.75	15.030
607.09	14.900
607.42	15.145
607.75	15.279
608.08	14.759
608.42	14.833
608.75	14.718
609.08	14.389
609.41	14.777
609.75	14.420
610.08	15.699
610.41	15.123
610.74	14.916
611.07	14.831
611.41	15.112
611.74	14.781
612.07	15.241
612.40	13.926
612.73	14.474
613.07	14.572
613.40	15.111
613.73	14.540
614.06	14.279
614.39	14.043
614.72	14.459
615.06	14.485
615.39	14.161
615.72	14.550
616.05	14.376
616.38	14.026
616.71	14.890
617.05	13.898
617.38	15.142
617.71	14.957
618.04	13.708
618.37	14.973
618.70	14.932
619.03	13.560
619.36	13.748
619.69	13.453
620.03	13.559
620.36	13.865
620.69	13.325
621.02	13.320
621.35	13.498
621.68	13.594
622.01	12.811
622.34	13.180
622.67	12.715
623.00	12.416
623.33	13.802
623.66	14.137
623.99	13.759
624.32	14.360
624.65	13.771
624.99	14.304
625.32	14.304
625.65	13.621
625.98	12.542
626.31	13.182
626.64	13.260
626.97	12.378
627.30	12.832
627.63	11.778
627.96	13.138
628.29	12.996
628.62	11.419
628.95	11.919
629.28	11.980
629.61	13.468
629.94	12.301
630.26	11.525
630.59	11.572
630.92	11.688
631.25	11.538
631.58	12.147
631.91	12.184
632.24	11.239
632.57	11.860
632.90	11.434
633.23	10.816
633.56	12.959
633.89	11.260
634.22	12.370
634.55	11.691
634.88	11.688
635.20	13.348
635.53	11.412
635.86	11.159
636.19	11.665
636.52	11.603
636.85	11.338
637.18	10.707
637.51	11.290
637.83	10.410
638.16	11.636
638.49	9.977
638.82	10.034
639.15	10.997
639.48	12.356
639.81	11.663
640.13	10.483
640.46	10.788
640.79	9.926
641.12	11.304
641.45	9.661
641.77	11.425
642.10	9.449
642.43	10.239
642.76	10.163
643.09	9.452
643.41	8.123
643.74	10.483
644.07	10.897
644.40	9.194
644.73	9.869
645.05	9.104
645.38	9.353
645.71	9.384
646.04	10.473
646.36	9.343
646.69	9.969
647.02	9.174
647.35	9.313
647.67	9.984
648.00	8.917
648.33	10.661
648.66	10.414
648.98	9.388
649.31	10.419
649.64	10.624
649.96	9.549
650.29	9.179
650.62	11.457
650.94	8.258
651.27	9.581
651.60	9.211
651.92	9.574
652.25	11.143
652.58	7.565
652.90	7.994
653.23	8.451
653.56	10.699
653.88	12.079
654.21	10.000
654.54	9.393
654.86	10.907
655.19	12.045
655.52	16.042
655.84	19.175
656.17	23.166
656.49	31.822
656.82	32.960
657.15	23.969
657.47	17.021
657.80	11.968
658.13	8.973
658.45	11.205
658.78	13.284
659.10	12.646
659.43	11.759
659.75	11.107
660.08	10.420
660.41	8.437
660.73	8.780
661.06	7.636
661.38	7.974
661.71	6.724
662.03	7.407
662.36	8.945
662.68	8.818
663.01	7.257
663.33	6.616
663.66	9.524
663.98	8.846
664.31	9.381
664.63	7.514
664.96	8.711
665.28	5.626
665.61	10.490
665.93	7.857
666.26	9.857
666.58	7.380
666.91	9.346
667.23	8.762
667.56	8.679
667.88	9.400
668.21	6.250
668.53	5.985
668.86	8.055
669.18	5.499
669.50	6.958
669.83	6.800
670.15	6.890
670.48	10.516
670.80	6.883
671.13	6.994
671.45	7.874
671.77	8.851
672.10	9.000
672.42	8.576
672.75	9.524
673.07	8.955
673.39	8.320
673.72	8.557
674.04	8.448
674.37	8.408
674.69	8.995
675.01	7.429
675.34	7.252
675.66	8.240
675.98	8.209
676.31	9.570
676.63	9.696
676.95	9.962
677.28	7.661
677.60	5.118
677.92	7.869
678.25	7.130
678.57	8.363
678.89	9.386
679.22	8.362
679.54	9.573
679.86	6.610
680.18	7.629
680.51	11.950
680.83	10.638
681.15	7.759
681.48	8.808
681.80	8.117
682.12	7.168
682.44	9.015
682.77	10.284
683.09	8.712
683.41	8.915
683.73	6.831
684.06	8.487
684.38	7.156
684.70	9.156
685.02	9.122
685.34	8.819
685.67	8.360
685.99	9.969
686.31	8.721
686.63	9.479
686.96	9.621
687.28	9.121
687.60	8.923
687.92	10.611
688.24	10.518
688.56	8.966
688.89	8.893
689.21	7.045
689.53	4.902
689.85	7.101
690.17	7.778
690.49	7.570
690.82	6.931
691.14	6.680
691.46	8.222
691.78	9.576
692.10	6.606
692.42	8.036
692.74	7.804
693.06	8.148
693.39	9.298
693.71	8.647
694.03	6.691
694.35	9.143
694.67	9.446
694.99	6.596
695.31	4.857
695.63	7.359
695.95	7.039
696.27	2.198
696.59	8.407
696.91	3.829
697.23	8.791
697.56	6.314
697.88	8.333
698.20	7.533
698.52	9.848
698.84	5.821
699.16	8.776
699.48	6.067
699.80	6.596
700.12	8.079
700.44	5.760
700.76	7.601
701.08	7.506
701.40	8.808
701.72	5.970
702.04	5.348
702.36	3.665
702.68	6.112
703.00	6.357
703.32	5.172
703.64	8.313
703.96	8.353
704.28	7.125
704.60	9.367
704.91	5.357
705.23	4.110
705.55	3.064
705.87	5.152
706.19	7.055
706.51	4.518
706.83	5.476
707.15	6.349
707.47	5.607
707.79	6.332
708.11	7.839
708.43	7.097
708.74	4.018
709.06	6.032
709.38	8.685
709.70	9.181
710.02	6.202
710.34	5.319
710.66	3.073
710.98	4.098
711.29	3.846
711.61	6.497
711.93	6.268
712.25	5.405
712.57	8.260
712.89	4.412
713.20	4.734
713.52	5.491
713.84	7.521
714.16	8.421
714.48	5.928
714.80	7.532
715.11	4.199
715.43	4.244
715.75	8.947
716.07	8.564
716.39	4.372
716.70	2.108
717.02	2.295
717.34	2.787
717.66	0.336
717.97	0.685
718.29	2.749
718.61	0.987
718.93	5.825
719.24	4.658
719.56	5.215
719.88	5.405
720.20	2.903
720.51	5.280
720.83	2.500
721.15	4.605
721.46	-1.370
721.78	0.667
722.10	1.618
722.42	1.678
722.73	6.452
723.05	2.105
723.37	2.431
723.68	1.434
724.00	2.527
724.32	2.113
724.63	4.895
724.95	2.482
725.27	1.742
725.58	-0.353
725.90	5.517
726.22	3.448
726.53	5.519
726.85	5.660
727.16	3.625
727.48	5.199
727.80	3.311
728.11	3.534
728.43	9.428
728.74	4.682
729.06	5.298
729.38	4.870
729.69	2.685
730.01	6.845
730.32	3.939
730.64	4.403
730.96	0.000
731.27	6.425
731.59	4.945
731.90	4.935
732.22	4.167
732.53	4.420
732.85	4.571
733.16	2.933
733.48	3.354
733.80	4.735
734.11	6.838
734.43	5.946
734.74	11.139
735.06	8.291
735.37	5.676
735.69	6.216
736.00	8.192
736.32	7.547
736.63	4.444
736.95	4.885
737.26	6.667
737.58	3.636
737.89	7.059
738.21	1.223
738.52	4.262
738.83	2.389
739.15	1.773
739.46	1.361
739.78	6.748
740.09	4.585
740.41	6.997
740.72	5.333
741.04	6.472
741.35	4.912
741.66	3.529
741.98	0.820
742.29	0.000
742.61	-0.439
742.92	1.923
743.23	6.859
743.55	3.101
743.86	1.200
744.18	-5.785
744.49	-2.110
744.80	2.881
745.12	1.266
745.43	4.065
745.74	-2.586
746.06	2.119
746.37	0.422
746.68	2.846
747.00	-2.500
747.31	3.863
747.62	2.308
747.94	-2.834
748.25	-2.008
748.56	4.082
748.88	-0.427
749.19	3.448
749.50	0.866
749.82	2.410
750.13	8.897
750.44	3.333
750.75	4.000
751.07	4.615
751.38	9.464
751.69	7.348
752.01	1.294
752.32	4.248
752.63	2.381
752.94	9.343
753.26	3.717
753.57	2.593
753.88	5.993
754.19	7.074
754.51	5.145
754.82	5.145
755.13	6.885
755.44	2.389
755.75	3.618
756.07	6.269
756.38	3.459
756.69	4.819
757.00	6.094
757.31	4.918
757.63	3.581
757.94	7.981
758.25	7.675
758.56	10.022
758.87	10.000
759.18	8.267
759.50	8.782
759.81	5.602
760.12	5.930
760.43	5.729
760.74	10.099
761.05	5.250
761.36	8.193
761.67	9.137
761.99	4.865
762.30	3.963
762.61	1.650
762.92	0.746
763.23	2.622
763.54	3.957
763.85	5.842
764.16	4.714
764.47	5.282
764.78	7.668
765.10	6.745
765.41	9.744
765.72	5.556
766.03	4.802
766.34	2.508
766.65	3.833
766.96	-0.398
767.27	-1.382
767.58	-3.483
767.89	3.365
768.20	0.939
768.51	-1.389
768.82	5.622
769.13	5.682
769.44	0.769
769.75	6.498
770.06	-1.923
770.37	6.693
770.68	-3.404
770.99	-1.619
771.30	12.222
771.61	7.985
771.92	1.852
772.23	5.668
772.54	-4.167
772.85	5.991
773.16	2.381
773.47	-6.878
773.78	-8.649
774.09	-0.568
774.39	1.500
774.70	-2.186
775.01	-9.756
775.32	-10.588
775.63	-4.294
775.94	-12.739
776.25	-5.161
776.56	-1.923
776.87	-0.680
777.18	-9.655
777.48	-9.790
777.79	-10.135
778.10	-16.176
778.41	-6.250
778.72	0.000
779.03	-6.173
779.34	-2.424
779.65	0.000
779.95	0.556
780.26	2.273
780.57	-5.806
780.88	-0.725
781.19	6.452
781.50	1.765
781.80	3.226
782.11	1.587
782.42	-4.545
782.73	-6.587
783.04	-1.117
783.34	-3.636
783.65	-9.804
783.96	-1.863
784.27	-1.786
784.57	-1.987
784.88	-8.571
785.19	-15.748
785.50	-10.236
785.81	-7.519
786.11	-6.923
786.42	-11.511
786.73	-9.353
787.04	3.759
787.34	-4.918
787.65	-11.200
787.96	-7.463
788.26	-2.797
788.57	-0.699
788.88	-4.605
789.19	0.000
789.49	-10.274
789.80	-2.128
790.11	-0.787
790.41	-8.594
790.72	-11.864
791.03	-14.563
791.33	-12.174
791.64	-5.263
791.95	-13.393
792.25	-9.524
792.56	-10.714
792.87	-15.625
793.17	-9.821
793.48	-23.958
793.79	-33.735
794.09	-13.761
794.40	-13.761
794.70	-6.122
795.01	-5.844
795.32	-8.904
795.62	0.000
795.93	-1.515
796.23	-13.934
796.54	-13.393
796.85	-19.149
797.15	-30.435
797.46	-34.247
797.76	-28.750
798.07	-9.783
798.37	-27.835
798.68	-24.675
798.99	-21.839
799.29	-8.989
799.60	-5.319
799.90	-27.711
800.21	-41.538
800.51	-49.254
800.82	-32.353
801.12	-34.247
801.43	-39.706
801.73	-35.593
802.04	-12.121
802.34	-43.333
802.65	-40.678
802.95	-11.940
803.26	-28.814
803.56	-27.397
803.87	-22.857
804.17	-21.918
804.48	-52.632
804.78	-31.944
805.09	-44.828
805.39	-18.919
805.70	-39.437
806.00	-19.512
806.30	-18.072
806.61	-24.658
806.91	-7.692
807.22	-16.667
807.52	-20.690
807.83	-22.222
808.13	-9.639
808.43	-15.730
808.74	-22.500
809.04	-39.706
809.35	-17.333
809.65	-34.286
809.95	-36.986
810.26	-50.877
810.56	-32.759
810.86	-13.235
811.17	-49.123
811.47	-50.820
811.77	-66.667
812.08	-16.949
812.38	-28.333
812.69	-27.586
812.99	-47.170
813.29	-89.744
813.59	-48.000
813.90	-31.579
814.20	-50.909
814.50	-16.901
814.81	-11.538
815.11	-27.869
815.41	-28.358
815.72	-20.690
816.02	-26.786
816.32	-31.111
816.62	-50.000
816.93	-57.778
817.23	-27.778
817.53	-55.319
817.84	-19.048
818.14	-79.412
818.44	-44.898
818.74	-48.889
819.04	-74.359
819.35	-97.143
819.65	-111.538
819.95	-32.075
820.25	-33.333
820.56	-71.429
820.86	-81.250
821.16	-43.590
821.46	-53.488
821.76	-66.000
822.07	-41.071
822.37	-65.217
822.67	-44.681
822.97	-78.378
823.27	-82.500
823.57	-32.653
823.88	-53.333
824.18	-52.500
824.48	-80.000
824.78	-108.000
825.08	-54.545
825.38	-22.222
825.69	-48.936
825.99	-69.444
826.29	-105.714
826.59	-71.795
826.89	-62.791
827.19	-34.000
827.49	-85.294
827.79	-43.750
828.09	-91.892
828.39	-73.333
828.70	-34.146
829.00	-51.163
829.30	-100.000
829.60	-58.824
829.90	-32.609
830.20	-74.286
830.50	-117.241
830.80	-200.000
831.10	-107.692
831.40	-73.529
831.70	-133.333
832.00	-51.613
832.30	-264.706
832.60	-133.333
832.90	-253.846
833.20	-136.842
833.50	-135.000
833.80	-157.895
834.10	-171.429
834.40	-61.111
834.70	-40.625
835.00	-108.571
835.30	-91.176
835.60	-93.333
835.90	-72.000
836.20	-168.182
836.50	-84.000
836.80	-69.697
837.10	-103.704
837.40	-70.370
837.70	-193.750
838.00	-82.143
838.30	-121.739
838.60	-75.862
838.90	-192.857
839.19	-139.130
839.49	-233.333
839.79	-121.739
840.09	-193.750
840.39	-155.000
840.69	-87.097
840.99	-92.857
841.29	-213.333
841.59	-184.211
841.88	-61.538
842.18	-84.615
842.48	-320.000
842.78	-175.000
843.08	-56.667
843.38	-38.710
843.68	-188.889
843.97	-79.412
844.27	-187.500
844.57	-152.632
844.87	-290.000
845.17	-200.000
845.47	-133.333
845.76	-147.619
846.06	-388.889
846.36	-135.294
846.66	-65.385
846.96	-133.333
847.25	-152.941
847.55	-108.696
847.85	-135.000
848.15	-158.824
848.44	-272.727
848.74	-157.143
849.04	-104.167
849.34	-168.750
849.63	-95.652
849.93	1700.000
850.23	-193.333
850.53	-53.846
850.82	-327.273
851.12	-118.182
851.42	-300.000
851.71	-192.308
852.01	-190.000
852.31	-176.923
852.61	-84.211
852.90	-158.333
853.20	-150.000
853.50	-488.889
853.79	-152.381
854.09	-140.909
854.39	-325.000
854.68	-74.194
854.98	-92.308
855.28	-144.444
855.57	-110.714
855.87	-128.000
856.17	-140.909
856.46	-88.889
856.76	-144.444
857.05	-121.739
857.35	-120.833
857.65	-330.769
857.94	-85.714
858.24	-74.074
858.53	-108.696
858.83	-141.176
859.13	-141.176
859.42	-147.059
859.72	-257.143
860.01	-105.000
860.31	-411.111
860.60	-290.000
860.90	-193.333
861.20	-161.111
861.49	-184.615
861.79	-70.000
862.08	-223.077
862.38	-68.750
862.67	-158.824
862.97	-200.000
863.26	-344.444
863.56	-300.000
863.85	-209.091
864.15	-144.444
864.44	-833.333
864.74	-185.714
865.03	-175.000
865.33	-330.000
865.62	-90.323
865.92	-127.273
866.21	-86.957
866.51	-185.714
866.80	-640.000
867.10	-250.000
867.39	-250.000
867.69	3100.000
867.98	-342.857
868.27	-111.765
868.57	-4800.000
868.86	-400.000
869.16	-109.524
869.45	-100.000
869.75	-181.818
870.04	-400.000
870.33	-241.667
870.63	-457.143
870.92	-525.000
871.22	-450.000
871.51	-263.636
871.80	-1300.000
872.10	-1350.000
>>>>>End Processed Spectral Data<<<<<
