SpectraSuite Data File
++++++++++++++++++++++++++++++++++++
Date: Thu May 14 15:56:26 PDT 2015
User: schluterlab
Dark Spectrum Present: Yes
Reference Spectrum Present: Yes
Number of Sampled Component Spectra: 1
Spectrometers: USB2E3373
Integration Time (usec): 3000 (USB2E3373)
Spectra Averaged: 3 (USB2E3373)
Boxcar Smoothing: 0 (USB2E3373)
Correct for Electrical Dark: No (USB2E3373)
Strobe/Lamp Enabled: No (USB2E3373)
Correct for Detector Non-linearity: No (USB2E3373)
Correct for Stray Light: No (USB2E3373)
Number of Pixels in Processed Spectrum: 2048
>>>>>Begin Processed Spectral Data<<<<<
178.53	0.000
178.91	314.286
179.29	-3100.000
179.67	-3000.000
180.04	307.143
180.42	280.000
180.80	640.000
181.18	-2900.000
181.56	-1800.000
181.94	775.000
182.31	-675.000
182.69	1066.667
183.07	-1650.000
183.45	675.000
183.83	-250.000
184.20	-966.667
184.58	1900.000
184.96	-725.000
185.34	-288.889
185.72	-400.000
186.09	488.889
186.47	1650.000
186.85	760.000
187.23	-344.444
187.61	-3500.000
187.98	540.000
188.36	800.000
188.74	-750.000
189.12	-700.000
189.49	-100.000
189.87	-375.000
190.25	-233.333
190.63	-440.000
191.00	-377.778
191.38	0.000
191.76	-575.000
192.14	-433.333
192.51	1300.000
192.89	-266.667
193.27	0.000
193.65	-385.714
194.02	-2700.000
194.40	-314.286
194.78	400.000
195.15	0.000
195.53	-181.818
195.91	0.000
196.29	-475.000
196.66	-146.154
197.04	-2700.000
197.42	-442.857
197.79	-1350.000
198.17	-362.500
198.55	-400.000
198.92	-155.556
199.30	-350.000
199.68	-154.545
200.05	-200.000
200.43	-1450.000
200.81	500.000
201.18	0.000
201.56	511.111
201.94	0.000
202.31	1366.667
202.69	-366.667
203.07	3100.000
203.44	-266.667
203.82	-650.000
204.19	-175.000
204.57	-483.333
204.95	-400.000
205.32	-2900.000
205.70	625.000
206.08	-450.000
206.45	-433.333
206.83	780.000
207.20	-383.333
207.58	-640.000
207.96	-566.667
208.33	-400.000
208.71	266.667
209.08	-283.333
209.46	0.000
209.84	516.667
210.21	1250.000
210.59	1150.000
210.96	900.000
211.34	-450.000
211.71	-262.500
212.09	-2700.000
212.46	0.000
212.84	1900.000
213.22	-640.000
213.59	-425.000
213.97	-230.000
214.34	-1000.000
214.72	533.333
215.09	-550.000
215.47	0.000
215.84	371.429
216.22	1400.000
216.59	-320.000
216.97	-540.000
217.34	-575.000
217.72	-337.500
218.09	-875.000
218.47	-700.000
218.84	0.000
219.22	500.000
219.59	-147.059
219.97	-105.000
220.34	1500.000
220.72	-277.778
221.09	-176.923
221.47	-933.333
221.84	-250.000
222.22	-457.143
222.59	0.000
222.97	-262.500
223.34	-760.000
223.72	-3400.000
224.09	-600.000
224.46	-700.000
224.84	-400.000
225.21	-400.000
225.59	-1025.000
225.96	-650.000
226.34	-84.615
226.71	683.333
227.08	-1400.000
227.46	-126.667
227.83	-500.000
228.21	-94.737
228.58	287.500
228.95	1850.000
229.33	-166.667
229.70	-220.000
230.08	-73.684
230.45	270.000
230.82	-966.667
231.20	-178.571
231.57	-158.333
231.95	-236.364
232.32	-272.727
232.69	-135.000
233.07	-525.000
233.44	-158.824
233.81	-330.000
234.19	-77.778
234.56	-68.182
234.93	-48.276
235.31	-105.263
235.68	-144.444
236.05	-150.000
236.43	-53.846
236.80	-48.000
237.17	-77.778
237.55	-57.576
237.92	-330.000
238.29	-103.226
238.67	-59.091
239.04	-50.000
239.41	-47.619
239.79	-47.826
240.16	-33.333
240.53	-39.130
240.91	-50.980
241.28	-22.951
241.65	-17.910
242.02	-18.919
242.40	-35.385
242.77	-17.333
243.14	-26.829
243.51	-36.842
243.89	-28.205
244.26	-18.812
244.63	-12.745
245.00	-8.411
245.38	-13.158
245.75	-19.469
246.12	-3.968
246.49	-6.202
246.87	-8.571
247.24	-7.285
247.61	-6.579
247.98	-12.752
248.36	-8.642
248.73	-11.656
249.10	-2.186
249.47	-2.488
249.84	0.524
250.22	-4.663
250.59	-3.333
250.96	2.273
251.33	1.531
251.70	2.564
252.08	0.833
252.45	4.508
252.82	0.826
253.19	-4.687
253.56	1.901
253.94	0.385
254.31	0.758
254.68	1.049
255.05	6.840
255.42	2.381
255.79	-0.971
256.16	-0.993
256.54	0.000
256.91	4.918
257.28	-0.328
257.65	0.637
258.02	-1.180
258.39	4.274
258.76	6.116
259.14	5.460
259.51	1.729
259.88	4.249
260.25	3.056
260.62	4.110
260.99	6.011
261.36	4.558
261.73	3.183
262.10	3.297
262.47	3.485
262.85	4.293
263.22	2.078
263.59	2.105
263.96	5.371
264.33	2.558
264.70	4.198
265.07	6.444
265.44	6.349
265.81	4.861
266.18	6.576
266.55	3.125
266.92	2.050
267.29	6.127
267.66	4.878
268.03	4.803
268.40	6.472
268.77	2.733
269.14	3.084
269.51	5.044
269.88	5.328
270.25	6.439
270.62	6.118
270.99	7.879
271.36	6.733
271.73	4.322
272.10	8.016
272.47	4.810
272.84	5.622
273.21	6.212
273.58	5.645
273.95	4.038
274.32	6.274
274.69	4.062
275.06	6.593
275.43	4.067
275.80	5.467
276.17	5.185
276.54	5.784
276.91	5.009
277.28	5.606
277.65	6.104
278.02	5.699
278.39	4.348
278.76	6.151
279.13	4.787
279.50	6.873
279.87	5.009
280.23	2.993
280.60	6.949
280.97	6.414
281.34	5.603
281.71	6.937
282.08	5.316
282.45	4.746
282.82	3.925
283.19	2.100
283.56	6.885
283.92	8.559
284.29	8.689
284.66	6.568
285.03	3.526
285.40	6.491
285.77	7.585
286.14	7.786
286.51	6.240
286.87	4.423
287.24	5.873
287.61	4.783
287.98	4.683
288.35	6.213
288.72	5.917
289.08	5.271
289.45	4.734
289.82	4.819
290.19	5.460
290.56	6.338
290.93	5.991
291.29	4.408
291.66	6.612
292.03	4.613
292.40	7.075
292.77	4.987
293.13	5.548
293.50	5.256
293.87	5.235
294.24	6.800
294.60	6.448
294.97	3.758
295.34	5.506
295.71	4.035
296.08	4.910
296.44	4.779
296.81	4.872
297.18	5.729
297.55	4.127
297.91	4.508
298.28	3.673
298.65	6.778
299.02	5.195
299.38	5.378
299.75	5.140
300.12	4.167
300.48	4.839
300.85	4.837
301.22	5.481
301.59	4.795
301.95	5.311
302.32	5.667
302.69	4.491
303.05	5.332
303.42	5.654
303.79	4.583
304.15	5.363
304.52	4.545
304.89	5.340
305.25	4.969
305.62	5.434
305.99	4.742
306.35	4.637
306.72	5.791
307.09	4.162
307.45	6.936
307.82	5.146
308.19	5.247
308.55	5.111
308.92	4.382
309.29	5.939
309.65	3.411
310.02	5.149
310.38	5.610
310.75	4.951
311.12	6.040
311.48	4.106
311.85	4.179
312.22	4.744
312.58	4.977
312.95	3.633
313.31	5.510
313.68	5.586
314.05	5.239
314.41	6.922
314.78	4.995
315.14	5.354
315.51	5.355
315.87	5.491
316.24	5.845
316.61	5.773
316.97	4.163
317.34	4.145
317.70	4.803
318.07	5.379
318.43	6.293
318.80	6.940
319.16	5.751
319.53	4.456
319.89	4.908
320.26	5.694
320.62	4.521
320.99	6.187
321.35	4.529
321.72	6.698
322.08	4.689
322.45	6.143
322.81	6.769
323.18	6.195
323.54	5.862
323.91	6.673
324.27	6.368
324.64	6.297
325.00	6.136
325.37	7.699
325.73	7.603
326.10	7.948
326.46	7.085
326.83	7.846
327.19	7.480
327.56	7.036
327.92	7.160
328.29	7.823
328.65	6.616
329.01	6.599
329.38	7.414
329.74	7.705
330.11	7.705
330.47	7.498
330.84	8.269
331.20	8.000
331.56	7.799
331.93	8.201
332.29	7.797
332.66	7.475
333.02	8.291
333.38	8.054
333.75	7.828
334.11	7.923
334.48	7.756
334.84	7.222
335.20	8.312
335.57	8.853
335.93	8.099
336.29	7.654
336.66	7.065
337.02	8.696
337.38	8.759
337.75	7.851
338.11	8.410
338.47	8.602
338.84	7.868
339.20	6.740
339.56	7.743
339.93	8.785
340.29	8.776
340.65	8.678
341.02	8.380
341.38	9.620
341.74	7.022
342.11	9.010
342.47	8.181
342.83	7.166
343.20	9.485
343.56	8.581
343.92	8.247
344.28	9.062
344.65	8.915
345.01	8.190
345.37	8.243
345.73	7.560
346.10	8.424
346.46	7.358
346.82	8.764
347.19	8.251
347.55	9.484
347.91	8.470
348.27	7.587
348.63	8.682
349.00	8.576
349.36	9.294
349.72	9.077
350.08	9.733
350.45	8.137
350.81	8.069
351.17	8.496
351.53	8.491
351.89	9.263
352.26	8.060
352.62	8.358
352.98	8.321
353.34	6.871
353.70	8.089
354.07	8.569
354.43	7.973
354.79	6.956
355.15	8.904
355.51	9.357
355.87	7.629
356.24	8.289
356.60	7.687
356.96	8.228
357.32	7.955
357.68	8.346
358.04	6.961
358.40	7.910
358.77	9.430
359.13	8.715
359.49	7.063
359.85	8.702
360.21	9.039
360.57	8.543
360.93	8.886
361.29	8.070
361.66	7.603
362.02	9.047
362.38	8.503
362.74	8.939
363.10	8.803
363.46	8.310
363.82	7.955
364.18	7.882
364.54	9.059
364.90	9.967
365.26	8.000
365.62	9.400
365.98	7.965
366.35	8.456
366.71	8.299
367.07	9.134
367.43	8.798
367.79	9.356
368.15	8.562
368.51	9.405
368.87	9.275
369.23	8.867
369.59	9.016
369.95	9.398
370.31	9.048
370.67	8.253
371.03	9.003
371.39	8.664
371.75	9.491
372.11	8.604
372.47	8.666
372.83	9.097
373.19	8.339
373.55	8.808
373.91	7.703
374.27	9.185
374.63	9.066
374.99	8.422
375.35	9.675
375.71	9.355
376.07	9.619
376.42	9.068
376.78	9.447
377.14	9.420
377.50	9.361
377.86	10.283
378.22	9.222
378.58	9.631
378.94	9.683
379.30	9.432
379.66	9.465
380.02	9.463
380.38	10.138
380.74	9.408
381.09	9.001
381.45	10.170
381.81	9.426
382.17	9.798
382.53	9.006
382.89	9.537
383.25	8.968
383.61	9.144
383.97	9.482
384.32	10.108
384.68	9.629
385.04	10.353
385.40	10.018
385.76	10.082
386.12	9.515
386.48	10.118
386.83	10.012
387.19	10.023
387.55	9.390
387.91	9.932
388.27	10.104
388.62	10.137
388.98	9.814
389.34	10.902
389.70	11.040
390.06	9.828
390.42	10.181
390.77	10.355
391.13	9.859
391.49	10.085
391.85	9.758
392.20	9.134
392.56	10.396
392.92	11.069
393.28	10.945
393.64	10.223
393.99	10.517
394.35	10.222
394.71	10.778
395.07	9.461
395.42	10.223
395.78	11.152
396.14	10.636
396.50	9.323
396.85	10.376
397.21	10.651
397.57	10.660
397.92	10.767
398.28	9.940
398.64	10.412
399.00	10.419
399.35	10.942
399.71	10.217
400.07	10.724
400.42	10.652
400.78	9.606
401.14	10.359
401.49	11.200
401.85	10.291
402.21	11.587
402.57	11.326
402.92	10.757
403.28	10.714
403.63	10.263
403.99	10.273
404.35	10.745
404.70	10.595
405.06	10.761
405.42	11.358
405.77	11.723
406.13	11.885
406.49	11.486
406.84	11.357
407.20	10.788
407.55	10.660
407.91	10.999
408.27	11.072
408.62	11.402
408.98	11.492
409.34	10.088
409.69	11.619
410.05	11.020
410.40	11.369
410.76	11.834
411.11	11.397
411.47	11.179
411.83	11.993
412.18	11.747
412.54	11.085
412.89	12.456
413.25	11.682
413.60	11.028
413.96	11.946
414.31	11.671
414.67	11.866
415.03	11.508
415.38	11.412
415.74	10.874
416.09	11.474
416.45	11.396
416.80	11.383
417.16	11.558
417.51	11.955
417.87	11.956
418.22	12.515
418.58	12.206
418.93	12.806
419.29	11.652
419.64	11.705
420.00	12.344
420.35	12.577
420.71	12.062
421.06	12.651
421.42	12.557
421.77	12.224
422.12	12.262
422.48	12.033
422.83	12.705
423.19	12.944
423.54	13.108
423.90	12.755
424.25	13.013
424.61	13.088
424.96	13.784
425.31	13.694
425.67	12.560
426.02	12.562
426.38	12.974
426.73	12.667
427.09	13.783
427.44	13.271
427.79	13.212
428.15	11.872
428.50	13.258
428.85	12.514
429.21	14.149
429.56	14.166
429.92	13.366
430.27	13.831
430.62	13.581
430.98	14.265
431.33	13.881
431.68	13.602
432.04	13.916
432.39	14.140
432.74	14.098
433.10	14.657
433.45	13.378
433.80	13.788
434.16	13.481
434.51	14.388
434.86	14.387
435.22	14.772
435.57	15.094
435.92	14.357
436.28	13.652
436.63	14.255
436.98	14.976
437.34	13.811
437.69	14.915
438.04	14.331
438.39	14.762
438.75	15.108
439.10	15.328
439.45	14.142
439.81	15.254
440.16	15.013
440.51	15.162
440.86	14.842
441.22	15.166
441.57	15.252
441.92	15.276
442.27	15.606
442.63	14.357
442.98	15.742
443.33	15.308
443.68	16.105
444.03	15.851
444.39	16.135
444.74	16.437
445.09	15.966
445.44	16.649
445.79	15.805
446.15	15.519
446.50	15.245
446.85	16.586
447.20	16.103
447.55	15.324
447.91	15.288
448.26	15.698
448.61	16.472
448.96	16.685
449.31	15.323
449.66	14.706
450.02	15.981
450.37	15.717
450.72	15.662
451.07	15.433
451.42	16.118
451.77	15.620
452.12	16.140
452.47	15.389
452.83	16.836
453.18	15.587
453.53	16.715
453.88	15.792
454.23	16.328
454.58	16.541
454.93	16.262
455.28	17.158
455.63	15.918
455.98	17.263
456.34	15.783
456.69	16.990
457.04	16.135
457.39	16.186
457.74	15.940
458.09	16.420
458.44	17.241
458.79	16.245
459.14	16.151
459.49	17.035
459.84	16.579
460.19	16.158
460.54	16.014
460.89	16.675
461.24	16.322
461.59	17.488
461.94	15.573
462.29	17.357
462.64	15.993
462.99	17.137
463.34	16.548
463.69	16.178
464.04	17.176
464.39	16.424
464.74	16.249
465.09	16.724
465.44	16.845
465.79	17.134
466.14	17.196
466.49	17.211
466.84	17.741
467.19	17.688
467.54	17.568
467.89	16.034
468.24	17.285
468.59	15.750
468.94	17.424
469.29	16.317
469.64	17.292
469.99	18.101
470.34	17.884
470.68	17.362
471.03	18.009
471.38	16.547
471.73	17.100
472.08	16.624
472.43	17.158
472.78	17.821
473.13	17.004
473.48	18.006
473.83	18.979
474.17	18.054
474.52	17.378
474.87	18.272
475.22	18.254
475.57	18.017
475.92	17.770
476.27	17.838
476.61	18.380
476.96	17.779
477.31	18.218
477.66	18.678
478.01	17.844
478.36	17.846
478.70	17.931
479.05	17.894
479.40	18.509
479.75	17.915
480.10	18.854
480.45	18.004
480.79	19.002
481.14	17.877
481.49	18.264
481.84	18.755
482.19	18.280
482.53	18.671
482.88	18.786
483.23	18.675
483.58	18.515
483.92	18.174
484.27	18.967
484.62	18.317
484.97	18.935
485.31	17.916
485.66	17.229
486.01	17.341
486.36	17.787
486.70	18.465
487.05	18.720
487.40	18.714
487.75	18.651
488.09	18.766
488.44	18.527
488.79	18.921
489.13	18.211
489.48	18.058
489.83	17.988
490.17	18.226
490.52	18.268
490.87	18.443
491.22	18.847
491.56	19.283
491.91	18.753
492.26	18.780
492.60	18.540
492.95	18.517
493.30	18.781
493.64	18.265
493.99	18.509
494.34	18.598
494.68	18.458
495.03	18.855
495.37	18.997
495.72	18.639
496.07	18.668
496.41	18.318
496.76	18.682
497.11	18.684
497.45	18.386
497.80	19.147
498.14	18.730
498.49	18.842
498.84	18.647
499.18	18.983
499.53	19.103
499.87	19.341
500.22	18.878
500.56	18.578
500.91	19.359
501.26	19.955
501.60	18.825
501.95	19.583
502.29	19.702
502.64	19.676
502.98	19.111
503.33	19.222
503.67	19.494
504.02	19.440
504.36	19.348
504.71	19.430
505.06	19.054
505.40	19.196
505.75	19.444
506.09	19.843
506.44	19.824
506.78	20.275
507.13	20.516
507.47	20.654
507.82	20.644
508.16	20.459
508.51	19.597
508.85	20.359
509.19	20.038
509.54	21.662
509.88	20.641
510.23	21.807
510.57	21.653
510.92	20.948
511.26	21.308
511.61	20.280
511.95	20.839
512.30	22.107
512.64	20.690
512.98	21.361
513.33	21.825
513.67	21.928
514.02	22.432
514.36	21.739
514.70	21.562
515.05	21.950
515.39	22.782
515.74	22.959
516.08	23.032
516.42	22.920
516.77	22.135
517.11	22.228
517.46	23.383
517.80	23.463
518.14	24.266
518.49	23.373
518.83	24.109
519.17	22.779
519.52	23.480
519.86	24.076
520.20	24.228
520.55	23.165
520.89	24.155
521.23	25.181
521.58	24.124
521.92	24.476
522.26	23.654
522.61	24.769
522.95	24.221
523.29	24.885
523.64	24.552
523.98	25.727
524.32	26.991
524.66	25.498
525.01	25.651
525.35	25.158
525.69	25.000
526.04	25.545
526.38	26.092
526.72	25.779
527.06	26.276
527.41	25.831
527.75	27.019
528.09	26.564
528.43	26.406
528.78	26.474
529.12	25.745
529.46	25.689
529.80	25.915
530.15	26.841
530.49	27.580
530.83	26.919
531.17	26.404
531.51	26.715
531.86	27.404
532.20	26.585
532.54	27.708
532.88	27.455
533.22	26.635
533.57	27.005
533.91	26.768
534.25	26.964
534.59	27.644
534.93	27.108
535.27	26.873
535.62	27.175
535.96	27.775
536.30	27.027
536.64	27.628
536.98	27.921
537.32	28.025
537.66	27.636
538.01	27.069
538.35	27.345
538.69	26.623
539.03	27.958
539.37	27.739
539.71	27.688
540.05	27.938
540.39	27.262
540.73	26.655
541.07	27.100
541.42	26.934
541.76	26.809
542.10	27.744
542.44	26.431
542.78	27.859
543.12	27.235
543.46	27.595
543.80	26.499
544.14	26.511
544.48	27.719
544.82	28.067
545.16	27.967
545.50	28.340
545.84	26.822
546.18	27.284
546.52	28.153
546.86	27.547
547.20	28.117
547.54	27.403
547.88	26.462
548.22	27.310
548.56	27.794
548.90	27.881
549.24	26.991
549.58	28.076
549.92	28.189
550.26	27.702
550.60	28.334
550.94	27.878
551.28	28.515
551.62	27.426
551.96	28.479
552.30	28.043
552.64	26.696
552.98	27.386
553.32	28.424
553.66	27.717
554.00	27.743
554.34	27.091
554.68	27.437
555.02	27.004
555.36	28.008
555.69	26.521
556.03	26.797
556.37	27.222
556.71	27.457
557.05	27.412
557.39	27.140
557.73	27.741
558.07	27.682
558.41	27.442
558.75	28.330
559.08	27.905
559.42	26.955
559.76	27.476
560.10	27.395
560.44	27.639
560.78	27.812
561.12	27.771
561.45	27.190
561.79	27.350
562.13	26.987
562.47	26.017
562.81	27.278
563.15	26.831
563.48	26.973
563.82	26.844
564.16	26.590
564.50	26.460
564.84	26.254
565.17	27.235
565.51	26.928
565.85	26.306
566.19	25.691
566.52	26.039
566.86	26.825
567.20	25.938
567.54	25.916
567.88	26.656
568.21	25.889
568.55	25.851
568.89	25.738
569.23	26.151
569.56	25.401
569.90	25.374
570.24	24.924
570.57	24.888
570.91	24.005
571.25	24.443
571.59	24.436
571.92	24.414
572.26	24.140
572.60	24.324
572.93	24.464
573.27	23.967
573.61	24.113
573.95	24.156
574.28	24.036
574.62	24.102
574.96	23.401
575.29	23.507
575.63	23.701
575.97	24.407
576.30	23.958
576.64	23.670
576.98	23.804
577.31	23.522
577.65	23.277
577.98	23.249
578.32	23.129
578.66	23.445
578.99	22.978
579.33	23.699
579.67	23.232
580.00	23.556
580.34	23.953
580.67	23.323
581.01	23.107
581.35	23.183
581.68	23.159
582.02	23.078
582.35	23.611
582.69	23.093
583.02	23.323
583.36	23.865
583.70	23.722
584.03	23.926
584.37	23.500
584.70	23.227
585.04	23.343
585.37	23.288
585.71	22.891
586.04	23.052
586.38	23.514
586.72	22.938
587.05	22.896
587.39	23.610
587.72	23.684
588.06	23.574
588.39	23.699
588.73	23.624
589.06	23.815
589.40	23.602
589.73	23.779
590.07	23.806
590.40	23.834
590.73	23.365
591.07	24.684
591.40	23.989
591.74	24.245
592.07	24.198
592.41	23.975
592.74	23.536
593.08	23.917
593.41	24.118
593.75	23.103
594.08	24.387
594.41	23.942
594.75	23.713
595.08	23.486
595.42	23.929
595.75	23.733
596.09	23.822
596.42	24.042
596.75	24.431
597.09	24.364
597.42	23.679
597.75	23.207
598.09	23.690
598.42	23.884
598.76	22.965
599.09	23.033
599.42	22.394
599.76	22.450
600.09	23.257
600.42	23.257
600.76	23.778
601.09	23.034
601.42	23.035
601.76	23.345
602.09	23.088
602.42	23.083
602.76	23.358
603.09	22.687
603.42	23.013
603.76	22.939
604.09	22.889
604.42	23.486
604.76	22.945
605.09	23.016
605.42	22.528
605.75	22.769
606.09	22.695
606.42	22.802
606.75	22.864
607.09	21.851
607.42	23.121
607.75	22.900
608.08	23.520
608.42	22.894
608.75	22.637
609.08	23.090
609.41	22.982
609.75	22.991
610.08	24.011
610.41	22.557
610.74	22.479
611.07	23.179
611.41	23.498
611.74	23.834
612.07	23.656
612.40	23.717
612.73	23.276
613.07	22.983
613.40	23.725
613.73	23.255
614.06	23.602
614.39	22.886
614.72	22.659
615.06	22.762
615.39	22.233
615.72	21.991
616.05	22.632
616.38	23.058
616.71	22.100
617.05	22.737
617.38	23.488
617.71	23.164
618.04	23.044
618.37	23.388
618.70	22.907
619.03	22.760
619.36	22.441
619.69	23.062
620.03	22.787
620.36	22.393
620.69	22.579
621.02	22.441
621.35	24.528
621.68	24.006
622.01	23.559
622.34	22.943
622.67	23.368
623.00	23.077
623.33	23.623
623.66	23.606
623.99	22.976
624.32	23.847
624.65	22.523
624.99	23.212
625.32	22.665
625.65	23.331
625.98	22.983
626.31	23.246
626.64	22.784
626.97	23.706
627.30	22.931
627.63	24.081
627.96	25.300
628.29	22.412
628.62	23.174
628.95	23.225
629.28	22.515
629.61	24.158
629.94	22.427
630.26	23.983
630.59	23.748
630.92	22.684
631.25	23.524
631.58	23.917
631.91	23.336
632.24	22.094
632.57	21.917
632.90	24.774
633.23	23.776
633.56	24.082
633.89	24.174
634.22	24.636
634.55	22.547
634.88	22.403
635.20	24.865
635.53	23.729
635.86	23.402
636.19	23.012
636.52	23.629
636.85	22.472
637.18	22.453
637.51	22.796
637.83	24.142
638.16	23.618
638.49	24.178
638.82	23.224
639.15	22.795
639.48	23.788
639.81	22.748
640.13	25.913
640.46	22.667
640.79	20.588
641.12	24.720
641.45	21.957
641.77	23.492
642.10	21.785
642.43	26.064
642.76	23.442
643.09	23.562
643.41	22.129
643.74	21.655
644.07	23.310
644.40	21.924
644.73	22.642
645.05	22.467
645.38	24.892
645.71	23.607
646.04	24.247
646.36	21.898
646.69	22.546
647.02	23.394
647.35	24.122
647.67	24.316
648.00	22.134
648.33	23.423
648.66	21.826
648.98	21.497
649.31	21.380
649.64	23.373
649.96	23.077
650.29	20.584
650.62	21.782
650.94	22.072
651.27	22.006
651.60	21.491
651.92	20.669
652.25	23.155
652.58	22.834
652.90	21.221
653.23	22.394
653.56	21.398
653.88	24.017
654.21	20.423
654.54	22.977
654.86	22.521
655.19	19.824
655.52	21.229
655.84	19.192
656.17	22.326
656.49	31.593
656.82	35.157
657.15	27.737
657.47	21.152
657.80	16.014
658.13	12.569
658.45	16.467
658.78	20.180
659.10	19.625
659.43	20.197
659.75	19.538
660.08	19.216
660.41	19.438
660.73	18.016
661.06	19.236
661.38	19.298
661.71	22.069
662.03	20.988
662.36	22.361
662.68	21.764
663.01	22.124
663.33	22.684
663.66	24.542
663.98	19.808
664.31	21.951
664.63	20.231
664.96	21.053
665.28	19.601
665.61	22.378
665.93	20.000
666.26	19.176
666.58	20.111
666.91	22.430
667.23	22.667
667.56	23.669
667.88	19.200
668.21	19.141
668.53	17.568
668.86	20.039
669.18	19.348
669.50	23.658
669.83	18.400
670.15	18.898
670.48	20.635
670.80	20.841
671.13	20.038
671.45	21.654
671.77	19.209
672.10	19.167
672.42	19.256
672.75	19.048
673.07	19.851
673.39	19.106
673.72	19.966
674.04	19.655
674.37	20.751
674.69	22.222
675.01	20.190
675.34	18.702
675.66	17.978
675.98	19.963
676.31	18.359
676.63	19.962
676.95	20.690
677.28	19.355
677.60	18.504
677.92	18.810
678.25	21.389
678.57	20.463
678.89	19.454
679.22	17.944
679.54	19.658
679.86	15.763
680.18	19.735
680.51	16.981
680.83	19.149
681.15	18.103
681.48	20.898
681.80	19.171
682.12	19.406
682.44	19.699
682.77	19.504
683.09	17.803
683.41	20.736
683.73	19.924
684.06	18.819
684.38	17.710
684.70	19.928
685.02	19.621
685.34	18.136
685.67	16.404
685.99	18.405
686.31	17.878
686.63	17.852
686.96	17.666
687.28	17.915
687.60	18.687
687.92	16.077
688.24	19.199
688.56	17.586
688.89	19.782
689.21	17.025
689.53	17.255
689.85	16.765
690.17	18.519
690.49	19.721
690.82	18.812
691.14	16.397
691.46	20.459
691.78	18.600
692.10	16.697
692.42	16.607
692.74	16.878
693.06	14.815
693.39	21.252
693.71	15.414
694.03	17.658
694.35	17.333
694.67	17.659
694.99	15.106
695.31	14.570
695.63	16.450
695.95	14.907
696.27	17.363
696.59	17.699
696.91	17.793
697.23	17.582
697.56	16.090
697.88	14.583
698.20	15.631
698.52	19.318
698.84	18.919
699.16	19.388
699.48	14.644
699.80	18.085
700.12	15.721
700.44	16.590
700.76	16.865
701.08	17.918
701.40	17.098
701.72	17.164
702.04	16.043
702.36	13.351
702.68	14.914
703.00	13.692
703.32	14.532
703.64	18.093
703.96	15.036
704.28	12.285
704.60	15.696
704.91	16.582
705.23	16.164
705.55	14.206
705.87	17.879
706.19	17.485
706.51	12.048
706.83	14.697
707.15	12.698
707.47	14.953
707.79	16.157
708.11	15.678
708.43	13.763
708.74	13.616
709.06	15.777
709.38	19.014
709.70	16.377
710.02	14.987
710.34	15.426
710.66	13.966
710.98	19.126
711.29	13.462
711.61	18.362
711.93	13.675
712.25	14.324
712.57	17.699
712.89	21.471
713.20	15.089
713.52	17.341
713.84	13.649
714.16	14.737
714.48	14.691
714.80	15.065
715.11	13.648
715.43	14.589
715.75	14.211
716.07	14.088
716.39	16.393
716.70	14.458
717.02	13.443
717.34	10.453
717.66	14.430
717.97	10.274
718.29	12.371
718.61	11.842
718.93	12.298
719.24	15.217
719.56	12.270
719.88	13.814
720.20	13.871
720.51	12.112
720.83	14.062
721.15	9.211
721.46	11.644
721.78	15.667
722.10	11.974
722.42	13.758
722.73	12.581
723.05	10.526
723.37	10.069
723.68	15.054
724.00	11.552
724.32	10.563
724.63	10.140
724.95	10.993
725.27	8.014
725.58	12.014
725.90	15.862
726.22	8.150
726.53	14.935
726.85	14.780
727.16	9.970
727.48	15.596
727.80	12.252
728.11	8.834
728.43	11.785
728.74	10.702
729.06	13.576
729.38	11.039
729.69	8.725
730.01	11.012
730.32	12.424
730.64	13.522
730.96	11.180
731.27	16.201
731.59	13.187
731.90	10.649
732.22	9.635
732.53	8.564
732.85	10.286
733.16	10.557
733.48	11.585
733.80	10.585
734.11	11.396
734.43	13.784
734.74	16.456
735.06	11.055
735.37	12.703
735.69	11.622
736.00	11.299
736.32	13.477
736.63	12.500
736.95	10.057
737.26	13.939
737.58	10.303
737.89	11.765
738.21	7.034
738.52	11.803
738.83	13.652
739.15	11.348
739.46	11.224
739.78	11.350
740.09	9.456
740.41	11.662
740.72	7.333
741.04	11.974
741.35	11.228
741.66	9.804
741.98	10.246
742.29	9.623
742.61	8.333
742.92	8.462
743.23	11.913
743.55	12.791
743.86	8.800
744.18	4.132
744.49	8.017
744.80	7.407
745.12	10.970
745.43	10.569
745.74	5.172
746.06	8.475
746.37	7.595
746.68	7.724
747.00	9.167
747.31	11.588
747.62	11.923
747.94	12.551
748.25	9.237
748.56	8.980
748.88	5.556
749.19	7.759
749.50	6.926
749.82	8.835
750.13	12.811
750.44	8.333
750.75	12.308
751.07	12.308
751.38	11.041
751.69	7.987
752.01	10.032
752.32	11.111
752.63	8.503
752.94	11.419
753.26	6.691
753.57	7.778
753.88	7.116
754.19	13.183
754.51	11.576
754.82	8.682
755.13	12.131
755.44	9.215
755.75	11.513
756.07	11.343
756.38	10.063
756.69	9.036
757.00	10.249
757.31	7.377
757.63	8.184
757.94	10.329
758.25	11.287
758.56	10.675
758.87	11.591
759.18	12.800
759.50	11.331
759.81	11.765
760.12	12.668
760.43	10.156
760.74	10.591
761.05	13.000
761.36	9.398
761.67	9.137
761.99	10.541
762.30	9.451
762.61	9.571
762.92	7.463
763.23	8.989
763.54	9.353
763.85	9.278
764.16	8.418
764.47	11.620
764.78	9.904
765.10	11.144
765.41	12.564
765.72	9.524
766.03	8.757
766.34	7.837
766.65	5.575
766.96	4.382
767.27	7.373
767.58	2.488
767.89	10.096
768.20	3.286
768.51	4.630
768.82	3.614
769.13	5.682
769.44	3.462
769.75	10.108
770.06	11.538
770.37	9.843
770.68	6.809
770.99	5.263
771.30	10.741
771.61	7.985
771.92	6.296
772.23	5.668
772.54	2.315
772.85	9.677
773.16	10.476
773.47	2.116
773.78	-1.622
774.09	3.409
774.39	11.000
774.70	7.104
775.01	4.268
775.32	2.353
775.63	4.294
775.94	-6.369
776.25	5.806
776.56	7.692
776.87	4.762
777.18	3.448
777.48	2.797
777.79	0.000
778.10	-2.206
778.41	-5.556
778.72	-1.379
779.03	-1.852
779.34	4.242
779.65	3.627
779.95	5.556
780.26	5.682
780.57	1.290
780.88	13.768
781.19	7.742
781.50	7.647
781.80	8.602
782.11	3.704
782.42	0.000
782.73	-8.383
783.04	6.704
783.34	-2.424
783.65	-1.307
783.96	-6.211
784.27	2.976
784.57	-3.974
784.88	-1.429
785.19	0.000
785.50	-7.087
785.81	0.000
786.11	0.769
786.42	-5.755
786.73	4.317
787.04	0.000
787.34	-7.377
787.65	-6.400
787.96	-3.731
788.26	0.699
788.57	0.000
788.88	-1.974
789.19	3.922
789.49	-0.685
789.80	-0.709
790.11	-1.575
790.41	-6.250
790.72	-10.169
791.03	-11.650
791.33	-5.217
791.64	-2.632
791.95	-5.357
792.25	-2.857
792.56	0.000
792.87	-12.500
793.17	-6.250
793.48	-15.625
793.79	-31.325
794.09	-8.257
794.40	-11.009
794.70	3.401
795.01	-8.442
795.32	-6.849
795.62	6.338
795.93	-1.515
796.23	4.918
796.54	-12.500
796.85	-8.511
797.15	-18.478
797.46	-19.178
797.76	-20.000
798.07	-8.696
798.37	-14.433
798.68	-22.078
798.99	-11.494
799.29	-11.236
799.60	-11.702
799.90	-15.663
800.21	-49.231
800.51	-13.433
800.82	-26.471
801.12	-36.986
801.43	-47.059
801.73	-33.898
802.04	-31.818
802.34	-35.000
802.65	-33.898
802.95	-16.418
803.26	-27.119
803.56	-15.068
803.87	-7.143
804.17	2.740
804.48	-50.877
804.78	-25.000
805.09	-51.724
805.39	-22.973
805.70	-26.761
806.00	-15.854
806.30	-21.687
806.61	-21.918
806.91	-5.769
807.22	-7.778
807.52	-20.690
807.83	-12.500
808.13	-12.048
808.43	-11.236
808.74	-23.750
809.04	-30.882
809.35	-12.000
809.65	-20.000
809.95	-19.178
810.26	-45.614
810.56	-27.586
810.86	-14.706
811.17	-29.825
811.47	-36.066
811.77	-46.667
812.08	-25.424
812.38	-26.667
812.69	-27.586
812.99	-32.075
813.29	-79.487
813.59	-40.000
813.90	-33.333
814.20	-47.273
814.50	-7.042
814.81	-8.974
815.11	-16.393
815.41	-23.881
815.72	-24.138
816.02	-17.857
816.32	-33.333
816.62	-31.818
816.93	-44.444
817.23	-24.074
817.53	-42.553
817.84	-42.857
818.14	-55.882
818.44	-36.735
818.74	-6.667
819.04	-58.974
819.35	-68.571
819.65	-123.077
819.95	-28.302
820.25	-40.000
820.56	-38.095
820.86	-59.375
821.16	-71.795
821.46	-74.419
821.76	-42.000
822.07	-42.857
822.37	-58.696
822.67	-59.574
822.97	-75.676
823.27	-57.500
823.57	-20.408
823.88	-42.222
824.18	-62.500
824.48	-76.667
824.78	-96.000
825.08	-42.424
825.38	-26.667
825.69	-19.149
825.99	-52.778
826.29	-94.286
826.59	-82.051
826.89	-58.140
827.19	-30.000
827.49	-55.882
827.79	-43.750
828.09	-86.486
828.39	-70.000
828.70	-63.415
829.00	-27.907
829.30	-85.714
829.60	-47.059
829.90	-39.130
830.20	-71.429
830.50	-96.552
830.80	-166.667
831.10	-84.615
831.40	-55.882
831.70	-104.762
832.00	-48.387
832.30	-164.706
832.60	-108.333
832.90	-223.077
833.20	-126.316
833.50	-130.000
833.80	-136.842
834.10	-176.190
834.40	-44.444
834.70	-53.125
835.00	-74.286
835.30	-55.882
835.60	-63.333
835.90	-68.000
836.20	-163.636
836.50	-104.000
836.80	-63.636
837.10	-96.296
837.40	-40.741
837.70	-243.750
838.00	-100.000
838.30	-113.043
838.60	-62.069
838.90	-135.714
839.19	-160.870
839.49	-300.000
839.79	-82.609
840.09	-175.000
840.39	-85.000
840.69	-38.710
840.99	-89.286
841.29	-180.000
841.59	-142.105
841.88	-38.462
842.18	-100.000
842.48	-310.000
842.78	-105.000
843.08	-43.333
843.38	-67.742
843.68	-155.556
843.97	-50.000
844.27	-143.750
844.57	-136.842
844.87	-340.000
845.17	-200.000
845.47	-76.190
845.76	-157.143
846.06	-255.556
846.36	-135.294
846.66	-50.000
846.96	-173.333
847.25	-129.412
847.55	-60.870
847.85	-110.000
848.15	-147.059
848.44	-154.545
848.74	-90.476
849.04	-104.167
849.34	-187.500
849.63	-86.957
849.93	1700.000
850.23	-140.000
850.53	-50.000
850.82	-254.545
851.12	-100.000
851.42	-227.273
851.71	-146.154
852.01	-165.000
852.31	-238.462
852.61	-121.053
852.90	-75.000
853.20	-127.778
853.50	-188.889
853.79	-109.524
854.09	-145.455
854.39	-233.333
854.68	-61.290
854.98	-92.308
855.28	-150.000
855.57	-85.714
855.87	-100.000
856.17	-136.364
856.46	-77.778
856.76	-161.111
857.05	-126.087
857.35	-129.167
857.65	-230.769
857.94	-109.524
858.24	-74.074
858.53	-91.304
858.83	-147.059
859.13	-129.412
859.42	-147.059
859.72	-128.571
860.01	-115.000
860.31	-322.222
860.60	-190.000
860.90	-140.000
861.20	-138.889
861.49	-115.385
861.79	-43.333
862.08	-261.538
862.38	-25.000
862.67	-94.118
862.97	-212.500
863.26	-344.444
863.56	-260.000
863.85	-200.000
864.15	-111.111
864.44	-866.667
864.74	-128.571
865.03	-200.000
865.33	-280.000
865.62	-93.548
865.92	-90.909
866.21	-121.739
866.51	-121.429
866.80	-580.000
867.10	-266.667
867.39	-283.333
867.69	3900.000
867.98	-271.429
868.27	-123.529
868.57	-3100.000
868.86	-370.000
869.16	-128.571
869.45	-79.167
869.75	-100.000
870.04	-400.000
870.33	-225.000
870.63	-571.429
870.92	-600.000
871.22	-462.500
871.51	-309.091
871.80	-1333.333
872.10	-1350.000
>>>>>End Processed Spectral Data<<<<<
