SpectraSuite Data File
++++++++++++++++++++++++++++++++++++
Date: Thu May 14 15:56:29 PDT 2015
User: schluterlab
Dark Spectrum Present: Yes
Reference Spectrum Present: Yes
Number of Sampled Component Spectra: 1
Spectrometers: USB2E3373
Integration Time (usec): 3000 (USB2E3373)
Spectra Averaged: 3 (USB2E3373)
Boxcar Smoothing: 0 (USB2E3373)
Correct for Electrical Dark: No (USB2E3373)
Strobe/Lamp Enabled: No (USB2E3373)
Correct for Detector Non-linearity: No (USB2E3373)
Correct for Stray Light: No (USB2E3373)
Number of Pixels in Processed Spectrum: 2048
>>>>>Begin Processed Spectral Data<<<<<
178.53	0.000
178.91	400.000
179.29	-3900.000
179.67	-3000.000
180.04	307.143
180.42	260.000
180.80	460.000
181.18	-2800.000
181.56	-2400.000
181.94	600.000
182.31	-675.000
182.69	733.333
183.07	-1350.000
183.45	575.000
183.83	-400.000
184.20	-600.000
184.58	2600.000
184.96	-500.000
185.34	-300.000
185.72	-460.000
186.09	333.333
186.47	1650.000
186.85	780.000
187.23	-388.889
187.61	-3400.000
187.98	600.000
188.36	700.000
188.74	-625.000
189.12	-733.333
189.49	-87.500
189.87	-400.000
190.25	-255.556
190.63	-420.000
191.00	-300.000
191.38	0.000
191.76	-650.000
192.14	-316.667
192.51	1500.000
192.89	-283.333
193.27	0.000
193.65	-257.143
194.02	-3400.000
194.40	-371.429
194.78	400.000
195.15	0.000
195.53	-190.909
195.91	0.000
196.29	-675.000
196.66	-200.000
197.04	-3300.000
197.42	-400.000
197.79	-1150.000
198.17	-225.000
198.55	-300.000
198.92	-222.222
199.30	-275.000
199.68	-200.000
200.05	-128.571
200.43	-1500.000
200.81	514.286
201.18	0.000
201.56	488.889
201.94	0.000
202.31	1000.000
202.69	-300.000
203.07	2300.000
203.44	-233.333
203.82	-850.000
204.19	-250.000
204.57	-466.667
204.95	-375.000
205.32	-2600.000
205.70	650.000
206.08	-483.333
206.45	-350.000
206.83	760.000
207.20	-483.333
207.58	-640.000
207.96	-633.333
208.33	-466.667
208.71	241.667
209.08	-333.333
209.46	0.000
209.84	500.000
210.21	1300.000
210.59	1250.000
210.96	833.333
211.34	-450.000
211.71	-275.000
212.09	-2900.000
212.46	0.000
212.84	1950.000
213.22	-680.000
213.59	-575.000
213.97	-110.000
214.34	-766.667
214.72	516.667
215.09	-675.000
215.47	0.000
215.84	228.571
216.22	1450.000
216.59	-480.000
216.97	-540.000
217.34	-775.000
217.72	-275.000
218.09	-650.000
218.47	-750.000
218.84	0.000
219.22	620.000
219.59	-158.824
219.97	-115.000
220.34	1350.000
220.72	-266.667
221.09	-115.385
221.47	-1033.333
221.84	-220.000
222.22	-442.857
222.59	0.000
222.97	-262.500
223.34	-800.000
223.72	-2700.000
224.09	-575.000
224.46	-700.000
224.84	-320.000
225.21	-314.286
225.59	-875.000
225.96	-575.000
226.34	-84.615
226.71	600.000
227.08	-1050.000
227.46	-153.333
227.83	-575.000
228.21	-115.789
228.58	337.500
228.95	1300.000
229.33	-133.333
229.70	-210.000
230.08	-63.158
230.45	290.000
230.82	-666.667
231.20	-135.714
231.57	-208.333
231.95	-190.909
232.32	-118.182
232.69	-75.000
233.07	-750.000
233.44	-105.882
233.81	-230.000
234.19	-83.333
234.56	-31.818
234.93	-68.966
235.31	-94.737
235.68	-94.444
236.05	-125.000
236.43	-11.538
236.80	-24.000
237.17	-48.148
237.55	-39.394
237.92	-220.000
238.29	-45.161
238.67	-27.273
239.04	-27.778
239.41	-9.524
239.79	-8.696
240.16	-7.407
240.53	-17.391
240.91	-9.804
241.28	-6.557
241.65	4.478
242.02	18.919
242.40	-1.538
242.77	9.333
243.14	6.098
243.51	2.632
243.89	23.077
244.26	20.792
244.63	29.412
245.00	30.841
245.38	14.912
245.75	7.080
246.12	27.778
246.49	25.581
246.87	25.000
247.24	33.113
247.61	24.342
247.98	26.846
248.36	27.778
248.73	28.221
249.10	23.497
249.47	27.363
249.84	33.508
250.22	30.052
250.59	30.556
250.96	33.182
251.33	28.061
251.70	29.915
252.08	31.667
252.45	38.934
252.82	30.579
253.19	32.812
253.56	36.502
253.94	31.923
254.31	39.015
254.68	38.112
255.05	36.808
255.42	32.313
255.79	32.686
256.16	33.444
256.54	33.113
256.91	36.066
257.28	35.738
257.65	35.032
258.02	35.103
258.39	36.467
258.76	40.061
259.14	42.816
259.51	41.787
259.88	32.861
260.25	33.611
260.62	35.068
260.99	39.344
261.36	38.606
261.73	35.809
262.10	36.538
262.47	39.678
262.85	42.172
263.22	37.143
263.59	39.737
263.96	38.363
264.33	38.363
264.70	42.716
265.07	40.811
265.44	40.363
265.81	40.278
266.18	39.909
266.55	39.732
266.92	36.674
267.29	41.575
267.66	39.690
268.03	41.048
268.40	37.370
268.77	39.863
269.14	37.445
269.51	38.816
269.88	39.344
270.25	38.431
270.62	38.186
270.99	38.586
271.36	37.426
271.73	39.096
272.10	39.479
272.47	38.076
272.84	37.550
273.21	38.878
273.58	38.508
273.95	37.692
274.32	38.403
274.69	39.652
275.06	38.828
275.43	35.120
275.80	37.037
276.17	34.815
276.54	36.940
276.91	38.819
277.28	36.528
277.65	37.702
278.02	36.581
278.39	40.399
278.76	37.610
279.13	38.475
279.50	38.316
279.87	37.030
280.23	36.972
280.60	39.153
280.97	37.500
281.34	37.521
281.71	38.917
282.08	35.714
282.45	36.825
282.82	35.636
283.19	38.126
283.56	37.049
283.92	38.589
284.29	39.810
284.66	37.767
285.03	34.295
285.40	37.094
285.77	36.223
286.14	35.878
286.51	37.291
286.87	34.439
287.24	36.898
287.61	36.622
287.98	35.045
288.35	37.130
288.72	37.278
289.08	37.628
289.45	33.284
289.82	35.843
290.19	35.345
290.56	34.507
290.93	33.951
291.29	33.333
291.66	34.711
292.03	33.107
292.40	35.782
292.77	32.345
293.13	30.717
293.50	31.012
293.87	32.617
294.24	34.267
294.60	30.468
294.97	32.081
295.34	30.986
295.71	29.634
296.08	28.941
296.44	30.882
296.81	31.303
297.18	28.394
297.55	31.722
297.91	28.351
298.28	27.133
298.65	29.370
299.02	29.516
299.38	30.435
299.75	29.439
300.12	28.588
300.48	29.147
300.85	26.772
301.22	29.530
301.59	28.425
301.95	29.944
302.32	28.333
302.69	29.792
303.05	27.856
303.42	28.603
303.79	26.979
304.15	27.971
304.52	28.541
304.89	28.272
305.25	28.054
305.62	28.213
305.99	27.835
306.35	27.621
306.72	29.473
307.09	28.528
307.45	30.228
307.82	29.465
308.19	28.052
308.55	27.097
308.92	28.043
309.29	27.011
309.65	28.265
310.02	27.525
310.38	27.657
310.75	27.379
311.12	29.051
311.48	28.446
311.85	26.591
312.22	28.178
312.58	27.606
312.95	26.386
313.31	28.275
313.68	28.388
314.05	26.739
314.41	28.962
314.78	28.156
315.14	26.770
315.51	28.717
315.87	27.903
316.24	28.219
316.61	28.686
316.97	27.421
317.34	27.249
317.70	28.035
318.07	27.249
318.43	28.146
318.80	27.759
319.16	27.639
319.53	25.021
319.89	25.855
320.26	26.957
320.62	26.684
320.99	27.054
321.35	28.004
321.72	26.884
322.08	25.789
322.45	27.733
322.81	27.617
323.18	26.637
323.54	26.983
323.91	27.491
324.27	27.625
324.64	27.120
325.00	26.534
325.37	27.109
325.73	27.438
326.10	25.953
326.46	26.466
326.83	27.462
327.19	27.795
327.56	27.589
327.92	27.223
328.29	26.452
328.65	25.628
329.01	26.988
329.38	28.054
329.74	27.397
330.11	27.654
330.47	26.453
330.84	26.270
331.20	27.750
331.56	26.776
331.93	27.782
332.29	26.610
332.66	27.658
333.02	26.047
333.38	26.678
333.75	27.273
334.11	25.771
334.48	27.475
334.84	26.168
335.20	25.945
335.57	26.054
335.93	26.694
336.29	25.624
336.66	25.904
337.02	26.839
337.38	25.510
337.75	25.372
338.11	26.577
338.47	24.648
338.84	26.311
339.20	24.768
339.56	25.288
339.93	24.877
340.29	25.282
340.65	25.953
341.02	26.177
341.38	25.788
341.74	25.182
342.11	25.503
342.47	25.258
342.83	25.443
343.20	24.857
343.56	25.180
343.92	24.900
344.28	25.000
344.65	24.961
345.01	24.961
345.37	25.894
345.73	24.864
346.10	25.663
346.46	24.367
346.82	24.794
347.19	24.141
347.55	26.176
347.91	26.152
348.27	25.190
348.63	25.590
349.00	24.609
349.36	25.502
349.72	25.074
350.08	25.334
350.45	25.019
350.81	24.284
351.17	24.662
351.53	24.185
351.89	25.437
352.26	23.657
352.62	23.657
352.98	24.733
353.34	23.898
353.70	25.655
354.07	25.186
354.43	24.298
354.79	23.710
355.15	24.356
355.51	24.561
355.87	24.233
356.24	25.019
356.60	23.356
356.96	24.463
357.32	23.197
357.68	23.572
358.04	23.952
358.40	23.060
358.77	24.196
359.13	24.225
359.49	23.420
359.85	23.858
360.21	24.677
360.57	24.121
360.93	24.260
361.29	24.211
361.66	23.968
362.02	24.774
362.38	25.299
362.74	24.162
363.10	24.209
363.46	24.307
363.82	24.432
364.18	24.560
364.54	24.412
364.90	24.950
365.26	23.862
365.62	24.600
365.98	24.438
366.35	24.362
366.71	25.034
367.07	23.884
367.43	24.425
367.79	24.685
368.15	25.017
368.51	24.899
368.87	24.755
369.23	24.400
369.59	24.658
369.95	24.206
370.31	25.388
370.67	24.759
371.03	24.792
371.39	24.715
371.75	24.347
372.11	23.306
372.47	23.426
372.83	24.149
373.19	24.283
373.55	23.916
373.91	23.108
374.27	24.838
374.63	25.304
374.99	23.939
375.35	24.481
375.71	23.290
376.07	23.693
376.42	24.370
376.78	24.612
377.14	24.205
377.50	23.403
377.86	23.584
378.22	24.371
378.58	24.851
378.94	24.883
379.30	24.780
379.66	23.633
380.02	24.409
380.38	24.712
380.74	24.845
381.09	23.577
381.45	24.432
381.81	25.234
382.17	24.347
382.53	24.152
382.89	23.928
383.25	24.326
383.61	24.074
383.97	23.204
384.32	24.043
384.68	23.028
385.04	24.581
385.40	24.396
385.76	24.795
386.12	24.057
386.48	23.882
386.83	25.030
387.19	24.044
387.55	23.415
387.91	22.774
388.27	23.903
388.62	24.513
388.98	23.350
389.34	24.573
389.70	24.056
390.06	24.156
390.42	22.651
390.77	24.262
391.13	23.826
391.49	24.275
391.85	23.152
392.20	23.784
392.56	24.040
392.92	23.937
393.28	24.378
393.64	23.966
393.99	24.288
394.35	24.065
394.71	23.114
395.07	23.293
395.42	23.130
395.78	24.863
396.14	23.648
396.50	24.050
396.85	23.077
397.21	23.018
397.57	23.852
397.92	24.456
398.28	23.031
398.64	23.169
399.00	22.775
399.35	23.665
399.71	23.750
400.07	23.751
400.42	23.225
400.78	23.669
401.14	23.563
401.49	23.877
401.85	23.547
402.21	23.407
402.57	24.531
402.92	23.050
403.28	22.775
403.63	23.091
403.99	22.803
404.35	23.991
404.70	22.890
405.06	22.717
405.42	23.185
405.77	24.046
406.13	23.447
406.49	23.930
406.84	23.490
407.20	22.750
407.55	23.622
407.91	21.999
408.27	22.909
408.62	23.444
408.98	23.041
409.34	22.346
409.69	23.795
410.05	23.798
410.40	23.492
410.76	22.995
411.11	22.911
411.47	23.771
411.83	23.516
412.18	23.253
412.54	23.355
412.89	23.516
413.25	23.251
413.60	23.205
413.96	23.135
414.31	23.683
414.67	23.435
415.03	22.708
415.38	23.266
415.74	23.702
416.09	23.689
416.45	23.732
416.80	22.644
417.16	23.244
417.51	23.537
417.87	23.850
418.22	23.653
418.58	22.924
418.93	23.399
419.29	23.120
419.64	22.929
420.00	23.561
420.35	22.908
420.71	23.205
421.06	22.944
421.42	23.509
421.77	22.456
422.12	23.309
422.48	23.349
422.83	24.206
423.19	23.767
423.54	23.673
423.90	22.805
424.25	23.573
424.61	23.364
424.96	23.613
425.31	23.885
425.67	23.349
426.02	23.243
426.38	23.192
426.73	23.326
427.09	23.933
427.44	23.157
427.79	22.775
428.15	22.831
428.50	23.315
428.85	23.536
429.21	23.830
429.56	23.396
429.92	23.931
430.27	24.386
430.62	23.596
430.98	23.266
431.33	23.851
431.68	23.898
432.04	23.565
432.39	22.924
432.74	22.603
433.10	23.472
433.45	22.798
433.80	23.015
434.16	23.450
434.51	23.998
434.86	23.398
435.22	23.751
435.57	24.941
435.92	23.484
436.28	23.948
436.63	23.430
436.98	23.135
437.34	23.168
437.69	23.555
438.04	23.691
438.39	23.435
438.75	23.243
439.10	24.419
439.45	23.533
439.81	23.955
440.16	23.324
440.51	23.746
440.86	23.847
441.22	23.526
441.57	23.637
441.92	22.890
442.27	24.343
442.63	24.491
442.98	24.226
443.33	24.145
443.68	24.182
444.03	23.801
444.39	24.318
444.74	24.451
445.09	24.531
445.44	23.815
445.79	24.186
446.15	23.947
446.50	23.463
446.85	24.805
447.20	23.743
447.55	24.059
447.91	24.136
448.26	24.366
448.61	23.804
448.96	23.444
449.31	23.860
449.66	23.529
450.02	24.578
450.37	24.134
450.72	24.543
451.07	24.146
451.42	23.859
451.77	23.457
452.12	24.210
452.47	23.886
452.83	24.887
453.18	23.935
453.53	23.205
453.88	24.517
454.23	24.181
454.58	24.724
454.93	25.061
455.28	24.503
455.63	24.275
455.98	24.246
456.34	24.264
456.69	24.809
457.04	24.113
457.39	24.667
457.74	24.888
458.09	23.778
458.44	24.246
458.79	24.188
459.14	24.227
459.49	24.109
459.84	24.449
460.19	24.098
460.54	24.248
460.89	24.563
461.24	24.253
461.59	24.516
461.94	22.932
462.29	24.748
462.64	23.416
462.99	24.670
463.34	24.919
463.69	24.678
464.04	24.792
464.39	24.271
464.74	23.831
465.09	24.394
465.44	24.678
465.79	25.119
466.14	23.554
466.49	24.158
466.84	24.298
467.19	25.029
467.54	23.443
467.89	24.138
468.24	25.596
468.59	23.798
468.94	24.242
469.29	24.115
469.64	24.666
469.99	24.410
470.34	24.319
470.68	25.290
471.03	24.754
471.38	24.657
471.73	24.447
472.08	24.239
472.43	24.684
472.78	25.567
473.13	24.399
473.48	26.042
473.83	24.608
474.17	24.795
474.52	25.436
474.87	25.858
475.22	25.577
475.57	24.922
475.92	26.083
476.27	25.186
476.61	25.649
476.96	25.443
477.31	25.050
477.66	25.866
478.01	26.029
478.36	25.324
478.70	25.862
479.05	26.278
479.40	26.604
479.75	26.129
480.10	25.296
480.45	25.752
480.79	26.621
481.14	26.287
481.49	25.125
481.84	26.023
482.19	25.419
482.53	25.711
482.88	26.451
483.23	25.745
483.58	26.114
483.92	25.310
484.27	25.910
484.62	25.908
484.97	25.583
485.31	25.590
485.66	24.494
486.01	23.712
486.36	24.889
486.70	25.771
487.05	26.684
487.40	26.538
487.75	26.463
488.09	26.486
488.44	25.308
488.79	25.835
489.13	26.394
489.48	25.553
489.83	25.634
490.17	25.354
490.52	25.903
490.87	26.058
491.22	25.303
491.56	26.493
491.91	26.341
492.26	26.093
492.60	26.279
492.95	25.801
493.30	25.997
493.64	26.500
493.99	25.921
494.34	25.610
494.68	25.396
495.03	25.991
495.37	26.187
495.72	26.122
496.07	26.906
496.41	26.212
496.76	26.606
497.11	26.412
497.45	25.766
497.80	26.788
498.14	25.442
498.49	26.562
498.84	26.051
499.18	26.001
499.53	25.964
499.87	26.593
500.22	25.868
500.56	26.496
500.91	26.636
501.26	26.955
501.60	26.204
501.95	26.835
502.29	26.064
502.64	27.022
502.98	26.488
503.33	26.004
503.67	25.949
504.02	26.313
504.36	26.899
504.71	27.515
505.06	26.694
505.40	27.285
505.75	27.231
506.09	26.750
506.44	27.205
506.78	28.716
507.13	27.616
507.47	28.280
507.82	28.125
508.16	27.533
508.51	27.286
508.85	27.397
509.19	28.233
509.54	28.482
509.88	28.315
510.23	28.655
510.57	29.435
510.92	28.495
511.26	28.716
511.61	28.199
511.95	29.283
512.30	29.838
512.64	28.836
512.98	28.864
513.33	30.292
513.67	29.781
514.02	30.301
514.36	30.435
514.70	30.937
515.05	30.240
515.39	30.866
515.74	31.601
516.08	30.428
516.42	31.711
516.77	32.124
517.11	31.563
517.46	32.291
517.80	32.603
518.14	33.787
518.49	32.484
518.83	32.837
519.17	32.903
519.52	33.753
519.86	33.633
520.20	34.079
520.55	34.283
520.89	33.671
521.23	34.171
521.58	34.746
521.92	35.297
522.26	34.651
522.61	36.516
522.95	35.928
523.29	36.264
523.64	36.043
523.98	36.794
524.32	38.052
524.66	37.450
525.01	35.730
525.35	36.933
525.69	37.123
526.04	37.486
526.38	38.908
526.72	38.524
527.06	38.534
527.41	37.901
527.75	39.371
528.09	39.610
528.43	39.432
528.78	38.613
529.12	38.819
529.46	39.798
529.80	39.703
530.15	40.000
530.49	40.154
530.83	40.555
531.17	41.159
531.51	40.734
531.86	41.647
532.20	41.585
532.54	41.472
532.88	40.970
533.22	40.955
533.57	41.027
533.91	41.302
534.25	41.832
534.59	42.586
534.93	41.200
535.27	40.732
535.62	42.695
535.96	42.882
536.30	42.186
536.64	43.123
536.98	43.173
537.32	42.778
537.66	43.481
538.01	42.659
538.35	42.083
538.69	42.668
539.03	43.654
539.37	42.403
539.71	42.703
540.05	43.465
540.39	42.543
540.73	42.502
541.07	43.348
541.42	42.705
541.76	43.476
542.10	43.727
542.44	43.788
542.78	44.343
543.12	43.266
543.46	44.200
543.80	42.926
544.14	43.447
544.48	43.322
544.82	44.285
545.16	43.411
545.50	43.439
545.84	45.009
546.18	45.185
546.52	43.694
546.86	43.962
547.20	45.674
547.54	43.071
547.88	44.665
548.22	43.450
548.56	43.944
548.90	44.358
549.24	44.134
549.58	44.353
549.92	44.260
550.26	43.883
550.60	44.927
550.94	44.502
551.28	44.554
551.62	45.553
551.96	43.883
552.30	45.762
552.64	44.182
552.98	45.352
553.32	46.174
553.66	45.981
554.00	45.902
554.34	44.402
554.68	44.803
555.02	45.664
555.36	45.759
555.69	44.587
556.03	44.956
556.37	45.995
556.71	44.832
557.05	45.942
557.39	46.052
557.73	45.575
558.07	45.894
558.41	45.714
558.75	45.030
559.08	45.720
559.42	44.856
559.76	44.573
560.10	44.876
560.44	45.778
560.78	45.812
561.12	45.135
561.45	44.404
561.79	44.750
562.13	46.149
562.47	43.588
562.81	45.570
563.15	45.265
563.48	44.873
563.82	45.284
564.16	45.003
564.50	42.968
564.84	45.192
565.17	43.765
565.51	43.613
565.85	44.596
566.19	44.412
566.52	44.470
566.86	44.822
567.20	44.318
567.54	43.919
567.88	43.374
568.21	43.923
568.55	43.933
568.89	43.259
569.23	43.557
569.56	43.025
569.90	41.803
570.24	41.922
570.57	41.276
570.91	40.998
571.25	40.960
571.59	41.024
571.92	40.618
572.26	40.709
572.60	41.059
572.93	41.024
573.27	40.995
573.61	40.259
573.95	39.937
574.28	39.967
574.62	40.109
574.96	39.457
575.29	38.907
575.63	39.709
575.97	39.497
576.30	39.477
576.64	39.752
576.98	39.180
577.31	39.247
577.65	39.785
577.98	39.665
578.32	38.867
578.66	38.994
578.99	39.115
579.33	39.840
579.67	39.551
580.00	39.222
580.34	39.158
580.67	39.409
581.01	39.290
581.35	38.730
581.68	38.829
582.02	38.648
582.35	39.888
582.69	39.001
583.02	39.918
583.36	39.515
583.70	39.718
584.03	39.693
584.37	40.015
584.70	39.291
585.04	39.409
585.37	39.284
585.71	38.921
586.04	38.793
586.38	38.974
586.72	39.559
587.05	39.831
587.39	39.691
587.72	39.976
588.06	40.208
588.39	40.179
588.73	39.735
589.06	39.898
589.40	40.289
589.73	40.039
590.07	40.981
590.40	40.906
590.73	41.216
591.07	40.841
591.40	40.280
591.74	41.256
592.07	41.575
592.41	40.221
592.74	39.475
593.08	39.777
593.41	39.808
593.75	39.684
594.08	40.745
594.41	40.513
594.75	39.754
595.08	40.175
595.42	40.065
595.75	40.362
596.09	40.088
596.42	39.986
596.75	40.563
597.09	41.253
597.42	39.889
597.75	40.729
598.09	40.198
598.42	41.576
598.76	40.084
599.09	39.338
599.42	39.289
599.76	40.046
600.09	39.840
600.42	39.339
600.76	39.564
601.09	38.898
601.42	39.169
601.76	39.310
602.09	40.064
602.42	40.167
602.76	39.520
603.09	39.978
603.42	40.318
603.76	39.323
604.09	40.738
604.42	39.743
604.76	39.346
605.09	40.207
605.42	40.152
605.75	38.769
606.09	39.642
606.42	38.927
606.75	39.205
607.09	38.710
607.42	40.039
607.75	39.781
608.08	39.621
608.42	39.541
608.75	39.635
609.08	38.582
609.41	39.038
609.75	39.821
610.08	39.754
610.41	39.762
610.74	39.832
611.07	38.988
611.41	40.000
611.74	39.908
612.07	40.813
612.40	40.209
612.73	40.489
613.07	39.804
613.40	40.857
613.73	40.828
614.06	39.156
614.39	40.428
614.72	39.253
615.06	39.605
615.39	39.874
615.72	38.815
616.05	39.728
616.38	39.657
616.71	40.334
617.05	38.765
617.38	38.737
617.71	40.065
618.04	39.611
618.37	40.874
618.70	41.120
619.03	40.681
619.36	40.937
619.69	40.935
620.03	40.992
620.36	40.000
620.69	40.037
621.02	41.404
621.35	42.163
621.68	41.649
622.01	41.281
622.34	41.492
622.67	40.344
623.00	39.339
623.33	40.345
623.66	40.661
623.99	41.672
624.32	41.520
624.65	40.734
624.99	41.027
625.32	42.129
625.65	40.728
625.98	40.610
626.31	41.531
626.64	41.538
626.97	41.710
627.30	41.078
627.63	40.810
627.96	42.342
628.29	41.012
628.62	41.310
628.95	41.718
629.28	40.697
629.61	42.256
629.94	41.339
630.26	40.424
630.59	41.451
630.92	41.212
631.25	42.844
631.58	43.785
631.91	42.643
632.24	42.651
632.57	41.746
632.90	42.026
633.23	43.469
633.56	42.347
633.89	42.665
634.22	42.516
634.55	42.589
634.88	41.667
635.20	42.842
635.53	44.407
635.86	41.712
636.19	42.206
636.52	42.722
636.85	42.084
637.18	41.996
637.51	40.968
637.83	41.971
638.16	43.894
638.49	43.192
638.82	42.954
639.15	43.528
639.48	43.995
639.81	42.379
640.13	42.521
640.46	41.212
640.79	42.770
641.12	44.348
641.45	42.158
641.77	45.956
642.10	42.913
642.43	44.681
642.76	45.528
643.09	44.110
643.41	41.877
643.74	44.138
644.07	43.310
644.40	42.857
644.73	44.267
645.05	43.612
645.38	43.741
645.71	43.109
646.04	43.902
646.36	43.212
646.69	42.945
647.02	42.202
647.35	44.122
647.67	47.182
648.00	43.949
648.33	43.393
648.66	43.937
648.98	42.313
649.31	42.219
649.64	41.833
649.96	40.451
650.29	41.307
650.62	41.867
650.94	41.742
651.27	42.216
651.60	39.474
651.92	43.465
652.25	41.245
652.58	42.228
652.90	42.587
653.23	42.817
653.56	41.797
653.88	41.994
654.21	41.408
654.54	41.329
654.86	41.076
655.19	38.519
655.52	39.186
655.84	35.311
656.17	40.936
656.49	56.608
656.82	62.577
657.15	48.795
657.47	36.935
657.80	27.472
658.13	21.457
658.45	28.503
658.78	34.245
659.10	33.864
659.43	33.842
659.75	32.712
660.08	33.277
660.41	34.988
660.73	35.918
661.06	39.060
661.38	38.596
661.71	40.345
662.03	40.212
662.36	41.860
662.68	42.402
663.01	41.062
663.33	42.533
663.66	42.308
663.98	41.923
664.31	42.214
664.63	41.233
664.96	40.835
665.28	38.838
665.61	40.559
665.93	40.893
666.26	40.860
666.58	39.114
666.91	40.374
667.23	42.095
667.56	41.815
667.88	44.000
668.21	40.625
668.53	39.768
668.86	42.633
669.18	43.992
669.50	40.954
669.83	40.200
670.15	40.157
670.48	43.452
670.80	37.285
671.13	38.941
671.45	42.520
671.77	40.866
672.10	39.500
672.42	38.350
672.75	37.634
673.07	36.716
673.39	37.134
673.72	39.430
674.04	41.897
674.37	39.356
674.69	41.446
675.01	38.286
675.34	38.740
675.66	37.640
675.98	39.739
676.31	41.602
676.63	40.494
676.95	42.720
677.28	37.903
677.60	38.386
677.92	40.883
678.25	38.940
678.57	42.171
678.89	38.567
679.22	37.979
679.54	36.923
679.86	36.610
680.18	38.308
680.51	38.365
680.83	38.462
681.15	37.931
681.48	40.933
681.80	39.551
682.12	37.413
682.44	37.229
682.77	37.943
683.09	37.311
683.41	38.760
683.73	37.192
684.06	37.454
684.38	38.104
684.70	35.009
685.02	39.243
685.34	36.106
685.67	34.385
685.99	37.423
686.31	34.738
686.63	36.177
686.96	37.066
687.28	38.436
687.60	35.017
687.92	34.244
688.24	38.063
688.56	34.483
688.89	38.475
689.21	38.356
689.53	36.471
689.85	35.700
690.17	36.667
690.49	38.048
690.82	37.624
691.14	34.211
691.46	36.520
691.78	37.753
692.10	35.963
692.42	34.286
692.74	33.394
693.06	33.704
693.39	34.915
693.71	32.707
694.03	36.617
694.35	36.381
694.67	35.318
694.99	35.957
695.31	38.190
695.63	36.364
695.95	36.232
696.27	34.725
696.59	37.168
696.91	34.009
697.23	36.264
697.56	32.994
697.88	34.659
698.20	34.463
698.52	36.742
698.84	37.422
699.16	35.306
699.48	35.565
699.80	32.979
700.12	33.624
700.44	33.410
700.76	35.392
701.08	38.499
701.40	35.492
701.72	36.318
702.04	36.898
702.36	32.984
702.68	33.496
703.00	34.963
703.32	37.931
703.64	32.518
703.96	34.129
704.28	33.415
704.60	35.190
704.91	33.418
705.23	35.890
705.55	34.540
705.87	34.545
706.19	36.810
706.51	31.024
706.83	37.752
707.15	33.598
707.47	32.477
707.79	33.624
708.11	27.966
708.43	32.473
708.74	32.143
709.06	33.179
709.38	35.211
709.70	33.251
710.02	31.525
710.34	35.638
710.66	33.799
710.98	31.694
711.29	35.440
711.61	37.006
711.93	34.758
712.25	35.405
712.57	36.873
712.89	35.294
713.20	30.473
713.52	35.838
713.84	30.362
714.16	33.947
714.48	30.928
714.80	35.844
715.11	29.921
715.43	28.912
715.75	34.474
716.07	31.215
716.39	33.607
716.70	33.133
717.02	32.787
717.34	28.920
717.66	32.886
717.97	29.795
718.29	31.271
718.61	30.592
718.93	30.097
719.24	35.404
719.56	31.288
719.88	32.733
720.20	30.968
720.51	28.882
720.83	30.625
721.15	29.276
721.46	25.000
721.78	28.667
722.10	26.537
722.42	28.523
722.73	31.613
723.05	31.579
723.37	28.125
723.68	31.183
724.00	32.491
724.32	28.169
724.63	29.021
724.95	28.723
725.27	27.526
725.58	31.802
725.90	27.586
726.22	30.408
726.53	35.065
726.85	28.931
727.16	28.701
727.48	33.639
727.80	35.099
728.11	28.269
728.43	27.609
728.74	31.438
729.06	27.483
729.38	30.844
729.69	31.879
730.01	27.679
730.32	27.576
730.64	27.358
730.96	30.745
731.27	32.402
731.59	30.495
731.90	26.753
732.22	27.865
732.53	27.624
732.85	29.143
733.16	27.273
733.48	28.659
733.80	26.741
734.11	28.775
734.43	27.568
734.74	32.405
735.06	30.402
735.37	32.973
735.69	29.730
736.00	28.531
736.32	29.919
736.63	26.389
736.95	26.149
737.26	32.121
737.58	25.152
737.89	29.412
738.21	25.382
738.52	24.918
738.83	30.717
739.15	28.014
739.46	30.612
739.78	31.288
740.09	25.788
740.41	27.988
740.72	25.667
741.04	26.214
741.35	27.719
741.66	28.627
741.98	25.820
742.29	25.105
742.61	26.754
742.92	29.231
743.23	30.325
743.55	27.519
743.86	28.000
744.18	22.314
744.49	21.519
744.80	28.395
745.12	25.316
745.43	27.236
745.74	24.138
746.06	28.390
746.37	27.426
746.68	35.772
747.00	26.250
747.31	26.180
747.62	35.769
747.94	25.911
748.25	20.080
748.56	22.857
748.88	24.786
749.19	25.431
749.50	25.541
749.82	23.695
750.13	28.114
750.44	25.667
750.75	28.308
751.07	29.538
751.38	26.814
751.69	25.559
752.01	26.214
752.32	28.758
752.63	25.510
752.94	24.221
753.26	24.907
753.57	24.444
753.88	25.094
754.19	27.010
754.51	26.367
754.82	27.331
755.13	26.557
755.44	27.304
755.75	26.645
756.07	25.373
756.38	27.044
756.69	25.000
757.00	22.992
757.31	25.137
757.63	24.297
757.94	26.995
758.25	28.668
758.56	27.015
758.87	27.727
759.18	26.133
759.50	29.462
759.81	26.050
760.12	28.571
760.43	26.562
760.74	29.310
761.05	27.750
761.36	26.988
761.67	25.127
761.99	25.405
762.30	25.000
762.61	25.743
762.92	27.239
763.23	29.963
763.54	27.698
763.85	23.024
764.16	23.906
764.47	25.352
764.78	26.518
765.10	26.979
765.41	27.436
765.72	23.280
766.03	28.531
766.34	26.332
766.65	21.254
766.96	25.100
767.27	19.816
767.58	17.413
767.89	25.481
768.20	20.188
768.51	24.537
768.82	26.506
769.13	25.000
769.44	19.615
769.75	24.549
770.06	24.615
770.37	26.772
770.68	22.979
770.99	18.219
771.30	27.407
771.61	27.376
771.92	21.852
772.23	27.935
772.54	19.444
772.85	25.346
773.16	23.810
773.47	25.397
773.78	20.000
774.09	20.455
774.39	24.000
774.70	18.579
775.01	14.634
775.32	18.235
775.63	23.313
775.94	18.471
776.25	20.000
776.56	21.154
776.87	17.687
777.18	18.621
777.48	18.182
777.79	22.297
778.10	11.765
778.41	15.278
778.72	22.759
779.03	17.901
779.34	18.182
779.65	18.653
779.95	22.222
780.26	19.886
780.57	17.419
780.88	18.841
781.19	18.065
781.50	24.118
781.80	19.355
782.11	15.873
782.42	15.152
782.73	14.371
783.04	13.966
783.34	18.182
783.65	14.379
783.96	16.149
784.27	19.643
784.57	13.907
784.88	12.857
785.19	7.087
785.50	3.937
785.81	17.293
786.11	15.385
786.42	12.230
786.73	11.511
787.04	17.293
787.34	17.213
787.65	8.800
787.96	18.657
788.26	18.881
788.57	18.182
788.88	11.842
789.19	11.111
789.49	13.699
789.80	13.475
790.11	13.386
790.41	16.406
790.72	13.559
791.03	-3.883
791.33	2.609
791.64	14.035
791.95	2.679
792.25	18.095
792.56	4.464
792.87	4.167
793.17	14.286
793.48	3.125
793.79	0.000
794.09	10.092
794.40	13.761
794.70	13.605
795.01	9.740
795.32	13.014
795.62	15.493
795.93	12.879
796.23	10.656
796.54	5.357
796.85	8.511
797.15	2.174
797.46	-5.479
797.76	-1.250
798.07	0.000
798.37	-3.093
798.68	-5.195
798.99	-4.598
799.29	2.247
799.60	4.255
799.90	9.639
800.21	-12.308
800.51	-1.493
800.82	-13.235
801.12	-15.068
801.43	-27.941
801.73	-11.864
802.04	-9.091
802.34	3.333
802.65	-1.695
802.95	-4.478
803.26	-16.949
803.56	0.000
803.87	-5.714
804.17	0.000
804.48	-19.298
804.78	-12.500
805.09	-25.862
805.39	8.108
805.70	-18.310
806.00	1.220
806.30	0.000
806.61	-4.110
806.91	-3.846
807.22	-13.333
807.52	-4.598
807.83	1.389
808.13	2.410
808.43	1.124
808.74	2.500
809.04	-19.118
809.35	1.333
809.65	5.714
809.95	-1.370
810.26	-14.035
810.56	8.621
810.86	-5.882
811.17	-14.035
811.47	-21.311
811.77	-26.667
812.08	-16.949
812.38	8.333
812.69	0.000
812.99	-33.962
813.29	-61.538
813.59	-18.000
813.90	7.018
814.20	-12.727
814.50	5.634
814.81	-3.846
815.11	-13.115
815.41	-4.478
815.72	-1.724
816.02	-14.286
816.32	4.444
816.62	-11.364
816.93	-26.667
817.23	-18.519
817.53	-17.021
817.84	-26.190
818.14	-26.471
818.44	-34.694
818.74	-31.111
819.04	-53.846
819.35	-65.714
819.65	-42.308
819.95	-24.528
820.25	-17.778
820.56	-30.952
820.86	-53.125
821.16	-33.333
821.46	-46.512
821.76	-26.000
822.07	-21.429
822.37	-26.087
822.67	-25.532
822.97	-48.649
823.27	-50.000
823.57	-10.204
823.88	-24.444
824.18	-25.000
824.48	-40.000
824.78	-56.000
825.08	-21.212
825.38	-13.333
825.69	-29.787
825.99	-27.778
826.29	-65.714
826.59	-33.333
826.89	-37.209
827.19	-36.000
827.49	-23.529
827.79	-10.417
828.09	-37.838
828.39	-53.333
828.70	-46.341
829.00	-41.860
829.30	-57.143
829.60	-11.765
829.90	-10.870
830.20	-48.571
830.50	-82.759
830.80	-144.444
831.10	-61.538
831.40	-55.882
831.70	-104.762
832.00	-61.290
832.30	-152.941
832.60	-70.833
832.90	-176.923
833.20	-105.263
833.50	-140.000
833.80	-84.211
834.10	-133.333
834.40	-25.000
834.70	-43.750
835.00	-80.000
835.30	-47.059
835.60	-40.000
835.90	-76.000
836.20	-136.364
836.50	-72.000
836.80	-48.485
837.10	-81.481
837.40	-70.370
837.70	-175.000
838.00	-107.143
838.30	-117.391
838.60	-62.069
838.90	-157.143
839.19	-130.435
839.49	-208.333
839.79	-91.304
840.09	-181.250
840.39	-110.000
840.69	-35.484
840.99	-71.429
841.29	-173.333
841.59	-94.737
841.88	-17.949
842.18	-92.308
842.48	-220.000
842.78	-115.000
843.08	-46.667
843.38	-41.935
843.68	-138.889
843.97	-29.412
844.27	-93.750
844.57	-131.579
844.87	-260.000
845.17	-100.000
845.47	-85.714
845.76	-95.238
846.06	-411.111
846.36	-176.471
846.66	-73.077
846.96	-173.333
847.25	-88.235
847.55	-34.783
847.85	-45.000
848.15	-111.765
848.44	-209.091
848.74	-95.238
849.04	-91.667
849.34	-100.000
849.63	-100.000
849.93	1750.000
850.23	-126.667
850.53	-26.923
850.82	-209.091
851.12	-36.364
851.42	-200.000
851.71	-146.154
852.01	-150.000
852.31	-130.769
852.61	-126.316
852.90	-166.667
853.20	-72.222
853.50	-388.889
853.79	-109.524
854.09	-77.273
854.39	-191.667
854.68	-54.839
854.98	-73.077
855.28	-83.333
855.57	-53.571
855.87	-44.000
856.17	-90.909
856.46	-74.074
856.76	-77.778
857.05	-100.000
857.35	-75.000
857.65	-223.077
857.94	-71.429
858.24	-66.667
858.53	-52.174
858.83	-100.000
859.13	-170.588
859.42	-111.765
859.72	-135.714
860.01	-135.000
860.31	-355.556
860.60	-260.000
860.90	-113.333
861.20	-83.333
861.49	-138.462
861.79	-53.333
862.08	-284.615
862.38	-28.125
862.67	-117.647
862.97	-150.000
863.26	-244.444
863.56	-150.000
863.85	-190.909
864.15	-133.333
864.44	-933.333
864.74	-150.000
865.03	-175.000
865.33	-310.000
865.62	-80.645
865.92	-81.818
866.21	-43.478
866.51	-135.714
866.80	-500.000
867.10	-225.000
867.39	-216.667
867.69	3500.000
867.98	-242.857
868.27	-88.235
868.57	-3300.000
868.86	-290.000
869.16	-104.762
869.45	-83.333
869.75	-118.182
870.04	-328.571
870.33	-166.667
870.63	-457.143
870.92	-500.000
871.22	-425.000
871.51	-245.455
871.80	-1233.333
872.10	-1100.000
>>>>>End Processed Spectral Data<<<<<
