SpectraSuite Data File
++++++++++++++++++++++++++++++++++++
Date: Thu May 14 15:56:13 PDT 2015
User: schluterlab
Dark Spectrum Present: Yes
Reference Spectrum Present: Yes
Number of Sampled Component Spectra: 1
Spectrometers: USB2E3373
Integration Time (usec): 3000 (USB2E3373)
Spectra Averaged: 3 (USB2E3373)
Boxcar Smoothing: 0 (USB2E3373)
Correct for Electrical Dark: No (USB2E3373)
Strobe/Lamp Enabled: No (USB2E3373)
Correct for Detector Non-linearity: No (USB2E3373)
Correct for Stray Light: No (USB2E3373)
Number of Pixels in Processed Spectrum: 2048
>>>>>Begin Processed Spectral Data<<<<<
178.53	0.000
178.91	414.286
179.29	-2900.000
179.67	-3300.000
180.04	385.714
180.42	320.000
180.80	560.000
181.18	-2500.000
181.56	-2400.000
181.94	725.000
182.31	-675.000
182.69	1133.333
183.07	-1000.000
183.45	900.000
183.83	-416.667
184.20	-800.000
184.58	3100.000
184.96	-625.000
185.34	-266.667
185.72	-520.000
186.09	477.778
186.47	1350.000
186.85	640.000
187.23	-344.444
187.61	-2900.000
187.98	520.000
188.36	825.000
188.74	-625.000
189.12	-966.667
189.49	-162.500
189.87	-412.500
190.25	-188.889
190.63	-660.000
191.00	-222.222
191.38	0.000
191.76	-875.000
192.14	-300.000
192.51	1250.000
192.89	-333.333
193.27	0.000
193.65	-314.286
194.02	-3000.000
194.40	-400.000
194.78	514.286
195.15	0.000
195.53	-245.455
195.91	0.000
196.29	-525.000
196.66	-192.308
197.04	-2900.000
197.42	-414.286
197.79	-1450.000
198.17	-237.500
198.55	-342.857
198.92	-177.778
199.30	-475.000
199.68	-227.273
200.05	-128.571
200.43	-1750.000
200.81	571.429
201.18	0.000
201.56	400.000
201.94	0.000
202.31	933.333
202.69	-300.000
203.07	2600.000
203.44	-333.333
203.82	-600.000
204.19	-216.667
204.57	-533.333
204.95	-350.000
205.32	-2800.000
205.70	600.000
206.08	-350.000
206.45	-400.000
206.83	640.000
207.20	-350.000
207.58	-620.000
207.96	-616.667
208.33	-383.333
208.71	258.333
209.08	-316.667
209.46	0.000
209.84	550.000
210.21	1350.000
210.59	1400.000
210.96	866.667
211.34	-600.000
211.71	-325.000
212.09	-2400.000
212.46	0.000
212.84	1950.000
213.22	-760.000
213.59	-700.000
213.97	-290.000
214.34	-1333.333
214.72	600.000
215.09	-800.000
215.47	0.000
215.84	342.857
216.22	2050.000
216.59	-660.000
216.97	-580.000
217.34	-775.000
217.72	-387.500
218.09	-925.000
218.47	-875.000
218.84	0.000
219.22	720.000
219.59	-123.529
219.97	-65.000
220.34	1700.000
220.72	-255.556
221.09	-123.077
221.47	-833.333
221.84	-250.000
222.22	-428.571
222.59	0.000
222.97	-275.000
223.34	-580.000
223.72	-3700.000
224.09	-625.000
224.46	-850.000
224.84	-280.000
225.21	-385.714
225.59	-750.000
225.96	-625.000
226.34	-53.846
226.71	616.667
227.08	-1300.000
227.46	-133.333
227.83	-650.000
228.21	-115.789
228.58	325.000
228.95	1650.000
229.33	-191.667
229.70	-200.000
230.08	-21.053
230.45	350.000
230.82	-666.667
231.20	-178.571
231.57	-175.000
231.95	-272.727
232.32	-236.364
232.69	-60.000
233.07	-650.000
233.44	-158.824
233.81	-320.000
234.19	-77.778
234.56	-95.455
234.93	-48.276
235.31	-110.526
235.68	-100.000
236.05	-130.000
236.43	-30.769
236.80	-32.000
237.17	-44.444
237.55	-42.424
237.92	-250.000
238.29	-67.742
238.67	-25.000
239.04	-41.667
239.41	-23.810
239.79	-30.435
240.16	-16.667
240.53	-15.217
240.91	-29.412
241.28	-9.836
241.65	5.970
242.02	12.162
242.40	-6.154
242.77	-5.333
243.14	2.439
243.51	-3.947
243.89	3.846
244.26	20.792
244.63	13.725
245.00	20.561
245.38	2.632
245.75	0.000
246.12	16.667
246.49	10.853
246.87	22.143
247.24	27.815
247.61	25.000
247.98	22.819
248.36	25.926
248.73	19.632
249.10	22.951
249.47	29.353
249.84	29.843
250.22	27.461
250.59	28.333
250.96	30.455
251.33	28.061
251.70	25.641
252.08	27.500
252.45	29.918
252.82	23.554
253.19	28.516
253.56	29.658
253.94	26.923
254.31	35.227
254.68	34.615
255.05	33.550
255.42	30.272
255.79	29.773
256.16	28.477
256.54	28.146
256.91	32.787
257.28	26.557
257.65	27.389
258.02	25.369
258.39	28.205
258.76	37.309
259.14	35.920
259.51	35.735
259.88	30.595
260.25	33.611
260.62	32.877
260.99	33.880
261.36	36.729
261.73	28.647
262.10	32.418
262.47	35.925
262.85	34.596
263.22	30.649
263.59	27.368
263.96	33.248
264.33	31.202
264.70	32.099
265.07	35.084
265.44	37.188
265.81	30.556
266.18	31.519
266.55	31.250
266.92	30.068
267.29	35.886
267.66	33.038
268.03	34.934
268.40	32.359
268.77	31.891
269.14	32.159
269.51	33.333
269.88	35.041
270.25	33.602
270.62	36.287
270.99	32.727
271.36	34.653
271.73	32.024
272.10	34.870
272.47	32.866
272.84	31.928
273.21	32.866
273.58	32.460
273.95	31.923
274.32	32.129
274.69	32.495
275.06	31.685
275.43	28.466
275.80	32.451
276.17	32.593
276.54	32.649
276.91	33.095
277.28	32.007
277.65	32.496
278.02	34.375
278.39	32.790
278.76	31.283
279.13	33.688
279.50	33.162
279.87	33.989
280.23	29.225
280.60	32.881
280.97	36.513
281.34	33.616
281.71	33.164
282.08	30.066
282.45	32.079
282.82	30.769
283.19	31.826
283.56	33.279
283.92	31.081
284.29	34.913
284.66	34.319
285.03	29.167
285.40	30.294
285.77	32.198
286.14	32.824
286.51	31.202
286.87	31.122
287.24	32.982
287.61	31.540
287.98	31.118
288.35	29.882
288.72	29.882
289.08	31.479
289.45	29.142
289.82	30.723
290.19	28.592
290.56	31.408
290.93	30.956
291.29	30.028
291.66	30.303
292.03	27.001
292.40	28.299
292.77	28.437
293.13	26.928
293.50	28.384
293.87	27.785
294.24	29.600
294.60	28.571
294.97	25.638
295.34	27.145
295.71	24.968
296.08	27.003
296.44	25.000
296.81	25.822
297.18	25.778
297.55	25.943
297.91	25.386
298.28	24.289
298.65	26.159
299.02	24.911
299.38	25.629
299.75	24.883
300.12	24.306
300.48	24.885
300.85	25.759
301.22	26.398
301.59	25.000
301.95	25.085
302.32	24.111
302.69	23.330
303.05	26.224
303.42	22.506
303.79	25.104
304.15	25.762
304.52	24.207
304.89	23.246
305.25	22.774
305.62	23.197
305.99	23.093
306.35	24.496
306.72	23.785
307.09	23.249
307.45	24.327
307.82	22.805
308.19	23.108
308.55	25.072
308.92	23.953
309.29	22.989
309.65	23.294
310.02	21.881
310.38	23.425
310.75	22.233
311.12	24.257
311.48	24.340
311.85	23.457
312.22	22.770
312.58	24.038
312.95	23.423
313.31	22.855
313.68	24.359
314.05	23.577
314.41	23.588
314.78	23.978
315.14	22.595
315.51	22.992
315.87	21.962
316.24	22.922
316.61	23.179
316.97	22.353
317.34	21.958
317.70	22.445
318.07	21.958
318.43	22.619
318.80	22.742
319.16	22.403
319.53	22.879
319.89	21.823
320.26	22.954
320.62	22.695
320.99	22.807
321.35	23.937
321.72	24.465
322.08	22.002
322.45	22.764
322.81	22.383
323.18	21.416
323.54	21.983
323.91	21.886
324.27	22.978
324.64	22.502
325.00	22.554
325.37	23.014
325.73	22.727
326.10	23.114
326.46	22.557
326.83	23.459
327.19	22.992
327.56	23.636
327.92	22.030
328.29	22.097
328.65	21.859
329.01	22.673
329.38	23.083
329.74	23.288
330.11	22.346
330.47	21.988
330.84	22.739
331.20	21.917
331.56	22.617
331.93	22.343
332.29	23.475
332.66	23.339
333.02	22.864
333.38	22.148
333.75	22.391
334.11	22.936
334.48	21.947
334.84	23.534
335.20	22.754
335.57	22.766
335.93	23.058
336.29	22.463
336.66	22.876
337.02	22.324
337.38	22.279
337.75	21.901
338.11	22.372
338.47	22.663
338.84	23.012
339.20	20.556
339.56	21.582
339.93	21.429
340.29	21.498
340.65	21.736
341.02	21.868
341.38	21.746
341.74	20.339
342.11	22.124
342.47	21.048
342.83	21.337
343.20	21.668
343.56	20.770
343.92	21.297
344.28	21.562
344.65	21.395
345.01	21.763
345.37	21.928
345.73	20.889
346.10	21.217
346.46	21.044
346.82	21.798
347.19	21.696
347.55	22.534
347.91	21.768
348.27	21.851
348.63	22.011
349.00	20.880
349.36	22.156
349.72	21.205
350.08	21.917
350.45	21.065
350.81	19.834
351.17	21.278
351.53	21.380
351.89	22.248
352.26	21.866
352.62	20.522
352.98	20.916
353.34	20.388
353.70	20.955
354.07	21.982
354.43	21.792
354.79	19.820
355.15	20.677
355.51	20.833
355.87	19.820
356.24	21.521
356.60	20.325
356.96	20.979
357.32	20.743
357.68	20.791
358.04	19.760
358.40	19.403
358.77	20.322
359.13	20.089
359.49	18.959
359.85	20.232
360.21	19.799
360.57	20.244
360.93	20.522
361.29	19.860
361.66	18.972
362.02	21.225
362.38	19.747
362.74	19.902
363.10	20.426
363.46	19.806
363.82	19.673
364.18	20.267
364.54	19.502
364.90	20.334
365.26	19.862
365.62	20.400
365.98	20.626
366.35	20.403
366.71	19.252
367.07	20.501
367.43	20.158
367.79	20.637
368.15	20.803
368.51	19.892
368.87	19.791
369.23	19.200
369.59	20.082
369.95	20.284
370.31	20.662
370.67	20.083
371.03	19.806
371.39	20.081
371.75	19.945
372.11	19.377
372.47	18.483
372.83	20.746
373.19	19.746
373.55	20.325
373.91	18.882
374.27	20.116
374.63	19.080
374.99	18.037
375.35	19.286
375.71	19.548
376.07	19.367
376.42	20.151
376.78	19.826
377.14	19.214
377.50	20.367
377.86	19.458
378.22	19.581
378.58	19.917
378.94	19.073
379.30	18.629
379.66	20.047
380.02	19.677
380.38	20.161
380.74	19.887
381.09	19.686
381.45	19.716
381.81	20.258
382.17	19.477
382.53	18.947
382.89	18.849
383.25	20.164
383.61	18.692
383.97	18.787
384.32	19.677
384.68	19.258
385.04	19.375
385.40	19.505
385.76	19.871
386.12	19.749
386.48	18.941
386.83	19.487
387.19	18.888
387.55	19.073
387.91	19.178
388.27	18.707
388.62	19.931
388.98	18.556
389.34	18.798
389.70	18.768
390.06	20.071
390.42	18.855
390.77	19.205
391.13	18.545
391.49	18.539
391.85	18.121
392.20	18.683
392.56	20.260
392.92	19.193
393.28	19.016
393.64	19.777
393.99	19.524
394.35	20.327
394.71	18.982
395.07	18.204
395.42	19.532
395.78	19.257
396.14	18.360
396.50	18.884
396.85	18.366
397.21	18.580
397.57	18.905
397.92	19.301
398.28	18.414
398.64	18.822
399.00	18.272
399.35	19.372
399.71	18.696
400.07	19.596
400.42	18.917
400.78	18.692
401.14	18.725
401.49	18.931
401.85	19.070
402.21	19.235
402.57	20.129
402.92	18.913
403.28	17.447
403.63	18.675
403.99	18.587
404.35	18.818
404.70	19.433
405.06	18.424
405.42	19.321
405.77	19.302
406.13	19.125
406.49	18.694
406.84	18.227
407.20	18.781
407.55	19.261
407.91	18.668
408.27	18.963
408.62	19.546
408.98	18.224
409.34	18.006
409.69	19.283
410.05	19.109
410.40	19.026
410.76	18.676
411.11	18.469
411.47	19.165
411.83	18.871
412.18	19.157
412.54	18.731
412.89	19.325
413.25	18.679
413.60	19.012
413.96	18.182
414.31	18.357
414.67	18.962
415.03	18.338
415.38	19.042
415.74	18.693
416.09	18.939
416.45	18.410
416.80	17.993
417.16	17.880
417.51	18.306
417.87	18.761
418.22	18.323
418.58	17.906
418.93	18.801
419.29	17.694
419.64	18.127
420.00	18.576
420.35	18.529
420.71	18.208
421.06	18.861
421.42	18.062
421.77	18.525
422.12	18.235
422.48	19.304
422.83	18.729
423.19	18.568
423.54	18.695
423.90	18.112
424.25	18.613
424.61	17.279
424.96	19.495
425.31	19.268
425.67	18.250
426.02	18.650
426.38	18.714
426.73	18.359
427.09	19.839
427.44	17.859
427.79	17.966
428.15	18.379
428.50	17.753
428.85	18.312
429.21	18.723
429.56	18.213
429.92	18.428
430.27	18.458
430.62	19.003
430.98	18.544
431.33	18.475
431.68	17.577
432.04	18.334
432.39	18.211
432.74	18.151
433.10	17.956
433.45	17.503
433.80	18.938
434.16	18.440
434.51	18.397
434.86	19.218
435.22	19.129
435.57	17.748
435.92	18.587
436.28	18.999
436.63	18.569
436.98	18.035
437.34	18.940
437.69	18.052
438.04	18.191
438.39	18.897
438.75	17.543
439.10	18.975
439.45	18.278
439.81	17.458
440.16	17.855
440.51	18.116
440.86	18.344
441.22	18.650
441.57	17.820
441.92	18.332
442.27	18.485
442.63	18.530
442.98	18.356
443.33	18.359
443.68	18.880
444.03	19.802
444.39	18.447
444.74	18.683
445.09	18.196
445.44	18.282
445.79	18.774
446.15	18.345
446.50	17.829
446.85	18.872
447.20	18.279
447.55	18.567
447.91	18.482
448.26	17.706
448.61	17.853
448.96	19.099
449.31	18.240
449.66	18.192
450.02	18.513
450.37	18.753
450.72	18.299
451.07	17.654
451.42	17.273
451.77	17.621
452.12	18.679
452.47	18.004
452.83	18.525
453.18	18.330
453.53	17.806
453.88	18.553
454.23	18.079
454.58	18.282
454.93	17.415
455.28	17.941
455.63	18.590
455.98	18.603
456.34	17.845
456.69	18.401
457.04	18.085
457.39	17.461
457.74	18.680
458.09	17.298
458.44	19.289
458.79	17.844
459.14	17.514
459.49	17.770
459.84	18.678
460.19	17.879
460.54	18.001
460.89	18.264
461.24	17.356
461.59	18.207
461.94	17.456
462.29	18.309
462.64	17.502
462.99	17.702
463.34	17.132
463.69	18.230
464.04	18.899
464.39	17.713
464.74	18.415
465.09	18.685
465.44	18.938
465.79	18.244
466.14	18.030
466.49	18.842
466.84	18.678
467.19	18.555
467.54	17.744
467.89	17.184
468.24	18.172
468.59	17.661
468.94	17.249
469.29	17.217
469.64	18.245
469.99	16.507
470.34	17.389
470.68	17.293
471.03	17.223
471.38	17.332
471.73	16.320
472.08	16.497
472.43	17.098
472.78	18.010
473.13	17.257
473.48	17.946
473.83	18.398
474.17	18.054
474.52	18.220
474.87	17.996
475.22	18.310
475.57	18.536
475.92	17.720
476.27	18.158
476.61	17.861
476.96	17.623
477.31	17.921
477.66	18.363
478.01	17.285
478.36	18.594
478.70	17.389
479.05	18.456
479.40	17.177
479.75	18.204
480.10	17.432
480.45	18.277
480.79	18.231
481.14	17.831
481.49	18.401
481.84	17.755
482.19	18.366
482.53	18.277
482.88	18.254
483.23	17.919
483.58	17.773
483.92	17.420
484.27	18.332
484.62	17.368
484.97	18.157
485.31	17.951
485.66	18.688
486.01	18.984
486.36	19.853
486.70	20.087
487.05	19.612
487.40	18.853
487.75	18.601
488.09	18.033
488.44	17.848
488.79	17.909
489.13	17.958
489.48	16.932
489.83	17.384
490.17	16.646
490.52	17.200
490.87	17.555
491.22	17.548
491.56	17.235
491.91	17.575
492.26	18.217
492.60	17.359
492.95	17.683
493.30	16.719
493.64	17.740
493.99	17.412
494.34	17.030
494.68	17.859
495.03	17.357
495.37	17.266
495.72	17.279
496.07	17.441
496.41	17.246
496.76	17.473
497.11	17.707
497.45	17.695
497.80	17.015
498.14	17.143
498.49	17.050
498.84	16.865
499.18	17.904
499.53	17.578
499.87	17.187
500.22	16.429
500.56	17.589
500.91	17.941
501.26	17.636
501.60	16.880
501.95	17.152
502.29	17.508
502.64	17.403
502.98	17.688
503.33	17.149
503.67	17.052
504.02	17.469
504.36	17.918
504.71	16.858
505.06	17.735
505.40	17.048
505.75	17.532
506.09	17.449
506.44	17.224
506.78	17.385
507.13	17.197
507.47	17.148
507.82	16.903
508.16	16.826
508.51	15.987
508.85	16.486
509.19	16.911
509.54	17.531
509.88	16.076
510.23	16.513
510.57	17.931
510.92	17.610
511.26	16.835
511.61	16.465
511.95	17.130
512.30	17.528
512.64	16.392
512.98	16.508
513.33	16.885
513.67	16.369
514.02	18.038
514.36	17.033
514.70	16.562
515.05	17.258
515.39	16.693
515.74	16.437
516.08	16.429
516.42	17.530
516.77	16.667
517.11	17.174
517.46	17.232
517.80	17.317
518.14	17.084
518.49	16.269
518.83	16.871
519.17	16.694
519.52	17.296
519.86	16.526
520.20	16.667
520.55	16.101
520.89	16.554
521.23	17.030
521.58	16.441
521.92	16.317
522.26	15.750
522.61	16.319
522.95	16.032
523.29	16.379
523.64	15.415
523.98	17.171
524.32	16.963
524.66	16.904
525.01	16.195
525.35	15.853
525.69	15.777
526.04	16.475
526.38	16.552
526.72	15.859
527.06	16.012
527.41	16.093
527.75	17.221
528.09	16.470
528.43	16.163
528.78	15.838
529.12	15.596
529.46	16.920
529.80	16.648
530.15	16.638
530.49	15.658
530.83	16.647
531.17	17.384
531.51	15.824
531.86	16.827
532.20	15.854
532.54	15.799
532.88	16.606
533.22	16.618
533.57	16.619
533.91	17.508
534.25	17.298
534.59	16.667
534.93	16.412
535.27	16.789
535.62	16.373
535.96	16.618
536.30	15.746
536.64	16.156
536.98	16.605
537.32	16.420
537.66	16.344
538.01	15.831
538.35	16.626
538.69	15.745
539.03	16.186
539.37	17.256
539.71	16.456
540.05	17.086
540.39	15.892
540.73	15.847
541.07	16.125
541.42	16.598
541.76	16.251
542.10	15.682
542.44	16.078
542.78	15.876
543.12	16.031
543.46	15.018
543.80	16.007
544.14	16.158
544.48	16.548
544.82	16.218
545.16	16.398
545.50	15.638
545.84	15.860
546.18	17.284
546.52	15.478
546.86	15.660
547.20	15.458
547.54	15.231
547.88	16.637
548.22	17.018
548.56	16.559
548.90	16.239
549.24	16.778
549.58	16.215
549.92	15.434
550.26	14.498
550.60	15.954
550.94	16.882
551.28	15.380
551.62	16.105
551.96	15.340
552.30	16.826
552.64	16.179
552.98	16.469
553.32	16.399
553.66	15.949
554.00	16.646
554.34	16.474
554.68	15.494
555.02	15.900
555.36	16.831
555.69	16.015
556.03	16.835
556.37	16.020
556.71	15.599
557.05	16.038
557.39	15.660
557.73	16.182
558.07	15.298
558.41	16.213
558.75	15.619
559.08	15.588
559.42	15.021
559.76	16.621
560.10	16.343
560.44	16.293
560.78	16.875
561.12	15.948
561.45	16.971
561.79	15.812
562.13	17.560
562.47	14.550
562.81	16.013
563.15	16.730
563.48	16.532
563.82	16.324
564.16	16.233
564.50	16.210
564.84	16.755
565.17	16.824
565.51	15.593
565.85	16.390
566.19	15.726
566.52	15.682
566.86	17.657
567.20	15.769
567.54	16.888
567.88	17.227
568.21	17.095
568.55	17.458
568.89	17.431
569.23	17.702
569.56	17.585
569.90	17.819
570.24	18.482
570.57	17.864
570.91	18.402
571.25	18.397
571.59	18.592
571.92	19.163
572.26	18.793
572.60	18.619
572.93	18.063
573.27	18.039
573.61	18.131
573.95	18.427
574.28	18.617
574.62	18.963
574.96	18.152
575.29	18.859
575.63	18.318
575.97	18.084
576.30	18.011
576.64	18.516
576.98	18.178
577.31	18.638
577.65	18.923
577.98	19.258
578.32	18.753
578.66	18.922
578.99	18.288
579.33	17.964
579.67	18.336
580.00	18.341
580.34	18.630
580.67	18.358
581.01	18.628
581.35	18.644
581.68	19.130
582.02	19.381
582.35	19.582
582.69	18.987
583.02	18.277
583.36	18.772
583.70	17.701
584.03	17.447
584.37	17.551
584.70	17.628
585.04	17.880
585.37	18.493
585.71	19.288
586.04	18.560
586.38	17.874
586.72	17.974
587.05	17.984
587.39	17.901
587.72	18.756
588.06	18.690
588.39	18.596
588.73	18.069
589.06	18.200
589.40	17.763
589.73	18.027
590.07	17.308
590.40	18.019
590.73	17.356
591.07	17.982
591.40	16.796
591.74	17.051
592.07	17.296
592.41	17.074
592.74	17.962
593.08	18.535
593.41	18.635
593.75	18.276
594.08	18.752
594.41	18.109
594.75	17.469
595.08	17.497
595.42	17.890
595.75	17.791
596.09	17.926
596.42	17.162
596.75	17.677
597.09	17.293
597.42	17.402
597.75	16.974
598.09	17.063
598.42	17.531
598.76	16.851
599.09	18.192
599.42	17.264
599.76	17.927
600.09	17.851
600.42	17.818
600.76	17.900
601.09	18.022
601.42	17.405
601.76	17.586
602.09	16.833
602.42	17.157
602.76	17.675
603.09	17.584
603.42	17.811
603.76	17.230
604.09	18.985
604.42	17.761
604.76	16.362
605.09	17.591
605.42	17.265
605.75	17.077
606.09	17.245
606.42	17.439
606.75	17.841
607.09	16.974
607.42	17.380
607.75	17.663
608.08	17.127
608.42	16.526
608.75	16.915
609.08	17.148
609.41	16.850
609.75	16.563
610.08	17.458
610.41	17.120
610.74	17.227
611.07	16.785
611.41	17.220
611.74	16.443
612.07	17.158
612.40	16.968
612.73	16.968
613.07	17.115
613.40	17.324
613.73	16.610
614.06	16.585
614.39	16.424
614.72	16.982
615.06	15.977
615.39	16.336
615.72	18.294
616.05	17.290
616.38	16.599
616.71	16.719
617.05	16.613
617.38	16.800
617.71	16.793
618.04	16.784
618.37	17.049
618.70	16.403
619.03	16.069
619.36	15.413
619.69	15.951
620.03	16.133
620.36	15.153
620.69	16.286
621.02	15.617
621.35	15.747
621.68	15.329
622.01	15.730
622.34	15.411
622.67	14.845
623.00	15.385
623.33	14.665
623.66	16.278
623.99	15.866
624.32	16.439
624.65	15.573
624.99	16.190
625.32	16.982
625.65	15.509
625.98	15.661
626.31	15.521
626.64	14.579
626.97	14.404
627.30	15.338
627.63	14.629
627.96	15.240
628.29	13.774
628.62	13.182
628.95	14.286
629.28	13.934
629.61	14.815
629.94	14.393
630.26	14.915
630.59	13.817
630.92	14.026
631.25	14.758
631.58	13.748
631.91	14.433
632.24	13.641
632.57	12.619
632.90	13.541
633.23	12.959
633.56	13.367
633.89	12.397
634.22	14.553
634.55	12.839
634.88	12.771
635.20	13.886
635.53	13.785
635.86	13.109
636.19	13.256
636.52	14.241
636.85	12.972
637.18	12.786
637.51	12.796
637.83	13.289
638.16	13.018
638.49	11.620
638.82	12.852
639.15	11.913
639.48	15.358
639.81	12.818
640.13	13.545
640.46	11.879
640.79	13.235
641.12	12.422
641.45	11.543
641.77	13.864
642.10	10.892
642.43	10.904
642.76	10.705
643.09	13.014
643.41	9.524
643.74	12.690
644.07	11.172
644.40	11.315
644.73	11.176
645.05	11.013
645.38	11.655
645.71	13.636
646.04	13.773
646.36	10.511
646.69	11.043
647.02	13.761
647.35	13.130
647.67	12.721
648.00	11.783
648.33	13.514
648.66	11.555
648.98	11.973
649.31	13.667
649.64	14.741
649.96	11.936
650.29	11.405
650.62	10.325
650.94	9.459
651.27	9.132
651.60	10.673
651.92	11.398
652.25	12.446
652.58	12.380
652.90	10.901
653.23	12.676
653.56	10.842
653.88	14.888
654.21	10.845
654.54	10.549
654.86	12.606
655.19	11.669
655.52	16.600
655.84	21.821
656.17	26.304
656.49	36.525
656.82	38.339
657.15	28.102
657.47	19.913
657.80	13.961
658.13	10.296
658.45	13.182
658.78	15.042
659.10	14.169
659.43	14.183
659.75	12.363
660.08	11.597
660.41	10.505
660.73	10.376
661.06	7.783
661.38	10.845
661.71	10.000
662.03	9.877
662.36	9.660
662.68	8.630
663.01	9.912
663.33	9.830
663.66	11.722
663.98	9.808
664.31	9.193
664.63	9.056
664.96	10.889
665.28	9.619
665.61	12.063
665.93	10.357
666.26	9.677
666.58	7.749
666.91	10.654
667.23	8.762
667.56	8.481
667.88	9.400
668.21	7.813
668.53	5.985
668.86	10.806
669.18	7.536
669.50	8.549
669.83	6.800
670.15	9.252
670.48	10.317
670.80	8.604
671.13	11.153
671.45	8.858
671.77	10.546
672.10	9.500
672.42	8.738
672.75	11.828
673.07	10.448
673.39	9.553
673.72	11.577
674.04	11.207
674.37	11.807
674.69	13.051
675.01	8.762
675.34	8.969
675.66	9.925
675.98	8.769
676.31	9.766
676.63	11.407
676.95	8.812
677.28	11.089
677.60	7.874
677.92	11.324
678.25	10.238
678.57	10.676
678.89	12.799
679.22	9.059
679.54	10.085
679.86	9.492
680.18	10.116
680.51	11.792
680.83	11.784
681.15	8.966
681.48	11.744
681.80	12.953
682.12	9.790
682.44	9.683
682.77	9.043
683.09	9.470
683.41	8.527
683.73	10.816
684.06	10.701
684.38	10.018
684.70	12.388
685.02	11.188
685.34	9.318
685.67	10.252
685.99	11.503
686.31	10.901
686.63	11.532
686.96	11.199
687.28	12.215
687.60	11.953
687.92	9.807
688.24	12.187
688.56	10.172
688.89	8.893
689.21	9.785
689.53	8.627
689.85	9.073
690.17	8.148
690.49	9.761
690.82	9.109
691.14	7.085
691.46	11.281
691.78	11.050
692.10	11.743
692.42	11.250
692.74	9.619
693.06	8.333
693.39	12.144
693.71	10.526
694.03	13.569
694.35	11.429
694.67	8.624
694.99	10.213
695.31	8.168
695.63	7.359
695.95	10.352
696.27	10.330
696.59	9.513
696.91	7.658
697.23	10.549
697.56	10.591
697.88	9.091
698.20	10.546
698.52	10.985
698.84	8.524
699.16	10.000
699.48	9.414
699.80	8.298
700.12	8.952
700.44	8.756
700.76	6.888
701.08	7.990
701.40	5.959
701.72	7.960
702.04	4.278
702.36	4.712
702.68	6.601
703.00	10.513
703.32	8.128
703.64	10.513
703.96	6.683
704.28	6.634
704.60	11.899
704.91	7.143
705.23	7.397
705.55	6.128
705.87	5.758
706.19	5.215
706.51	1.506
706.83	6.628
707.15	5.556
707.47	7.477
707.79	10.480
708.11	8.051
708.43	7.527
708.74	5.134
709.06	10.209
709.38	11.737
709.70	11.166
710.02	9.302
710.34	7.447
710.66	6.145
710.98	6.557
711.29	9.066
711.61	8.192
711.93	5.983
712.25	8.378
712.57	6.195
712.89	6.765
713.20	6.805
713.52	8.092
713.84	9.471
714.16	9.211
714.48	6.701
714.80	10.909
715.11	5.512
715.43	9.284
715.75	9.211
716.07	6.906
716.39	8.197
716.70	1.807
717.02	4.590
717.34	6.272
717.66	1.342
717.97	1.712
718.29	5.155
718.61	1.974
718.93	2.589
719.24	4.658
719.56	6.748
719.88	7.207
720.20	3.871
720.51	4.969
720.83	3.438
721.15	3.289
721.46	3.082
721.78	5.000
722.10	6.472
722.42	3.691
722.73	3.871
723.05	5.263
723.37	4.514
723.68	8.244
724.00	8.303
724.32	5.282
724.63	4.895
724.95	9.574
725.27	4.530
725.58	0.707
725.90	9.655
726.22	5.956
726.53	9.416
726.85	8.491
727.16	8.459
727.48	9.786
727.80	5.298
728.11	1.767
728.43	6.397
728.74	5.686
729.06	7.285
729.38	6.494
729.69	6.376
730.01	6.250
730.32	5.152
730.64	11.006
730.96	5.901
731.27	10.615
731.59	9.615
731.90	7.273
732.22	7.031
732.53	3.867
732.85	7.429
733.16	9.384
733.48	7.927
733.80	8.635
734.11	9.402
734.43	10.270
734.74	12.658
735.06	10.553
735.37	9.189
735.69	8.649
736.00	9.322
736.32	8.895
736.63	8.333
736.95	7.184
737.26	12.424
737.58	7.879
737.89	7.059
738.21	4.893
738.52	6.885
738.83	6.143
739.15	3.546
739.46	7.823
739.78	9.509
740.09	7.163
740.41	8.746
740.72	4.667
741.04	8.091
741.35	8.421
741.66	3.922
741.98	4.918
742.29	0.000
742.61	3.070
742.92	5.769
743.23	11.552
743.55	6.202
743.86	6.800
744.18	-0.413
744.49	2.954
744.80	6.173
745.12	4.641
745.43	8.537
745.74	4.741
746.06	0.847
746.37	2.954
746.68	4.878
747.00	2.083
747.31	1.717
747.62	4.615
747.94	2.834
748.25	1.205
748.56	6.122
748.88	4.274
749.19	7.328
749.50	1.732
749.82	2.410
750.13	6.762
750.44	4.333
750.75	7.385
751.07	6.769
751.38	5.047
751.69	6.070
752.01	7.767
752.32	7.843
752.63	4.762
752.94	3.114
753.26	1.859
753.57	6.667
753.88	4.869
754.19	6.752
754.51	4.823
754.82	9.325
755.13	8.197
755.44	4.778
755.75	7.237
756.07	12.239
756.38	8.491
756.69	10.241
757.00	6.094
757.31	6.011
757.63	8.440
757.94	7.981
758.25	11.738
758.56	10.893
758.87	11.364
759.18	7.200
759.50	8.499
759.81	12.605
760.12	12.129
760.43	10.677
760.74	12.315
761.05	9.750
761.36	10.361
761.67	8.629
761.99	8.378
762.30	3.659
762.61	6.601
762.92	8.209
763.23	8.989
763.54	6.115
763.85	4.811
764.16	6.734
764.47	6.338
764.78	6.070
765.10	9.677
765.41	10.769
765.72	7.143
766.03	9.040
766.34	4.075
766.65	2.787
766.96	0.797
767.27	0.922
767.58	-2.985
767.89	6.250
768.20	5.164
768.51	2.778
768.82	4.418
769.13	6.818
769.44	-0.769
769.75	5.776
770.06	5.000
770.37	3.937
770.68	-1.277
770.99	5.263
771.30	10.370
771.61	7.224
771.92	1.852
772.23	6.478
772.54	1.389
772.85	3.226
773.16	4.762
773.47	-1.058
773.78	-4.324
774.09	-2.273
774.39	4.500
774.70	3.279
775.01	-2.439
775.32	-6.471
775.63	-3.067
775.94	-7.643
776.25	-0.645
776.56	5.128
776.87	0.000
777.18	-4.828
777.48	-7.692
777.79	-4.054
778.10	-8.088
778.41	-0.694
778.72	-2.759
779.03	0.000
779.34	3.030
779.65	1.554
779.95	1.667
780.26	-0.568
780.57	0.000
780.88	-0.725
781.19	4.516
781.50	4.118
781.80	4.301
782.11	2.116
782.42	-7.071
782.73	-2.994
783.04	-1.117
783.34	-8.485
783.65	-3.268
783.96	-2.484
784.27	1.190
784.57	-0.662
784.88	-3.571
785.19	-12.598
785.50	-6.299
785.81	-1.504
786.11	-1.538
786.42	-5.036
786.73	-5.755
787.04	-7.519
787.34	-2.459
787.65	-2.400
787.96	-4.478
788.26	6.294
788.57	4.895
788.88	-1.974
789.19	5.229
789.49	-4.110
789.80	-1.418
790.11	-6.299
790.41	-8.594
790.72	-9.322
791.03	-18.447
791.33	-6.087
791.64	0.877
791.95	-13.393
792.25	-11.429
792.56	-6.250
792.87	-6.250
793.17	-7.143
793.48	-19.792
793.79	-30.120
794.09	-11.009
794.40	-11.927
794.70	-5.442
795.01	1.948
795.32	-0.685
795.62	-4.225
795.93	-7.576
796.23	-3.279
796.54	-10.714
796.85	-15.957
797.15	-23.913
797.46	-21.918
797.76	-15.000
798.07	-19.565
798.37	-19.588
798.68	-31.169
798.99	-17.241
799.29	-24.719
799.60	-17.021
799.90	-15.663
800.21	-15.385
800.51	-38.806
800.82	-32.353
801.12	-39.726
801.43	-32.353
801.73	-52.542
802.04	-31.818
802.34	-43.333
802.65	-32.203
802.95	-16.418
803.26	-40.678
803.56	-19.178
803.87	-15.714
804.17	-19.178
804.48	-57.895
804.78	-25.000
805.09	-46.552
805.39	-12.162
805.70	-39.437
806.00	-17.073
806.30	-19.277
806.61	-21.918
806.91	-12.500
807.22	-18.889
807.52	-22.989
807.83	-18.056
808.13	-10.843
808.43	-14.607
808.74	-21.250
809.04	-38.235
809.35	-20.000
809.65	-31.429
809.95	-31.507
810.26	-40.351
810.56	-36.207
810.86	-23.529
811.17	-40.351
811.47	-45.902
811.77	-55.556
812.08	-33.898
812.38	-25.000
812.69	-34.483
812.99	-33.962
813.29	-71.795
813.59	-40.000
813.90	-35.088
814.20	-38.182
814.50	-25.352
814.81	-20.513
815.11	-24.590
815.41	-28.358
815.72	-34.483
816.02	-35.714
816.32	-35.556
816.62	-52.273
816.93	-28.889
817.23	-48.148
817.53	-57.447
817.84	-50.000
818.14	-38.235
818.44	-38.776
818.74	-53.333
819.04	-84.615
819.35	-74.286
819.65	-130.769
819.95	-49.057
820.25	-37.778
820.56	-54.762
820.86	-87.500
821.16	-64.103
821.46	-62.791
821.76	-56.000
822.07	-41.071
822.37	-54.348
822.67	-48.936
822.97	-70.270
823.27	-52.500
823.57	-26.531
823.88	-33.333
824.18	-30.000
824.48	-60.000
824.78	-88.000
825.08	-78.788
825.38	-8.889
825.69	-27.660
825.99	-47.222
826.29	-71.429
826.59	-74.359
826.89	-62.791
827.19	-66.000
827.49	-67.647
827.79	-41.667
828.09	-67.568
828.39	-83.333
828.70	-46.341
829.00	-39.535
829.30	-92.857
829.60	-67.647
829.90	-41.304
830.20	-80.000
830.50	-103.448
830.80	-144.444
831.10	-107.692
831.40	-55.882
831.70	-142.857
832.00	-58.065
832.30	-182.353
832.60	-116.667
832.90	-215.385
833.20	-152.632
833.50	-130.000
833.80	-121.053
834.10	-176.190
834.40	-58.333
834.70	-53.125
835.00	-91.429
835.30	-88.235
835.60	-86.667
835.90	-96.000
836.20	-131.818
836.50	-116.000
836.80	-87.879
837.10	-125.926
837.40	-114.815
837.70	-225.000
838.00	-75.000
838.30	-113.043
838.60	-75.862
838.90	-228.571
839.19	-186.957
839.49	-366.667
839.79	-100.000
840.09	-168.750
840.39	-140.000
840.69	-67.742
840.99	-110.714
841.29	-220.000
841.59	-121.053
841.88	-48.718
842.18	-65.385
842.48	-380.000
842.78	-135.000
843.08	-90.000
843.38	-61.290
843.68	-205.556
843.97	-67.647
844.27	-181.250
844.57	-157.895
844.87	-310.000
845.17	-140.000
845.47	-100.000
845.76	-123.810
846.06	-344.444
846.36	-147.059
846.66	-88.462
846.96	-140.000
847.25	-141.176
847.55	-86.957
847.85	-165.000
848.15	-111.765
848.44	-245.455
848.74	-100.000
849.04	-100.000
849.34	-162.500
849.63	-86.957
849.93	1750.000
850.23	-126.667
850.53	-65.385
850.82	-300.000
851.12	-72.727
851.42	-227.273
851.71	-169.231
852.01	-130.000
852.31	-200.000
852.61	-136.842
852.90	-183.333
853.20	-155.556
853.50	-344.444
853.79	-123.810
854.09	-100.000
854.39	-200.000
854.68	-54.839
854.98	-103.846
855.28	-166.667
855.57	-82.143
855.87	-84.000
856.17	-140.909
856.46	-85.185
856.76	-116.667
857.05	-126.087
857.35	-112.500
857.65	-246.154
857.94	-109.524
858.24	-88.889
858.53	-113.043
858.83	-158.824
859.13	-182.353
859.42	-94.118
859.72	-121.429
860.01	-130.000
860.31	-300.000
860.60	-240.000
860.90	-160.000
861.20	-172.222
861.49	-215.385
861.79	-60.000
862.08	-184.615
862.38	-40.625
862.67	-129.412
862.97	-181.250
863.26	-344.444
863.56	-250.000
863.85	-172.727
864.15	-122.222
864.44	-1133.333
864.74	-200.000
865.03	-143.750
865.33	-330.000
865.62	-100.000
865.92	-136.364
866.21	-86.957
866.51	-121.429
866.80	-580.000
867.10	-291.667
867.39	-308.333
867.69	3700.000
867.98	-400.000
868.27	-170.588
868.57	-3700.000
868.86	-270.000
869.16	-161.905
869.45	-91.667
869.75	-181.818
870.04	-385.714
870.33	-266.667
870.63	-414.286
870.92	-850.000
871.22	-375.000
871.51	-254.545
871.80	-1233.333
872.10	-1750.000
>>>>>End Processed Spectral Data<<<<<
