SpectraSuite Data File
++++++++++++++++++++++++++++++++++++
Date: Thu May 14 15:58:33 PDT 2015
User: schluterlab
Dark Spectrum Present: Yes
Reference Spectrum Present: Yes
Number of Sampled Component Spectra: 1
Spectrometers: USB2E3373
Integration Time (usec): 3000 (USB2E3373)
Spectra Averaged: 3 (USB2E3373)
Boxcar Smoothing: 0 (USB2E3373)
Correct for Electrical Dark: No (USB2E3373)
Strobe/Lamp Enabled: No (USB2E3373)
Correct for Detector Non-linearity: No (USB2E3373)
Correct for Stray Light: No (USB2E3373)
Number of Pixels in Processed Spectrum: 2048
>>>>>Begin Processed Spectral Data<<<<<
178.53	0.000
178.91	314.286
179.29	-3300.000
179.67	-2500.000
180.04	271.429
180.42	250.000
180.80	440.000
181.18	-2100.000
181.56	-1600.000
181.94	575.000
182.31	-400.000
182.69	1033.333
183.07	-1000.000
183.45	300.000
183.83	-400.000
184.20	-533.333
184.58	1600.000
184.96	-450.000
185.34	-244.444
185.72	-380.000
186.09	333.333
186.47	1350.000
186.85	780.000
187.23	-322.222
187.61	-2600.000
187.98	560.000
188.36	575.000
188.74	-475.000
189.12	-433.333
189.49	-112.500
189.87	-275.000
190.25	-188.889
190.63	-240.000
191.00	-322.222
191.38	0.000
191.76	-525.000
192.14	-566.667
192.51	1500.000
192.89	-383.333
193.27	0.000
193.65	-257.143
194.02	-2800.000
194.40	-271.429
194.78	228.571
195.15	0.000
195.53	-72.727
195.91	0.000
196.29	-450.000
196.66	-153.846
197.04	-3000.000
197.42	-257.143
197.79	-1150.000
198.17	-250.000
198.55	-157.143
198.92	-188.889
199.30	-237.500
199.68	-81.818
200.05	-50.000
200.43	-1400.000
200.81	471.429
201.18	0.000
201.56	377.778
201.94	0.000
202.31	966.667
202.69	-222.222
203.07	2400.000
203.44	-266.667
203.82	-550.000
204.19	-216.667
204.57	-283.333
204.95	-312.500
205.32	-2500.000
205.70	475.000
206.08	-200.000
206.45	-383.333
206.83	780.000
207.20	-366.667
207.58	-460.000
207.96	-316.667
208.33	-416.667
208.71	233.333
209.08	-100.000
209.46	0.000
209.84	333.333
210.21	750.000
210.59	1100.000
210.96	1066.667
211.34	-450.000
211.71	-312.500
212.09	-2600.000
212.46	0.000
212.84	1600.000
213.22	-420.000
213.59	-525.000
213.97	-160.000
214.34	-900.000
214.72	500.000
215.09	-700.000
215.47	0.000
215.84	314.286
216.22	1300.000
216.59	-260.000
216.97	-560.000
217.34	-525.000
217.72	-250.000
218.09	-650.000
218.47	-675.000
218.84	0.000
219.22	300.000
219.59	-52.941
219.97	-110.000
220.34	1700.000
220.72	-288.889
221.09	-69.231
221.47	-433.333
221.84	-210.000
222.22	-414.286
222.59	0.000
222.97	-300.000
223.34	-560.000
223.72	-1900.000
224.09	-500.000
224.46	-450.000
224.84	-260.000
225.21	-385.714
225.59	-700.000
225.96	-550.000
226.34	-65.385
226.71	466.667
227.08	-550.000
227.46	-73.333
227.83	-550.000
228.21	-115.789
228.58	200.000
228.95	1200.000
229.33	-100.000
229.70	-170.000
230.08	-63.158
230.45	380.000
230.82	-733.333
231.20	-107.143
231.57	-158.333
231.95	-190.909
232.32	-200.000
232.69	-65.000
233.07	-450.000
233.44	-88.235
233.81	-210.000
234.19	-105.556
234.56	-72.727
234.93	-44.828
235.31	-47.368
235.68	-100.000
236.05	-120.000
236.43	-7.692
236.80	-20.000
237.17	-29.630
237.55	-45.455
237.92	-180.000
238.29	-35.484
238.67	-22.727
239.04	-8.333
239.41	-35.714
239.79	-28.261
240.16	-3.704
240.53	-34.783
240.91	-33.333
241.28	-16.393
241.65	7.463
242.02	4.054
242.40	-12.308
242.77	-6.667
243.14	2.439
243.51	-11.842
243.89	-7.692
244.26	6.931
244.63	5.882
245.00	-0.935
245.38	0.000
245.75	-2.655
246.12	7.143
246.49	3.876
246.87	6.429
247.24	12.583
247.61	13.816
247.98	11.409
248.36	14.198
248.73	7.975
249.10	9.836
249.47	13.433
249.84	16.754
250.22	14.508
250.59	11.667
250.96	19.545
251.33	8.163
251.70	18.376
252.08	13.750
252.45	15.164
252.82	13.636
253.19	15.234
253.56	17.110
253.94	14.615
254.31	15.530
254.68	17.483
255.05	21.173
255.42	18.027
255.79	19.741
256.16	15.563
256.54	10.927
256.91	17.377
257.28	16.066
257.65	14.013
258.02	15.339
258.39	16.239
258.76	21.101
259.14	18.678
259.51	16.138
259.88	18.697
260.25	20.000
260.62	19.178
260.99	22.131
261.36	23.324
261.73	17.241
262.10	16.758
262.47	20.643
262.85	20.707
263.22	18.442
263.59	16.053
263.96	18.926
264.33	18.670
264.70	21.235
265.07	19.332
265.44	22.902
265.81	19.676
266.18	20.181
266.55	22.098
266.92	19.590
267.29	21.882
267.66	19.956
268.03	23.362
268.40	21.294
268.77	19.134
269.14	15.859
269.51	18.640
269.88	24.180
270.25	21.529
270.62	20.675
270.99	23.636
271.36	18.416
271.73	20.039
272.10	18.236
272.47	20.441
272.84	19.277
273.21	19.439
273.58	22.177
273.95	20.385
274.32	18.441
274.69	19.149
275.06	20.330
275.43	17.930
275.80	19.224
276.17	18.519
276.54	20.149
276.91	18.605
277.28	19.349
277.65	20.287
278.02	19.669
278.39	18.478
278.76	18.629
279.13	20.213
279.50	20.962
279.87	18.605
280.23	16.021
280.60	19.153
280.97	20.066
281.34	18.676
281.71	21.489
282.08	19.103
282.45	18.331
282.82	19.309
283.19	19.548
283.56	20.984
283.92	20.420
284.29	19.115
284.66	21.346
285.03	18.429
285.40	20.711
285.77	19.040
286.14	18.779
286.51	18.721
286.87	20.221
287.24	18.524
287.61	20.927
287.98	19.184
288.35	16.568
288.72	19.083
289.08	19.327
289.45	17.012
289.82	18.072
290.19	17.960
290.56	17.606
290.93	18.973
291.29	18.595
291.66	18.182
292.03	17.910
292.40	20.408
292.77	16.712
293.13	18.268
293.50	16.294
293.87	16.779
294.24	17.467
294.60	16.688
294.97	15.436
295.34	17.926
295.71	15.637
296.08	16.279
296.44	16.789
296.81	15.225
297.18	14.570
297.55	14.505
297.91	16.607
298.28	13.626
298.65	17.122
299.02	15.584
299.38	17.162
299.75	15.070
300.12	15.162
300.48	15.783
300.85	15.523
301.22	15.884
301.59	15.525
301.95	15.480
302.32	15.667
302.69	14.567
303.05	15.125
303.42	15.299
303.79	14.375
304.15	14.616
304.52	14.799
304.89	14.346
305.25	14.803
305.62	14.629
305.99	15.464
306.35	14.113
306.72	14.995
307.09	13.503
307.45	14.389
307.82	13.824
308.19	15.136
308.55	14.851
308.92	14.898
309.29	14.943
309.65	14.230
310.02	13.069
310.38	14.075
310.75	14.466
311.12	15.532
311.48	14.076
311.85	14.245
312.22	14.611
312.58	14.085
312.95	13.767
313.31	15.447
313.68	14.469
314.05	15.808
314.41	14.390
314.78	13.715
315.14	14.610
315.51	15.143
315.87	14.941
316.24	14.247
316.61	15.009
316.97	14.389
317.34	13.845
317.70	14.410
318.07	14.550
318.43	15.561
318.80	14.381
319.16	14.335
319.53	14.396
319.89	14.549
320.26	15.125
320.62	13.918
320.99	13.666
321.35	14.787
321.72	16.093
322.08	13.165
322.45	14.092
322.81	14.892
323.18	13.982
323.54	14.224
323.91	13.612
324.27	15.491
324.64	14.526
325.00	14.677
325.37	14.988
325.73	16.281
326.10	14.842
326.46	15.879
326.83	15.292
327.19	15.591
327.56	14.704
327.92	13.926
328.29	14.677
328.65	14.573
329.01	14.044
329.38	14.490
329.74	14.384
330.11	14.384
330.47	13.985
330.84	14.643
331.20	14.250
331.56	13.951
331.93	14.728
332.29	13.644
332.66	14.037
333.02	14.070
333.38	14.597
333.75	13.552
334.11	14.345
334.48	13.944
334.84	14.019
335.20	14.022
335.57	13.322
335.93	14.050
336.29	14.393
336.66	13.625
337.02	13.963
337.38	15.221
337.75	14.050
338.11	14.466
338.47	14.309
338.84	14.298
339.20	13.648
339.56	12.932
339.93	14.204
340.29	13.688
340.65	13.788
341.02	15.084
341.38	14.794
341.74	13.156
342.11	15.125
342.47	13.662
342.83	13.607
343.20	13.328
343.56	13.553
343.92	13.451
344.28	13.750
344.65	14.341
345.01	13.495
345.37	13.608
345.73	13.484
346.10	12.871
346.46	13.212
346.82	14.007
347.19	13.369
347.55	13.278
347.91	13.299
348.27	12.974
348.63	13.785
349.00	12.975
349.36	14.647
349.72	13.393
350.08	13.447
350.45	13.612
350.81	12.670
351.17	13.459
351.53	14.026
351.89	13.364
352.26	12.537
352.62	13.284
352.98	13.588
353.34	12.696
353.70	12.943
354.07	13.413
354.43	12.908
354.79	12.939
355.15	13.171
355.51	13.304
355.87	13.014
356.24	12.395
356.60	12.639
356.96	12.231
357.32	12.342
357.68	12.518
358.04	12.425
358.40	12.463
358.77	13.450
359.13	11.374
359.49	13.383
359.85	12.400
360.21	12.482
360.57	12.994
360.93	11.989
361.29	12.351
361.66	13.179
362.02	13.222
362.38	12.930
362.74	12.570
363.10	12.792
363.46	12.742
363.82	12.216
364.18	12.597
364.54	12.379
364.90	13.378
365.26	11.517
365.62	13.267
365.98	12.321
366.35	12.081
366.71	12.381
367.07	13.194
367.43	12.869
367.79	13.338
368.15	12.642
368.51	12.652
368.87	11.822
369.23	12.467
369.59	12.363
369.95	12.644
370.31	13.504
370.67	12.173
371.03	11.496
371.39	12.895
371.75	12.724
372.11	11.992
372.47	11.984
372.83	12.369
373.19	12.542
373.55	12.466
373.91	11.861
374.27	12.225
374.63	12.179
374.99	11.804
375.35	13.442
375.71	12.323
376.07	11.814
376.42	13.224
376.78	12.430
377.14	12.664
377.50	12.460
377.86	12.869
378.22	12.575
378.58	12.010
378.94	11.913
379.30	12.537
379.66	12.463
380.02	11.945
380.38	12.961
380.74	12.507
381.09	11.789
381.45	12.557
381.81	12.646
382.17	13.302
382.53	12.339
382.89	13.036
383.25	12.896
383.61	10.995
383.97	11.602
384.32	12.081
384.68	11.833
385.04	12.319
385.40	12.552
385.76	12.309
386.12	12.268
386.48	12.353
386.83	12.992
387.19	11.645
387.55	12.148
387.91	12.272
388.27	12.471
388.62	11.684
388.98	12.014
389.34	11.786
389.70	12.435
390.06	11.308
390.42	12.108
390.77	12.101
391.13	12.207
391.49	12.319
391.85	11.030
392.20	12.396
392.56	12.227
392.92	12.323
393.28	11.940
393.64	11.955
393.99	12.899
394.35	12.500
394.71	12.335
395.07	11.677
395.42	12.907
395.78	12.553
396.14	12.121
396.50	12.292
396.85	11.807
397.21	12.130
397.57	12.485
397.92	12.428
398.28	12.385
398.64	11.556
399.00	11.623
399.35	12.408
399.71	11.630
400.07	11.735
400.42	11.350
400.78	12.269
401.14	11.212
401.49	12.962
401.85	11.744
402.21	13.094
402.57	11.796
402.92	12.057
403.28	11.944
403.63	10.919
403.99	11.639
404.35	11.768
404.70	12.635
405.06	11.902
405.42	12.002
405.77	12.595
406.13	12.264
406.49	12.106
406.84	12.078
407.20	11.850
407.55	12.114
407.91	11.565
408.27	11.720
408.62	11.693
408.98	12.130
409.34	12.141
409.69	11.743
410.05	12.485
410.40	12.355
410.76	12.170
411.11	11.981
411.47	12.101
411.83	12.522
412.18	12.952
412.54	12.863
412.89	11.641
413.25	12.585
413.60	11.717
413.96	11.713
414.31	12.181
414.67	12.224
415.03	11.631
415.38	11.854
415.74	11.057
416.09	12.153
416.45	11.709
416.80	11.322
417.16	11.175
417.51	11.955
417.87	12.140
418.22	11.796
418.58	11.648
418.93	12.282
419.29	12.207
419.64	12.065
420.00	11.335
420.35	12.240
420.71	12.292
421.06	11.041
421.42	12.385
421.77	12.224
422.12	12.262
422.48	12.186
422.83	11.172
423.19	12.255
423.54	11.504
423.90	11.375
424.25	12.907
424.61	10.850
424.96	11.807
425.31	11.996
425.67	12.131
426.02	11.234
426.38	11.711
426.73	11.607
427.09	12.976
427.44	12.398
427.79	11.388
428.15	11.587
428.50	11.629
428.85	11.940
429.21	12.660
429.56	11.797
429.92	11.892
430.27	12.771
430.62	12.213
430.98	12.395
431.33	11.730
431.68	11.638
432.04	12.138
432.39	12.266
432.74	11.416
433.10	12.764
433.45	11.706
433.80	12.285
434.16	12.707
434.51	12.384
434.86	11.781
435.22	11.265
435.57	12.087
435.92	11.630
436.28	11.889
436.63	12.070
436.98	12.238
437.34	11.274
437.69	12.108
438.04	11.317
438.39	11.775
438.75	12.120
439.10	11.945
439.45	12.465
439.81	11.412
440.16	11.903
440.51	12.096
440.86	11.784
441.22	11.576
441.57	11.845
441.92	12.076
442.27	12.626
442.63	12.320
442.98	12.380
443.33	12.204
443.68	12.091
444.03	12.465
444.39	12.668
444.74	12.251
445.09	11.809
445.44	12.908
445.79	12.021
446.15	12.487
446.50	12.248
446.85	12.354
447.20	11.944
447.55	12.238
447.91	12.094
448.26	11.628
448.61	12.646
448.96	12.715
449.31	11.135
449.66	11.166
450.02	12.869
450.37	12.627
450.72	12.487
451.07	12.585
451.42	11.843
451.77	11.395
452.12	11.682
452.47	11.646
452.83	12.613
453.18	12.201
453.53	11.775
453.88	12.424
454.23	11.921
454.58	12.594
454.93	12.379
455.28	12.523
455.63	11.882
455.98	11.788
456.34	12.426
456.69	11.817
457.04	13.180
457.39	12.195
457.74	12.360
458.09	12.026
458.44	12.877
458.79	12.017
459.14	12.743
459.49	12.847
459.84	13.064
460.19	11.605
460.54	13.174
460.89	12.758
461.24	11.724
461.59	13.282
461.94	12.379
462.29	11.814
462.64	12.372
462.99	12.932
463.34	12.589
463.69	12.427
464.04	12.618
464.39	12.444
464.74	12.885
465.09	12.168
465.44	12.285
465.79	12.639
466.14	12.142
466.49	12.211
466.84	12.397
467.19	12.543
467.54	12.103
467.89	12.184
468.24	12.687
468.59	11.928
468.94	11.072
469.29	11.938
469.64	11.634
469.99	12.428
470.34	11.696
470.68	12.509
471.03	12.181
471.38	12.492
471.73	11.443
472.08	12.056
472.43	12.101
472.78	12.280
473.13	11.504
473.48	12.447
473.83	12.885
474.17	12.544
474.52	11.966
474.87	12.292
475.22	11.887
475.57	12.409
475.92	12.992
476.27	11.874
476.61	13.084
476.96	12.409
477.31	12.921
477.66	12.434
478.01	12.811
478.36	12.263
478.70	13.054
479.05	12.986
479.40	12.192
479.75	13.064
480.10	12.553
480.45	12.580
480.79	12.880
481.14	12.362
481.49	12.494
481.84	12.881
482.19	12.430
482.53	12.724
482.88	12.450
483.23	12.583
483.58	12.664
483.92	12.278
484.27	12.193
484.62	11.922
484.97	12.519
485.31	12.214
485.66	12.368
486.01	12.779
486.36	13.057
486.70	13.680
487.05	13.728
487.40	13.118
487.75	12.341
488.09	12.313
488.44	12.053
488.79	11.973
489.13	12.382
489.48	11.379
489.83	12.113
490.17	11.827
490.52	11.905
490.87	12.352
491.22	12.305
491.56	12.927
491.91	12.909
492.26	12.462
492.60	12.418
492.95	12.944
493.30	11.654
493.64	12.527
493.99	12.544
494.34	11.760
494.68	12.634
495.03	12.952
495.37	11.895
495.72	12.109
496.07	12.621
496.41	12.012
496.76	12.969
497.11	11.762
497.45	12.473
497.80	12.394
498.14	11.927
498.49	12.684
498.84	12.751
499.18	12.731
499.53	12.915
499.87	12.220
500.22	12.199
500.56	12.101
500.91	12.311
501.26	12.227
501.60	12.461
501.95	12.983
502.29	13.076
502.64	12.812
502.98	13.201
503.33	12.311
503.67	12.037
504.02	11.865
504.36	12.601
504.71	12.908
505.06	12.915
505.40	12.523
505.75	12.887
506.09	12.845
506.44	12.999
506.78	12.661
507.13	12.817
507.47	12.695
507.82	12.453
508.16	12.380
508.51	11.908
508.85	12.518
509.19	12.506
509.54	13.449
509.88	12.336
510.23	12.919
510.57	12.905
510.92	12.482
511.26	12.169
511.61	11.975
511.95	12.152
512.30	12.851
512.64	12.094
512.98	12.906
513.33	12.097
513.67	12.647
514.02	12.724
514.36	12.685
514.70	12.760
515.05	12.565
515.39	11.811
515.74	12.672
516.08	12.256
516.42	13.605
516.77	12.566
517.11	12.429
517.46	13.043
517.80	13.629
518.14	12.894
518.49	12.798
518.83	12.347
519.17	12.547
519.52	12.317
519.86	12.724
520.20	13.152
520.55	12.760
520.89	13.288
521.23	12.786
521.58	12.881
521.92	12.918
522.26	11.455
522.61	12.384
522.95	12.341
523.29	12.299
523.64	13.061
523.98	12.778
524.32	12.837
524.66	12.521
525.01	13.080
525.35	12.177
525.69	12.413
526.04	12.916
526.38	13.391
526.72	12.860
527.06	12.375
527.41	12.770
527.75	12.945
528.09	12.397
528.43	12.789
528.78	12.139
529.12	12.041
529.46	12.366
529.80	13.730
530.15	13.217
530.49	12.515
530.83	12.810
531.17	12.724
531.51	12.816
531.86	13.401
532.20	13.659
532.54	12.268
532.88	13.212
533.22	13.377
533.57	13.503
533.91	13.356
534.25	13.115
534.59	12.816
534.93	12.394
535.27	12.563
535.62	14.042
535.96	12.899
536.30	12.867
536.64	13.574
536.98	13.100
537.32	12.901
537.66	13.225
538.01	12.870
538.35	12.667
538.69	12.620
539.03	13.182
539.37	13.074
539.71	13.093
540.05	12.710
540.39	11.491
540.73	13.115
541.07	12.017
541.42	12.168
541.76	12.100
542.10	12.364
542.44	12.607
542.78	12.774
543.12	13.826
543.46	12.821
543.80	11.811
544.14	12.268
544.48	12.884
544.82	13.345
545.16	13.119
545.50	12.822
545.84	12.431
546.18	13.951
546.52	12.102
546.86	13.145
547.20	12.405
547.54	12.984
547.88	12.297
548.22	13.041
548.56	12.756
548.90	12.537
549.24	12.705
549.58	12.808
549.92	12.883
550.26	13.204
550.60	13.210
550.94	12.549
551.28	12.343
551.62	13.544
551.96	12.880
552.30	13.767
552.64	13.628
552.98	13.288
553.32	13.505
553.66	12.476
554.00	13.304
554.34	12.806
554.68	13.170
555.02	13.535
555.36	13.544
555.69	12.300
556.03	13.682
556.37	13.016
556.71	12.619
557.05	13.163
557.39	12.143
557.73	13.144
558.07	12.450
558.41	13.488
558.75	13.320
559.08	13.222
559.42	12.414
559.76	13.229
560.10	12.860
560.44	13.259
560.78	13.312
561.12	13.116
561.45	14.112
561.79	13.370
562.13	13.062
562.47	12.392
562.81	12.532
563.15	12.816
563.48	13.238
563.82	12.152
564.16	13.204
564.50	12.872
564.84	13.451
565.17	13.000
565.51	12.773
565.85	12.589
566.19	11.751
566.52	13.224
566.86	13.186
567.20	12.833
567.54	13.808
567.88	13.303
568.21	13.439
568.55	13.477
568.89	13.255
569.23	13.688
569.56	12.778
569.90	13.507
570.24	13.592
570.57	13.214
570.91	13.227
571.25	13.220
571.59	13.721
571.92	13.459
572.26	13.314
572.60	13.759
572.93	13.220
573.27	13.234
573.61	13.684
573.95	13.547
574.28	13.548
574.62	13.347
574.96	13.013
575.29	13.175
575.63	13.190
575.97	13.126
576.30	13.348
576.64	13.147
576.98	13.075
577.31	13.513
577.65	13.227
577.98	13.253
578.32	13.072
578.66	13.211
578.99	13.045
579.33	12.895
579.67	12.942
580.00	13.127
580.34	13.460
580.67	12.710
581.01	13.349
581.35	13.228
581.68	13.718
582.02	13.762
582.35	13.795
582.69	13.804
583.02	13.306
583.36	13.124
583.70	12.611
584.03	12.767
584.37	12.886
584.70	12.861
585.04	13.020
585.37	13.213
585.71	13.484
586.04	13.364
586.38	13.092
586.72	12.936
587.05	12.868
587.39	13.239
587.72	13.493
588.06	13.636
588.39	13.617
588.73	13.333
589.06	13.149
589.40	13.245
589.73	13.175
590.07	13.263
590.40	13.185
590.73	12.761
591.07	13.179
591.40	12.597
591.74	13.037
592.07	13.398
592.41	12.303
592.74	13.170
593.08	13.248
593.41	13.940
593.75	13.592
594.08	13.450
594.41	13.173
594.75	12.886
595.08	13.156
595.42	13.409
595.75	13.174
596.09	13.487
596.42	13.902
596.75	13.007
597.09	13.374
597.42	12.992
597.75	13.446
598.09	13.294
598.42	13.591
598.76	13.336
599.09	13.457
599.42	13.275
599.76	13.338
600.09	13.747
600.42	13.013
600.76	13.177
601.09	13.110
601.42	12.736
601.76	13.172
602.09	12.402
602.42	12.759
602.76	13.321
603.09	13.840
603.42	13.259
603.76	13.284
604.09	13.982
604.42	13.174
604.76	13.394
605.09	13.203
605.42	12.919
605.75	13.346
606.09	12.990
606.42	12.915
606.75	12.594
607.09	12.788
607.42	13.025
607.75	13.716
608.08	13.023
608.42	13.220
608.75	13.350
609.08	12.564
609.41	12.748
609.75	13.214
610.08	13.061
610.41	12.999
610.74	13.067
611.07	12.877
611.41	13.184
611.74	13.072
612.07	12.856
612.40	12.548
612.73	13.056
613.07	13.301
613.40	13.474
613.73	12.518
614.06	13.052
614.39	13.168
614.72	13.003
615.06	12.560
615.39	12.373
615.72	12.891
616.05	13.453
616.38	12.765
616.71	13.062
617.05	12.833
617.38	13.376
617.71	14.039
618.04	12.574
618.37	13.279
618.70	13.179
619.03	12.425
619.36	13.070
619.69	11.915
620.03	11.927
620.36	12.147
620.69	12.647
621.02	12.730
621.35	12.700
621.68	11.931
622.01	13.452
622.34	11.715
622.67	12.577
623.00	11.134
623.33	13.404
623.66	12.840
623.99	11.718
624.32	13.515
624.65	13.192
624.99	13.004
625.32	13.847
625.65	14.160
625.98	13.220
626.31	12.899
626.64	12.674
626.97	13.278
627.30	11.390
627.63	12.903
627.96	13.063
628.29	12.918
628.62	11.923
628.95	11.832
629.28	12.150
629.61	12.290
629.94	12.134
630.26	12.542
630.59	12.867
630.92	12.554
631.25	12.880
631.58	11.676
631.91	11.996
632.24	11.623
632.57	11.575
632.90	12.538
633.23	11.327
633.56	12.857
633.89	10.640
634.22	11.227
634.55	11.378
634.88	11.580
635.20	12.917
635.53	11.525
635.86	12.784
636.19	12.831
636.52	12.342
636.85	13.075
637.18	11.746
637.51	11.075
637.83	13.511
638.16	12.327
638.49	10.563
638.82	12.401
639.15	11.455
639.48	13.626
639.81	11.201
640.13	12.367
640.46	11.030
640.79	11.275
641.12	11.553
641.45	9.912
641.77	12.965
642.10	12.336
642.43	13.564
642.76	11.247
643.09	11.096
643.41	9.664
643.74	11.310
644.07	12.552
644.40	12.447
644.73	11.321
645.05	11.454
645.38	12.518
645.71	9.971
646.04	13.199
646.36	10.073
646.69	11.810
647.02	13.761
647.35	12.214
647.67	13.688
648.00	9.713
648.33	12.913
648.66	11.983
648.98	10.476
649.31	11.637
649.64	11.421
649.96	12.069
650.29	9.597
650.62	11.315
650.94	9.459
651.27	10.180
651.60	10.380
651.92	12.766
652.25	11.288
652.58	11.967
652.90	10.174
653.23	12.394
653.56	11.698
653.88	12.500
654.21	12.394
654.54	11.705
654.86	12.040
655.19	9.536
655.52	13.408
655.84	15.133
656.17	18.127
656.49	25.371
656.82	26.775
657.15	19.852
657.47	14.129
657.80	10.102
658.13	7.599
658.45	9.515
658.78	11.369
659.10	10.773
659.43	10.413
659.75	9.526
660.08	9.860
660.41	8.685
660.73	9.236
661.06	9.104
661.38	9.888
661.71	10.172
662.03	11.287
662.36	11.449
662.68	9.381
663.01	11.681
663.33	10.775
663.66	13.187
663.98	10.962
664.31	11.820
664.63	7.900
664.96	10.889
665.28	9.437
665.61	12.238
665.93	9.286
666.26	10.573
666.58	9.225
666.91	11.776
667.23	11.810
667.56	9.467
667.88	11.400
668.21	7.227
668.53	7.336
668.86	9.823
669.18	9.776
669.50	11.928
669.83	10.000
670.15	9.843
670.48	11.310
670.80	7.457
671.13	9.074
671.45	7.480
671.77	10.923
672.10	9.000
672.42	10.032
672.75	9.217
673.07	11.194
673.39	9.091
673.72	11.913
674.04	11.034
674.37	9.302
674.69	10.582
675.01	6.476
675.34	10.115
675.66	9.738
675.98	11.754
676.31	9.570
676.63	9.886
676.95	9.962
677.28	8.468
677.60	6.890
677.92	10.173
678.25	9.141
678.57	12.989
678.89	13.311
679.22	10.105
679.54	10.940
679.86	7.288
680.18	9.784
680.51	9.906
680.83	10.475
681.15	10.000
681.48	9.845
681.80	10.708
682.12	11.364
682.44	11.352
682.77	9.929
683.09	9.659
683.41	10.271
683.73	8.349
684.06	9.963
684.38	8.229
684.70	11.849
685.02	11.704
685.34	8.486
685.67	11.356
685.99	11.043
686.31	8.140
686.63	9.163
686.96	10.410
687.28	8.958
687.60	8.586
687.92	10.611
688.24	12.020
688.56	10.862
688.89	11.252
689.21	9.589
689.53	9.412
689.85	9.467
690.17	9.630
690.49	9.562
690.82	8.515
691.14	7.490
691.46	10.134
691.78	11.234
692.10	9.541
692.42	9.821
692.74	9.256
693.06	7.037
693.39	9.298
693.71	8.647
694.03	7.621
694.35	9.714
694.67	10.472
694.99	7.872
695.31	7.506
695.63	9.307
695.95	9.110
696.27	8.132
696.59	10.177
696.91	8.333
697.23	11.648
697.56	7.536
697.88	9.470
698.20	11.111
698.52	10.417
698.84	9.979
699.16	12.449
699.48	9.205
699.80	9.362
700.12	8.734
700.44	7.604
700.76	9.976
701.08	8.717
701.40	8.549
701.72	9.453
702.04	7.487
702.36	5.236
702.68	8.068
703.00	7.335
703.32	9.360
703.64	10.269
703.96	10.024
704.28	6.634
704.60	10.633
704.91	10.204
705.23	8.767
705.55	8.357
705.87	10.606
706.19	8.282
706.51	4.819
706.83	5.187
707.15	8.730
707.47	6.308
707.79	10.917
708.11	6.780
708.43	6.452
708.74	4.911
709.06	7.657
709.38	10.563
709.70	10.174
710.02	9.819
710.34	6.649
710.66	6.425
710.98	7.650
711.29	6.593
711.61	5.650
711.93	7.407
712.25	7.838
712.57	9.735
712.89	10.882
713.20	9.763
713.52	10.405
713.84	10.585
714.16	11.842
714.48	7.216
714.80	12.208
715.11	7.349
715.43	7.958
715.75	7.632
716.07	7.735
716.39	9.016
716.70	4.819
717.02	6.230
717.34	6.272
717.66	6.711
717.97	3.767
718.29	7.560
718.61	5.263
718.93	6.472
719.24	7.453
719.56	8.589
719.88	9.009
720.20	8.387
720.51	7.453
720.83	5.313
721.15	4.276
721.46	5.822
721.78	6.000
722.10	4.207
722.42	3.020
722.73	5.161
723.05	7.719
723.37	6.597
723.68	6.452
724.00	7.220
724.32	0.704
724.63	7.692
724.95	9.220
725.27	5.575
725.58	3.887
725.90	8.966
726.22	7.837
726.53	4.545
726.85	9.119
727.16	9.970
727.48	12.232
727.80	5.960
728.11	6.360
728.43	8.081
728.74	7.358
729.06	5.629
729.38	7.468
729.69	7.718
730.01	6.845
730.32	3.030
730.64	6.289
730.96	4.658
731.27	9.777
731.59	9.341
731.90	8.831
732.22	6.250
732.53	8.840
732.85	7.143
733.16	8.798
733.48	5.488
733.80	8.635
734.11	4.558
734.43	7.568
734.74	10.380
735.06	6.784
735.37	8.108
735.69	4.324
736.00	7.627
736.32	8.356
736.63	6.667
736.95	8.908
737.26	7.576
737.58	5.152
737.89	7.647
738.21	3.976
738.52	5.246
738.83	7.167
739.15	5.319
739.46	5.782
739.78	9.816
740.09	6.590
740.41	10.787
740.72	3.667
741.04	4.207
741.35	6.316
741.66	3.137
741.98	5.328
742.29	5.021
742.61	3.070
742.92	6.154
743.23	6.498
743.55	6.202
743.86	6.000
744.18	3.306
744.49	2.532
744.80	7.819
745.12	8.017
745.43	6.911
745.74	0.862
746.06	0.000
746.37	1.688
746.68	10.569
747.00	5.833
747.31	3.433
747.62	8.846
747.94	4.858
748.25	0.402
748.56	2.857
748.88	2.991
749.19	7.328
749.50	0.433
749.82	8.434
750.13	10.320
750.44	6.667
750.75	9.538
751.07	5.846
751.38	6.625
751.69	8.307
752.01	6.472
752.32	7.843
752.63	7.483
752.94	4.844
753.26	4.089
753.57	1.852
753.88	7.491
754.19	9.325
754.51	6.109
754.82	6.752
755.13	7.213
755.44	9.898
755.75	5.263
756.07	8.358
756.38	6.289
756.69	9.639
757.00	6.371
757.31	7.104
757.63	7.673
757.94	7.746
758.25	8.352
758.56	8.279
758.87	11.591
759.18	7.733
759.50	9.348
759.81	8.683
760.12	9.973
760.43	8.594
760.74	10.099
761.05	9.500
761.36	8.193
761.67	7.107
761.99	6.216
762.30	3.354
762.61	3.630
762.92	4.478
763.23	2.622
763.54	6.835
763.85	6.873
764.16	7.071
764.47	6.690
764.78	7.668
765.10	9.677
765.41	9.744
765.72	7.143
766.03	9.605
766.34	6.270
766.65	3.484
766.96	5.179
767.27	8.756
767.58	2.488
767.89	5.769
768.20	0.000
768.51	2.315
768.82	5.221
769.13	5.303
769.44	1.154
769.75	8.664
770.06	6.154
770.37	12.205
770.68	3.830
770.99	0.810
771.30	8.519
771.61	4.183
771.92	3.704
772.23	8.907
772.54	-2.315
772.85	8.295
773.16	9.048
773.47	-1.058
773.78	-5.405
774.09	0.568
774.39	7.500
774.70	9.290
775.01	-3.659
775.32	-4.118
775.63	2.454
775.94	-7.643
776.25	1.935
776.56	6.410
776.87	4.082
777.18	-2.069
777.48	0.699
777.79	-6.081
778.10	-3.676
778.41	1.389
778.72	-2.759
779.03	1.235
779.34	4.848
779.65	4.145
779.95	5.000
780.26	-1.136
780.57	1.290
780.88	5.072
781.19	-1.290
781.50	2.353
781.80	8.065
782.11	3.175
782.42	-2.525
782.73	-0.599
783.04	-3.352
783.34	2.424
783.65	0.000
783.96	-1.242
784.27	2.381
784.57	0.000
784.88	2.857
785.19	-3.937
785.50	0.000
785.81	-6.015
786.11	-2.308
786.42	-9.353
786.73	-11.511
787.04	-5.263
787.34	0.820
787.65	-5.600
787.96	-3.731
788.26	4.196
788.57	7.692
788.88	-0.658
789.19	2.614
789.49	0.685
789.80	1.418
790.11	0.787
790.41	-3.125
790.72	-5.085
791.03	-16.505
791.33	-6.957
791.64	-0.877
791.95	-13.393
792.25	-8.571
792.56	1.786
792.87	-14.583
793.17	-3.571
793.48	-9.375
793.79	-26.506
794.09	-16.514
794.40	-11.009
794.70	0.680
795.01	-2.597
795.32	2.055
795.62	0.704
795.93	-6.061
796.23	0.820
796.54	-8.036
796.85	-9.574
797.15	-18.478
797.46	-19.178
797.76	-10.000
798.07	-14.130
798.37	-15.464
798.68	-24.675
798.99	-5.747
799.29	-5.618
799.60	-4.255
799.90	-8.434
800.21	-27.692
800.51	-22.388
800.82	-29.412
801.12	-34.247
801.43	-41.176
801.73	-18.644
802.04	-31.818
802.34	-48.333
802.65	-20.339
802.95	-10.448
803.26	-23.729
803.56	-5.479
803.87	-17.143
804.17	-9.589
804.48	-29.825
804.78	-19.444
805.09	-39.655
805.39	-2.703
805.70	-39.437
806.00	-15.854
806.30	-21.687
806.61	-21.918
806.91	-11.538
807.22	-16.667
807.52	-4.598
807.83	-9.722
808.13	-9.639
808.43	-14.607
808.74	-15.000
809.04	-39.706
809.35	-18.667
809.65	-14.286
809.95	-16.438
810.26	-43.860
810.56	-6.897
810.86	-5.882
811.17	-26.316
811.47	-29.508
811.77	-62.222
812.08	-28.814
812.38	-13.333
812.69	-22.414
812.99	-37.736
813.29	-53.846
813.59	-26.000
813.90	-8.772
814.20	-30.909
814.50	0.000
814.81	-17.949
815.11	-36.066
815.41	-13.433
815.72	-22.414
816.02	-23.214
816.32	-4.444
816.62	-27.273
816.93	-42.222
817.23	-12.963
817.53	-31.915
817.84	-19.048
818.14	-70.588
818.44	-32.653
818.74	-22.222
819.04	-46.154
819.35	-68.571
819.65	-119.231
819.95	-41.509
820.25	-31.111
820.56	-42.857
820.86	-75.000
821.16	-38.462
821.46	-44.186
821.76	-58.000
822.07	-8.929
822.37	-41.304
822.67	-53.191
822.97	-62.162
823.27	-37.500
823.57	-30.612
823.88	-17.778
824.18	-32.500
824.48	-60.000
824.78	-76.000
825.08	-45.455
825.38	-2.222
825.69	-36.170
825.99	-63.889
826.29	-97.143
826.59	-58.974
826.89	-51.163
827.19	-32.000
827.49	-50.000
827.79	-16.667
828.09	-51.351
828.39	-86.667
828.70	-31.707
829.00	-44.186
829.30	-71.429
829.60	-32.353
829.90	-4.348
830.20	-57.143
830.50	-51.724
830.80	-72.222
831.10	-92.308
831.40	-47.059
831.70	-109.524
832.00	-12.903
832.30	-176.471
832.60	-83.333
832.90	-238.462
833.20	-73.684
833.50	-100.000
833.80	-100.000
834.10	-176.190
834.40	-41.667
834.70	-40.625
835.00	-74.286
835.30	-38.235
835.60	-60.000
835.90	-52.000
836.20	-122.727
836.50	-60.000
836.80	-78.788
837.10	-51.852
837.40	-77.778
837.70	-193.750
838.00	-53.571
838.30	-86.957
838.60	-51.724
838.90	-142.857
839.19	-169.565
839.49	-258.333
839.79	-60.870
840.09	-118.750
840.39	-130.000
840.69	-35.484
840.99	-100.000
841.29	-120.000
841.59	-105.263
841.88	-46.154
842.18	-76.923
842.48	-210.000
842.78	-65.000
843.08	-40.000
843.38	-45.161
843.68	-161.111
843.97	-32.353
844.27	-118.750
844.57	-152.632
844.87	-240.000
845.17	-146.667
845.47	-71.429
845.76	-119.048
846.06	-166.667
846.36	-64.706
846.66	-38.462
846.96	-173.333
847.25	-141.176
847.55	-52.174
847.85	-95.000
848.15	-58.824
848.44	-154.545
848.74	-109.524
849.04	-100.000
849.34	-87.500
849.63	-52.174
849.93	1150.000
850.23	-86.667
850.53	-38.462
850.82	-236.364
851.12	-50.000
851.42	-218.182
851.71	-138.462
852.01	-105.000
852.31	-176.923
852.61	-100.000
852.90	-108.333
853.20	-122.222
853.50	-477.778
853.79	-95.238
854.09	-90.909
854.39	-183.333
854.68	-19.355
854.98	-46.154
855.28	-105.556
855.57	-89.286
855.87	-68.000
856.17	-63.636
856.46	-62.963
856.76	-50.000
857.05	-82.609
857.35	-100.000
857.65	-184.615
857.94	-66.667
858.24	-77.778
858.53	-56.522
858.83	-117.647
859.13	-182.353
859.42	-111.765
859.72	-71.429
860.01	-110.000
860.31	-200.000
860.60	-170.000
860.90	-100.000
861.20	-100.000
861.49	-184.615
861.79	-53.333
862.08	-169.231
862.38	-40.625
862.67	-94.118
862.97	-143.750
863.26	-288.889
863.56	-220.000
863.85	-254.545
864.15	-105.556
864.44	-366.667
864.74	-121.429
865.03	-125.000
865.33	-270.000
865.62	-77.419
865.92	-81.818
866.21	-86.957
866.51	-142.857
866.80	-420.000
867.10	-125.000
867.39	-100.000
867.69	2300.000
867.98	-257.143
868.27	-88.235
868.57	-2500.000
868.86	-170.000
869.16	-123.810
869.45	-70.833
869.75	-145.455
870.04	-342.857
870.33	-108.333
870.63	-300.000
870.92	-400.000
871.22	-337.500
871.51	-254.545
871.80	-900.000
872.10	-1650.000
>>>>>End Processed Spectral Data<<<<<
