SpectraSuite Data File
++++++++++++++++++++++++++++++++++++
Date: Thu May 14 15:58:40 PDT 2015
User: schluterlab
Dark Spectrum Present: Yes
Reference Spectrum Present: Yes
Number of Sampled Component Spectra: 1
Spectrometers: USB2E3373
Integration Time (usec): 3000 (USB2E3373)
Spectra Averaged: 3 (USB2E3373)
Boxcar Smoothing: 0 (USB2E3373)
Correct for Electrical Dark: No (USB2E3373)
Strobe/Lamp Enabled: No (USB2E3373)
Correct for Detector Non-linearity: No (USB2E3373)
Correct for Stray Light: No (USB2E3373)
Number of Pixels in Processed Spectrum: 2048
>>>>>Begin Processed Spectral Data<<<<<
178.53	0.000
178.91	328.571
179.29	-3200.000
179.67	-2900.000
180.04	250.000
180.42	240.000
180.80	340.000
181.18	-2600.000
181.56	-700.000
181.94	500.000
182.31	-400.000
182.69	866.667
183.07	-1250.000
183.45	550.000
183.83	-333.333
184.20	-466.667
184.58	2300.000
184.96	-600.000
185.34	-122.222
185.72	-360.000
186.09	244.444
186.47	1150.000
186.85	580.000
187.23	-322.222
187.61	-3100.000
187.98	360.000
188.36	475.000
188.74	-375.000
189.12	-566.667
189.49	-87.500
189.87	-237.500
190.25	-211.111
190.63	-320.000
191.00	-366.667
191.38	0.000
191.76	-525.000
192.14	-233.333
192.51	1000.000
192.89	-300.000
193.27	0.000
193.65	-42.857
194.02	-2700.000
194.40	-285.714
194.78	228.571
195.15	0.000
195.53	-145.455
195.91	0.000
196.29	-350.000
196.66	-215.385
197.04	-2900.000
197.42	-342.857
197.79	-1050.000
198.17	-250.000
198.55	-385.714
198.92	-144.444
199.30	-275.000
199.68	-127.273
200.05	-114.286
200.43	-1050.000
200.81	357.143
201.18	0.000
201.56	333.333
201.94	0.000
202.31	1066.667
202.69	-144.444
203.07	1000.000
203.44	-144.444
203.82	-600.000
204.19	-175.000
204.57	-333.333
204.95	-262.500
205.32	-1900.000
205.70	450.000
206.08	-383.333
206.45	-383.333
206.83	580.000
207.20	-316.667
207.58	-480.000
207.96	-383.333
208.33	-333.333
208.71	158.333
209.08	-150.000
209.46	0.000
209.84	400.000
210.21	950.000
210.59	1150.000
210.96	900.000
211.34	-550.000
211.71	-225.000
212.09	-2200.000
212.46	0.000
212.84	1700.000
213.22	-520.000
213.59	-575.000
213.97	-160.000
214.34	-700.000
214.72	366.667
215.09	-650.000
215.47	0.000
215.84	300.000
216.22	1300.000
216.59	-280.000
216.97	-240.000
217.34	-400.000
217.72	-237.500
218.09	-700.000
218.47	-825.000
218.84	0.000
219.22	480.000
219.59	-100.000
219.97	-85.000
220.34	1350.000
220.72	-244.444
221.09	-53.846
221.47	-800.000
221.84	-210.000
222.22	-400.000
222.59	0.000
222.97	-312.500
223.34	-500.000
223.72	-2500.000
224.09	-325.000
224.46	-725.000
224.84	-360.000
225.21	-342.857
225.59	-525.000
225.96	-225.000
226.34	-42.308
226.71	383.333
227.08	-1450.000
227.46	-153.333
227.83	-675.000
228.21	-78.947
228.58	287.500
228.95	1250.000
229.33	-141.667
229.70	-110.000
230.08	-31.579
230.45	280.000
230.82	-433.333
231.20	-142.857
231.57	-100.000
231.95	-172.727
232.32	-118.182
232.69	-70.000
233.07	-500.000
233.44	-129.412
233.81	-200.000
234.19	-61.111
234.56	-50.000
234.93	-37.931
235.31	-42.105
235.68	-55.556
236.05	-90.000
236.43	-23.077
236.80	8.000
237.17	-37.037
237.55	-15.152
237.92	-150.000
238.29	-25.806
238.67	-25.000
239.04	-8.333
239.41	-28.571
239.79	-13.043
240.16	-20.370
240.53	-8.696
240.91	-13.725
241.28	-18.033
241.65	11.940
242.02	6.757
242.40	-10.769
242.77	-6.667
243.14	0.000
243.51	-6.579
243.89	3.846
244.26	18.812
244.63	11.765
245.00	6.542
245.38	5.263
245.75	1.770
246.12	14.286
246.49	19.380
246.87	16.429
247.24	15.232
247.61	14.474
247.98	20.134
248.36	13.580
248.73	11.043
249.10	14.754
249.47	21.393
249.84	21.466
250.22	20.207
250.59	18.333
250.96	23.182
251.33	19.388
251.70	26.923
252.08	18.750
252.45	20.082
252.82	16.942
253.19	23.437
253.56	26.236
253.94	18.077
254.31	18.561
254.68	24.476
255.05	24.756
255.42	21.769
255.79	21.036
256.16	22.848
256.54	18.212
256.91	23.279
257.28	17.705
257.65	19.745
258.02	19.174
258.39	21.652
258.76	21.713
259.14	23.276
259.51	21.902
259.88	22.096
260.25	23.611
260.62	23.288
260.99	25.956
261.36	25.737
261.73	23.342
262.10	21.978
262.47	22.788
262.85	24.242
263.22	20.779
263.59	23.684
263.96	25.831
264.33	24.041
264.70	24.444
265.07	26.969
265.44	25.397
265.81	25.000
266.18	25.170
266.55	23.884
266.92	20.046
267.29	26.696
267.66	27.273
268.03	26.419
268.40	24.217
268.77	23.007
269.14	23.568
269.51	21.930
269.88	27.869
270.25	25.352
270.62	25.527
270.99	25.657
271.36	25.941
271.73	24.165
272.10	25.251
272.47	25.451
272.84	23.896
273.21	23.647
273.58	23.185
273.95	24.615
274.32	24.144
274.69	22.244
275.06	23.993
275.43	23.105
275.80	26.631
276.17	22.593
276.54	24.813
276.91	22.898
277.28	24.774
277.65	25.673
278.02	23.713
278.39	22.645
278.76	22.320
279.13	25.532
279.50	25.430
279.87	23.614
280.23	21.831
280.60	24.407
280.97	24.178
281.34	23.260
281.71	24.873
282.08	22.757
282.45	23.077
282.82	21.978
283.19	23.102
283.56	21.639
283.92	25.676
284.29	23.855
284.66	24.138
285.03	22.917
285.40	21.947
285.77	23.529
286.14	24.733
286.51	24.505
286.87	23.381
287.24	25.151
287.61	22.422
287.98	21.450
288.35	23.225
288.72	23.521
289.08	24.012
289.45	22.041
289.82	22.289
290.19	21.983
290.56	21.972
290.93	23.110
291.29	23.554
291.66	21.212
292.03	19.539
292.40	21.633
292.77	20.485
293.13	20.298
293.50	19.317
293.87	19.732
294.24	21.067
294.60	20.228
294.97	18.926
295.34	21.127
295.71	18.159
296.08	20.284
296.44	20.711
296.81	20.828
297.18	19.801
297.55	19.811
297.91	19.454
298.28	19.787
298.65	18.787
299.02	17.473
299.38	20.709
299.75	20.093
300.12	18.866
300.48	19.816
300.85	19.010
301.22	19.239
301.59	17.922
301.95	19.548
302.32	19.778
302.69	20.482
303.05	19.913
303.42	18.293
303.79	19.479
304.15	18.822
304.52	18.182
304.89	20.105
305.25	19.876
305.62	17.868
305.99	19.588
306.35	18.548
306.72	18.925
307.09	17.360
307.45	18.012
307.82	19.173
308.19	17.659
308.55	18.419
308.92	18.890
309.29	18.774
309.65	17.154
310.02	18.515
310.38	18.209
310.75	20.000
311.12	19.942
311.48	19.062
311.85	19.278
312.22	18.121
312.58	19.155
312.95	19.312
313.31	19.422
313.68	20.330
314.05	20.958
314.41	21.220
314.78	18.710
315.14	20.145
315.51	20.406
315.87	20.792
316.24	21.461
316.61	20.515
316.97	20.543
317.34	20.194
317.70	22.009
318.07	19.577
318.43	20.748
318.80	21.237
319.16	21.888
319.53	20.394
319.89	20.508
320.26	20.907
320.62	19.681
320.99	20.406
321.35	20.610
321.72	21.395
322.08	20.198
322.45	21.951
322.81	21.119
323.18	22.478
323.54	21.552
323.91	21.441
324.27	22.031
324.64	21.579
325.00	20.978
325.37	22.113
325.73	22.231
326.10	21.817
326.46	22.964
326.83	21.697
327.19	21.811
327.56	22.767
327.92	21.637
328.29	22.661
328.65	21.357
329.01	21.743
329.38	21.988
329.74	21.318
330.11	22.774
330.47	22.241
330.84	22.222
331.20	22.500
331.56	21.577
331.93	22.594
332.29	22.627
332.66	23.173
333.02	21.608
333.38	23.322
333.75	23.064
334.11	22.269
334.48	22.112
334.84	22.770
335.20	21.746
335.57	23.103
335.93	21.405
336.29	22.130
336.66	21.531
337.02	22.324
337.38	22.194
337.75	21.653
338.11	22.540
338.47	22.415
338.84	21.827
339.20	22.157
339.56	21.582
339.93	21.921
340.29	21.095
340.65	22.628
341.02	22.825
341.38	21.746
341.74	21.227
342.11	22.204
342.47	21.287
342.83	23.027
343.20	23.467
343.56	22.775
343.92	22.098
344.28	22.344
344.65	23.256
345.01	23.635
345.37	21.540
345.73	21.668
346.10	22.777
346.46	21.123
346.82	22.547
347.19	22.689
347.55	22.762
347.91	22.437
348.27	21.851
348.63	22.925
349.00	22.670
349.36	23.123
349.72	22.247
350.08	23.180
350.45	21.445
350.81	21.493
351.17	22.632
351.53	22.820
351.89	23.386
352.26	22.687
352.62	22.388
352.98	22.977
353.34	22.330
353.70	22.650
354.07	23.025
354.43	22.855
354.79	22.064
355.15	22.884
355.51	23.465
355.87	22.513
356.24	22.586
356.60	22.986
356.96	22.683
357.32	22.602
357.68	21.669
358.04	23.353
358.40	22.612
358.77	23.099
359.13	22.378
359.49	22.974
359.85	22.190
360.21	24.319
360.57	23.259
360.93	22.779
361.29	22.877
361.66	23.172
362.02	24.635
362.38	23.753
362.74	23.254
363.10	24.072
363.46	23.753
363.82	24.077
364.18	23.364
364.54	23.928
364.90	24.615
365.26	24.000
365.62	24.267
365.98	23.826
366.35	23.960
366.71	24.422
367.07	24.154
367.43	24.819
367.79	25.415
368.15	25.084
368.51	24.628
368.87	25.212
369.23	23.867
369.59	25.410
369.95	24.679
370.31	24.916
370.67	24.897
371.03	24.723
371.39	24.244
371.75	25.516
372.11	24.864
372.47	25.931
372.83	26.047
373.19	24.950
373.55	25.407
373.91	25.699
374.27	26.520
374.63	25.981
374.99	26.127
375.35	26.234
375.71	25.871
376.07	26.275
376.42	27.078
376.78	26.911
377.14	26.575
377.50	28.147
377.86	27.094
378.22	27.545
378.58	27.170
378.94	27.347
379.30	27.241
379.66	27.807
380.02	28.217
380.38	27.995
380.74	28.000
381.09	28.688
381.45	28.864
381.81	28.923
382.17	29.751
382.53	28.830
382.89	29.853
383.25	28.957
383.61	29.340
383.97	28.681
384.32	30.084
384.68	29.466
385.04	30.480
385.40	31.291
385.76	30.774
386.12	30.580
386.48	30.706
386.83	31.228
387.19	31.286
387.55	31.103
387.91	30.708
388.27	31.697
388.62	31.672
388.98	30.739
389.34	32.115
389.70	32.830
390.06	32.800
390.42	32.048
390.77	33.233
391.13	32.805
391.49	33.454
391.85	32.182
392.20	32.918
392.56	33.845
392.92	34.133
393.28	34.328
393.64	33.743
393.99	34.689
394.35	34.229
394.71	35.090
395.07	33.353
395.42	34.495
395.78	35.101
396.14	34.938
396.50	34.620
396.85	34.407
397.21	35.562
397.57	35.159
397.92	35.796
398.28	35.633
398.64	35.641
399.00	35.445
399.35	35.969
399.71	36.359
400.07	36.328
400.42	36.380
400.78	37.558
401.14	36.710
401.49	37.749
401.85	38.547
402.21	37.080
402.57	37.676
402.92	38.416
403.28	38.232
403.63	38.425
403.99	38.124
404.35	38.090
404.70	38.924
405.06	38.750
405.42	39.110
405.77	39.477
406.13	38.682
406.49	39.809
406.84	39.612
407.20	39.575
407.55	39.552
407.91	38.969
408.27	39.340
408.62	40.838
408.98	40.801
409.34	40.117
409.69	41.595
410.05	40.387
410.40	41.067
410.76	41.671
411.11	41.847
411.47	41.708
411.83	43.210
412.18	42.530
412.54	42.739
412.89	42.666
413.25	42.833
413.60	43.251
413.96	43.590
414.31	41.813
414.67	43.113
415.03	43.754
415.38	43.190
415.74	42.883
416.09	43.924
416.45	42.517
416.80	43.880
417.16	45.402
417.51	44.334
417.87	43.654
418.22	43.114
418.58	43.432
418.93	45.809
419.29	45.006
419.64	44.058
420.00	44.095
420.35	45.199
420.71	43.366
421.06	44.508
421.42	45.126
421.77	44.965
422.12	43.605
422.48	45.110
422.83	45.674
423.19	45.889
423.54	45.133
423.90	45.224
424.25	44.693
424.61	46.154
424.96	44.756
425.31	46.072
425.67	44.981
426.02	45.656
426.38	46.211
426.73	45.592
427.09	46.309
427.44	45.822
427.79	46.434
428.15	45.034
428.50	46.124
428.85	44.259
429.21	47.447
429.56	45.755
429.92	45.602
430.27	46.217
430.62	46.654
430.98	46.385
431.33	45.601
431.68	45.019
432.04	46.521
432.39	46.170
432.74	46.689
433.10	46.566
433.45	45.262
433.80	46.191
434.16	46.849
434.51	46.557
434.86	47.177
435.22	47.184
435.57	46.050
435.92	47.078
436.28	48.066
436.63	48.280
436.98	46.108
437.34	47.294
437.69	46.340
438.04	47.277
438.39	47.674
438.75	47.482
439.10	48.256
439.45	47.010
439.81	46.949
440.16	45.898
440.51	47.046
440.86	47.749
441.22	47.053
441.57	47.432
441.92	47.139
442.27	47.879
442.63	47.044
442.98	47.439
443.33	46.291
443.68	47.522
444.03	47.789
444.39	47.758
444.74	47.779
445.09	46.883
445.44	48.051
445.79	48.084
446.15	47.688
446.50	47.752
446.85	46.790
447.20	47.727
447.55	47.594
447.91	46.754
448.26	47.199
448.61	46.652
448.96	48.015
449.31	48.091
449.66	47.277
450.02	47.785
450.37	47.416
450.72	47.632
451.07	48.064
451.42	47.371
451.77	46.804
452.12	48.138
452.47	46.583
452.83	48.705
453.18	46.935
453.53	47.501
453.88	46.494
454.23	47.006
454.58	46.837
454.93	47.027
455.28	47.200
455.63	47.470
455.98	46.648
456.34	47.232
456.69	46.561
457.04	48.286
457.39	46.175
457.74	46.588
458.09	45.689
458.44	47.037
458.79	45.848
459.14	46.513
459.49	46.689
459.84	47.167
460.19	46.308
460.54	48.382
460.89	46.162
461.24	45.690
461.59	46.541
461.94	45.807
462.29	47.480
462.64	45.987
462.99	46.955
463.34	46.593
463.69	45.838
464.04	46.304
464.39	46.805
464.74	46.408
465.09	46.309
465.44	46.727
465.79	45.637
466.14	46.066
466.49	44.895
466.84	46.887
467.19	46.590
467.54	46.240
467.89	44.713
468.24	45.983
468.59	45.918
468.94	45.862
469.29	46.371
469.64	47.235
469.99	46.399
470.34	46.473
470.68	47.232
471.03	46.627
471.38	47.220
471.73	46.424
472.08	47.716
472.43	47.321
472.78	47.040
473.13	47.345
473.48	46.465
473.83	46.373
474.17	47.011
474.52	46.723
474.87	47.065
475.22	47.155
475.57	47.196
475.92	46.590
476.27	46.006
476.61	46.729
476.96	46.246
477.31	46.980
477.66	47.482
478.01	46.873
478.36	46.660
478.70	46.847
479.05	48.006
479.40	48.322
479.75	46.830
480.10	46.613
480.45	46.855
480.79	47.256
481.14	45.864
481.49	46.661
481.84	46.736
482.19	46.925
482.53	46.655
482.88	47.807
483.23	47.265
483.58	46.550
483.92	45.700
484.27	45.766
484.62	45.916
484.97	44.907
485.31	45.231
485.66	43.397
486.01	42.050
486.36	42.645
486.70	44.653
487.05	45.305
487.40	44.973
487.75	44.860
488.09	44.689
488.44	44.883
488.79	44.722
489.13	44.352
489.48	44.427
489.83	45.151
490.17	44.026
490.52	44.294
490.87	45.389
491.22	45.624
491.56	44.966
491.91	45.094
492.26	45.738
492.60	45.081
492.95	45.239
493.30	45.540
493.64	45.642
493.99	45.219
494.34	45.470
494.68	44.882
495.03	45.859
495.37	45.672
495.72	44.762
496.07	45.443
496.41	44.015
496.76	45.621
497.11	44.544
497.45	44.670
497.80	45.269
498.14	45.760
498.49	44.715
498.84	45.704
499.18	44.489
499.53	44.709
499.87	44.352
500.22	45.058
500.56	44.759
500.91	45.126
501.26	46.000
501.60	44.587
501.95	44.507
502.29	44.888
502.64	46.218
502.98	44.090
503.33	44.363
503.67	45.530
504.02	45.403
504.36	45.532
504.71	44.832
505.06	44.247
505.40	45.018
505.75	45.446
506.09	44.843
506.44	44.800
506.78	46.330
507.13	45.597
507.47	45.950
507.82	46.165
508.16	44.790
508.51	45.148
508.85	46.245
509.19	45.760
509.54	45.821
509.88	45.508
510.23	46.916
510.57	46.351
510.92	46.638
511.26	45.936
511.61	45.147
511.95	45.144
512.30	46.775
512.64	46.077
512.98	46.823
513.33	46.623
513.67	46.915
514.02	46.244
514.36	47.008
514.70	46.667
515.05	46.663
515.39	47.559
515.74	48.250
516.08	47.015
516.42	47.776
516.77	47.529
517.11	46.983
517.46	48.674
517.80	48.370
518.14	48.803
518.49	47.885
518.83	47.738
519.17	46.850
519.52	48.375
519.86	48.680
520.20	47.018
520.55	48.576
520.89	48.480
521.23	47.962
521.58	49.209
521.92	47.989
522.26	48.339
522.61	50.000
522.95	48.558
523.29	48.333
523.64	48.038
523.98	49.173
524.32	49.857
524.66	49.516
525.01	49.151
525.35	47.674
525.69	48.260
526.04	47.876
526.38	47.816
526.72	47.174
527.06	48.915
527.41	48.455
527.75	48.872
528.09	49.351
528.43	48.609
528.78	48.208
529.12	48.337
529.46	47.892
529.80	48.341
530.15	47.188
530.49	48.814
530.83	48.465
531.17	48.029
531.51	48.616
531.86	48.618
532.20	49.207
532.54	46.858
532.88	48.061
533.22	47.672
533.57	47.663
533.91	47.699
534.25	48.050
534.59	47.299
534.93	46.802
535.27	46.930
535.62	46.845
535.96	47.995
536.30	47.121
536.64	48.288
536.98	47.294
537.32	48.580
537.66	47.785
538.01	46.344
538.35	47.259
538.69	46.815
539.03	48.007
539.37	47.055
539.71	45.826
540.05	46.583
540.39	47.005
540.73	45.719
541.07	46.904
541.42	45.363
541.76	44.543
542.10	45.838
542.44	46.529
542.78	45.499
543.12	44.994
543.46	45.360
543.80	44.484
544.14	45.242
544.48	45.449
544.82	45.362
545.16	45.259
545.50	45.357
545.84	45.070
546.18	46.420
546.52	45.159
546.86	45.220
547.20	45.802
547.54	43.695
547.88	43.942
548.22	44.327
548.56	44.119
548.90	45.134
549.24	44.742
549.58	44.543
549.92	45.536
550.26	44.919
550.60	44.544
550.94	45.602
551.28	44.488
551.62	46.698
551.96	44.401
552.30	45.188
552.64	45.364
552.98	44.729
553.32	45.209
553.66	43.859
554.00	43.884
554.34	42.600
554.68	42.479
555.02	44.218
555.36	43.327
555.69	43.562
556.03	43.695
556.37	44.556
556.71	42.739
557.05	43.323
557.39	42.999
557.73	44.782
558.07	43.841
558.41	43.455
558.75	43.340
559.08	44.816
559.42	43.347
559.76	43.623
560.10	44.206
560.44	43.404
560.78	43.625
561.12	42.488
561.45	42.944
561.79	43.651
562.13	43.315
562.47	41.307
562.81	42.975
563.15	41.856
563.48	42.262
563.82	42.382
564.16	40.945
564.50	42.014
564.84	41.003
565.17	41.706
565.51	39.873
565.85	40.855
566.19	41.647
566.52	41.486
566.86	40.351
567.20	39.859
567.54	41.158
567.88	40.418
568.21	40.514
568.55	40.767
568.89	39.628
569.23	39.713
569.56	38.609
569.90	38.382
570.24	38.314
570.57	37.684
570.91	36.375
571.25	36.130
571.59	37.350
571.92	36.354
572.26	36.607
572.60	36.500
572.93	35.402
573.27	36.696
573.61	36.024
573.95	35.470
574.28	35.342
574.62	35.289
574.96	34.936
575.29	35.118
575.63	35.066
575.97	35.281
576.30	34.518
576.64	34.526
576.98	34.920
577.31	34.231
577.65	34.833
577.98	34.356
578.32	34.032
578.66	33.698
578.99	34.159
579.33	34.438
579.67	33.953
580.00	34.098
580.34	34.097
580.67	33.605
581.01	34.336
581.35	33.626
581.68	33.523
582.02	33.616
582.35	33.607
582.69	34.160
583.02	33.713
583.36	33.621
583.70	33.788
584.03	33.429
584.37	34.016
584.70	33.423
585.04	33.597
585.37	33.540
585.71	33.312
586.04	33.554
586.38	33.217
586.72	33.141
587.05	33.717
587.39	33.633
587.72	33.421
588.06	33.511
588.39	33.707
588.73	33.280
589.06	34.114
589.40	33.989
589.73	33.901
590.07	34.383
590.40	34.077
590.73	34.005
591.07	33.991
591.40	34.137
591.74	34.420
592.07	34.998
592.41	33.912
592.74	33.120
593.08	34.045
593.41	33.829
593.75	33.132
594.08	32.566
594.41	33.429
594.75	32.979
595.08	33.109
595.42	32.597
595.75	33.000
596.09	32.938
596.42	33.142
596.75	33.385
597.09	33.697
597.42	32.857
597.75	33.242
598.09	33.571
598.42	33.534
598.76	32.442
599.09	32.467
599.42	31.981
599.76	32.783
600.09	32.566
600.42	32.666
600.76	32.530
601.09	32.161
601.42	31.926
601.76	32.276
602.09	32.523
602.42	31.589
602.76	32.509
603.09	32.232
603.42	32.767
603.76	31.572
604.09	32.789
604.42	32.220
604.76	32.268
605.09	32.509
605.42	32.536
605.75	31.962
606.09	31.840
606.42	31.667
606.75	31.709
607.09	31.375
607.42	31.522
607.75	32.395
608.08	31.847
608.42	31.842
608.75	31.799
609.08	31.112
609.41	32.333
609.75	31.250
610.08	33.377
610.41	31.776
610.74	32.479
611.07	32.504
611.41	32.601
611.74	32.102
612.07	33.240
612.40	31.226
612.73	32.323
613.07	32.372
613.40	31.954
613.73	31.825
614.06	32.483
614.39	31.924
614.72	31.344
615.06	30.991
615.39	31.319
615.72	31.896
616.05	30.792
616.38	31.685
616.71	31.766
617.05	31.257
617.38	31.942
617.71	31.911
618.04	31.624
618.37	31.967
618.70	32.410
619.03	31.900
619.36	31.998
619.69	32.543
620.03	32.517
620.36	32.086
620.69	33.251
621.02	32.808
621.35	33.527
621.68	33.912
622.01	33.665
622.34	32.706
622.67	32.371
623.00	31.107
623.33	32.648
623.66	34.176
623.99	32.390
624.32	33.983
624.65	31.532
624.99	32.770
625.32	32.593
625.65	33.041
625.98	32.136
626.31	32.884
626.64	32.234
626.97	32.033
627.30	32.802
627.63	32.333
627.96	33.784
628.29	33.463
628.62	33.417
628.95	33.742
629.28	34.834
629.61	33.923
629.94	32.134
630.26	33.559
630.59	32.470
630.92	31.255
631.25	35.420
631.58	34.087
631.91	33.177
632.24	33.718
632.57	34.725
632.90	34.804
633.23	36.224
633.56	34.286
633.89	34.504
634.22	34.615
634.55	35.804
634.88	33.766
635.20	36.060
635.53	34.915
635.86	35.645
636.19	35.737
636.52	35.232
636.85	33.606
637.18	33.368
637.51	34.409
637.83	34.773
638.16	36.636
638.49	33.803
638.82	33.935
639.15	34.021
639.48	35.450
639.81	33.141
640.13	34.511
640.46	32.727
640.79	32.598
641.12	34.783
641.45	33.501
641.77	37.099
642.10	33.858
642.43	35.372
642.76	35.501
643.09	35.342
643.41	35.854
643.74	34.207
644.07	35.034
644.40	33.380
644.73	35.414
645.05	34.655
645.38	34.676
645.71	35.630
646.04	35.868
646.36	33.723
646.69	32.669
647.02	34.709
647.35	35.878
647.67	36.715
648.00	37.261
648.33	35.736
648.66	35.521
648.98	34.014
649.31	34.100
649.64	34.661
649.96	33.156
650.29	31.850
650.62	32.532
650.94	34.384
651.27	34.132
651.60	32.749
651.92	33.587
652.25	33.285
652.58	31.362
652.90	32.558
653.23	33.239
653.56	32.525
653.88	34.129
654.21	32.817
654.54	33.526
654.86	33.994
655.19	31.619
655.52	30.487
655.84	26.060
656.17	29.638
656.49	41.754
656.82	45.856
657.15	35.962
657.47	27.071
657.80	20.127
658.13	15.953
658.45	21.292
658.78	25.396
659.10	24.918
659.43	25.404
659.75	25.091
660.08	25.266
660.41	25.724
660.73	28.734
661.06	31.424
661.38	31.579
661.71	32.414
662.03	35.626
662.36	31.843
662.68	34.709
663.01	32.743
663.33	34.405
663.66	34.615
663.98	34.808
664.31	33.208
664.63	34.104
664.96	32.668
665.28	32.849
665.61	30.769
665.93	31.071
666.26	33.154
666.58	33.579
666.91	33.832
667.23	34.857
667.56	34.320
667.88	34.400
668.21	29.883
668.53	32.046
668.86	30.845
669.18	30.754
669.50	34.990
669.83	33.000
670.15	34.252
670.48	34.722
670.80	29.446
671.13	31.569
671.45	35.236
671.77	34.463
672.10	29.833
672.42	31.877
672.75	29.800
673.07	28.806
673.39	28.814
673.72	32.886
674.04	29.828
674.37	31.306
674.69	33.862
675.01	31.238
675.34	31.298
675.66	30.524
675.98	32.463
676.31	32.227
676.63	30.418
676.95	33.716
677.28	32.056
677.60	29.921
677.92	30.518
678.25	31.810
678.57	31.495
678.89	33.959
679.22	28.571
679.54	28.034
679.86	29.153
680.18	30.182
680.51	27.830
680.83	29.460
681.15	32.414
681.48	30.570
681.80	32.124
682.12	29.545
682.44	30.384
682.77	29.610
683.09	30.871
683.41	30.039
683.73	31.689
684.06	29.520
684.38	30.054
684.70	29.084
685.02	29.948
685.34	29.285
685.67	27.445
685.99	26.074
686.31	27.035
686.63	28.436
686.96	27.129
687.28	28.990
687.60	27.778
687.92	28.457
688.24	28.715
688.56	27.586
688.89	29.583
689.21	29.354
689.53	27.647
689.85	28.402
690.17	28.148
690.49	30.478
690.82	27.129
691.14	27.935
691.46	31.166
691.78	27.440
692.10	28.807
692.42	27.857
692.74	28.494
693.06	26.111
693.39	30.171
693.71	27.632
694.03	27.138
694.35	30.095
694.67	29.569
694.99	29.787
695.31	27.152
695.63	29.004
695.95	28.571
696.27	28.791
696.59	31.637
696.91	26.802
697.23	32.088
697.56	26.884
697.88	28.409
698.20	31.073
698.52	28.030
698.84	29.106
699.16	28.571
699.48	27.406
699.80	28.298
700.12	26.419
700.44	27.880
700.76	28.029
701.08	29.298
701.40	30.052
701.72	29.104
702.04	27.540
702.36	27.749
702.68	26.406
703.00	29.340
703.32	28.325
703.64	26.650
703.96	30.072
704.28	27.027
704.60	28.861
704.91	28.571
705.23	30.411
705.55	30.084
705.87	28.485
706.19	29.141
706.51	26.205
706.83	28.818
707.15	23.810
707.47	28.271
707.79	26.201
708.11	23.941
708.43	25.806
708.74	23.884
709.06	26.682
709.38	27.934
709.70	29.280
710.02	25.840
710.34	29.521
710.66	24.581
710.98	26.776
711.29	28.297
711.61	27.401
711.93	22.222
712.25	28.649
712.57	32.153
712.89	28.824
713.20	27.219
713.52	28.324
713.84	29.805
714.16	26.842
714.48	28.608
714.80	26.234
715.11	27.297
715.43	26.525
715.75	25.526
716.07	22.928
716.39	27.869
716.70	25.904
717.02	27.869
717.34	21.254
717.66	28.188
717.97	25.342
718.29	25.773
718.61	24.342
718.93	26.214
719.24	24.224
719.56	24.847
719.88	21.622
720.20	27.097
720.51	26.087
720.83	24.063
721.15	23.026
721.46	17.808
721.78	24.667
722.10	23.301
722.42	20.134
722.73	23.548
723.05	29.825
723.37	29.861
723.68	22.939
724.00	23.827
724.32	20.423
724.63	24.126
724.95	27.660
725.27	19.512
725.58	22.261
725.90	24.828
726.22	23.511
726.53	21.104
726.85	23.270
727.16	25.378
727.48	24.771
727.80	28.146
728.11	23.322
728.43	26.599
728.74	25.753
729.06	20.530
729.38	25.000
729.69	22.483
730.01	22.619
730.32	20.000
730.64	22.013
730.96	20.186
731.27	23.743
731.59	21.154
731.90	22.078
732.22	20.312
732.53	19.337
732.85	22.286
733.16	22.874
733.48	21.037
733.80	23.398
734.11	24.786
734.43	23.243
734.74	24.051
735.06	21.608
735.37	21.892
735.69	19.459
736.00	23.164
736.32	19.137
736.63	22.222
736.95	22.126
737.26	21.515
737.58	20.606
737.89	22.059
738.21	20.183
738.52	20.328
738.83	26.621
739.15	20.213
739.46	22.789
739.78	22.086
740.09	19.771
740.41	19.534
740.72	18.000
741.04	22.006
741.35	27.719
741.66	21.176
741.98	25.410
742.29	19.665
742.61	22.368
742.92	20.385
743.23	21.661
743.55	20.930
743.86	22.000
744.18	18.595
744.49	16.456
744.80	25.926
745.12	20.675
745.43	24.797
745.74	16.810
746.06	23.729
746.37	22.785
746.68	22.764
747.00	20.833
747.31	18.455
747.62	25.385
747.94	21.457
748.25	20.080
748.56	19.184
748.88	20.513
749.19	22.845
749.50	22.944
749.82	24.096
750.13	20.285
750.44	21.000
750.75	20.923
751.07	23.385
751.38	23.975
751.69	18.850
752.01	23.301
752.32	19.608
752.63	18.367
752.94	23.875
753.26	23.792
753.57	20.000
753.88	17.603
754.19	23.151
754.51	22.186
754.82	24.116
755.13	22.623
755.44	19.113
755.75	21.053
756.07	22.687
756.38	22.013
756.69	25.000
757.00	18.006
757.31	19.945
757.63	17.903
757.94	22.770
758.25	20.542
758.56	19.608
758.87	19.773
759.18	17.867
759.50	19.830
759.81	21.569
760.12	18.059
760.43	19.010
760.74	21.675
761.05	19.750
761.36	17.831
761.67	22.335
761.99	20.270
762.30	19.817
762.61	17.822
762.92	17.910
763.23	17.603
763.54	23.022
763.85	20.619
764.16	19.529
764.47	20.423
764.78	20.128
765.10	18.475
765.41	22.051
765.72	18.519
766.03	19.492
766.34	17.555
766.65	12.892
766.96	17.928
767.27	17.512
767.58	19.403
767.89	21.154
768.20	16.901
768.51	16.667
768.82	19.277
769.13	17.424
769.44	15.769
769.75	20.217
770.06	18.462
770.37	20.866
770.68	12.766
770.99	10.526
771.30	21.111
771.61	17.871
771.92	16.667
772.23	21.053
772.54	13.889
772.85	18.894
773.16	21.429
773.47	13.757
773.78	13.514
774.09	16.477
774.39	18.500
774.70	19.126
775.01	9.756
775.32	11.765
775.63	9.816
775.94	10.828
776.25	11.613
776.56	21.795
776.87	19.048
777.18	15.862
777.48	15.385
777.79	14.189
778.10	6.618
778.41	13.194
778.72	20.000
779.03	16.049
779.34	15.758
779.65	15.026
779.95	15.556
780.26	10.795
780.57	18.710
780.88	12.319
781.19	16.774
781.50	21.765
781.80	20.430
782.11	17.989
782.42	11.616
782.73	10.778
783.04	20.670
783.34	10.909
783.65	4.575
783.96	12.422
784.27	16.667
784.57	17.881
784.88	11.429
785.19	8.661
785.50	4.724
785.81	8.271
786.11	12.308
786.42	7.194
786.73	10.072
787.04	15.038
787.34	8.197
787.65	24.000
787.96	5.970
788.26	18.182
788.57	11.888
788.88	11.842
789.19	12.418
789.49	17.123
789.80	7.801
790.11	12.598
790.41	9.375
790.72	16.949
791.03	1.942
791.33	8.696
791.64	14.912
791.95	-1.786
792.25	16.190
792.56	1.786
792.87	1.042
793.17	12.500
793.48	1.042
793.79	-1.205
794.09	11.009
794.40	2.752
794.70	9.524
795.01	15.584
795.32	8.904
795.62	14.085
795.93	11.364
796.23	13.115
796.54	4.464
796.85	6.383
797.15	-5.435
797.46	0.000
797.76	-5.000
798.07	4.348
798.37	-2.062
798.68	-10.390
798.99	4.598
799.29	8.989
799.60	7.447
799.90	-2.410
800.21	6.154
800.51	-8.955
800.82	-16.176
801.12	-8.219
801.43	-10.294
801.73	-11.864
802.04	-1.515
802.34	-5.000
802.65	-5.085
802.95	7.463
803.26	-10.169
803.56	-12.329
803.87	11.429
804.17	6.849
804.48	-12.281
804.78	-4.167
805.09	-17.241
805.39	9.459
805.70	-5.634
806.00	1.220
806.30	4.819
806.61	-15.068
806.91	9.615
807.22	4.444
807.52	-9.195
807.83	-1.389
808.13	16.867
808.43	-6.742
808.74	-2.500
809.04	-13.235
809.35	-6.667
809.65	7.143
809.95	-1.370
810.26	-14.035
810.56	-3.448
810.86	7.353
811.17	-12.281
811.47	-18.033
811.77	-33.333
812.08	-15.254
812.38	-11.667
812.69	6.897
812.99	-18.868
813.29	-58.974
813.59	-10.000
813.90	-1.754
814.20	-1.818
814.50	14.085
814.81	8.974
815.11	0.000
815.41	-8.955
815.72	-3.448
816.02	-17.857
816.32	13.333
816.62	-22.727
816.93	-24.444
817.23	-14.815
817.53	-8.511
817.84	-19.048
818.14	-17.647
818.44	-18.367
818.74	-13.333
819.04	-48.718
819.35	-25.714
819.65	-69.231
819.95	-3.774
820.25	-13.333
820.56	-35.714
820.86	-9.375
821.16	-33.333
821.46	-18.605
821.76	-34.000
822.07	-7.143
822.37	-10.870
822.67	-6.383
822.97	-43.243
823.27	-45.000
823.57	2.041
823.88	15.556
824.18	7.500
824.48	-36.667
824.78	-36.000
825.08	-15.152
825.38	6.667
825.69	-2.128
825.99	-47.222
826.29	-65.714
826.59	-20.513
826.89	-32.558
827.19	-16.000
827.49	8.824
827.79	-22.917
828.09	-43.243
828.39	-70.000
828.70	-34.146
829.00	-20.930
829.30	-75.000
829.60	-23.529
829.90	-34.783
830.20	-51.429
830.50	-82.759
830.80	-111.111
831.10	-46.154
831.40	-29.412
831.70	-19.048
832.00	-45.161
832.30	-129.412
832.60	-87.500
832.90	-138.462
833.20	-94.737
833.50	-90.000
833.80	-84.211
834.10	-104.762
834.40	-19.444
834.70	-31.250
835.00	-71.429
835.30	-17.647
835.60	-56.667
835.90	-68.000
836.20	-104.545
836.50	-44.000
836.80	-51.515
837.10	-59.259
837.40	-44.444
837.70	-168.750
838.00	-21.429
838.30	-65.217
838.60	-27.586
838.90	-114.286
839.19	-78.261
839.49	-150.000
839.79	-60.870
840.09	-143.750
840.39	-80.000
840.69	-22.581
840.99	-57.143
841.29	-133.333
841.59	-68.421
841.88	-10.256
842.18	-53.846
842.48	-210.000
842.78	-125.000
843.08	-40.000
843.38	-3.226
843.68	-94.444
843.97	-5.882
844.27	-37.500
844.57	-89.474
844.87	-250.000
845.17	-93.333
845.47	-47.619
845.76	-114.286
846.06	-222.222
846.36	-82.353
846.66	-50.000
846.96	-180.000
847.25	-76.471
847.55	-21.739
847.85	-90.000
848.15	-58.824
848.44	-245.455
848.74	-42.857
849.04	-58.333
849.34	-75.000
849.63	-82.609
849.93	1600.000
850.23	-60.000
850.53	-15.385
850.82	-145.455
851.12	-31.818
851.42	-163.636
851.71	-61.538
852.01	-95.000
852.31	-107.692
852.61	-89.474
852.90	-183.333
853.20	-111.111
853.50	-222.222
853.79	-85.714
854.09	-90.909
854.39	-175.000
854.68	0.000
854.98	-42.308
855.28	-122.222
855.57	-71.429
855.87	-48.000
856.17	-54.545
856.46	-37.037
856.76	-111.111
857.05	-126.087
857.35	-66.667
857.65	-84.615
857.94	-61.905
858.24	-70.370
858.53	-47.826
858.83	-82.353
859.13	-111.765
859.42	-94.118
859.72	-85.714
860.01	-105.000
860.31	-255.556
860.60	-150.000
860.90	-120.000
861.20	-77.778
861.49	-146.154
861.79	-30.000
862.08	-176.923
862.38	6.250
862.67	-47.059
862.97	-125.000
863.26	-211.111
863.56	-210.000
863.85	-209.091
864.15	-116.667
864.44	-733.333
864.74	-150.000
865.03	-131.250
865.33	-250.000
865.62	-51.613
865.92	-36.364
866.21	-43.478
866.51	-107.143
866.80	-380.000
867.10	-200.000
867.39	-200.000
867.69	2800.000
867.98	-271.429
868.27	-82.353
868.57	-3400.000
868.86	-310.000
869.16	-52.381
869.45	-33.333
869.75	-136.364
870.04	-285.714
870.33	-141.667
870.63	-400.000
870.92	-500.000
871.22	-362.500
871.51	-200.000
871.80	-1066.667
872.10	-1350.000
>>>>>End Processed Spectral Data<<<<<
