SpectraSuite Data File
++++++++++++++++++++++++++++++++++++
Date: Thu May 14 15:58:57 PDT 2015
User: schluterlab
Dark Spectrum Present: Yes
Reference Spectrum Present: Yes
Number of Sampled Component Spectra: 1
Spectrometers: USB2E3373
Integration Time (usec): 3000 (USB2E3373)
Spectra Averaged: 3 (USB2E3373)
Boxcar Smoothing: 0 (USB2E3373)
Correct for Electrical Dark: No (USB2E3373)
Strobe/Lamp Enabled: No (USB2E3373)
Correct for Detector Non-linearity: No (USB2E3373)
Correct for Stray Light: No (USB2E3373)
Number of Pixels in Processed Spectrum: 2048
>>>>>Begin Processed Spectral Data<<<<<
178.53	0.000
178.91	328.571
179.29	-2800.000
179.67	-2600.000
180.04	221.429
180.42	190.000
180.80	400.000
181.18	-1500.000
181.56	-400.000
181.94	375.000
182.31	-350.000
182.69	600.000
183.07	-1250.000
183.45	750.000
183.83	-216.667
184.20	-600.000
184.58	2900.000
184.96	-300.000
185.34	-188.889
185.72	-240.000
186.09	377.778
186.47	1350.000
186.85	760.000
187.23	-344.444
187.61	-2600.000
187.98	320.000
188.36	775.000
188.74	-475.000
189.12	-533.333
189.49	-68.750
189.87	-275.000
190.25	-200.000
190.63	-360.000
191.00	-266.667
191.38	0.000
191.76	-600.000
192.14	-300.000
192.51	1250.000
192.89	-250.000
193.27	0.000
193.65	-342.857
194.02	-3600.000
194.40	-342.857
194.78	342.857
195.15	0.000
195.53	-118.182
195.91	0.000
196.29	-200.000
196.66	-115.385
197.04	-2600.000
197.42	-314.286
197.79	-1050.000
198.17	-337.500
198.55	-285.714
198.92	-211.111
199.30	-300.000
199.68	-200.000
200.05	-114.286
200.43	-900.000
200.81	342.857
201.18	0.000
201.56	333.333
201.94	0.000
202.31	800.000
202.69	-266.667
203.07	2300.000
203.44	-188.889
203.82	-650.000
204.19	-83.333
204.57	-166.667
204.95	-237.500
205.32	-1800.000
205.70	425.000
206.08	-350.000
206.45	-283.333
206.83	480.000
207.20	-250.000
207.58	-520.000
207.96	-316.667
208.33	-200.000
208.71	158.333
209.08	-183.333
209.46	0.000
209.84	500.000
210.21	900.000
210.59	950.000
210.96	900.000
211.34	-425.000
211.71	-200.000
212.09	-2000.000
212.46	0.000
212.84	1500.000
213.22	-460.000
213.59	-225.000
213.97	-140.000
214.34	-533.333
214.72	350.000
215.09	-575.000
215.47	0.000
215.84	271.429
216.22	1350.000
216.59	-220.000
216.97	-520.000
217.34	-450.000
217.72	-125.000
218.09	-300.000
218.47	-500.000
218.84	0.000
219.22	440.000
219.59	-88.235
219.97	-60.000
220.34	1050.000
220.72	-255.556
221.09	-38.462
221.47	-366.667
221.84	-200.000
222.22	-285.714
222.59	0.000
222.97	-125.000
223.34	-580.000
223.72	-3300.000
224.09	-625.000
224.46	-400.000
224.84	-340.000
225.21	-414.286
225.59	-750.000
225.96	-450.000
226.34	-53.846
226.71	466.667
227.08	-950.000
227.46	-66.667
227.83	-475.000
228.21	-78.947
228.58	237.500
228.95	1100.000
229.33	-150.000
229.70	-130.000
230.08	-57.895
230.45	210.000
230.82	-566.667
231.20	-121.429
231.57	-116.667
231.95	-209.091
232.32	-154.545
232.69	-75.000
233.07	-225.000
233.44	-123.529
233.81	-190.000
234.19	-88.889
234.56	-90.909
234.93	-41.379
235.31	-78.947
235.68	-50.000
236.05	-140.000
236.43	-30.769
236.80	8.000
237.17	-48.148
237.55	-21.212
237.92	-130.000
238.29	-25.806
238.67	-50.000
239.04	-25.000
239.41	-21.429
239.79	-10.870
240.16	-20.370
240.53	-28.261
240.91	-15.686
241.28	-3.279
241.65	7.463
242.02	8.108
242.40	-27.692
242.77	-8.000
243.14	-8.537
243.51	-13.158
243.89	-16.667
244.26	0.000
244.63	-2.941
245.00	5.607
245.38	0.877
245.75	-10.619
246.12	0.000
246.49	-8.527
246.87	10.000
247.24	15.894
247.61	4.605
247.98	5.369
248.36	6.173
248.73	3.067
249.10	2.732
249.47	9.950
249.84	14.136
250.22	6.218
250.59	11.111
250.96	9.545
251.33	7.143
251.70	13.248
252.08	10.000
252.45	15.164
252.82	9.091
253.19	7.422
253.56	14.449
253.94	8.462
254.31	9.091
254.68	13.287
255.05	11.726
255.42	5.102
255.79	6.472
256.16	11.258
256.54	7.285
256.91	12.131
257.28	11.148
257.65	9.554
258.02	10.324
258.39	10.256
258.76	11.009
259.14	15.230
259.51	9.798
259.88	12.465
260.25	10.833
260.62	11.507
260.99	15.027
261.36	13.405
261.73	9.814
262.10	13.462
262.47	12.869
262.85	15.657
263.22	14.545
263.59	7.895
263.96	11.509
264.33	10.486
264.70	14.568
265.07	15.274
265.44	14.286
265.81	11.806
266.18	14.739
266.55	13.616
266.92	11.162
267.29	13.348
267.66	10.643
268.03	12.445
268.40	13.779
268.77	11.617
269.14	10.793
269.51	14.035
269.88	13.934
270.25	15.292
270.62	12.869
270.99	13.939
271.36	16.436
271.73	13.360
272.10	15.030
272.47	14.429
272.84	12.651
273.21	12.625
273.58	13.710
273.95	12.308
274.32	12.738
274.69	11.219
275.06	13.736
275.43	11.460
275.80	14.638
276.17	11.852
276.54	12.313
276.91	12.165
277.28	13.201
277.65	13.106
278.02	14.338
278.39	13.587
278.76	13.181
279.13	14.362
279.50	14.777
279.87	11.449
280.23	11.444
280.60	13.220
280.97	13.158
281.34	10.696
281.71	12.690
282.08	12.126
282.45	13.257
282.82	11.460
283.19	10.662
283.56	12.459
283.92	13.814
284.29	14.534
284.66	13.957
285.03	13.942
285.40	12.828
285.77	12.693
286.14	14.504
286.51	14.003
286.87	13.586
287.24	12.199
287.61	12.706
287.98	12.085
288.35	13.757
288.72	12.130
289.08	13.616
289.45	12.278
289.82	11.747
290.19	12.787
290.56	13.239
290.93	11.555
291.29	12.259
291.66	11.433
292.03	11.533
292.40	11.973
292.77	11.590
293.13	10.690
293.50	11.301
293.87	11.946
294.24	12.267
294.60	12.010
294.97	11.007
295.34	12.804
295.71	12.358
296.08	12.145
296.44	10.539
296.81	11.206
297.18	12.453
297.55	12.146
297.91	10.676
298.28	10.308
298.65	11.415
299.02	10.862
299.38	13.272
299.75	10.864
300.12	10.417
300.48	12.097
300.85	12.036
301.22	11.857
301.59	10.845
301.95	11.525
302.32	11.667
302.69	10.843
303.05	11.643
303.42	11.197
303.79	11.250
304.15	10.831
304.52	11.945
304.89	10.890
305.25	11.905
305.62	10.345
305.99	10.309
306.35	11.089
306.72	12.306
307.09	10.863
307.45	11.491
307.82	11.201
308.19	12.008
308.55	11.861
308.92	11.490
309.29	13.027
309.65	11.014
310.02	11.188
310.38	11.319
310.75	13.107
311.12	12.943
311.48	11.730
311.85	11.776
312.22	12.713
312.58	12.864
312.95	11.950
313.31	12.647
313.68	14.286
314.05	15.718
314.41	15.027
314.78	15.077
315.14	13.521
315.51	13.481
315.87	15.212
316.24	14.977
316.61	15.009
316.97	15.385
317.34	14.903
317.70	15.895
318.07	16.490
318.43	16.071
318.80	17.224
319.16	15.966
319.53	14.225
319.89	15.513
320.26	16.014
320.62	16.489
320.99	17.544
321.35	18.207
321.72	19.070
322.08	17.493
322.45	18.609
322.81	20.217
323.18	18.761
323.54	18.621
323.91	20.196
324.27	19.880
324.64	20.739
325.00	20.232
325.37	21.458
325.73	20.744
326.10	21.655
326.46	22.068
326.83	23.379
327.19	21.417
327.56	22.292
327.92	21.637
328.29	22.097
328.65	22.446
329.01	20.474
329.38	23.420
329.74	23.459
330.11	24.315
330.47	23.589
330.84	24.978
331.20	23.500
331.56	24.263
331.93	24.937
332.29	23.983
332.66	23.920
333.02	24.456
333.38	23.909
333.75	22.727
334.11	23.520
334.48	23.432
334.84	25.404
335.20	23.174
335.57	24.958
335.93	23.719
336.29	23.045
336.66	24.643
337.02	24.247
337.38	24.320
337.75	25.124
338.11	25.063
338.47	25.227
338.84	23.689
339.20	23.505
339.56	24.300
339.93	23.727
340.29	23.752
340.65	23.114
341.02	25.299
341.38	24.414
341.74	23.164
342.11	23.572
342.47	23.034
342.83	23.994
343.20	23.303
343.56	24.539
343.92	23.539
344.28	24.141
344.65	25.039
345.01	24.181
345.37	23.328
345.73	23.305
346.10	24.883
346.46	24.051
346.82	23.895
347.19	25.134
347.55	24.355
347.91	23.626
348.27	23.065
348.63	22.544
349.00	24.609
349.36	25.056
349.72	23.810
350.08	23.254
350.45	24.259
350.81	22.474
351.17	22.857
351.53	24.337
351.89	24.525
352.26	23.433
352.62	23.955
352.98	23.435
353.34	23.301
353.70	23.267
354.07	23.472
354.43	23.386
354.79	23.859
355.15	24.135
355.51	22.953
355.87	23.934
356.24	23.346
356.60	22.764
356.96	22.239
357.32	22.454
357.68	22.694
358.04	22.829
358.40	22.537
358.77	23.611
359.13	22.083
359.49	21.859
359.85	21.682
360.21	23.314
360.57	23.331
360.93	24.189
361.29	23.228
361.66	22.737
362.02	24.078
362.38	22.417
362.74	22.486
363.10	24.209
363.46	23.546
363.82	23.153
364.18	23.223
364.54	24.205
364.90	23.478
365.26	22.069
365.62	23.200
365.98	23.553
366.35	23.423
366.71	22.993
367.07	22.530
367.43	23.047
367.79	23.092
368.15	23.144
368.51	22.666
368.87	22.665
369.23	22.400
369.59	22.131
369.95	22.718
370.31	23.025
370.67	22.834
371.03	22.784
371.39	21.155
371.75	22.627
372.11	22.696
372.47	21.869
372.83	22.840
373.19	22.815
373.55	22.154
373.91	22.290
374.27	22.639
374.63	22.463
374.99	22.281
375.35	23.636
375.71	22.645
376.07	22.272
376.42	22.418
376.78	22.809
377.14	22.271
377.50	23.023
377.86	22.660
378.22	23.533
378.58	22.295
378.94	22.183
379.30	22.554
379.66	23.163
380.02	23.139
380.38	22.926
380.74	22.648
381.09	22.590
381.45	22.159
381.81	23.009
382.17	22.447
382.53	22.164
382.89	22.856
383.25	23.212
383.61	22.106
383.97	22.026
384.32	23.266
384.68	21.984
385.04	22.903
385.40	22.805
385.76	22.919
386.12	21.843
386.48	22.353
386.83	23.302
387.19	22.190
387.55	22.242
387.91	21.918
388.27	21.940
388.62	21.707
388.98	22.504
389.34	22.569
389.70	21.906
390.06	21.906
390.42	21.988
390.77	22.697
391.13	22.770
391.49	22.464
391.85	21.879
392.20	22.657
392.56	22.682
392.92	21.974
393.28	22.222
393.64	21.732
393.99	22.545
394.35	23.131
394.71	21.377
395.07	22.036
395.42	22.673
395.78	22.669
396.14	22.163
396.50	22.090
396.85	21.944
397.21	20.947
397.57	21.731
397.92	21.707
398.28	21.021
398.64	21.968
399.00	21.257
399.35	22.042
399.71	21.848
400.07	21.842
400.42	21.595
400.78	22.917
401.14	21.912
401.49	22.797
401.85	21.337
402.21	22.654
402.57	22.770
402.92	22.045
403.28	20.843
403.63	20.764
403.99	21.496
404.35	21.660
404.70	21.020
405.06	20.870
405.42	21.546
405.77	21.756
406.13	21.070
406.49	21.340
406.84	21.163
407.20	20.961
407.55	20.715
407.91	21.119
408.27	21.496
408.62	21.408
408.98	20.778
409.34	20.938
409.69	21.075
410.05	20.926
410.40	21.578
410.76	20.920
411.11	21.040
411.47	21.560
411.83	21.634
412.18	21.747
412.54	21.280
412.89	21.362
413.25	21.106
413.60	20.505
413.96	20.571
414.31	20.680
414.67	20.692
415.03	20.308
415.38	21.185
415.74	19.914
416.09	20.111
416.45	20.288
416.80	20.624
417.16	20.498
417.51	20.672
417.87	20.723
418.22	21.018
418.58	19.950
418.93	21.129
419.29	20.715
419.64	20.048
420.00	20.772
420.35	20.550
420.71	20.333
421.06	19.609
421.42	20.413
421.77	20.679
422.12	20.032
422.48	20.789
422.83	20.591
423.19	20.424
423.54	20.796
423.90	20.210
424.25	20.587
424.61	19.633
424.96	20.044
425.31	20.329
425.67	19.860
426.02	20.974
426.38	20.494
426.73	19.922
427.09	20.934
427.44	19.825
427.79	20.398
428.15	19.121
428.50	19.775
428.85	20.264
429.21	20.585
429.56	19.891
429.92	19.902
430.27	19.566
430.62	20.274
430.98	19.577
431.33	19.599
431.68	20.115
432.04	20.315
432.39	20.032
432.74	19.863
433.10	20.335
433.45	19.844
433.80	20.762
434.16	20.041
434.51	19.681
434.86	20.358
435.22	20.138
435.57	19.517
435.92	20.256
436.28	19.966
436.63	20.590
436.98	19.324
437.34	19.053
437.69	19.923
438.04	19.408
438.39	20.218
438.75	19.646
439.10	19.979
439.45	20.347
439.81	19.661
440.16	18.928
440.51	19.677
440.86	20.067
441.22	19.561
441.57	19.811
441.92	19.932
442.27	20.606
442.63	20.517
442.98	20.491
443.33	20.252
443.68	21.209
444.03	20.837
444.39	20.804
444.74	20.316
445.09	20.020
445.44	20.548
445.79	20.594
446.15	20.041
446.50	20.103
446.85	20.817
447.20	20.358
447.55	20.293
447.91	20.052
448.26	18.869
448.61	20.351
448.96	21.406
449.31	20.148
449.66	19.499
450.02	20.042
450.37	19.712
450.72	19.860
451.07	20.159
451.42	20.046
451.77	19.956
452.12	19.977
452.47	20.083
452.83	19.257
453.18	19.673
453.53	19.299
453.88	18.332
454.23	19.096
454.58	20.139
454.93	19.357
455.28	20.349
455.63	20.125
455.98	19.777
456.34	19.788
456.69	19.106
457.04	19.563
457.39	19.623
457.74	19.687
458.09	19.824
458.44	19.666
458.79	18.876
459.14	19.664
459.49	19.525
459.84	19.675
460.19	19.100
460.54	19.932
460.89	19.534
461.24	19.080
461.59	19.480
461.94	17.969
462.29	18.925
462.64	18.769
462.99	19.397
463.34	18.819
463.69	18.816
464.04	19.956
464.39	20.460
464.74	18.643
465.09	19.031
465.44	19.099
465.79	19.090
466.14	18.708
466.49	19.211
466.84	18.678
467.19	19.133
467.54	18.684
467.89	18.793
468.24	19.003
468.59	18.529
468.94	18.182
469.29	17.457
469.64	18.245
469.99	18.164
470.34	18.441
470.68	18.592
471.03	18.795
471.38	18.705
471.73	17.425
472.08	18.401
472.43	19.386
472.78	18.892
473.13	18.963
473.48	17.764
473.83	19.153
474.17	18.054
474.52	18.220
474.87	18.439
475.22	18.423
475.57	18.276
475.92	18.318
476.27	19.010
476.61	18.536
476.96	18.509
477.31	18.416
477.66	18.468
478.01	18.251
478.36	18.495
478.70	18.030
479.05	18.558
479.40	18.361
479.75	19.068
480.10	18.001
480.45	18.186
480.79	18.776
481.14	17.417
481.49	17.946
481.84	18.146
482.19	17.806
482.53	18.846
482.88	18.387
483.23	18.097
483.58	17.817
483.92	16.844
484.27	18.036
484.62	18.111
484.97	17.885
485.31	17.670
485.66	17.202
486.01	16.620
486.36	17.266
486.70	17.999
487.05	18.800
487.40	18.644
487.75	18.957
488.09	18.850
488.44	18.311
488.79	18.314
489.13	18.248
489.48	17.437
489.83	17.425
490.17	16.646
490.52	17.611
490.87	17.555
491.22	18.241
491.56	17.875
491.91	17.750
492.26	17.785
492.60	18.015
492.95	17.288
493.30	17.526
493.64	17.652
493.99	17.149
494.34	16.943
494.68	17.173
495.03	17.753
495.37	17.665
495.72	17.234
496.07	16.827
496.41	17.417
496.76	17.640
497.11	17.410
497.45	17.091
497.80	17.414
498.14	16.916
498.49	17.050
498.84	16.865
499.18	16.734
499.53	17.444
499.87	17.363
500.22	16.741
500.56	16.914
500.91	17.208
501.26	16.955
501.60	16.571
501.95	16.674
502.29	17.157
502.64	17.403
502.98	17.041
503.33	16.933
503.67	16.529
504.02	16.419
504.36	17.784
504.71	16.353
505.06	15.825
505.40	16.453
505.75	17.168
506.09	16.344
506.44	16.852
506.78	16.422
507.13	17.566
507.47	17.054
507.82	16.998
508.16	17.065
508.51	15.940
508.85	16.344
509.19	17.338
509.54	17.051
509.88	16.659
510.23	16.756
510.57	16.433
510.92	16.255
511.26	16.017
511.61	16.272
511.95	16.545
512.30	17.184
512.64	16.742
512.98	15.958
513.33	16.129
513.67	16.165
514.02	16.556
514.36	16.266
514.70	15.521
515.05	16.684
515.39	16.325
515.74	16.808
516.08	15.901
516.42	16.274
516.77	16.141
517.11	15.678
517.46	16.490
517.80	16.836
518.14	16.485
518.49	16.974
518.83	16.179
519.17	15.509
519.52	16.509
519.86	15.681
520.20	16.241
520.55	15.827
520.89	16.104
521.23	16.248
521.58	16.836
521.92	15.637
522.26	15.922
522.61	15.625
522.95	15.110
523.29	15.690
523.64	16.312
523.98	15.916
524.32	16.848
524.66	15.936
525.01	15.798
525.35	15.451
525.69	15.255
526.04	15.557
526.38	15.632
526.72	15.686
527.06	15.132
527.41	16.035
527.75	16.033
528.09	15.230
528.43	16.045
528.78	14.913
529.12	15.252
529.46	15.233
529.80	15.160
530.15	15.942
530.49	14.531
530.83	16.175
531.17	16.010
531.51	15.884
531.86	15.325
532.20	16.890
532.54	15.320
532.88	14.667
533.22	14.909
533.57	15.118
533.91	15.600
534.25	15.715
534.59	16.207
534.93	14.771
535.27	15.493
535.62	15.975
535.96	15.514
536.30	15.511
536.64	14.895
536.98	15.867
537.32	15.370
537.66	16.032
538.01	14.864
538.35	15.286
538.69	15.445
539.03	14.776
539.37	15.253
539.71	15.495
540.05	15.827
540.39	14.914
540.73	14.693
541.07	15.328
541.42	14.649
541.76	14.947
542.10	15.380
542.44	14.190
542.78	14.659
543.12	15.793
543.46	14.774
543.80	14.508
544.14	15.320
544.48	15.426
544.82	15.021
545.16	14.311
545.50	14.020
545.84	14.697
546.18	15.864
546.52	14.331
546.86	14.969
547.20	14.822
547.54	14.295
547.88	15.130
548.22	14.269
548.56	15.038
548.90	13.731
549.24	14.954
549.58	15.142
549.92	14.222
550.26	15.210
550.60	14.933
550.94	14.554
551.28	14.851
551.62	15.768
551.96	14.045
552.30	14.659
552.64	14.624
552.98	14.473
553.32	14.920
553.66	14.405
554.00	14.628
554.34	13.900
554.68	14.526
555.02	14.192
555.36	14.464
555.69	14.414
556.03	13.808
556.37	14.268
556.71	14.077
557.05	14.058
557.39	14.466
557.73	13.738
558.07	14.238
558.41	14.020
558.75	13.793
559.08	14.962
559.42	12.894
559.76	14.925
560.10	13.999
560.44	14.248
560.78	14.438
561.12	14.286
561.45	14.964
561.79	13.919
562.13	14.110
562.47	13.255
562.81	14.241
563.15	14.078
563.48	14.605
563.82	14.450
564.16	12.901
564.50	14.422
564.84	13.628
565.17	13.882
565.51	14.154
565.85	13.183
566.19	14.171
566.52	13.517
566.86	14.205
567.20	13.703
567.54	13.861
567.88	14.679
568.21	13.834
568.55	13.573
568.89	13.981
569.23	13.857
569.56	13.677
569.90	14.184
570.24	14.098
570.57	13.278
570.91	13.778
571.25	13.885
571.59	13.665
571.92	13.619
572.26	13.843
572.60	14.278
572.93	14.445
573.27	13.712
573.61	14.267
573.95	13.765
574.28	13.875
574.62	13.893
574.96	13.763
575.29	13.814
575.63	13.906
575.97	13.749
576.30	13.620
576.64	13.481
576.98	13.280
577.31	13.666
577.65	14.053
577.98	13.761
578.32	13.605
578.66	13.607
578.99	13.557
579.33	13.539
579.67	13.713
580.00	14.071
580.34	14.005
580.67	13.592
581.01	13.652
581.35	13.618
581.68	13.700
582.02	13.453
582.35	13.811
582.69	14.095
583.02	13.698
583.36	13.822
583.70	13.747
584.03	13.655
584.37	13.997
584.70	13.570
585.04	13.555
585.37	13.632
585.71	13.398
586.04	13.298
586.38	13.695
586.72	13.287
587.05	13.328
587.39	13.388
587.72	12.990
588.06	13.902
588.39	13.518
588.73	13.545
589.06	13.629
589.40	13.952
589.73	13.689
590.07	13.362
590.40	13.658
590.73	13.715
591.07	13.999
591.40	13.258
591.74	13.196
592.07	13.236
592.41	12.894
592.74	13.312
593.08	13.694
593.41	13.211
593.75	12.931
594.08	13.269
594.41	13.846
594.75	13.218
595.08	13.257
595.42	13.084
595.75	13.303
596.09	13.792
596.42	13.579
596.75	14.010
597.09	13.455
597.42	13.627
597.75	13.250
598.09	13.214
598.42	13.591
598.76	12.419
599.09	13.208
599.42	12.739
599.76	12.942
600.09	12.913
600.42	13.180
600.76	12.979
601.09	13.010
601.42	13.251
601.76	13.069
602.09	12.974
602.42	13.377
602.76	12.915
603.09	12.849
603.42	13.223
603.76	12.685
604.09	13.804
604.42	13.101
604.76	13.356
605.09	12.804
605.42	13.278
605.75	12.885
606.09	12.393
606.42	13.024
606.75	12.669
607.09	12.442
607.42	12.794
607.75	13.365
608.08	12.431
608.42	12.898
608.75	12.645
609.08	12.267
609.41	13.322
609.75	12.991
610.08	13.456
610.41	12.404
610.74	13.361
611.07	12.922
611.41	13.229
611.74	13.164
612.07	13.090
612.40	12.215
612.73	13.301
613.07	13.301
613.40	13.378
613.73	12.470
614.06	12.905
614.39	12.731
614.72	12.276
615.06	12.656
615.39	12.808
615.72	12.275
616.05	12.725
616.38	13.068
616.71	13.323
617.05	12.726
617.38	12.681
617.71	12.743
618.04	13.060
618.37	13.224
618.70	12.557
619.03	12.784
619.36	13.132
619.69	13.004
620.03	12.680
620.36	12.025
620.69	12.832
621.02	12.861
621.35	13.425
621.68	13.594
622.01	12.598
622.34	11.646
622.67	12.440
623.00	11.269
623.33	12.409
623.66	13.943
623.99	12.311
624.32	12.995
624.65	12.033
624.99	12.809
625.32	13.129
625.65	12.340
625.98	11.661
626.31	12.048
626.64	13.040
626.97	12.453
627.30	11.921
627.63	12.603
627.96	12.688
628.29	12.529
628.62	12.510
628.95	12.971
629.28	12.574
629.61	13.636
629.94	10.795
630.26	12.712
630.59	11.572
630.92	10.996
631.25	13.059
631.58	13.653
631.91	11.809
632.24	12.008
632.57	11.860
632.90	11.434
633.23	12.653
633.56	11.224
633.89	10.434
634.22	10.915
634.55	12.526
634.88	11.472
635.20	12.056
635.53	11.751
635.86	11.701
636.19	13.680
636.52	11.603
636.85	11.645
637.18	11.850
637.51	12.473
637.83	12.514
638.16	11.406
638.49	9.977
638.82	11.612
639.15	10.538
639.48	13.395
639.81	11.547
640.13	13.310
640.46	9.939
640.79	11.275
641.12	10.683
641.45	10.916
641.77	12.580
642.10	10.105
642.43	13.830
642.76	11.247
643.09	10.411
643.41	13.305
643.74	10.897
644.07	12.138
644.40	11.598
644.73	10.740
645.05	10.720
645.38	10.216
645.71	12.170
646.04	12.912
646.36	10.511
646.69	9.663
647.02	12.844
647.35	11.450
647.67	12.399
648.00	10.350
648.33	13.063
648.66	9.843
648.98	11.565
649.31	11.637
649.64	10.890
649.96	10.477
650.29	9.458
650.62	11.174
650.94	10.811
651.27	8.982
651.60	10.234
651.92	10.638
652.25	12.590
652.58	10.591
652.90	9.302
653.23	11.972
653.56	12.839
653.88	12.500
654.21	10.845
654.54	10.260
654.86	11.756
655.19	10.540
655.52	12.610
655.84	11.962
656.17	13.487
656.49	19.854
656.82	22.245
657.15	18.189
657.47	14.163
657.80	10.441
658.13	8.303
658.45	11.178
658.78	13.635
659.10	13.255
659.43	12.777
659.75	12.120
660.08	11.485
660.41	11.332
660.73	10.034
661.06	9.398
661.38	10.845
661.71	8.793
662.03	9.700
662.36	12.165
662.68	9.756
663.01	10.265
663.33	10.208
663.66	11.722
663.98	9.423
664.31	10.319
664.63	7.322
664.96	9.800
665.28	9.982
665.61	12.063
665.93	9.107
666.26	10.753
666.58	8.856
666.91	11.776
667.23	12.000
667.56	11.045
667.88	11.000
668.21	9.766
668.53	8.687
668.86	8.055
669.18	8.758
669.50	9.543
669.83	9.200
670.15	8.071
670.48	10.714
670.80	8.413
671.13	10.208
671.45	7.677
671.77	9.605
672.10	8.333
672.42	9.547
672.75	9.985
673.07	9.851
673.39	10.169
673.72	10.403
674.04	9.828
674.37	9.660
674.69	11.640
675.01	9.524
675.34	8.969
675.66	8.614
675.98	8.582
676.31	9.375
676.63	12.357
676.95	12.261
677.28	10.484
677.60	7.874
677.92	9.981
678.25	10.786
678.57	10.498
678.89	9.727
679.22	8.885
679.54	8.718
679.86	8.305
680.18	11.609
680.51	12.264
680.83	8.838
681.15	10.345
681.48	10.881
681.80	10.881
682.12	9.091
682.44	9.850
682.77	10.461
683.09	9.091
683.41	9.302
683.73	10.816
684.06	7.011
684.38	7.335
684.70	10.233
685.02	11.015
685.34	9.817
685.67	7.098
685.99	8.589
686.31	8.721
686.63	8.689
686.96	10.252
687.28	9.283
687.60	9.091
687.92	7.878
688.24	9.683
688.56	6.897
688.89	9.619
689.21	10.763
689.53	7.843
689.85	8.087
690.17	8.333
690.49	9.363
690.82	8.119
691.14	8.907
691.46	7.839
691.78	9.024
692.10	8.257
692.42	7.857
692.74	11.071
693.06	7.593
693.39	9.677
693.71	8.647
694.03	9.480
694.35	8.000
694.67	11.088
694.99	7.234
695.31	5.298
695.63	7.792
695.95	7.867
696.27	7.692
696.59	10.177
696.91	6.757
697.23	9.231
697.56	6.517
697.88	8.712
698.20	9.981
698.52	13.447
698.84	10.187
699.16	9.592
699.48	8.787
699.80	8.298
700.12	7.205
700.44	8.525
700.76	9.026
701.08	7.748
701.40	9.326
701.72	7.960
702.04	8.556
702.36	8.115
702.68	9.046
703.00	7.335
703.32	7.143
703.64	6.112
703.96	6.444
704.28	7.125
704.60	6.076
704.91	8.418
705.23	9.589
705.55	6.964
705.87	6.667
706.19	6.442
706.51	6.325
706.83	6.340
707.15	4.497
707.47	5.607
707.79	4.367
708.11	5.720
708.43	7.312
708.74	6.920
709.06	7.889
709.38	8.451
709.70	7.940
710.02	7.235
710.34	7.181
710.66	4.749
710.98	6.011
711.29	6.319
711.61	6.780
711.93	5.128
712.25	9.459
712.57	6.195
712.89	7.941
713.20	4.734
713.52	6.936
713.84	6.407
714.16	9.737
714.48	9.021
714.80	8.052
715.11	8.136
715.43	6.101
715.75	9.211
716.07	3.315
716.39	8.470
716.70	6.627
717.02	8.197
717.34	3.484
717.66	6.376
717.97	2.055
718.29	7.216
718.61	6.250
718.93	3.236
719.24	6.832
719.56	7.055
719.88	2.703
720.20	4.839
720.51	7.453
720.83	5.313
721.15	4.934
721.46	3.425
721.78	5.667
722.10	2.913
722.42	6.040
722.73	4.516
723.05	3.158
723.37	3.819
723.68	9.677
724.00	4.693
724.32	3.169
724.63	6.294
724.95	7.092
725.27	6.620
725.58	3.534
725.90	6.552
726.22	5.643
726.53	5.195
726.85	8.805
727.16	3.927
727.48	7.951
727.80	7.947
728.11	5.300
728.43	9.428
728.74	6.355
729.06	6.954
729.38	7.468
729.69	6.711
730.01	4.464
730.32	0.303
730.64	3.459
730.96	4.969
731.27	6.425
731.59	6.593
731.90	6.494
732.22	5.208
732.53	3.039
732.85	8.286
733.16	7.331
733.48	2.744
733.80	6.407
734.11	6.268
734.43	6.486
734.74	7.848
735.06	5.528
735.37	2.703
735.69	6.757
736.00	7.910
736.32	9.704
736.63	6.667
736.95	8.046
737.26	7.576
737.58	2.727
737.89	6.176
738.21	4.587
738.52	2.295
738.83	7.509
739.15	1.418
739.46	6.122
739.78	6.442
740.09	7.163
740.41	6.122
740.72	4.333
741.04	5.502
741.35	8.421
741.66	8.235
741.98	7.377
742.29	3.766
742.61	0.439
742.92	8.077
743.23	5.054
743.55	2.326
743.86	8.400
744.18	-1.240
744.49	2.110
744.80	4.527
745.12	3.376
745.43	4.878
745.74	3.448
746.06	4.237
746.37	6.751
746.68	7.317
747.00	0.417
747.31	5.579
747.62	6.538
747.94	1.215
748.25	2.008
748.56	-0.408
748.88	1.709
749.19	5.172
749.50	1.732
749.82	8.032
750.13	8.897
750.44	1.667
750.75	4.923
751.07	5.538
751.38	3.785
751.69	6.709
752.01	3.883
752.32	6.536
752.63	2.721
752.94	5.882
753.26	2.230
753.57	0.741
753.88	1.124
754.19	4.180
754.51	3.537
754.82	4.502
755.13	10.492
755.44	4.778
755.75	6.579
756.07	7.164
756.38	2.516
756.69	9.337
757.00	3.601
757.31	7.104
757.63	2.558
757.94	4.460
758.25	7.449
758.56	5.664
758.87	9.773
759.18	8.267
759.50	7.365
759.81	4.762
760.12	6.739
760.43	5.208
760.74	6.650
761.05	5.750
761.36	7.229
761.67	3.807
761.99	5.946
762.30	6.707
762.61	2.640
762.92	2.985
763.23	8.614
763.54	5.396
763.85	6.529
764.16	5.051
764.47	7.394
764.78	7.348
765.10	5.279
765.41	5.385
765.72	5.026
766.03	7.627
766.34	3.762
766.65	2.439
766.96	3.984
767.27	2.304
767.58	-1.493
767.89	10.096
768.20	4.225
768.51	0.926
768.82	0.803
769.13	1.894
769.44	0.000
769.75	6.137
770.06	5.000
770.37	5.906
770.68	0.000
770.99	3.644
771.30	10.370
771.61	3.042
771.92	1.852
772.23	4.453
772.54	-1.389
772.85	7.373
773.16	5.714
773.47	-3.175
773.78	0.541
774.09	3.409
774.39	8.000
774.70	6.011
775.01	-3.049
775.32	-4.706
775.63	-3.681
775.94	-8.280
776.25	0.645
776.56	2.564
776.87	9.524
777.18	-4.828
777.48	-4.196
777.79	-4.730
778.10	-3.676
778.41	-2.083
778.72	-3.448
779.03	-4.938
779.34	-0.606
779.65	3.627
779.95	5.000
780.26	2.841
780.57	-3.226
780.88	9.420
781.19	1.935
781.50	5.882
781.80	5.376
782.11	1.587
782.42	-4.040
782.73	-8.982
783.04	1.117
783.34	-5.455
783.65	-1.307
783.96	-3.106
784.27	0.000
784.57	-4.636
784.88	-0.714
785.19	-3.150
785.50	-3.150
785.81	-2.256
786.11	-3.077
786.42	-8.633
786.73	-3.597
787.04	-1.504
787.34	-5.738
787.65	-1.600
787.96	-1.493
788.26	1.399
788.57	3.497
788.88	-5.263
789.19	1.307
789.49	-2.740
789.80	0.709
790.11	-3.937
790.41	-6.250
790.72	-3.390
791.03	-15.534
791.33	-6.957
791.64	-0.877
791.95	0.000
792.25	0.000
792.56	-2.679
792.87	-17.708
793.17	-1.786
793.48	-8.333
793.79	-21.687
794.09	-12.844
794.40	-15.596
794.70	-7.483
795.01	-7.143
795.32	-8.904
795.62	0.704
795.93	-3.788
796.23	-5.738
796.54	-10.714
796.85	-10.638
797.15	-10.870
797.46	-20.548
797.76	-13.750
798.07	-6.522
798.37	-20.619
798.68	-19.481
798.99	-6.897
799.29	-12.360
799.60	0.000
799.90	-15.663
800.21	-27.692
800.51	-28.358
800.82	-14.706
801.12	-30.137
801.43	-35.294
801.73	-33.898
802.04	-19.697
802.34	-50.000
802.65	-33.898
802.95	-22.388
803.26	-16.949
803.56	-17.808
803.87	-25.714
804.17	-23.288
804.48	-47.368
804.78	-19.444
805.09	-46.552
805.39	-20.270
805.70	-30.986
806.00	-4.878
806.30	-16.867
806.61	-31.507
806.91	1.923
807.22	-6.667
807.52	-13.793
807.83	-11.111
808.13	-4.819
808.43	-10.112
808.74	-12.500
809.04	-32.353
809.35	-18.667
809.65	-20.000
809.95	-16.438
810.26	-40.351
810.56	-37.931
810.86	-13.235
811.17	-26.316
811.47	-34.426
811.77	-48.889
812.08	-11.864
812.38	-26.667
812.69	-5.172
812.99	-37.736
813.29	-56.410
813.59	-28.000
813.90	-17.544
814.20	-23.636
814.50	-7.042
814.81	-21.795
815.11	-42.623
815.41	-26.866
815.72	-18.966
816.02	-10.714
816.32	-35.556
816.62	-29.545
816.93	-37.778
817.23	-20.370
817.53	-23.404
817.84	-21.429
818.14	-41.176
818.44	-40.816
818.74	-6.667
819.04	-48.718
819.35	-74.286
819.65	-76.923
819.95	-15.094
820.25	-17.778
820.56	-54.762
820.86	-43.750
821.16	-43.590
821.46	-39.535
821.76	-32.000
822.07	-21.429
822.37	-58.696
822.67	-42.553
822.97	-62.162
823.27	-50.000
823.57	-28.571
823.88	-26.667
824.18	-42.500
824.48	-83.333
824.78	-84.000
825.08	-45.455
825.38	-35.556
825.69	-21.277
825.99	-27.778
826.29	-71.429
826.59	-53.846
826.89	-48.837
827.19	-22.000
827.49	-58.824
827.79	-8.333
828.09	-67.568
828.39	-60.000
828.70	-26.829
829.00	-34.884
829.30	-71.429
829.60	-29.412
829.90	-41.304
830.20	-62.857
830.50	-100.000
830.80	-111.111
831.10	-65.385
831.40	-32.353
831.70	-66.667
832.00	-16.129
832.30	-123.529
832.60	-125.000
832.90	-200.000
833.20	-115.789
833.50	-145.000
833.80	-100.000
834.10	-104.762
834.40	-16.667
834.70	-3.125
835.00	-77.143
835.30	-32.353
835.60	-60.000
835.90	-80.000
836.20	-127.273
836.50	-76.000
836.80	-84.848
837.10	-59.259
837.40	-62.963
837.70	-175.000
838.00	-53.571
838.30	-134.783
838.60	-41.379
838.90	-121.429
839.19	-86.957
839.49	-191.667
839.79	-86.957
840.09	-181.250
840.39	-140.000
840.69	-77.419
840.99	-82.143
841.29	-173.333
841.59	-105.263
841.88	-41.026
842.18	-65.385
842.48	-140.000
842.78	-95.000
843.08	-63.333
843.38	-32.258
843.68	-177.778
843.97	-44.118
844.27	-75.000
844.57	-121.053
844.87	-200.000
845.17	-100.000
845.47	-57.143
845.76	-90.476
846.06	-200.000
846.36	-111.765
846.66	-69.231
846.96	-166.667
847.25	-129.412
847.55	-73.913
847.85	-65.000
848.15	-76.471
848.44	-127.273
848.74	-71.429
849.04	-83.333
849.34	-125.000
849.63	-60.870
849.93	1250.000
850.23	-133.333
850.53	-42.308
850.82	-200.000
851.12	-50.000
851.42	-218.182
851.71	-53.846
852.01	-115.000
852.31	-46.154
852.61	-121.053
852.90	-133.333
853.20	-77.778
853.50	-244.444
853.79	-104.762
854.09	-86.364
854.39	-216.667
854.68	-70.968
854.98	-100.000
855.28	-55.556
855.57	-89.286
855.87	-80.000
856.17	-54.545
856.46	-44.444
856.76	-100.000
857.05	-78.261
857.35	-79.167
857.65	-169.231
857.94	-85.714
858.24	-59.259
858.53	-82.609
858.83	-135.294
859.13	-117.647
859.42	-76.471
859.72	-100.000
860.01	-100.000
860.31	-222.222
860.60	-180.000
860.90	-80.000
861.20	-100.000
861.49	-169.231
861.79	-50.000
862.08	-123.077
862.38	-46.875
862.67	-100.000
862.97	-125.000
863.26	-333.333
863.56	-190.000
863.85	-172.727
864.15	-105.556
864.44	-433.333
864.74	-114.286
865.03	-112.500
865.33	-270.000
865.62	-74.194
865.92	-59.091
866.21	-39.130
866.51	-142.857
866.80	-520.000
867.10	-183.333
867.39	-166.667
867.69	2600.000
867.98	-314.286
868.27	-135.294
868.57	-3400.000
868.86	-270.000
869.16	-80.952
869.45	-41.667
869.75	-154.545
870.04	-257.143
870.33	-125.000
870.63	-528.571
870.92	-575.000
871.22	-412.500
871.51	-127.273
871.80	-933.333
872.10	-950.000
>>>>>End Processed Spectral Data<<<<<
