SpectraSuite Data File
++++++++++++++++++++++++++++++++++++
Date: Thu May 14 15:59:03 PDT 2015
User: schluterlab
Dark Spectrum Present: Yes
Reference Spectrum Present: Yes
Number of Sampled Component Spectra: 1
Spectrometers: USB2E3373
Integration Time (usec): 3000 (USB2E3373)
Spectra Averaged: 3 (USB2E3373)
Boxcar Smoothing: 0 (USB2E3373)
Correct for Electrical Dark: No (USB2E3373)
Strobe/Lamp Enabled: No (USB2E3373)
Correct for Detector Non-linearity: No (USB2E3373)
Correct for Stray Light: No (USB2E3373)
Number of Pixels in Processed Spectrum: 2048
>>>>>Begin Processed Spectral Data<<<<<
178.53	0.000
178.91	200.000
179.29	-2500.000
179.67	-2300.000
180.04	207.143
180.42	200.000
180.80	420.000
181.18	-2600.000
181.56	-1400.000
181.94	550.000
182.31	-275.000
182.69	700.000
183.07	-750.000
183.45	625.000
183.83	-316.667
184.20	-533.333
184.58	1800.000
184.96	-525.000
185.34	-333.333
185.72	-200.000
186.09	366.667
186.47	1500.000
186.85	440.000
187.23	-300.000
187.61	-2200.000
187.98	420.000
188.36	575.000
188.74	-550.000
189.12	-633.333
189.49	-81.250
189.87	-237.500
190.25	-211.111
190.63	-280.000
191.00	-244.444
191.38	0.000
191.76	-675.000
192.14	-366.667
192.51	1150.000
192.89	-333.333
193.27	0.000
193.65	-157.143
194.02	-3300.000
194.40	-257.143
194.78	371.429
195.15	0.000
195.53	-172.727
195.91	0.000
196.29	-400.000
196.66	-138.462
197.04	-2100.000
197.42	-300.000
197.79	-500.000
198.17	-287.500
198.55	-328.571
198.92	-166.667
199.30	-312.500
199.68	-145.455
200.05	-78.571
200.43	-1300.000
200.81	528.571
201.18	0.000
201.56	277.778
201.94	0.000
202.31	833.333
202.69	-233.333
203.07	1900.000
203.44	-211.111
203.82	-500.000
204.19	-166.667
204.57	-400.000
204.95	-262.500
205.32	-2200.000
205.70	600.000
206.08	-183.333
206.45	-266.667
206.83	540.000
207.20	-233.333
207.58	-640.000
207.96	-333.333
208.33	-216.667
208.71	175.000
209.08	-183.333
209.46	0.000
209.84	433.333
210.21	1150.000
210.59	1200.000
210.96	733.333
211.34	-400.000
211.71	-337.500
212.09	-2100.000
212.46	0.000
212.84	1500.000
213.22	-400.000
213.59	-525.000
213.97	-190.000
214.34	-633.333
214.72	416.667
215.09	-675.000
215.47	0.000
215.84	300.000
216.22	1400.000
216.59	-420.000
216.97	-540.000
217.34	-700.000
217.72	-175.000
218.09	-550.000
218.47	-500.000
218.84	0.000
219.22	420.000
219.59	-105.882
219.97	-80.000
220.34	1550.000
220.72	-211.111
221.09	-61.538
221.47	-400.000
221.84	-100.000
222.22	-242.857
222.59	0.000
222.97	-212.500
223.34	-500.000
223.72	-2800.000
224.09	-600.000
224.46	-500.000
224.84	-340.000
225.21	-414.286
225.59	-625.000
225.96	-475.000
226.34	-84.615
226.71	450.000
227.08	-1150.000
227.46	-80.000
227.83	-475.000
228.21	-73.684
228.58	350.000
228.95	1150.000
229.33	-166.667
229.70	-130.000
230.08	-10.526
230.45	130.000
230.82	-500.000
231.20	-171.429
231.57	-83.333
231.95	-181.818
232.32	-100.000
232.69	-40.000
233.07	-475.000
233.44	-117.647
233.81	-250.000
234.19	-72.222
234.56	-50.000
234.93	-44.828
235.31	-84.211
235.68	-111.111
236.05	-115.000
236.43	-11.538
236.80	-4.000
237.17	-48.148
237.55	-57.576
237.92	-330.000
238.29	-77.419
238.67	-56.818
239.04	-66.667
239.41	-57.143
239.79	-36.957
240.16	-33.333
240.53	-34.783
240.91	-33.333
241.28	-32.787
241.65	-10.448
242.02	-8.108
242.40	-24.615
242.77	-22.667
243.14	-25.610
243.51	-35.526
243.89	-37.179
244.26	-15.842
244.63	-4.902
245.00	-14.019
245.38	-21.053
245.75	-22.124
246.12	-11.111
246.49	-17.054
246.87	-12.143
247.24	-6.623
247.61	-7.895
247.98	-10.067
248.36	-14.198
248.73	-12.883
249.10	-14.754
249.47	-5.970
249.84	-4.712
250.22	-6.218
250.59	-15.000
250.96	-3.636
251.33	-14.286
251.70	-5.983
252.08	-8.333
252.45	-6.148
252.82	-9.504
253.19	-6.250
253.56	-6.084
253.94	-9.231
254.31	-4.924
254.68	-2.098
255.05	-4.235
255.42	-6.122
255.79	-8.091
256.16	-5.960
256.54	-6.954
256.91	-2.623
257.28	-2.951
257.65	-6.369
258.02	-7.965
258.39	-3.134
258.76	0.000
259.14	-3.736
259.51	-3.746
259.88	-4.249
260.25	-2.222
260.62	-2.192
260.99	-1.093
261.36	-1.072
261.73	-5.040
262.10	-4.670
262.47	-3.217
262.85	-1.263
263.22	-4.935
263.59	-6.316
263.96	-4.859
264.33	-6.650
264.70	-3.457
265.07	-2.148
265.44	-1.134
265.81	-3.241
266.18	-0.454
266.55	-2.455
266.92	-5.011
267.29	-0.438
267.66	-2.217
268.03	-1.965
268.40	-0.418
268.77	-6.606
269.14	-7.489
269.51	-3.728
269.88	-0.410
270.25	-1.811
270.62	-1.899
270.99	-1.414
271.36	-0.990
271.73	-0.589
272.10	-2.405
272.47	-3.808
272.84	-3.012
273.21	-2.605
273.58	-3.427
273.95	-1.923
274.32	-3.232
274.69	-3.288
275.06	-0.549
275.43	-3.142
275.80	-0.353
276.17	-4.630
276.54	-1.866
276.91	-2.147
277.28	-1.627
277.65	-1.436
278.02	-2.206
278.39	-3.442
278.76	-2.636
279.13	-3.014
279.50	-1.890
279.87	-1.252
280.23	-4.049
280.60	-2.881
280.97	-1.809
281.34	-3.056
281.71	-0.338
282.08	-2.824
282.45	-2.782
282.82	-3.611
283.19	-4.039
283.56	-2.131
283.92	-1.952
284.29	0.790
284.66	-1.478
285.03	-2.724
285.40	-1.236
285.77	-2.012
286.14	-0.305
286.51	-2.435
286.87	-1.738
287.24	-1.054
287.61	-3.139
287.98	-2.568
288.35	-0.740
288.72	-1.036
289.08	-2.196
289.45	-1.775
289.82	-2.410
290.19	-1.006
290.56	-1.408
290.93	-1.141
291.29	-0.689
291.66	-2.066
292.03	-1.628
292.40	0.680
292.77	-1.887
293.13	-0.541
293.50	-1.971
293.87	-1.074
294.24	-0.400
294.60	0.379
294.97	-2.550
295.34	-1.152
295.71	-1.513
296.08	-0.775
296.44	-0.858
296.81	-1.583
297.18	-1.121
297.55	-1.297
297.91	-1.186
298.28	-2.014
298.65	-0.476
299.02	-2.479
299.38	-0.572
299.75	-0.584
300.12	-1.736
300.48	-0.230
300.85	-0.900
301.22	-1.454
301.59	-1.256
301.95	-1.582
302.32	-0.556
302.69	-1.533
303.05	-0.653
303.42	-1.330
303.79	-0.208
304.15	-0.841
304.52	-1.691
304.89	-1.675
305.25	-1.242
305.62	-1.254
305.99	-0.619
306.35	-1.109
306.72	-0.724
307.09	-0.305
307.45	-0.311
307.82	-1.110
308.19	-1.413
308.55	0.386
308.92	-0.487
309.29	0.096
309.65	-1.559
310.02	-0.891
310.38	-0.591
310.75	-0.874
311.12	0.288
311.48	-0.587
311.85	-0.570
312.22	-0.380
312.58	-0.845
312.95	-1.434
313.31	-0.632
313.68	0.549
314.05	0.361
314.41	1.002
314.78	0.454
315.14	1.270
315.51	0.923
315.87	0.630
316.24	1.735
316.61	1.865
316.97	0.452
317.34	0.265
317.70	1.223
318.07	2.116
318.43	2.891
318.80	3.512
319.16	2.060
319.53	2.142
319.89	2.191
320.26	3.292
320.62	3.103
320.99	3.509
321.35	3.327
321.72	4.837
322.08	3.787
322.45	3.884
322.81	5.054
323.18	4.690
323.54	4.655
323.91	5.872
324.27	5.508
324.64	6.045
325.00	6.136
325.37	5.815
325.73	6.612
326.10	7.624
326.46	8.225
326.83	8.086
327.19	8.268
327.56	8.063
327.92	8.025
328.29	7.823
328.65	8.208
329.01	8.714
329.38	8.846
329.74	9.418
330.11	9.247
330.47	9.773
330.84	7.666
331.20	10.167
331.56	8.579
331.93	10.209
332.29	10.508
332.66	9.884
333.02	9.129
333.38	9.815
333.75	10.522
334.11	10.092
334.48	9.653
334.84	10.450
335.20	10.076
335.57	11.298
335.93	11.653
336.29	9.068
336.66	9.924
337.02	9.950
337.38	10.119
337.75	10.579
338.11	9.672
338.47	10.422
338.84	9.560
339.20	10.025
339.56	10.791
339.93	10.509
340.29	10.064
340.65	9.246
341.02	11.732
341.38	11.075
341.74	10.169
342.11	11.022
342.47	9.531
342.83	10.870
343.20	10.630
343.56	11.147
343.92	11.129
344.28	10.859
344.65	11.163
345.01	10.140
345.37	11.042
345.73	10.756
346.10	11.076
346.46	11.155
346.82	11.685
347.19	10.848
347.55	11.002
347.91	10.698
348.27	11.002
348.63	11.805
349.00	10.738
349.36	11.227
349.72	10.714
350.08	10.921
350.45	10.342
350.81	10.483
351.17	11.128
351.53	10.311
351.89	11.238
352.26	10.672
352.62	11.418
352.98	10.534
353.34	10.829
353.70	11.094
354.07	10.656
354.43	10.175
354.79	11.219
355.15	11.332
355.51	12.208
355.87	11.444
356.24	10.798
356.60	11.530
356.96	11.193
357.32	11.450
357.68	10.908
358.04	11.826
358.40	11.119
358.77	11.842
359.13	11.078
359.49	10.483
359.85	11.458
360.21	12.267
360.57	11.342
360.93	11.848
361.29	11.649
361.66	12.527
362.02	12.804
362.38	12.157
362.74	12.291
363.10	12.724
363.46	12.881
363.82	11.932
364.18	13.371
364.54	13.140
364.90	12.709
365.26	12.759
365.62	13.267
365.98	13.002
366.35	12.752
366.71	12.925
367.07	13.126
367.43	13.723
367.79	13.271
368.15	14.047
368.51	13.058
368.87	13.978
369.23	13.933
369.59	15.164
369.95	13.523
370.31	14.247
370.67	13.411
371.03	13.504
371.39	13.633
371.75	14.237
372.11	13.686
372.47	14.353
372.83	14.987
373.19	13.542
373.55	14.431
373.91	14.519
374.27	14.812
374.63	15.765
374.99	14.721
375.35	15.325
375.71	14.903
376.07	15.558
376.42	14.736
376.78	16.594
377.14	14.598
377.50	15.560
377.86	16.133
378.22	16.108
378.58	17.063
378.94	16.256
379.30	16.872
379.66	17.049
380.02	17.657
380.38	17.396
380.74	17.803
381.09	16.376
381.45	16.761
381.81	17.799
382.17	17.162
382.53	17.544
382.89	17.494
383.25	17.995
383.61	17.708
383.97	17.314
384.32	18.720
384.68	16.879
385.04	18.566
385.40	19.328
385.76	19.754
386.12	18.133
386.48	18.412
386.83	19.130
387.19	18.598
387.55	18.721
387.91	19.121
388.27	19.226
388.62	18.557
388.98	18.951
389.34	19.741
389.70	20.395
390.06	20.722
390.42	19.458
390.77	20.710
391.13	19.601
391.49	19.444
391.85	20.485
392.20	20.403
392.56	21.264
392.92	20.829
393.28	20.011
393.64	19.888
393.99	21.267
394.35	21.028
394.71	21.437
395.07	20.778
395.42	21.074
395.78	22.669
396.14	21.509
396.50	21.437
396.85	21.467
397.21	21.243
397.57	22.144
397.92	22.337
398.28	20.913
398.64	22.426
399.00	21.623
399.35	22.408
399.71	21.685
400.07	22.179
400.42	21.769
400.78	21.238
401.14	22.652
401.49	22.854
401.85	22.326
402.21	23.291
402.57	24.061
402.92	22.636
403.28	22.892
403.63	22.494
403.99	22.625
404.35	22.854
404.70	23.173
405.06	23.424
405.42	23.478
405.77	24.318
406.13	22.961
406.49	24.043
406.84	23.435
407.20	23.924
407.55	23.683
407.91	23.759
408.27	23.380
408.62	24.258
408.98	23.506
409.34	23.402
409.69	24.536
410.05	24.443
410.40	23.724
410.76	24.846
411.11	25.950
411.47	24.631
411.83	24.691
412.18	25.301
412.54	25.074
412.89	25.553
413.25	24.492
413.60	25.158
413.96	25.233
414.31	24.816
414.67	24.866
415.03	25.046
415.38	25.032
415.74	24.496
416.09	25.046
416.45	25.172
416.80	24.602
417.16	25.734
417.51	25.156
417.87	25.506
418.22	25.509
418.58	25.155
418.93	25.960
419.29	25.586
419.64	25.930
420.00	26.350
420.35	25.379
420.71	26.422
421.06	26.337
421.42	25.975
421.77	25.417
422.12	26.004
422.48	24.731
422.83	26.506
423.19	25.889
423.54	26.438
423.90	25.345
424.25	26.773
424.61	26.177
424.96	25.865
425.31	27.229
425.67	25.711
426.02	26.674
426.38	26.234
426.73	26.116
427.09	27.047
427.44	25.887
427.79	25.871
428.15	26.598
428.50	26.573
428.85	26.177
429.21	27.074
429.56	26.160
429.92	26.044
430.27	27.422
430.62	27.504
430.98	26.955
431.33	26.588
431.68	26.724
432.04	27.070
432.39	26.888
432.74	26.598
433.10	26.609
433.45	25.864
433.80	26.717
434.16	27.531
434.51	28.160
434.86	28.176
435.22	27.736
435.57	27.182
435.92	26.767
436.28	27.929
436.63	27.417
436.98	26.838
437.34	27.339
437.69	27.298
438.04	27.234
438.39	27.685
438.75	27.393
439.10	28.330
439.45	27.166
439.81	27.006
440.16	26.166
440.51	26.700
440.86	26.904
441.22	27.921
441.57	26.782
441.92	27.692
442.27	28.081
442.63	27.273
442.98	27.321
443.33	26.986
443.68	27.106
444.03	28.081
444.39	27.924
444.74	27.871
445.09	27.522
445.44	27.871
445.79	27.682
446.15	27.492
446.50	27.649
446.85	27.286
447.20	27.611
447.55	27.667
447.91	27.592
448.26	27.008
448.61	27.524
448.96	28.326
449.31	27.147
449.66	26.307
450.02	27.268
450.37	27.544
450.72	27.449
451.07	26.879
451.42	26.921
451.77	27.293
452.12	27.822
452.47	26.263
452.83	26.914
453.18	26.678
453.53	26.479
453.88	26.560
454.23	27.175
454.58	26.872
454.93	26.153
455.28	26.972
455.63	27.345
455.98	26.927
456.34	26.443
456.69	27.043
457.04	26.773
457.39	27.106
457.74	27.293
458.09	27.512
458.44	27.263
458.79	26.405
459.14	26.848
459.49	27.108
459.84	26.863
460.19	26.097
460.54	27.655
460.89	26.998
461.24	25.862
461.59	26.508
461.94	25.727
462.29	26.988
462.64	26.071
462.99	24.796
463.34	25.827
463.69	26.436
464.04	26.292
464.39	26.177
464.74	26.625
465.09	26.701
465.44	26.127
465.79	27.552
466.14	26.576
466.49	26.895
466.84	26.556
467.19	25.665
467.54	26.204
467.89	25.345
468.24	26.814
468.59	25.362
468.94	24.417
469.29	25.375
469.64	25.429
469.99	26.386
470.34	25.062
470.68	26.111
471.03	25.671
471.38	25.703
471.73	24.902
472.08	25.825
472.43	25.226
472.78	24.496
473.13	25.601
473.48	25.801
473.83	25.943
474.17	24.560
474.52	26.218
474.87	24.972
475.22	26.028
475.57	25.234
475.92	24.888
476.27	24.814
476.61	24.974
476.96	24.557
477.31	25.842
477.66	25.341
478.01	24.962
478.36	25.374
478.70	24.581
479.05	24.898
479.40	24.827
479.75	24.688
480.10	25.391
480.45	25.387
480.79	25.170
481.14	24.449
481.49	24.625
481.84	25.152
482.19	24.946
482.53	25.317
482.88	24.502
483.23	23.833
483.58	24.017
483.92	23.892
484.27	25.021
484.62	23.804
484.97	24.106
485.31	24.182
485.66	23.332
486.01	24.414
486.36	25.134
486.70	25.209
487.05	24.941
487.40	23.961
487.75	23.282
488.09	23.528
488.44	22.996
488.79	22.934
489.13	23.389
489.48	22.951
489.83	22.817
490.17	24.180
490.52	23.153
490.87	23.731
491.22	23.267
491.56	23.464
491.91	22.852
492.26	23.410
492.60	23.043
492.95	22.642
493.30	22.546
493.64	22.295
493.99	22.368
494.34	22.779
494.68	23.041
495.03	22.555
495.37	22.503
495.72	22.857
496.07	22.305
496.41	21.965
496.76	22.560
497.11	22.675
497.45	22.400
497.80	22.390
498.14	21.950
498.49	21.875
498.84	22.852
499.18	22.222
499.53	21.973
499.87	22.198
500.22	20.971
500.56	21.413
500.91	21.968
501.26	21.818
501.60	21.299
501.95	22.102
502.29	20.667
502.64	21.732
502.98	21.700
503.33	20.475
503.67	21.108
504.02	21.103
504.36	22.341
504.71	21.819
505.06	21.237
505.40	21.709
505.75	20.537
506.09	21.179
506.44	21.216
506.78	21.239
507.13	21.116
507.47	20.606
507.82	20.549
508.16	20.220
508.51	20.019
508.85	20.217
509.19	20.748
509.54	20.845
509.88	20.253
510.23	20.058
510.57	21.315
510.92	21.142
511.26	20.058
511.61	20.328
511.95	19.766
512.30	20.236
512.64	20.040
512.98	20.110
513.33	20.817
513.67	19.990
514.02	20.286
514.36	20.153
514.70	20.781
515.05	20.386
515.39	19.948
515.74	21.050
516.08	20.444
516.42	20.251
516.77	19.769
517.11	20.062
517.46	20.520
517.80	20.898
518.14	20.348
518.49	20.119
518.83	19.691
519.17	19.817
519.52	19.182
519.86	19.588
520.20	19.169
520.55	19.934
520.89	19.482
521.23	20.212
521.58	20.339
521.92	19.490
522.26	19.244
522.61	20.602
522.95	18.916
523.29	19.655
523.64	20.235
523.98	19.966
524.32	20.458
524.66	19.351
525.01	19.875
525.35	19.816
525.69	19.896
526.04	19.173
526.38	19.598
526.72	19.493
527.06	19.531
527.41	18.659
527.75	19.952
528.09	19.481
528.43	18.887
528.78	18.439
529.12	19.495
529.46	19.280
529.80	19.508
530.15	19.768
530.49	18.327
530.83	18.949
531.17	18.698
531.51	19.314
531.86	19.531
532.20	19.939
532.54	18.851
532.88	18.242
533.22	19.446
533.57	18.927
533.91	19.080
534.25	18.994
534.59	18.678
534.93	17.883
535.27	18.254
535.62	18.818
535.96	19.524
536.30	18.331
536.64	19.039
536.98	19.680
537.32	18.148
537.66	17.717
538.01	17.885
538.35	17.966
538.69	18.389
539.03	18.945
539.37	18.316
539.71	19.459
540.05	18.585
540.39	17.787
540.73	17.911
541.07	16.861
541.42	18.015
541.76	16.845
542.10	18.215
542.44	17.722
542.78	17.762
543.12	18.117
543.46	17.766
543.80	17.386
544.14	17.175
544.48	18.558
544.82	18.671
545.16	17.770
545.50	17.615
545.84	16.901
546.18	18.086
546.52	17.006
546.86	17.107
547.20	16.539
547.54	16.916
547.88	17.541
548.22	17.836
548.56	16.442
548.90	17.254
549.24	17.508
549.58	17.666
549.92	17.283
550.26	17.476
550.60	16.847
550.94	16.818
551.28	16.634
551.62	17.183
551.96	16.246
552.30	16.252
552.64	16.553
552.98	16.282
553.32	16.270
553.66	16.141
554.00	17.213
554.34	17.246
554.68	15.946
555.02	15.834
555.36	16.897
555.69	16.143
556.03	16.267
556.37	16.458
556.71	15.980
557.05	16.677
557.39	15.926
557.73	15.786
558.07	16.490
558.41	17.010
558.75	15.551
559.08	16.284
559.42	15.912
559.76	15.129
560.10	15.941
560.44	15.501
560.78	16.500
561.12	16.318
561.45	16.423
561.79	15.385
562.13	16.081
562.47	15.783
562.81	15.506
563.15	15.593
563.48	15.911
563.82	15.840
564.16	15.021
564.50	15.316
564.84	15.044
565.17	16.059
565.51	15.247
565.85	15.321
566.19	14.747
566.52	14.862
566.86	15.563
567.20	15.063
567.54	15.135
567.88	15.800
568.21	15.761
568.55	15.012
568.89	15.297
569.23	16.054
569.56	15.787
569.90	15.645
570.24	15.379
570.57	15.106
570.91	15.095
571.25	15.534
571.59	15.419
571.92	14.925
572.26	15.326
572.60	15.097
572.93	14.974
573.27	15.060
573.61	15.167
573.95	15.271
574.28	15.604
574.62	15.302
574.96	15.064
575.29	14.915
575.63	15.038
575.97	15.210
576.30	14.483
576.64	14.794
576.98	14.943
577.31	14.980
577.65	14.816
577.98	14.891
578.32	15.058
578.66	14.681
578.99	15.052
579.33	14.406
579.67	14.506
580.00	14.116
580.34	14.725
580.67	14.320
581.01	14.539
581.35	14.631
581.68	14.747
582.02	15.049
582.35	15.110
582.69	14.540
583.02	14.801
583.36	14.233
583.70	14.201
584.03	14.087
584.37	14.194
584.70	13.423
585.04	14.508
585.37	14.185
585.71	14.606
586.04	14.377
586.38	14.461
586.72	13.462
587.05	13.789
587.39	14.286
587.72	14.163
588.06	14.120
588.39	13.791
588.73	14.286
589.06	13.939
589.40	13.768
589.73	13.753
590.07	13.660
590.40	13.996
590.73	13.326
591.07	13.924
591.40	13.103
591.74	13.553
592.07	13.642
592.41	13.722
592.74	13.561
593.08	14.490
593.41	14.144
593.75	14.310
594.08	13.693
594.41	13.718
594.75	13.650
595.08	12.988
595.42	13.539
595.75	13.400
596.09	13.555
596.42	13.866
596.75	12.968
597.09	13.172
597.42	13.071
597.75	13.367
598.09	12.659
598.42	12.988
598.76	12.686
599.09	13.101
599.42	13.074
599.76	12.545
600.09	13.847
600.42	13.046
600.76	12.748
601.09	12.977
601.42	12.908
601.76	13.414
602.09	13.653
602.42	12.723
602.76	13.100
603.09	13.142
603.42	12.897
603.76	12.755
604.09	13.662
604.42	13.321
604.76	12.215
605.09	12.166
605.42	12.879
605.75	12.846
606.09	12.505
606.42	12.076
606.75	12.556
607.09	12.558
607.42	12.871
607.75	13.169
608.08	12.391
608.42	11.487
608.75	12.313
609.08	12.394
609.41	12.483
609.75	11.652
610.08	12.093
610.41	11.937
610.74	12.269
611.07	12.300
611.41	12.646
611.74	12.564
612.07	12.436
612.40	11.597
612.73	12.029
613.07	11.687
613.40	12.849
613.73	11.892
614.06	12.414
614.39	11.613
614.72	12.470
615.06	12.368
615.39	11.841
615.72	12.417
616.05	11.899
616.38	12.412
616.71	12.539
617.05	11.289
617.38	12.734
617.71	12.095
618.04	12.790
618.37	12.186
618.70	11.369
619.03	11.051
619.36	11.221
619.69	10.955
620.03	12.053
620.36	12.086
620.69	11.166
621.02	11.089
621.35	12.192
621.68	11.352
622.01	11.815
622.34	11.158
622.67	11.478
623.00	9.447
623.33	11.214
623.66	11.219
623.99	10.467
624.32	11.891
624.65	10.489
624.99	11.964
625.32	11.430
625.65	10.722
625.98	10.983
626.31	11.552
626.64	10.989
626.97	10.428
627.30	10.099
627.63	10.953
627.96	12.237
628.29	11.128
628.62	9.992
628.95	11.218
629.28	9.346
629.61	10.859
629.94	9.874
630.26	10.339
630.59	11.054
630.92	10.216
631.25	11.002
631.58	11.676
631.91	9.372
632.24	11.335
632.57	10.911
632.90	9.930
633.23	9.694
633.56	10.306
633.89	9.504
634.22	11.538
634.55	10.438
634.88	8.658
635.20	10.011
635.53	10.282
635.86	10.401
636.19	11.135
636.52	10.970
636.85	9.193
637.18	10.603
637.51	11.075
637.83	11.628
638.16	8.065
638.49	9.390
638.82	10.259
639.15	9.278
639.48	9.815
639.81	9.353
640.13	9.894
640.46	7.879
640.79	8.946
641.12	11.056
641.45	8.908
641.77	11.168
642.10	8.661
642.43	10.239
642.76	9.214
643.09	9.452
643.41	8.263
643.74	10.621
644.07	9.517
644.40	7.496
644.73	8.708
645.05	9.251
645.38	8.345
645.71	7.771
646.04	9.469
646.36	7.737
646.69	9.663
647.02	9.327
647.35	9.771
647.67	9.662
648.00	7.484
648.33	8.559
648.66	8.559
648.98	8.707
649.31	9.066
649.64	9.031
649.96	8.753
650.29	5.563
650.62	8.769
650.94	7.658
651.27	7.186
651.60	7.456
651.92	7.447
652.25	8.973
652.58	9.078
652.90	6.541
653.23	7.887
653.56	6.847
653.88	9.972
654.21	8.169
654.54	7.081
654.86	8.215
655.19	7.152
655.52	10.136
655.84	11.337
656.17	13.131
656.49	18.589
656.82	20.226
657.15	15.176
657.47	11.076
657.80	7.905
658.13	5.954
658.45	7.961
658.78	9.103
659.10	8.829
659.43	8.049
659.75	7.823
660.08	7.395
660.41	7.610
660.73	6.043
661.06	5.286
661.38	6.699
661.71	5.690
662.03	7.055
662.36	8.050
662.68	7.317
663.01	7.611
663.33	7.940
663.66	8.425
663.98	7.115
664.31	8.443
664.63	6.744
664.96	8.167
665.28	6.715
665.61	6.993
665.93	5.893
666.26	8.781
666.58	7.380
666.91	7.290
667.23	7.619
667.56	5.128
667.88	7.600
668.21	6.836
668.53	4.826
668.86	5.697
669.18	5.295
669.50	4.771
669.83	5.800
670.15	5.118
670.48	7.738
670.80	5.163
671.13	8.696
671.45	4.528
671.77	8.475
672.10	7.333
672.42	4.693
672.75	7.220
673.07	8.955
673.39	5.085
673.72	7.047
674.04	8.966
674.37	6.977
674.69	8.466
675.01	6.476
675.34	5.344
675.66	5.805
675.98	6.530
676.31	7.031
676.63	7.795
676.95	6.513
677.28	6.452
677.60	6.102
677.92	5.758
678.25	4.936
678.57	6.940
678.89	7.850
679.22	4.704
679.54	7.009
679.86	6.102
680.18	6.965
680.51	6.918
680.83	6.056
681.15	6.897
681.48	7.254
681.80	6.563
682.12	5.769
682.44	6.845
682.77	7.979
683.09	6.629
683.41	7.558
683.73	5.882
684.06	6.273
684.38	5.546
684.70	7.720
685.02	6.540
685.34	5.657
685.67	5.836
685.99	7.209
686.31	4.215
686.63	5.687
686.96	6.467
687.28	6.515
687.60	4.882
687.92	6.431
688.24	5.175
688.56	6.552
688.89	7.623
689.21	5.479
689.53	5.294
689.85	4.339
690.17	5.370
690.49	5.777
690.82	6.733
691.14	4.453
691.46	7.457
691.78	6.446
692.10	4.037
692.42	4.821
692.74	5.445
693.06	5.926
693.39	5.693
693.71	6.955
694.03	6.877
694.35	5.524
694.67	5.133
694.99	7.021
695.31	2.870
695.63	3.030
695.95	6.211
696.27	4.176
696.59	5.088
696.91	5.631
697.23	6.813
697.56	4.481
697.88	7.008
698.20	6.215
698.52	8.333
698.84	5.613
699.16	7.959
699.48	6.276
699.80	6.809
700.12	5.022
700.44	2.304
700.76	7.601
701.08	6.053
701.40	3.627
701.72	4.975
702.04	3.743
702.36	3.665
702.68	2.689
703.00	4.401
703.32	2.956
703.64	5.868
703.96	5.012
704.28	4.423
704.60	5.570
704.91	5.102
705.23	4.658
705.55	1.950
705.87	3.939
706.19	3.988
706.51	2.711
706.83	1.153
707.15	0.529
707.47	3.972
707.79	5.459
708.11	1.695
708.43	2.151
708.74	0.223
709.06	4.640
709.38	5.869
709.70	6.452
710.02	3.101
710.34	4.255
710.66	0.000
710.98	3.552
711.29	2.473
711.61	6.215
711.93	2.849
712.25	1.892
712.57	4.720
712.89	5.588
713.20	1.479
713.52	3.757
713.84	3.064
714.16	5.526
714.48	2.835
714.80	4.416
715.11	4.462
715.43	4.509
715.75	3.947
716.07	0.000
716.39	3.005
716.70	-1.205
717.02	3.607
717.34	-1.045
717.66	1.678
717.97	-2.055
718.29	0.687
718.61	2.303
718.93	0.324
719.24	0.311
719.56	-0.307
719.88	2.703
720.20	-0.323
720.51	4.037
720.83	2.500
721.15	0.329
721.46	-5.137
721.78	3.000
722.10	-0.971
722.42	-0.336
722.73	4.839
723.05	1.053
723.37	3.472
723.68	4.301
724.00	-0.361
724.32	-1.408
724.63	1.748
724.95	4.610
725.27	0.697
725.58	0.707
725.90	3.448
726.22	1.254
726.53	2.273
726.85	3.774
727.16	3.625
727.48	5.810
727.80	1.325
728.11	0.000
728.43	1.010
728.74	1.338
729.06	-0.331
729.38	2.922
729.69	2.349
730.01	2.381
730.32	-3.636
730.64	1.887
730.96	0.000
731.27	3.631
731.59	4.121
731.90	2.857
732.22	4.427
732.53	-0.829
732.85	3.143
733.16	2.933
733.48	-1.220
733.80	2.507
734.11	2.279
734.43	3.784
734.74	6.835
735.06	3.518
735.37	3.784
735.69	2.162
736.00	3.390
736.32	2.426
736.63	3.889
736.95	2.874
737.26	1.515
737.58	2.424
737.89	1.765
738.21	1.223
738.52	0.984
738.83	5.119
739.15	0.355
739.46	2.721
739.78	0.000
740.09	-1.719
740.41	4.373
740.72	1.667
741.04	4.207
741.35	3.860
741.66	1.176
741.98	-2.049
742.29	0.000
742.61	0.877
742.92	0.000
743.23	0.722
743.55	4.264
743.86	-2.400
744.18	-5.785
744.49	-2.110
744.80	-4.115
745.12	-1.266
745.43	3.252
745.74	-2.586
746.06	-3.390
746.37	-1.266
746.68	4.472
747.00	-0.417
747.31	0.000
747.62	1.923
747.94	-3.644
748.25	-2.811
748.56	-0.816
748.88	-4.274
749.19	0.000
749.50	1.299
749.82	-0.402
750.13	0.000
750.44	-1.667
750.75	3.077
751.07	3.385
751.38	2.524
751.69	4.153
752.01	-0.324
752.32	2.288
752.63	-1.361
752.94	-1.730
753.26	-2.602
753.57	-3.333
753.88	-1.873
754.19	0.000
754.51	-0.965
754.82	2.894
755.13	1.967
755.44	-1.024
755.75	1.645
756.07	2.985
756.38	-1.572
756.69	2.108
757.00	0.277
757.31	2.459
757.63	0.767
757.94	1.408
758.25	3.837
758.56	3.268
758.87	4.545
759.18	2.667
759.50	4.816
759.81	5.322
760.12	0.539
760.43	2.865
760.74	3.202
761.05	0.750
761.36	1.928
761.67	0.254
761.99	2.703
762.30	2.744
762.61	3.630
762.92	-1.493
763.23	1.124
763.54	-0.360
763.85	-0.687
764.16	2.020
764.47	0.000
764.78	0.958
765.10	2.933
765.41	5.128
765.72	-0.529
766.03	1.695
766.34	-4.075
766.65	-3.136
766.96	1.594
767.27	-0.461
767.58	-5.970
767.89	1.442
768.20	-1.408
768.51	0.926
768.82	-2.811
769.13	2.652
769.44	-6.923
769.75	3.971
770.06	-0.385
770.37	3.937
770.68	-5.106
770.99	-6.883
771.30	10.370
771.61	-0.760
771.92	-4.074
772.23	0.810
772.54	-11.111
772.85	5.530
773.16	4.762
773.47	-5.291
773.78	-9.730
774.09	-3.977
774.39	-1.000
774.70	1.639
775.01	-8.537
775.32	-10.588
775.63	-7.362
775.94	-7.006
776.25	-1.290
776.56	0.000
776.87	-3.401
777.18	-11.034
777.48	-8.392
777.79	-7.432
778.10	-16.176
778.41	-5.556
778.72	-5.517
779.03	-9.259
779.34	-3.636
779.65	-3.627
779.95	-6.111
780.26	-6.818
780.57	-5.161
780.88	-4.348
781.19	1.935
781.50	-0.588
781.80	-1.075
782.11	1.058
782.42	-9.596
782.73	-13.174
783.04	-6.704
783.34	-10.303
783.65	-9.804
783.96	-8.075
784.27	-7.738
784.57	-10.596
784.88	-10.000
785.19	-10.236
785.50	-8.661
785.81	-9.774
786.11	-10.000
786.42	-14.388
786.73	-9.353
787.04	-4.511
787.34	-13.115
787.65	-11.200
787.96	-8.209
788.26	5.594
788.57	-5.594
788.88	-13.816
789.19	-3.268
789.49	-2.055
789.80	-1.418
790.11	-4.724
790.41	-10.937
790.72	-10.169
791.03	-19.417
791.33	-10.435
791.64	-5.263
791.95	-3.571
792.25	-10.476
792.56	-13.393
792.87	-17.708
793.17	-0.893
793.48	-10.417
793.79	-15.663
794.09	-17.431
794.40	-17.431
794.70	-4.082
795.01	-11.688
795.32	-8.219
795.62	0.000
795.93	-13.636
796.23	-8.197
796.54	-10.714
796.85	-10.638
797.15	-8.696
797.46	-36.986
797.76	-23.750
798.07	-9.783
798.37	-18.557
798.68	-24.675
798.99	-22.989
799.29	-11.236
799.60	-12.766
799.90	-24.096
800.21	-29.231
800.51	-32.836
800.82	-41.176
801.12	-24.658
801.43	-26.471
801.73	-42.373
802.04	-28.788
802.34	-43.333
802.65	-27.119
802.95	-13.433
803.26	-16.949
803.56	-19.178
803.87	-24.286
804.17	-12.329
804.48	-57.895
804.78	-27.778
805.09	-39.655
805.39	-16.216
805.70	-32.394
806.00	-4.878
806.30	-27.711
806.61	-36.986
806.91	-14.423
807.22	-13.333
807.52	-24.138
807.83	-12.500
808.13	-8.434
808.43	-14.607
808.74	-17.500
809.04	-42.647
809.35	-29.333
809.65	-31.429
809.95	-23.288
810.26	-45.614
810.56	-24.138
810.86	-10.294
811.17	-36.842
811.47	-22.951
811.77	-62.222
812.08	-16.949
812.38	-25.000
812.69	-13.793
812.99	-24.528
813.29	-71.795
813.59	-40.000
813.90	-17.544
814.20	-34.545
814.50	-14.085
814.81	-11.538
815.11	-18.033
815.41	-19.403
815.72	-31.034
816.02	-25.000
816.32	-13.333
816.62	-47.727
816.93	-51.111
817.23	-20.370
817.53	-42.553
817.84	-42.857
818.14	-52.941
818.44	-20.408
818.74	-48.889
819.04	-61.538
819.35	-68.571
819.65	-100.000
819.95	-35.849
820.25	-26.667
820.56	-45.238
820.86	-71.875
821.16	-35.897
821.46	-65.116
821.76	-46.000
822.07	-35.714
822.37	-36.957
822.67	-46.809
822.97	-54.054
823.27	-50.000
823.57	-28.571
823.88	-22.222
824.18	-62.500
824.48	-116.667
824.78	-112.000
825.08	-54.545
825.38	-24.444
825.69	-29.787
825.99	-41.667
826.29	-57.143
826.59	-61.538
826.89	-39.535
827.19	-22.000
827.49	-41.176
827.79	-6.250
828.09	-70.270
828.39	-76.667
828.70	-34.146
829.00	-51.163
829.30	-64.286
829.60	-41.176
829.90	-30.435
830.20	-71.429
830.50	-82.759
830.80	-133.333
831.10	-92.308
831.40	-52.941
831.70	-61.905
832.00	-32.258
832.30	-217.647
832.60	-37.500
832.90	-176.923
833.20	-126.316
833.50	-130.000
833.80	-136.842
834.10	-147.619
834.40	-19.444
834.70	-40.625
835.00	-82.857
835.30	-58.824
835.60	-73.333
835.90	-88.000
836.20	-113.636
836.50	-44.000
836.80	-72.727
837.10	-77.778
837.40	-55.556
837.70	-181.250
838.00	-78.571
838.30	-95.652
838.60	-62.069
838.90	-135.714
839.19	-134.783
839.49	-283.333
839.79	-104.348
840.09	-131.250
840.39	-85.000
840.69	-32.258
840.99	-64.286
841.29	-193.333
841.59	-131.579
841.88	-25.641
842.18	-69.231
842.48	-290.000
842.78	-95.000
843.08	-66.667
843.38	-67.742
843.68	-150.000
843.97	-41.176
844.27	-175.000
844.57	-157.895
844.87	-280.000
845.17	-126.667
845.47	-71.429
845.76	-104.762
846.06	-177.778
846.36	-147.059
846.66	-46.154
846.96	-80.000
847.25	-111.765
847.55	-65.217
847.85	-70.000
848.15	-111.765
848.44	-209.091
848.74	-95.238
849.04	-54.167
849.34	-125.000
849.63	-65.217
849.93	1250.000
850.23	-140.000
850.53	-19.231
850.82	-209.091
851.12	-72.727
851.42	-209.091
851.71	-100.000
852.01	-135.000
852.31	-107.692
852.61	-78.947
852.90	-133.333
853.20	-122.222
853.50	-400.000
853.79	-71.429
854.09	-90.909
854.39	-275.000
854.68	-74.194
854.98	-76.923
855.28	-22.222
855.57	-57.143
855.87	-56.000
856.17	-118.182
856.46	-48.148
856.76	-122.222
857.05	-95.652
857.35	-108.333
857.65	-223.077
857.94	-61.905
858.24	-11.111
858.53	-73.913
858.83	-117.647
859.13	-70.588
859.42	-105.882
859.72	-114.286
860.01	-80.000
860.31	-77.778
860.60	-140.000
860.90	-146.667
861.20	-77.778
861.49	-130.769
861.79	-36.667
862.08	-230.769
862.38	-31.250
862.67	-88.235
862.97	-106.250
863.26	-300.000
863.56	-190.000
863.85	-154.545
864.15	-88.889
864.44	-600.000
864.74	-142.857
865.03	-125.000
865.33	-250.000
865.62	-51.613
865.92	-63.636
866.21	-56.522
866.51	-100.000
866.80	-360.000
867.10	-150.000
867.39	-183.333
867.69	2100.000
867.98	-285.714
868.27	-105.882
868.57	-3100.000
868.86	-300.000
869.16	-76.190
869.45	-66.667
869.75	-72.727
870.04	-300.000
870.33	-108.333
870.63	-314.286
870.92	-425.000
871.22	-412.500
871.51	-200.000
871.80	-866.667
872.10	-1000.000
>>>>>End Processed Spectral Data<<<<<
