SpectraSuite Data File
++++++++++++++++++++++++++++++++++++
Date: Thu May 14 15:58:43 PDT 2015
User: schluterlab
Dark Spectrum Present: Yes
Reference Spectrum Present: Yes
Number of Sampled Component Spectra: 1
Spectrometers: USB2E3373
Integration Time (usec): 3000 (USB2E3373)
Spectra Averaged: 3 (USB2E3373)
Boxcar Smoothing: 0 (USB2E3373)
Correct for Electrical Dark: No (USB2E3373)
Strobe/Lamp Enabled: No (USB2E3373)
Correct for Detector Non-linearity: No (USB2E3373)
Correct for Stray Light: No (USB2E3373)
Number of Pixels in Processed Spectrum: 2048
>>>>>Begin Processed Spectral Data<<<<<
178.53	0.000
178.91	300.000
179.29	-2900.000
179.67	-3000.000
180.04	250.000
180.42	120.000
180.80	480.000
181.18	-2600.000
181.56	-1600.000
181.94	350.000
182.31	-425.000
182.69	433.333
183.07	-850.000
183.45	750.000
183.83	-216.667
184.20	-833.333
184.58	1800.000
184.96	-400.000
185.34	-122.222
185.72	-440.000
186.09	255.556
186.47	1300.000
186.85	760.000
187.23	-266.667
187.61	-2500.000
187.98	480.000
188.36	750.000
188.74	-575.000
189.12	-600.000
189.49	-93.750
189.87	-325.000
190.25	-155.556
190.63	-240.000
191.00	-166.667
191.38	0.000
191.76	-825.000
192.14	-283.333
192.51	1050.000
192.89	-233.333
193.27	0.000
193.65	-171.429
194.02	-3200.000
194.40	-314.286
194.78	328.571
195.15	0.000
195.53	-200.000
195.91	0.000
196.29	-550.000
196.66	-130.769
197.04	-2300.000
197.42	-300.000
197.79	-1000.000
198.17	-250.000
198.55	-214.286
198.92	-155.556
199.30	-250.000
199.68	-181.818
200.05	-121.429
200.43	-1200.000
200.81	342.857
201.18	0.000
201.56	322.222
201.94	0.000
202.31	700.000
202.69	-211.111
203.07	2100.000
203.44	-133.333
203.82	-600.000
204.19	-91.667
204.57	-300.000
204.95	-225.000
205.32	-2200.000
205.70	625.000
206.08	-150.000
206.45	-266.667
206.83	500.000
207.20	-266.667
207.58	-480.000
207.96	-400.000
208.33	-233.333
208.71	141.667
209.08	-300.000
209.46	0.000
209.84	433.333
210.21	950.000
210.59	1050.000
210.96	1066.667
211.34	-625.000
211.71	-337.500
212.09	-2600.000
212.46	0.000
212.84	1550.000
213.22	-520.000
213.59	-425.000
213.97	-210.000
214.34	-566.667
214.72	400.000
215.09	-675.000
215.47	0.000
215.84	342.857
216.22	1450.000
216.59	-380.000
216.97	-460.000
217.34	-600.000
217.72	-137.500
218.09	-550.000
218.47	-475.000
218.84	0.000
219.22	520.000
219.59	-135.294
219.97	-60.000
220.34	1300.000
220.72	-188.889
221.09	-84.615
221.47	-400.000
221.84	-130.000
222.22	-328.571
222.59	0.000
222.97	-162.500
223.34	-640.000
223.72	-3300.000
224.09	-350.000
224.46	-425.000
224.84	-480.000
225.21	-314.286
225.59	-625.000
225.96	-675.000
226.34	-65.385
226.71	716.667
227.08	-1200.000
227.46	-126.667
227.83	-325.000
228.21	-63.158
228.58	225.000
228.95	1150.000
229.33	-125.000
229.70	-210.000
230.08	-10.526
230.45	280.000
230.82	-633.333
231.20	-85.714
231.57	-175.000
231.95	-145.455
232.32	-145.455
232.69	-60.000
233.07	-475.000
233.44	-111.765
233.81	-220.000
234.19	-61.111
234.56	-59.091
234.93	-44.828
235.31	-100.000
235.68	-83.333
236.05	-110.000
236.43	-11.538
236.80	-12.000
237.17	-29.630
237.55	0.000
237.92	-160.000
238.29	-45.161
238.67	-25.000
239.04	-25.000
239.41	-26.190
239.79	-8.696
240.16	0.000
240.53	-21.739
240.91	-15.686
241.28	-13.115
241.65	13.433
242.02	1.351
242.40	0.000
242.77	-8.000
243.14	3.659
243.51	-15.789
243.89	-5.128
244.26	10.891
244.63	11.765
245.00	11.215
245.38	3.509
245.75	-1.770
246.12	11.905
246.49	15.504
246.87	10.000
247.24	11.258
247.61	12.500
247.98	17.450
248.36	13.580
248.73	16.564
249.10	18.579
249.47	21.891
249.84	21.466
250.22	15.544
250.59	23.333
250.96	19.545
251.33	15.816
251.70	19.231
252.08	19.583
252.45	19.672
252.82	19.421
253.19	16.797
253.56	22.433
253.94	18.846
254.31	20.833
254.68	22.378
255.05	21.173
255.42	21.769
255.79	16.828
256.16	19.536
256.54	18.543
256.91	23.934
257.28	21.311
257.65	20.701
258.02	16.814
258.39	20.228
258.76	25.382
259.14	22.701
259.51	21.614
259.88	18.697
260.25	23.889
260.62	21.644
260.99	22.404
261.36	22.788
261.73	22.281
262.10	20.879
262.47	22.788
262.85	25.758
263.22	22.597
263.59	18.158
263.96	24.041
264.33	19.949
264.70	23.457
265.07	23.866
265.44	24.717
265.81	20.139
266.18	23.129
266.55	22.768
266.92	22.551
267.29	23.414
267.66	22.838
268.03	23.799
268.40	22.965
268.77	22.323
269.14	22.026
269.51	23.684
269.88	23.156
270.25	21.932
270.62	23.840
270.99	23.434
271.36	22.772
271.73	23.772
272.10	23.046
272.47	22.645
272.84	22.289
273.21	21.242
273.58	23.185
273.95	18.846
274.32	20.913
274.69	23.791
275.06	22.527
275.43	19.224
275.80	21.693
276.17	22.778
276.54	20.709
276.91	19.499
277.28	23.327
277.65	21.544
278.02	20.404
278.39	25.181
278.76	22.847
279.13	21.099
279.50	22.852
279.87	22.182
280.23	18.838
280.60	22.542
280.97	21.711
281.34	22.411
281.71	23.012
282.08	23.090
282.45	21.604
282.82	20.094
283.19	21.325
283.56	19.180
283.92	21.321
284.29	24.171
284.66	24.631
285.03	18.750
285.40	21.329
285.77	19.350
286.14	22.137
286.51	21.157
286.87	21.959
287.24	23.645
287.61	20.478
287.98	20.091
288.35	22.189
288.72	22.041
289.08	22.840
289.45	21.450
289.82	21.386
290.19	21.121
290.56	20.282
290.93	20.542
291.29	18.320
291.66	20.248
292.03	19.403
292.40	21.905
292.77	20.350
293.13	19.215
293.50	18.397
293.87	18.926
294.24	20.000
294.60	21.239
294.97	17.718
295.34	20.615
295.71	17.907
296.08	19.380
296.44	18.015
296.81	17.905
297.18	17.808
297.55	18.514
297.91	18.031
298.28	19.550
298.65	18.074
299.02	17.828
299.38	19.336
299.75	19.042
300.12	17.940
300.48	19.009
300.85	17.660
301.22	17.338
301.59	16.210
301.95	18.192
302.32	18.889
302.69	18.839
303.05	19.042
303.42	17.960
303.79	18.646
304.15	18.086
304.52	15.962
304.89	17.906
305.25	17.598
305.62	18.600
305.99	18.454
306.35	17.540
306.72	17.270
307.09	16.954
307.45	18.737
307.82	20.283
308.19	16.852
308.55	18.129
308.92	18.695
309.29	18.103
309.65	18.226
310.02	19.010
310.38	17.717
310.75	18.738
311.12	17.450
311.48	17.889
311.85	17.094
312.22	17.362
312.58	18.028
312.95	18.164
313.31	18.970
313.68	19.139
314.05	18.880
314.41	18.761
314.78	19.619
315.14	19.782
315.51	18.283
315.87	19.172
316.24	19.543
316.61	19.272
316.97	18.824
317.34	17.725
317.70	19.913
318.07	19.665
318.43	19.303
318.80	18.813
319.16	18.369
319.53	18.252
319.89	18.755
320.26	18.683
320.62	17.642
320.99	18.652
321.35	18.207
321.72	20.651
322.08	19.567
322.45	19.512
322.81	20.578
323.18	19.381
323.54	20.259
323.91	20.463
324.27	19.019
324.64	19.479
325.00	18.325
325.37	19.574
325.73	19.339
326.10	20.519
326.46	19.951
326.83	20.496
327.19	20.079
327.56	19.842
327.92	18.489
328.29	20.000
328.65	19.347
329.01	18.951
329.38	20.219
329.74	19.692
330.11	19.092
330.47	19.714
330.84	19.638
331.20	20.250
331.56	19.757
331.93	20.000
332.29	19.237
332.66	19.435
333.02	18.593
333.38	20.134
333.75	20.370
334.11	20.267
334.48	20.462
334.84	19.371
335.20	19.647
335.57	19.646
335.93	19.339
336.29	17.970
336.66	19.092
337.02	19.816
337.38	18.963
337.75	18.512
338.11	19.008
338.47	18.693
338.84	18.782
339.20	18.029
339.56	19.934
339.93	18.637
340.29	19.324
340.65	18.654
341.02	19.553
341.38	19.644
341.74	18.967
342.11	19.710
342.47	17.712
342.83	18.921
343.20	19.542
343.56	19.407
343.92	18.815
344.28	19.766
344.65	18.527
345.01	18.565
345.37	20.373
345.73	18.862
346.10	19.345
346.46	19.462
346.82	19.101
347.19	19.404
347.55	19.196
347.91	18.945
348.27	18.589
348.63	18.736
349.00	19.016
349.36	18.736
349.72	19.196
350.08	19.391
350.45	17.719
350.81	19.080
351.17	19.925
351.53	18.499
351.89	20.577
352.26	18.657
352.62	19.851
352.98	18.321
353.34	17.625
353.70	19.260
354.07	18.852
354.43	18.299
354.79	18.250
355.15	18.690
355.51	19.591
355.87	19.147
356.24	19.772
356.60	18.921
356.96	18.755
357.32	17.918
357.68	19.985
358.04	18.189
358.40	19.254
358.77	19.664
359.13	19.350
359.49	18.364
359.85	18.782
360.21	18.293
360.57	19.167
360.93	18.547
361.29	18.737
361.66	19.261
362.02	20.390
362.38	19.255
362.74	18.296
363.10	19.257
363.46	18.837
363.82	19.318
364.18	19.001
364.54	19.156
364.90	19.532
365.26	18.690
365.62	19.533
365.98	19.877
366.35	18.658
366.71	20.272
367.07	19.553
367.43	19.304
367.79	20.106
368.15	20.134
368.51	19.621
368.87	19.530
369.23	19.533
369.59	19.672
369.95	19.946
370.31	19.176
370.67	19.532
371.03	20.360
371.39	18.872
371.75	19.395
372.11	20.325
372.47	19.838
372.83	20.419
373.19	20.881
373.55	19.919
373.91	19.632
374.27	20.634
374.63	20.568
374.99	20.491
375.35	20.000
375.71	20.387
376.07	21.110
376.42	20.970
376.78	21.255
377.14	21.210
377.50	21.695
377.86	21.429
378.22	20.838
378.58	21.581
378.94	21.009
379.30	21.148
379.66	21.634
380.02	20.889
380.38	22.293
380.74	21.634
381.09	20.732
381.45	21.932
381.81	22.131
382.17	22.090
382.53	22.164
382.89	21.783
383.25	21.747
383.61	21.933
383.97	21.731
384.32	22.608
384.68	22.100
385.04	22.499
385.40	23.512
385.76	24.033
386.12	23.040
386.48	23.588
386.83	23.302
387.19	22.364
387.55	22.829
387.91	22.945
388.27	23.614
388.62	23.711
388.98	23.294
389.34	23.571
389.70	23.940
390.06	23.683
390.42	23.675
390.77	24.443
391.13	23.768
391.49	24.094
391.85	24.000
392.20	24.437
392.56	24.867
392.92	23.882
393.28	25.152
393.64	24.749
393.99	25.392
394.35	25.175
394.71	26.108
395.07	24.311
395.42	24.957
395.78	26.082
396.14	25.193
396.50	25.356
396.85	25.045
397.21	25.680
397.57	25.677
397.92	25.830
398.28	25.475
398.64	24.714
399.00	25.131
399.35	25.550
399.71	26.196
400.07	26.277
400.42	26.368
400.78	27.025
401.14	26.295
401.49	26.435
401.85	26.163
402.21	26.362
402.57	27.347
402.92	27.009
403.28	26.581
403.63	26.313
403.99	26.663
404.35	27.004
404.70	27.649
405.06	26.522
405.42	27.810
405.77	27.426
406.13	27.661
406.49	27.703
406.84	28.255
407.20	27.334
407.55	27.922
407.91	28.661
408.27	27.797
408.62	28.738
408.98	28.613
409.34	27.273
409.69	28.986
410.05	28.839
410.40	29.292
410.76	28.660
411.11	29.515
411.47	29.423
411.83	29.806
412.18	30.060
412.54	29.876
412.89	29.336
413.25	29.684
413.60	29.581
413.96	29.895
414.31	28.612
414.67	29.815
415.03	29.415
415.38	30.391
415.74	30.116
416.09	30.413
416.45	30.119
416.80	30.171
417.16	30.907
417.51	31.382
417.87	30.595
418.22	30.479
418.58	30.669
418.93	31.432
419.29	31.073
419.64	30.312
420.00	30.326
420.35	30.882
420.71	30.959
421.06	30.305
421.42	31.766
421.77	31.072
422.12	31.131
422.48	31.695
422.83	31.928
423.19	32.149
423.54	32.024
423.90	31.530
424.25	31.680
424.61	32.032
424.96	31.686
425.31	31.582
425.67	31.830
426.02	32.928
426.38	32.032
426.73	32.757
427.09	32.295
427.44	31.841
427.79	31.564
428.15	32.306
428.50	31.854
428.85	32.319
429.21	33.351
429.56	32.527
429.92	31.843
430.27	32.434
430.62	32.096
430.98	32.317
431.33	32.405
431.68	32.854
432.04	32.910
432.39	33.155
432.74	32.820
433.10	34.072
433.45	32.330
433.80	33.637
434.16	32.593
434.51	33.145
434.86	33.605
435.22	33.634
435.57	35.024
435.92	32.443
436.28	34.471
436.63	33.971
436.98	31.938
437.34	32.920
437.69	32.911
438.04	33.263
438.39	34.233
438.75	32.706
439.10	33.827
439.45	33.371
439.81	33.503
440.16	33.298
440.51	33.389
440.86	34.074
441.22	34.137
441.57	34.224
441.92	33.996
442.27	34.394
442.63	33.433
442.98	35.005
443.33	34.087
443.68	33.697
444.03	34.948
444.39	34.073
444.74	33.946
445.09	34.110
445.44	34.615
445.79	34.483
446.15	34.327
446.50	33.798
446.85	34.339
447.20	34.768
447.55	34.414
447.91	33.979
448.26	34.408
448.61	34.485
448.96	34.818
449.31	33.404
449.66	32.734
450.02	33.703
450.37	33.990
450.72	34.015
451.07	34.339
451.42	34.200
451.77	33.685
452.12	35.271
452.47	33.868
452.83	34.966
453.18	33.158
453.53	33.774
453.88	33.297
454.23	35.819
454.58	34.359
454.93	33.799
455.28	35.340
455.63	33.371
455.98	34.190
456.34	33.333
456.69	33.862
457.04	34.515
457.39	34.313
457.74	34.004
458.09	33.553
458.44	34.106
458.79	33.729
459.14	33.665
459.49	33.333
459.84	34.575
460.19	33.093
460.54	34.469
460.89	34.357
461.24	33.678
461.59	34.643
461.94	33.200
462.29	33.819
462.64	33.736
462.99	34.652
463.34	34.458
463.69	33.529
464.04	33.685
464.39	33.464
464.74	34.265
465.09	34.025
465.44	34.818
465.79	34.215
466.14	34.080
466.49	33.263
466.84	34.325
467.19	35.202
467.54	32.550
467.89	32.931
468.24	33.629
468.59	33.295
468.94	33.217
469.29	32.693
469.64	33.630
469.99	34.990
470.34	34.839
470.68	34.655
471.03	34.971
471.38	33.551
471.73	33.290
472.08	33.883
472.43	34.377
472.78	34.572
473.13	33.755
473.48	34.502
473.83	34.881
474.17	34.467
474.52	34.997
474.87	34.607
475.22	34.873
475.57	34.579
475.92	33.599
476.27	34.611
476.61	34.216
476.96	33.942
477.31	34.505
477.66	34.837
478.01	33.910
478.36	34.895
478.70	34.877
479.05	34.765
479.40	34.353
479.75	34.678
480.10	34.676
480.45	35.050
480.79	33.878
481.14	34.145
481.49	34.075
481.84	34.856
482.19	33.720
482.53	34.324
482.88	34.603
483.23	34.193
483.58	34.847
483.92	33.777
484.27	33.827
484.62	33.498
484.97	34.837
485.31	32.911
485.66	32.136
486.01	32.336
486.36	32.818
486.70	34.297
487.05	35.103
487.40	35.454
487.75	34.733
488.09	34.799
488.44	34.279
488.79	34.368
489.13	34.794
489.48	32.893
489.83	33.159
490.17	33.657
490.52	32.800
490.87	33.883
491.22	34.402
491.56	33.362
491.91	33.144
492.26	33.925
492.60	33.975
492.95	33.172
493.30	33.752
493.64	33.684
493.99	32.675
494.34	33.101
494.68	33.062
495.03	33.833
495.37	33.156
495.72	33.605
496.07	33.304
496.41	32.990
496.76	33.403
497.11	33.418
497.45	33.362
497.80	33.363
498.14	33.243
498.49	33.364
498.84	33.638
499.18	32.659
499.53	33.184
499.87	33.319
500.22	32.146
500.56	33.198
500.91	32.906
501.26	33.909
501.60	33.098
501.95	32.914
502.29	32.953
502.64	34.237
502.98	33.089
503.33	32.484
503.67	32.839
504.02	32.881
504.36	33.959
504.71	33.762
505.06	33.288
505.40	33.090
505.75	33.060
506.09	33.011
506.44	34.076
506.78	33.807
507.13	33.333
507.47	33.823
507.82	33.144
508.16	32.887
508.51	32.865
508.85	33.207
509.19	33.681
509.54	33.189
509.88	33.123
510.23	33.851
510.57	34.316
510.92	33.624
511.26	33.093
511.61	32.352
511.95	33.919
512.30	34.220
512.64	32.734
512.98	33.767
513.33	33.821
513.67	34.727
514.02	34.032
514.36	33.964
514.70	33.542
515.05	33.837
515.39	33.963
515.74	34.146
516.08	34.601
516.42	34.118
516.77	34.227
517.11	33.110
517.46	34.093
517.80	34.153
518.14	34.440
518.49	34.436
518.83	33.528
519.17	33.603
519.52	34.696
519.86	33.580
520.20	34.452
520.55	33.844
520.89	35.135
521.23	34.338
521.58	35.028
521.92	33.768
522.26	33.219
522.61	34.491
522.95	33.910
523.29	35.057
523.64	35.146
523.98	34.170
524.32	36.390
524.66	34.548
525.01	33.522
525.35	34.693
525.69	33.933
526.04	33.123
526.38	33.793
526.72	33.737
527.06	34.018
527.41	34.111
527.75	35.154
528.09	34.711
528.43	34.281
528.78	33.988
529.12	33.142
529.46	34.289
529.80	33.524
530.15	33.623
530.49	34.104
530.83	33.471
531.17	33.692
531.51	33.935
531.86	35.096
532.20	34.329
532.54	33.692
532.88	34.242
533.22	34.060
533.57	33.641
533.91	34.063
534.25	34.031
534.59	34.368
534.93	33.729
535.27	34.648
535.62	34.167
535.96	34.631
536.30	33.784
536.64	34.414
536.98	35.117
537.32	33.580
537.66	34.498
538.01	33.595
538.35	33.678
538.69	33.053
539.03	33.783
539.37	33.274
539.71	34.234
540.05	32.974
540.39	32.702
540.73	32.301
541.07	33.660
541.42	33.314
541.76	33.155
542.10	33.595
542.44	32.765
542.78	32.968
543.12	32.837
543.46	33.089
543.80	33.333
544.14	32.974
544.48	33.629
544.82	32.735
545.16	32.439
545.50	32.295
545.84	31.904
546.18	33.765
546.52	33.503
546.86	32.013
547.20	32.188
547.54	33.333
547.88	32.248
548.22	32.164
548.56	31.656
548.90	32.000
549.24	32.705
549.58	31.230
549.92	31.569
550.26	32.039
550.60	31.653
550.94	31.889
551.28	30.759
551.62	32.547
551.96	31.327
552.30	32.887
552.64	32.296
552.98	32.564
553.32	31.897
553.66	32.026
554.00	31.400
554.34	31.596
554.68	31.375
555.02	31.406
555.36	32.479
555.69	31.262
556.03	31.463
556.37	31.477
556.71	31.642
557.05	31.310
557.39	31.851
557.73	32.232
558.07	31.523
558.41	30.963
558.75	30.088
559.08	31.246
559.42	29.835
559.76	32.022
560.10	30.676
560.44	30.277
560.78	31.688
561.12	30.542
561.45	31.144
561.79	31.502
562.13	30.499
562.47	30.764
562.81	30.127
563.15	30.745
563.48	31.262
563.82	31.016
564.16	29.921
564.50	29.917
564.84	29.263
565.17	30.647
565.51	29.574
565.85	30.344
566.19	29.205
566.52	29.608
566.86	30.051
567.20	29.636
567.54	29.740
567.88	29.613
568.21	30.040
568.55	30.360
568.89	29.324
569.23	29.193
569.56	29.308
569.90	29.579
570.24	29.916
570.57	29.442
570.91	28.230
571.25	28.869
571.59	29.613
571.92	28.571
572.26	28.904
572.60	28.993
572.93	29.056
573.27	29.250
573.61	28.295
573.95	28.186
574.28	29.012
574.62	28.581
574.96	27.746
575.29	27.781
575.63	28.067
575.97	28.240
576.30	28.349
576.64	28.704
576.98	28.223
577.31	28.187
577.65	28.498
577.98	27.711
578.32	27.211
578.66	28.100
578.99	27.995
579.33	28.390
579.67	27.947
580.00	27.894
580.34	28.120
580.67	27.493
581.01	28.148
581.35	27.606
581.68	27.524
582.02	27.590
582.35	27.951
582.69	28.088
583.02	28.126
583.36	28.158
583.70	28.403
584.03	28.750
584.37	27.820
584.70	27.237
585.04	27.412
585.37	26.624
585.71	27.055
586.04	27.235
586.38	26.787
586.72	26.924
587.05	27.066
587.39	27.150
587.72	27.081
588.06	27.273
588.39	27.135
588.73	27.037
589.06	27.596
589.40	27.228
589.73	27.281
590.07	27.023
590.40	27.181
590.73	26.405
591.07	27.215
591.40	27.216
591.74	27.027
592.07	26.756
592.41	26.459
592.74	26.340
593.08	27.420
593.41	26.043
593.75	26.264
594.08	26.356
594.41	26.699
594.75	26.171
595.08	26.245
595.42	26.558
595.75	26.122
596.09	26.669
596.42	27.051
596.75	26.785
597.09	26.788
597.42	25.864
597.75	26.186
598.09	26.587
598.42	26.257
598.76	24.990
599.09	25.062
599.42	25.277
599.76	25.982
600.09	25.125
600.42	26.293
600.76	25.892
601.09	25.324
601.42	25.884
601.76	25.724
602.09	25.482
602.42	25.191
602.76	25.683
603.09	25.514
603.42	25.289
603.76	25.264
604.09	25.727
604.42	24.954
604.76	24.810
605.09	25.688
605.42	25.638
605.75	25.154
606.09	24.860
606.42	24.735
606.75	24.513
607.09	24.347
607.42	25.010
607.75	25.244
608.08	24.704
608.42	24.627
608.75	25.207
609.08	24.533
609.41	24.702
609.75	24.688
610.08	25.286
610.41	23.874
610.74	24.538
611.07	24.822
611.41	25.202
611.74	24.157
612.07	24.357
612.40	24.192
612.73	24.841
613.07	25.037
613.40	24.783
613.73	24.073
614.06	24.632
614.39	24.684
614.72	23.193
615.06	23.725
615.39	23.393
615.72	24.929
616.05	23.798
616.38	24.067
616.71	23.250
617.05	23.589
617.38	24.291
617.71	24.028
618.04	24.609
618.37	24.809
618.70	24.378
619.03	23.417
619.36	24.168
619.69	23.254
620.03	23.980
620.36	23.558
620.69	23.319
621.02	23.228
621.35	24.238
621.68	23.717
622.01	21.851
622.34	23.222
622.67	23.574
623.00	22.200
623.33	23.291
623.66	23.671
623.99	23.436
624.32	23.652
624.65	23.295
624.99	22.887
625.32	22.665
625.65	23.061
625.98	22.644
626.31	22.892
626.64	23.443
626.97	22.806
627.30	21.868
627.63	22.356
627.96	23.423
628.29	22.879
628.62	22.418
628.95	22.875
629.28	22.600
629.61	22.811
629.94	21.757
630.26	21.949
630.59	21.157
630.92	22.251
631.25	22.451
631.58	22.222
631.91	22.306
632.24	22.863
632.57	23.340
632.90	22.367
633.23	22.653
633.56	22.449
633.89	20.764
634.22	22.869
634.55	21.921
634.88	22.619
635.20	21.851
635.53	22.373
635.86	21.235
636.19	20.891
636.52	21.519
636.85	21.246
637.18	21.830
637.51	21.290
637.83	21.373
638.16	23.618
638.49	21.362
638.82	20.293
639.15	20.046
639.48	21.824
639.81	21.247
640.13	21.908
640.46	19.515
640.79	19.118
641.12	21.615
641.45	19.824
641.77	21.566
642.10	20.604
642.43	21.941
642.76	20.732
643.09	20.548
643.41	17.787
643.74	20.276
644.07	21.931
644.40	19.519
644.73	20.174
645.05	20.852
645.38	20.719
645.71	18.328
646.04	20.086
646.36	18.394
646.69	21.626
647.02	20.795
647.35	20.916
647.67	21.417
648.00	19.586
648.33	21.922
648.66	19.116
648.98	16.871
649.31	20.974
649.64	21.116
649.96	19.363
650.29	18.220
650.62	18.953
650.94	18.018
651.27	18.563
651.60	20.029
651.92	18.541
652.25	20.839
652.58	19.120
652.90	19.913
653.23	19.577
653.56	19.686
653.88	20.225
654.21	19.859
654.54	18.497
654.86	19.547
655.19	18.068
655.52	20.351
655.84	19.750
656.17	23.259
656.49	33.062
656.82	37.881
657.15	30.538
657.47	24.205
657.80	18.278
658.13	14.757
658.45	20.134
658.78	24.770
659.10	24.098
659.43	24.686
659.75	23.186
660.08	21.008
660.41	21.009
660.73	18.814
661.06	18.062
661.38	17.703
661.71	18.276
662.03	17.460
662.36	20.215
662.68	18.011
663.01	19.292
663.33	19.660
663.66	19.780
663.98	16.923
664.31	17.824
664.63	16.570
664.96	18.330
665.28	16.878
665.61	19.580
665.93	15.000
666.26	19.713
666.58	17.528
666.91	18.692
667.23	16.000
667.56	17.949
667.88	16.400
668.21	15.039
668.53	14.093
668.86	17.289
669.18	17.108
669.50	16.899
669.83	17.600
670.15	17.323
670.48	18.254
670.80	14.532
671.13	17.769
671.45	18.307
671.77	19.209
672.10	17.000
672.42	17.314
672.75	18.280
673.07	17.463
673.39	16.949
673.72	16.946
674.04	17.759
674.37	16.100
674.69	17.284
675.01	17.143
675.34	17.748
675.66	17.790
675.98	16.045
676.31	16.211
676.63	19.772
676.95	17.241
677.28	18.750
677.60	12.795
677.92	18.618
678.25	15.722
678.57	16.548
678.89	18.601
679.22	16.028
679.54	17.436
679.86	15.593
680.18	16.418
680.51	15.409
680.83	18.167
681.15	18.103
681.48	17.789
681.80	17.098
682.12	16.259
682.44	16.861
682.77	17.553
683.09	17.614
683.41	17.636
683.73	17.647
684.06	16.605
684.38	13.238
684.70	18.133
685.02	17.212
685.34	15.807
685.67	16.562
685.99	15.951
686.31	14.826
686.63	15.956
686.96	17.981
687.28	18.730
687.60	14.646
687.92	16.399
688.24	15.693
688.56	15.345
688.89	15.426
689.21	19.178
689.53	17.451
689.85	14.596
690.17	15.370
690.49	14.542
690.82	12.475
691.14	14.980
691.46	15.105
691.78	16.943
692.10	14.862
692.42	13.571
692.74	15.064
693.06	12.593
693.39	16.698
693.71	13.158
694.03	13.941
694.35	16.571
694.67	16.838
694.99	15.957
695.31	16.336
695.63	11.688
695.95	16.770
696.27	12.527
696.59	14.159
696.91	15.090
697.23	14.725
697.56	13.035
697.88	13.636
698.20	14.124
698.52	17.992
698.84	14.345
699.16	16.939
699.48	15.063
699.80	13.617
700.12	13.974
700.44	14.747
700.76	16.627
701.08	16.465
701.40	15.285
701.72	13.433
702.04	13.904
702.36	10.995
702.68	13.447
703.00	11.980
703.32	11.823
703.64	14.425
703.96	14.320
704.28	14.742
704.60	14.684
704.91	14.286
705.23	13.699
705.55	12.256
705.87	14.242
706.19	11.963
706.51	8.434
706.83	11.239
707.15	11.111
707.47	13.551
707.79	12.664
708.11	9.534
708.43	13.763
708.74	10.045
709.06	13.689
709.38	15.493
709.70	13.896
710.02	12.920
710.34	14.362
710.66	12.849
710.98	12.842
711.29	9.890
711.61	12.712
711.93	13.960
712.25	10.541
712.57	13.274
712.89	14.118
713.20	9.467
713.52	12.717
713.84	11.142
714.16	12.632
714.48	12.629
714.80	14.026
715.11	11.286
715.43	9.284
715.75	11.316
716.07	12.707
716.39	14.481
716.70	12.651
717.02	10.820
717.34	8.362
717.66	12.416
717.97	7.877
718.29	12.371
718.61	7.895
718.93	11.327
719.24	10.870
719.56	8.896
719.88	9.009
720.20	15.484
720.51	12.112
720.83	10.625
721.15	10.197
721.46	6.164
721.78	12.333
722.10	11.974
722.42	9.732
722.73	8.387
723.05	7.368
723.37	9.375
723.68	15.771
724.00	11.552
724.32	10.915
724.63	12.587
724.95	8.865
725.27	9.408
725.58	11.307
725.90	11.034
726.22	9.718
726.53	12.987
726.85	13.208
727.16	12.085
727.48	12.538
727.80	7.616
728.11	8.127
728.43	9.428
728.74	7.358
729.06	9.934
729.38	12.338
729.69	12.416
730.01	7.738
730.32	8.182
730.64	10.692
730.96	7.453
731.27	16.201
731.59	11.538
731.90	10.649
732.22	13.281
732.53	11.326
732.85	10.571
733.16	9.091
733.48	8.841
733.80	9.192
734.11	11.396
734.43	14.054
734.74	14.937
735.06	11.558
735.37	11.081
735.69	11.081
736.00	9.322
736.32	9.164
736.63	10.833
736.95	9.770
737.26	13.636
737.58	6.667
737.89	14.706
738.21	9.174
738.52	6.885
738.83	10.922
739.15	9.574
739.46	8.163
739.78	8.589
740.09	14.040
740.41	12.828
740.72	10.000
741.04	13.592
741.35	10.877
741.66	7.843
741.98	11.885
742.29	9.205
742.61	12.719
742.92	7.692
743.23	9.747
743.55	9.302
743.86	9.200
744.18	7.025
744.49	6.329
744.80	10.700
745.12	4.641
745.43	7.724
745.74	7.759
746.06	7.627
746.37	13.502
746.68	12.602
747.00	11.667
747.31	6.009
747.62	8.846
747.94	7.287
748.25	5.221
748.56	4.082
748.88	4.701
749.19	9.914
749.50	3.030
749.82	8.434
750.13	11.388
750.44	9.000
750.75	12.000
751.07	7.385
751.38	13.249
751.69	11.182
752.01	11.327
752.32	11.111
752.63	7.483
752.94	8.651
753.26	8.922
753.57	8.519
753.88	8.989
754.19	9.968
754.51	9.968
754.82	11.897
755.13	12.459
755.44	10.922
755.75	11.513
756.07	11.940
756.38	12.579
756.69	12.651
757.00	8.587
757.31	8.743
757.63	9.463
757.94	10.798
758.25	11.287
758.56	9.150
758.87	11.136
759.18	11.200
759.50	13.031
759.81	11.204
760.12	11.860
760.43	12.500
760.74	12.808
761.05	10.000
761.36	10.361
761.67	8.376
761.99	10.270
762.30	8.537
762.61	6.601
762.92	3.358
763.23	9.363
763.54	10.432
763.85	8.935
764.16	10.438
764.47	10.563
764.78	9.265
765.10	7.038
765.41	11.795
765.72	8.201
766.03	10.452
766.34	5.956
766.65	5.575
766.96	5.976
767.27	11.982
767.58	2.985
767.89	9.615
768.20	6.573
768.51	3.241
768.82	8.032
769.13	6.061
769.44	1.154
769.75	9.025
770.06	11.154
770.37	11.811
770.68	2.979
770.99	2.024
771.30	12.222
771.61	7.985
771.92	5.926
772.23	7.692
772.54	-2.778
772.85	14.747
773.16	8.571
773.47	3.175
773.78	1.622
774.09	7.386
774.39	8.000
774.70	10.929
775.01	0.610
775.32	-1.765
775.63	6.748
775.94	-6.369
776.25	-0.645
776.56	5.128
776.87	3.401
777.18	-4.828
777.48	-0.699
777.79	0.676
778.10	-7.353
778.41	2.778
778.72	4.138
779.03	5.556
779.34	5.455
779.65	6.218
779.95	6.667
780.26	5.682
780.57	6.452
780.88	7.971
781.19	-0.645
781.50	3.529
781.80	3.226
782.11	7.937
782.42	-1.010
782.73	2.994
783.04	2.235
783.34	0.000
783.65	3.268
783.96	4.348
784.27	0.595
784.57	-1.987
784.88	2.857
785.19	-3.937
785.50	2.362
785.81	-0.752
786.11	-2.308
786.42	-2.878
786.73	-7.194
787.04	0.000
787.34	2.459
787.65	-5.600
787.96	5.224
788.26	8.392
788.57	5.594
788.88	3.289
789.19	11.765
789.49	0.000
789.80	-0.709
790.11	0.787
790.41	-3.125
790.72	-6.780
791.03	-20.388
791.33	-6.087
791.64	-2.632
791.95	-7.143
792.25	-0.952
792.56	-2.679
792.87	-7.292
793.17	0.000
793.48	-18.750
793.79	-15.663
794.09	0.917
794.40	-11.009
794.70	0.000
795.01	1.299
795.32	-4.110
795.62	4.225
795.93	-10.606
796.23	-3.279
796.54	-1.786
796.85	-14.894
797.15	-15.217
797.46	-16.438
797.76	-20.000
798.07	-11.957
798.37	-17.526
798.68	-20.779
798.99	-9.195
799.29	-4.494
799.60	-4.255
799.90	-19.277
800.21	-26.154
800.51	-19.403
800.82	-26.471
801.12	-21.918
801.43	-33.824
801.73	-50.847
802.04	-15.152
802.34	-23.333
802.65	-25.424
802.95	-14.925
803.26	-35.593
803.56	-23.288
803.87	-12.857
804.17	-1.370
804.48	-22.807
804.78	-18.056
805.09	-37.931
805.39	-5.405
805.70	-18.310
806.00	9.756
806.30	-16.867
806.61	-23.288
806.91	-7.692
807.22	-3.333
807.52	-21.839
807.83	-15.278
808.13	-9.639
808.43	-8.989
808.74	-8.750
809.04	-27.941
809.35	-6.667
809.65	-15.714
809.95	-15.068
810.26	-33.333
810.56	-12.069
810.86	-7.353
811.17	-31.579
811.47	-29.508
811.77	-42.222
812.08	-28.814
812.38	-16.667
812.69	-15.517
812.99	-28.302
813.29	-71.795
813.59	-22.000
813.90	-22.807
814.20	-43.636
814.50	-2.817
814.81	-12.821
815.11	-22.951
815.41	-23.881
815.72	-6.897
816.02	-37.500
816.32	-4.444
816.62	-34.091
816.93	-35.556
817.23	-18.519
817.53	-12.766
817.84	-28.571
818.14	-38.235
818.44	-36.735
818.74	-42.222
819.04	-51.282
819.35	-71.429
819.65	-96.154
819.95	-1.887
820.25	-15.556
820.56	-28.571
820.86	-37.500
821.16	-33.333
821.46	-55.814
821.76	-48.000
822.07	-21.429
822.37	-17.391
822.67	-14.894
822.97	-83.784
823.27	-70.000
823.57	-12.245
823.88	-28.889
824.18	-42.500
824.48	-66.667
824.78	-84.000
825.08	-51.515
825.38	-11.111
825.69	-21.277
825.99	-19.444
826.29	-80.000
826.59	-43.590
826.89	-39.535
827.19	-34.000
827.49	-38.235
827.79	-25.000
828.09	-62.162
828.39	-53.333
828.70	-29.268
829.00	-48.837
829.30	-78.571
829.60	-52.941
829.90	-34.783
830.20	-85.714
830.50	-106.897
830.80	-144.444
831.10	-100.000
831.40	-38.235
831.70	-61.905
832.00	-51.613
832.30	-135.294
832.60	-104.167
832.90	-223.077
833.20	-157.895
833.50	-95.000
833.80	-73.684
834.10	-142.857
834.40	-66.667
834.70	-46.875
835.00	-111.429
835.30	-29.412
835.60	-80.000
835.90	-84.000
836.20	-145.455
836.50	-76.000
836.80	-63.636
837.10	-70.370
837.40	-66.667
837.70	-162.500
838.00	-57.143
838.30	-113.043
838.60	-62.069
838.90	-107.143
839.19	-143.478
839.49	-175.000
839.79	-86.957
840.09	-175.000
840.39	-125.000
840.69	-35.484
840.99	-96.429
841.29	-113.333
841.59	-115.789
841.88	-38.462
842.18	-69.231
842.48	-240.000
842.78	-100.000
843.08	-20.000
843.38	-29.032
843.68	-116.667
843.97	-26.471
844.27	-118.750
844.57	-121.053
844.87	-240.000
845.17	-166.667
845.47	-61.905
845.76	-85.714
846.06	-166.667
846.36	-135.294
846.66	-42.308
846.96	-126.667
847.25	-94.118
847.55	-100.000
847.85	-65.000
848.15	-105.882
848.44	-154.545
848.74	-71.429
849.04	-100.000
849.34	-168.750
849.63	-65.217
849.93	1250.000
850.23	-113.333
850.53	-57.692
850.82	-218.182
851.12	-72.727
851.42	-218.182
851.71	-69.231
852.01	-105.000
852.31	-153.846
852.61	-84.211
852.90	-108.333
853.20	-116.667
853.50	-311.111
853.79	-109.524
854.09	-122.727
854.39	-225.000
854.68	-67.742
854.98	-96.154
855.28	-111.111
855.57	-64.286
855.87	-68.000
856.17	-86.364
856.46	-59.259
856.76	-94.444
857.05	-82.609
857.35	-58.333
857.65	-115.385
857.94	-57.143
858.24	-37.037
858.53	-30.435
858.83	-82.353
859.13	-82.353
859.42	-52.941
859.72	-71.429
860.01	-95.000
860.31	-233.333
860.60	-180.000
860.90	-140.000
861.20	-138.889
861.49	-184.615
861.79	-20.000
862.08	-107.692
862.38	-25.000
862.67	-88.235
862.97	-106.250
863.26	-255.556
863.56	-210.000
863.85	-236.364
864.15	-33.333
864.44	-700.000
864.74	-142.857
865.03	-112.500
865.33	-240.000
865.62	-83.871
865.92	-50.000
866.21	-39.130
866.51	-178.571
866.80	-620.000
867.10	-125.000
867.39	-200.000
867.69	2400.000
867.98	-242.857
868.27	-64.706
868.57	-3300.000
868.86	-170.000
869.16	-104.762
869.45	-58.333
869.75	-181.818
870.04	-342.857
870.33	-158.333
870.63	-357.143
870.92	-400.000
871.22	-337.500
871.51	-254.545
871.80	-966.667
872.10	-1350.000
>>>>>End Processed Spectral Data<<<<<
