SpectraSuite Data File
++++++++++++++++++++++++++++++++++++
Date: Thu May 14 16:00:41 PDT 2015
User: schluterlab
Dark Spectrum Present: Yes
Reference Spectrum Present: Yes
Number of Sampled Component Spectra: 1
Spectrometers: USB2E3373
Integration Time (usec): 3000 (USB2E3373)
Spectra Averaged: 3 (USB2E3373)
Boxcar Smoothing: 0 (USB2E3373)
Correct for Electrical Dark: No (USB2E3373)
Strobe/Lamp Enabled: No (USB2E3373)
Correct for Detector Non-linearity: No (USB2E3373)
Correct for Stray Light: No (USB2E3373)
Number of Pixels in Processed Spectrum: 2048
>>>>>Begin Processed Spectral Data<<<<<
178.53	0.000
178.91	200.000
179.29	-3300.000
179.67	-2300.000
180.04	214.286
180.42	260.000
180.80	540.000
181.18	-1600.000
181.56	-800.000
181.94	275.000
182.31	-425.000
182.69	566.667
183.07	-950.000
183.45	350.000
183.83	-283.333
184.20	-500.000
184.58	2100.000
184.96	-575.000
185.34	-288.889
185.72	-340.000
186.09	322.222
186.47	1450.000
186.85	600.000
187.23	-188.889
187.61	-2100.000
187.98	320.000
188.36	350.000
188.74	-375.000
189.12	-333.333
189.49	-37.500
189.87	-350.000
190.25	-155.556
190.63	-320.000
191.00	-300.000
191.38	0.000
191.76	-475.000
192.14	-250.000
192.51	850.000
192.89	-150.000
193.27	0.000
193.65	-14.286
194.02	-2600.000
194.40	-257.143
194.78	314.286
195.15	0.000
195.53	-145.455
195.91	0.000
196.29	-250.000
196.66	-138.462
197.04	-2300.000
197.42	-142.857
197.79	-1200.000
198.17	-175.000
198.55	-185.714
198.92	-133.333
199.30	-162.500
199.68	-54.545
200.05	7.143
200.43	-750.000
200.81	328.571
201.18	0.000
201.56	400.000
201.94	0.000
202.31	900.000
202.69	-155.556
203.07	1100.000
203.44	-266.667
203.82	-675.000
204.19	-75.000
204.57	-283.333
204.95	-275.000
205.32	-2500.000
205.70	575.000
206.08	-166.667
206.45	-250.000
206.83	400.000
207.20	-150.000
207.58	-600.000
207.96	-383.333
208.33	-116.667
208.71	183.333
209.08	-100.000
209.46	0.000
209.84	400.000
210.21	950.000
210.59	850.000
210.96	966.667
211.34	-400.000
211.71	-212.500
212.09	-2300.000
212.46	0.000
212.84	1750.000
213.22	-420.000
213.59	-275.000
213.97	-60.000
214.34	-633.333
214.72	316.667
215.09	-450.000
215.47	0.000
215.84	328.571
216.22	1150.000
216.59	-380.000
216.97	-300.000
217.34	-200.000
217.72	-100.000
218.09	-300.000
218.47	-550.000
218.84	0.000
219.22	380.000
219.59	-64.706
219.97	-40.000
220.34	550.000
220.72	-244.444
221.09	-84.615
221.47	-666.667
221.84	-140.000
222.22	-342.857
222.59	0.000
222.97	-250.000
223.34	-420.000
223.72	-1800.000
224.09	-450.000
224.46	-400.000
224.84	-360.000
225.21	-314.286
225.59	-300.000
225.96	-475.000
226.34	-42.308
226.71	350.000
227.08	-1300.000
227.46	-26.667
227.83	-350.000
228.21	-68.421
228.58	275.000
228.95	1050.000
229.33	-116.667
229.70	-130.000
230.08	-31.579
230.45	220.000
230.82	-266.667
231.20	-64.286
231.57	-58.333
231.95	-200.000
232.32	-200.000
232.69	-75.000
233.07	-425.000
233.44	-76.471
233.81	-210.000
234.19	16.667
234.56	-59.091
234.93	3.448
235.31	-31.579
235.68	-77.778
236.05	-75.000
236.43	3.846
236.80	-44.000
237.17	-59.259
237.55	-45.455
237.92	-190.000
238.29	-51.613
238.67	-31.818
239.04	-41.667
239.41	-61.905
239.79	-21.739
240.16	-24.074
240.53	-39.130
240.91	-49.020
241.28	-24.590
241.65	-8.955
242.02	-5.405
242.40	-20.000
242.77	-17.333
243.14	-19.512
243.51	-31.579
243.89	-25.641
244.26	-7.921
244.63	-13.725
245.00	-6.542
245.38	-14.035
245.75	-24.779
246.12	-6.349
246.49	-13.953
246.87	2.143
247.24	-4.636
247.61	2.632
247.98	-4.698
248.36	-3.704
248.73	-12.270
249.10	2.732
249.47	2.488
249.84	0.000
250.22	-3.627
250.59	-3.333
250.96	1.818
251.33	-7.143
251.70	-0.855
252.08	0.000
252.45	1.230
252.82	-4.545
253.19	-4.297
253.56	-2.281
253.94	0.000
254.31	0.758
254.68	4.545
255.05	4.886
255.42	2.381
255.79	3.883
256.16	-0.662
256.54	0.000
256.91	-0.328
257.28	-1.639
257.65	-2.229
258.02	-2.655
258.39	0.000
258.76	2.141
259.14	1.724
259.51	-0.288
259.88	-1.133
260.25	-3.056
260.62	0.548
260.99	4.372
261.36	1.072
261.73	-2.918
262.10	-1.099
262.47	-1.609
262.85	3.283
263.22	-0.779
263.59	-2.368
263.96	4.092
264.33	0.512
264.70	1.235
265.07	2.864
265.44	4.308
265.81	0.926
266.18	2.268
266.55	0.446
266.92	-1.367
267.29	1.532
267.66	1.552
268.03	1.528
268.40	0.835
268.77	-1.139
269.14	-0.661
269.51	0.219
269.88	4.508
270.25	2.012
270.62	1.266
270.99	5.253
271.36	2.574
271.73	0.982
272.10	2.204
272.47	-0.200
272.84	2.410
273.21	0.802
273.58	1.008
273.95	0.962
274.32	-0.570
274.69	0.387
275.06	1.099
275.43	3.327
275.80	2.116
276.17	1.481
276.54	1.493
276.91	0.894
277.28	2.712
277.65	2.154
278.02	1.838
278.39	1.812
278.76	0.000
279.13	1.418
279.50	1.890
279.87	2.862
280.23	-0.352
280.60	3.220
280.97	3.454
281.34	0.509
281.71	1.692
282.08	1.827
282.45	0.164
282.82	0.942
283.19	0.162
283.56	0.000
283.92	3.904
284.29	3.791
284.66	3.284
285.03	-0.321
285.40	3.709
285.77	1.393
286.14	2.137
286.51	3.805
286.87	0.790
287.24	2.259
287.61	1.046
287.98	0.453
288.35	1.923
288.72	2.515
289.08	3.075
289.45	1.627
289.82	1.205
290.19	2.874
290.56	3.380
290.93	1.141
291.29	2.617
291.66	2.066
292.03	2.849
292.40	3.265
292.77	0.809
293.13	2.030
293.50	2.760
293.87	1.477
294.24	3.867
294.60	4.425
294.97	0.268
295.34	2.433
295.71	2.774
296.08	2.067
296.44	2.328
296.81	2.558
297.18	2.615
297.55	1.769
297.91	2.254
298.28	2.488
298.65	2.497
299.02	2.361
299.38	3.547
299.75	3.154
300.12	1.620
300.48	3.111
300.85	2.587
301.22	2.461
301.59	2.169
301.95	2.373
302.32	4.111
302.69	3.176
303.05	4.461
303.42	3.326
303.79	3.229
304.15	3.155
304.52	2.008
304.89	3.141
305.25	3.209
305.62	3.239
305.99	3.918
306.35	4.032
306.72	4.137
307.09	3.553
307.45	4.348
307.82	4.137
308.19	4.339
308.55	5.304
308.92	4.771
309.29	5.651
309.65	4.971
310.02	4.752
310.38	4.921
310.75	4.078
311.12	5.465
311.48	6.158
311.85	6.173
312.22	6.072
312.58	5.352
312.95	6.501
313.31	6.865
313.68	6.868
314.05	7.046
314.41	8.379
314.78	7.902
315.14	9.074
315.51	8.587
315.87	8.371
316.24	9.315
316.61	10.480
316.97	8.778
317.34	10.053
317.70	10.568
318.07	10.935
318.43	10.714
318.80	12.124
319.16	11.159
319.53	11.054
319.89	11.832
320.26	13.434
320.62	12.411
320.99	14.035
321.35	14.325
321.72	16.000
322.08	13.977
322.45	16.441
322.81	16.606
323.18	15.929
323.54	18.448
323.91	18.060
324.27	17.900
324.64	19.647
325.00	19.735
325.37	20.475
325.73	21.322
326.10	22.222
326.46	22.638
326.83	22.898
327.19	24.016
327.56	23.715
327.92	23.997
328.29	24.758
328.65	25.377
329.01	26.396
329.38	25.779
329.74	27.226
330.11	27.055
330.47	26.453
330.84	26.701
331.20	28.333
331.56	28.423
331.93	28.117
332.29	29.322
332.66	28.904
333.02	28.811
333.38	28.188
333.75	29.040
334.11	28.274
334.48	30.198
334.84	30.331
335.20	29.639
335.57	29.933
335.93	30.413
336.29	29.617
336.66	30.530
337.02	29.264
337.38	31.803
337.75	29.256
338.11	31.455
338.47	31.348
338.84	31.980
339.20	30.666
339.56	30.066
339.93	29.803
340.29	30.837
340.65	30.738
341.02	30.567
341.38	31.851
341.74	30.266
342.11	31.698
342.47	30.898
342.83	32.528
343.20	33.034
343.56	31.836
343.92	32.426
344.28	32.578
344.65	32.403
345.01	31.981
345.37	32.193
345.73	32.424
346.10	32.137
346.46	32.199
346.82	32.360
347.19	33.155
347.55	32.170
347.91	32.838
348.27	33.915
348.63	33.435
349.00	32.886
349.36	33.606
349.72	33.333
350.08	33.952
350.45	34.068
350.81	34.842
351.17	33.910
351.53	33.131
351.89	34.624
352.26	33.507
352.62	34.478
352.98	33.740
353.34	34.653
353.70	35.131
354.07	34.873
354.43	34.244
354.79	33.657
355.15	34.584
355.51	35.746
355.87	33.957
356.24	35.057
356.60	36.068
356.96	35.730
357.32	34.052
357.68	35.359
358.04	36.452
358.40	35.224
358.77	35.307
359.13	35.746
359.49	36.952
359.85	35.606
360.21	36.370
360.57	35.822
360.93	35.896
361.29	37.754
361.66	34.902
362.02	37.787
362.38	37.316
362.74	35.754
363.10	37.070
363.46	37.396
363.82	38.210
364.18	38.635
364.54	38.658
364.90	37.659
365.26	37.103
365.62	38.067
365.98	39.006
366.35	37.718
366.71	38.844
367.07	38.701
367.43	38.411
367.79	38.885
368.15	40.268
368.51	38.295
368.87	38.537
369.23	39.667
369.59	40.027
369.95	39.621
370.31	39.635
370.67	40.165
371.03	39.543
371.39	39.019
371.75	40.371
372.11	39.160
372.47	39.066
372.83	39.987
373.19	39.093
373.55	40.718
373.91	40.423
374.27	40.686
374.63	39.716
374.99	38.926
375.35	40.779
375.71	41.032
376.07	40.542
376.42	40.176
376.78	41.206
377.14	41.609
377.50	43.454
377.86	42.118
378.22	41.856
378.58	41.855
378.94	41.725
379.30	41.769
379.66	42.269
380.02	42.123
380.38	42.224
380.74	43.042
381.09	42.509
381.45	41.534
381.81	43.560
382.17	42.518
382.53	43.626
382.89	42.099
383.25	42.556
383.61	42.940
383.97	42.874
384.32	43.182
384.68	41.415
385.04	42.510
385.40	43.665
385.76	44.197
386.12	42.908
386.48	43.000
386.83	43.325
387.19	42.874
387.55	42.371
387.91	41.895
388.27	43.591
388.62	42.325
388.98	41.737
389.34	42.369
389.70	42.417
390.06	42.747
390.42	42.590
390.77	43.287
391.13	43.310
391.49	43.478
391.85	43.273
392.20	43.594
392.56	44.123
392.92	43.184
393.28	42.952
393.64	42.961
393.99	43.637
394.35	43.341
394.71	44.072
395.07	42.036
395.42	42.604
395.78	43.754
396.14	42.305
396.50	42.755
396.85	43.292
397.21	42.722
397.57	42.580
397.92	42.383
398.28	41.662
398.64	42.735
399.00	41.832
399.35	42.984
399.71	42.337
400.07	42.617
400.42	42.200
400.78	42.188
401.14	41.833
401.49	43.036
401.85	43.547
402.21	43.511
402.57	44.014
402.92	41.962
403.28	42.623
403.63	42.005
403.99	41.330
404.35	41.615
404.70	41.246
405.06	40.924
405.42	41.511
405.77	42.966
406.13	41.005
406.49	41.610
406.84	41.662
407.20	41.420
407.55	41.914
407.91	40.855
408.27	40.106
408.62	41.594
408.98	41.497
409.34	40.528
409.69	40.173
410.05	41.032
410.40	41.821
410.76	41.279
411.11	40.386
411.47	40.295
411.83	41.035
412.18	40.663
412.54	40.605
412.89	41.094
413.25	40.463
413.60	40.437
413.96	41.550
414.31	39.433
414.67	40.668
415.03	38.092
415.38	41.173
415.74	39.157
416.09	40.407
416.45	39.699
416.80	39.780
417.16	39.591
417.51	39.975
417.87	40.037
418.22	39.760
418.58	39.901
418.93	39.581
419.29	39.396
419.64	40.696
420.00	40.000
420.35	40.146
420.71	39.862
421.06	39.850
421.42	39.966
421.77	39.634
422.12	40.169
422.48	40.041
422.83	39.869
423.19	39.682
423.54	40.597
423.90	40.641
424.25	40.480
424.61	40.184
424.96	40.033
425.31	41.507
425.67	39.667
426.02	41.284
426.38	40.528
426.73	39.509
427.09	41.234
427.44	40.033
427.79	40.464
428.15	40.011
428.50	41.011
428.85	40.299
429.21	41.011
429.56	38.993
429.92	38.428
430.27	40.723
430.62	40.938
430.98	40.089
431.33	40.420
431.68	39.511
432.04	40.071
432.39	40.707
432.74	40.011
433.10	39.913
433.45	39.799
433.80	39.968
434.16	40.393
434.51	41.264
434.86	41.368
435.22	40.542
435.57	40.035
435.92	40.957
436.28	40.842
436.63	41.344
436.98	39.399
437.34	40.079
437.69	40.231
438.04	39.714
438.39	40.666
438.75	40.011
439.10	41.121
439.45	39.631
439.81	40.282
440.16	40.000
440.51	40.022
440.86	39.633
441.22	40.407
441.57	40.252
441.92	39.331
442.27	40.202
442.63	39.891
442.98	40.128
443.33	40.032
443.68	40.188
444.03	41.110
444.39	39.898
444.74	39.714
445.09	40.294
445.44	39.937
445.79	39.751
446.15	39.568
446.50	39.793
446.85	39.348
447.20	38.926
447.55	39.854
447.91	38.953
448.26	39.429
448.61	39.373
448.96	40.719
449.31	38.865
449.66	39.107
450.02	39.188
450.37	40.064
450.72	40.151
451.07	38.895
451.42	39.861
451.77	38.355
452.12	38.883
452.47	39.037
452.83	39.583
453.18	39.288
453.53	39.747
453.88	38.045
454.23	39.492
454.58	39.176
454.93	38.532
455.28	39.494
455.63	38.147
455.98	38.380
456.34	38.045
456.69	37.978
457.04	37.589
457.39	38.525
457.74	38.814
458.09	38.660
458.44	38.470
458.79	38.061
459.14	38.018
459.49	37.634
459.84	37.880
460.19	36.924
460.54	38.217
460.89	37.480
461.24	36.609
461.59	38.572
461.94	37.079
462.29	38.130
462.64	36.572
462.99	37.225
463.34	37.508
463.69	36.166
464.04	37.688
464.39	37.108
464.74	36.431
465.09	36.736
465.44	35.730
465.79	36.330
466.14	36.008
466.49	37.000
466.84	36.694
467.19	35.607
467.54	36.134
467.89	36.149
468.24	36.177
468.59	35.727
468.94	35.082
469.29	34.793
469.64	35.537
469.99	36.010
470.34	34.901
470.68	36.842
471.03	36.870
471.38	35.513
471.73	35.761
472.08	34.708
472.43	34.618
472.78	36.020
473.13	34.956
473.48	35.227
473.83	35.810
474.17	34.818
474.52	35.538
474.87	35.271
475.22	35.155
475.57	33.749
475.92	34.993
476.27	34.505
476.61	35.202
476.96	33.994
477.31	34.802
477.66	34.470
478.01	34.215
478.36	33.649
478.70	34.236
479.05	34.305
479.40	34.008
479.75	34.006
480.10	34.439
480.45	34.458
480.79	34.830
481.14	33.640
481.49	33.667
481.84	34.508
482.19	33.634
482.53	34.106
482.88	33.895
483.23	33.659
483.58	32.926
483.92	32.402
484.27	33.658
484.62	32.467
484.97	33.165
485.31	32.594
485.66	31.677
486.01	31.764
486.36	32.435
486.70	33.911
487.05	34.132
487.40	33.457
487.75	32.850
488.09	32.432
488.44	32.429
488.79	32.951
489.13	31.825
489.48	31.184
489.83	31.066
490.17	31.592
490.52	31.158
490.87	31.430
491.22	31.239
491.56	31.613
491.91	31.792
492.26	31.588
492.60	31.045
492.95	31.681
493.30	31.242
493.64	31.143
493.99	30.132
494.34	30.618
494.68	30.236
495.03	31.454
495.37	30.759
495.72	30.884
496.07	30.456
496.41	29.944
496.76	31.401
497.11	30.318
497.45	30.729
497.80	30.386
498.14	30.385
498.49	30.055
498.84	30.210
499.18	30.859
499.53	30.852
499.87	29.714
500.22	30.232
500.56	29.375
500.91	29.794
501.26	29.409
501.60	29.474
501.95	29.136
502.29	28.960
502.64	29.515
502.98	28.732
503.33	28.985
503.67	29.176
504.02	29.028
504.36	29.491
504.71	28.663
505.06	28.831
505.40	28.291
505.75	28.552
506.09	29.052
506.44	28.041
506.78	28.761
507.13	28.354
507.47	28.328
507.82	27.936
508.16	27.199
508.51	27.661
508.85	28.436
509.19	28.091
509.54	28.242
509.88	27.975
510.23	28.169
510.57	28.855
510.92	28.302
511.26	27.273
511.61	26.654
511.95	27.574
512.30	27.474
512.64	26.537
512.98	26.513
513.33	28.175
513.67	26.874
514.02	26.929
514.36	27.110
514.70	26.979
515.05	27.059
515.39	26.929
515.74	27.147
516.08	25.885
516.42	27.368
516.77	27.182
517.11	26.199
517.46	26.935
517.80	26.670
518.14	26.496
518.49	26.898
518.83	25.971
519.17	26.064
519.52	26.153
519.86	26.241
520.20	25.506
520.55	26.123
520.89	26.070
521.23	24.735
521.58	25.932
521.92	25.552
522.26	24.055
522.61	26.042
522.95	25.087
523.29	24.713
523.64	24.720
523.98	25.556
524.32	26.533
524.66	24.417
525.01	25.481
525.35	24.813
525.69	24.420
526.04	23.995
526.38	24.080
526.72	24.683
527.06	24.340
527.41	23.732
527.75	25.713
528.09	24.144
528.43	24.748
528.78	23.873
529.12	23.853
529.46	24.115
529.80	23.970
530.15	24.290
530.49	23.369
530.83	24.498
531.17	24.194
531.51	24.428
531.86	24.760
532.20	24.146
532.54	23.519
532.88	23.636
533.22	23.571
533.57	24.178
533.91	23.457
534.25	23.347
534.59	23.736
534.93	23.316
535.27	23.211
535.62	23.536
535.96	23.649
536.30	22.973
536.64	22.943
536.98	23.186
537.32	22.716
537.66	22.084
538.01	21.934
538.35	22.594
538.69	22.776
539.03	23.299
539.37	22.497
539.71	22.763
540.05	22.902
540.39	21.944
540.73	21.797
541.07	22.195
541.42	21.796
541.76	21.767
542.10	22.859
542.44	21.681
542.78	21.290
543.12	21.097
543.46	21.734
543.80	20.803
544.14	21.544
544.48	22.045
544.82	21.724
545.16	21.407
545.50	21.150
545.84	21.249
546.18	21.975
546.52	21.911
546.86	21.635
547.20	21.310
547.54	21.910
547.88	21.097
548.22	20.643
548.56	20.538
548.90	21.313
549.24	20.851
549.58	20.694
549.92	20.472
550.26	20.971
550.60	20.421
550.94	20.763
551.28	21.056
551.62	20.889
551.96	20.259
552.30	20.905
552.64	19.602
552.98	20.087
553.32	21.415
553.66	20.514
554.00	21.185
554.34	20.399
554.68	20.207
555.02	20.237
555.36	20.447
555.69	19.731
556.03	19.672
556.37	19.650
556.71	19.594
557.05	21.022
557.39	19.376
557.73	19.815
558.07	20.132
558.41	19.668
558.75	19.675
559.08	20.529
559.42	19.616
559.76	19.878
560.10	19.156
560.44	18.338
560.78	20.250
561.12	18.781
561.45	19.586
561.79	18.681
562.13	19.778
562.47	19.236
562.81	19.114
563.15	19.508
563.48	19.826
563.82	19.528
564.16	19.382
564.50	18.832
564.84	17.817
565.17	18.353
565.51	18.815
565.85	18.765
566.19	18.145
566.52	18.549
566.86	17.940
567.20	18.162
567.54	19.703
567.88	18.196
568.21	18.775
568.55	18.897
568.89	18.293
569.23	18.293
569.56	18.679
569.90	18.460
570.24	18.516
570.57	18.377
570.91	17.942
571.25	17.559
571.59	18.564
571.92	17.537
572.26	17.920
572.60	17.772
572.93	18.035
573.27	17.674
573.61	18.184
573.95	17.868
574.28	18.010
574.62	17.485
574.96	17.512
575.29	17.206
575.63	17.672
575.97	17.605
576.30	17.493
576.64	17.657
576.98	17.813
577.31	18.025
577.65	17.809
577.98	17.376
578.32	17.595
578.66	17.037
578.99	17.366
579.33	17.274
579.67	17.112
580.00	17.307
580.34	17.212
580.67	16.880
581.01	17.265
581.35	17.124
581.68	17.303
582.02	17.117
582.35	16.869
582.69	16.952
583.02	17.118
583.36	17.457
583.70	17.019
584.03	16.775
584.37	17.329
584.70	16.699
585.04	16.578
585.37	16.659
585.71	16.915
586.04	16.821
586.38	16.365
586.72	16.596
587.05	16.628
587.39	16.480
587.72	16.914
588.06	16.731
588.39	16.903
588.73	16.561
589.06	16.958
589.40	16.533
589.73	15.810
590.07	16.313
590.40	16.362
590.73	16.225
591.07	16.642
591.40	16.058
591.74	15.660
592.07	16.240
592.41	15.733
592.74	16.223
593.08	15.955
593.41	16.652
593.75	16.034
594.08	15.965
594.41	15.865
594.75	15.443
595.08	15.478
595.42	15.714
595.75	15.725
596.09	15.961
596.42	15.729
596.75	16.712
597.09	16.283
597.42	15.654
597.75	15.406
598.09	16.111
598.42	16.244
598.76	15.132
599.09	14.881
599.42	15.220
599.76	15.517
600.09	15.516
600.42	15.716
600.76	15.291
601.09	15.533
601.42	15.036
601.76	15.586
602.09	15.011
602.42	15.158
602.76	14.982
603.09	14.868
603.42	15.571
603.76	14.693
604.09	15.259
604.42	14.899
604.76	14.840
605.09	15.237
605.42	15.152
605.75	14.769
606.09	14.894
606.42	15.213
606.75	14.393
607.09	14.132
607.42	15.299
607.75	14.732
608.08	14.957
608.42	14.873
608.75	15.340
609.08	14.346
609.41	14.998
609.75	14.286
610.08	15.040
610.41	14.231
610.74	14.538
611.07	14.432
611.41	15.067
611.74	14.596
612.07	14.399
612.40	14.449
612.73	14.670
613.07	15.012
613.40	14.485
613.73	14.685
614.06	14.573
614.39	14.626
614.72	13.828
615.06	14.293
615.39	14.065
615.72	13.981
616.05	14.036
616.38	15.035
616.71	14.002
617.05	13.685
617.38	14.928
617.71	14.417
618.04	13.546
618.37	15.082
618.70	13.801
619.03	13.560
619.36	13.810
619.69	13.581
620.03	13.936
620.36	13.742
620.69	13.448
621.02	13.714
621.35	13.861
621.68	14.244
622.01	14.235
622.34	13.250
622.67	13.471
623.00	11.876
623.33	13.470
623.66	13.878
623.99	13.430
624.32	14.815
624.65	13.256
624.99	13.589
625.32	13.717
625.65	14.026
625.98	13.763
626.31	13.536
626.64	13.114
626.97	13.128
627.30	13.136
627.63	13.728
627.96	13.138
628.29	13.230
628.62	11.839
628.95	13.409
629.28	14.359
629.61	12.290
629.94	12.301
630.26	12.797
630.59	12.694
630.92	11.861
631.25	13.685
631.58	13.748
631.91	13.027
632.24	12.392
632.57	13.567
632.90	11.836
633.23	12.347
633.56	12.755
633.89	11.983
634.22	12.890
634.55	14.196
634.88	11.255
635.20	13.563
635.53	12.768
635.86	12.243
636.19	14.210
636.52	13.291
636.85	12.462
637.18	11.954
637.51	10.645
637.83	13.511
638.16	13.825
638.49	12.324
638.82	11.387
639.15	11.226
639.48	13.857
639.81	12.933
640.13	12.485
640.46	11.636
640.79	11.397
641.12	12.795
641.45	10.665
641.77	14.121
642.10	11.286
642.43	12.234
642.76	11.247
643.09	11.781
643.41	11.204
643.74	13.103
644.07	12.966
644.40	11.740
644.73	9.144
645.05	11.894
645.38	12.230
645.71	11.730
646.04	13.343
646.36	9.489
646.69	11.656
647.02	14.679
647.35	10.229
647.67	11.916
648.00	10.987
648.33	10.811
648.66	11.555
648.98	10.884
649.31	11.773
649.64	11.554
649.96	11.804
650.29	10.153
650.62	11.740
650.94	10.511
651.27	9.132
651.60	11.988
651.92	11.094
652.25	11.143
652.58	12.655
652.90	10.174
653.23	12.113
653.56	10.984
653.88	13.202
654.21	12.535
654.54	10.405
654.86	12.323
655.19	11.418
655.52	12.131
655.84	12.323
656.17	14.887
656.49	20.966
656.82	23.204
657.15	17.569
657.47	13.307
657.80	9.813
658.13	7.658
658.45	10.060
658.78	11.955
659.10	11.499
659.43	11.520
659.75	10.904
660.08	9.804
660.41	9.016
660.73	9.008
661.06	10.279
661.38	11.005
661.71	10.172
662.03	7.937
662.36	10.912
662.68	8.630
663.01	12.389
663.33	10.208
663.66	12.454
663.98	10.577
664.31	9.756
664.63	7.900
664.96	10.163
665.28	9.437
665.61	13.636
665.93	9.821
666.26	11.470
666.58	8.487
666.91	10.093
667.23	11.429
667.56	9.862
667.88	10.400
668.21	7.422
668.53	8.301
668.86	10.806
669.18	9.980
669.50	7.952
669.83	9.400
670.15	7.283
670.48	9.524
670.80	7.266
671.13	8.885
671.45	10.433
671.77	9.605
672.10	10.000
672.42	9.061
672.75	9.370
673.07	9.552
673.39	8.629
673.72	9.899
674.04	10.345
674.37	10.555
674.69	8.995
675.01	7.810
675.34	8.969
675.66	8.614
675.98	11.194
676.31	7.031
676.63	10.076
676.95	10.920
677.28	9.476
677.60	7.087
677.92	9.213
678.25	9.506
678.57	10.320
678.89	8.703
679.22	8.537
679.54	7.179
679.86	7.288
680.18	9.453
680.51	6.918
680.83	8.674
681.15	7.759
681.48	9.326
681.80	11.226
682.12	8.741
682.44	10.017
682.77	8.156
683.09	7.955
683.41	9.302
683.73	10.436
684.06	7.749
684.38	6.619
684.70	10.233
685.02	10.327
685.34	8.652
685.67	8.833
685.99	6.748
686.31	8.430
686.63	10.900
686.96	9.464
687.28	9.609
687.60	7.744
687.92	7.395
688.24	11.519
688.56	8.103
688.89	8.530
689.21	8.806
689.53	6.863
689.85	7.495
690.17	9.815
690.49	8.765
690.82	8.317
691.14	8.300
691.46	9.178
691.78	9.576
692.10	7.890
692.42	7.321
692.74	7.623
693.06	9.444
693.39	8.918
693.71	8.459
694.03	8.922
694.35	8.762
694.67	9.446
694.99	7.447
695.31	8.389
695.63	8.442
695.95	7.453
696.27	8.352
696.59	8.407
696.91	6.982
697.23	9.011
697.56	7.332
697.88	6.250
698.20	8.098
698.52	10.985
698.84	7.277
699.16	7.143
699.48	6.485
699.80	7.021
700.12	7.424
700.44	7.604
700.76	6.888
701.08	6.538
701.40	7.254
701.72	7.463
702.04	5.080
702.36	4.712
702.68	5.379
703.00	5.623
703.32	5.665
703.64	7.335
703.96	7.876
704.28	8.354
704.60	9.620
704.91	5.867
705.23	9.589
705.55	7.521
705.87	4.848
706.19	7.669
706.51	6.024
706.83	6.052
707.15	4.233
707.47	5.841
707.79	7.205
708.11	5.297
708.43	5.591
708.74	4.688
709.06	6.032
709.38	8.685
709.70	7.692
710.02	6.460
710.34	7.979
710.66	5.307
710.98	6.011
711.29	5.220
711.61	7.627
711.93	6.268
712.25	7.838
712.57	7.670
712.89	6.176
713.20	6.805
713.52	8.960
713.84	7.521
714.16	7.895
714.48	7.474
714.80	11.429
715.11	6.824
715.43	7.427
715.75	5.526
716.07	7.182
716.39	8.197
716.70	6.627
717.02	4.262
717.34	4.878
717.66	4.698
717.97	5.137
718.29	5.155
718.61	3.947
718.93	5.178
719.24	6.522
719.56	3.681
719.88	6.607
720.20	6.129
720.51	5.590
720.83	3.750
721.15	1.316
721.46	1.712
721.78	3.333
722.10	6.472
722.42	4.362
722.73	0.968
723.05	4.211
723.37	3.125
723.68	7.527
724.00	3.971
724.32	3.873
724.63	4.196
724.95	5.319
725.27	1.742
725.58	5.654
725.90	4.138
726.22	4.389
726.53	5.519
726.85	5.660
727.16	8.459
727.48	5.810
727.80	4.967
728.11	2.827
728.43	5.387
728.74	6.689
729.06	6.954
729.38	4.221
729.69	5.369
730.01	4.464
730.32	1.515
730.64	4.717
730.96	1.863
731.27	8.101
731.59	6.593
731.90	5.714
732.22	7.552
732.53	3.315
732.85	5.714
733.16	3.519
733.48	1.829
733.80	6.407
734.11	4.843
734.43	6.216
734.74	6.835
735.06	3.769
735.37	3.514
735.69	4.324
736.00	5.367
736.32	2.965
736.63	4.722
736.95	3.448
737.26	5.455
737.58	6.061
737.89	5.882
738.21	4.281
738.52	2.623
738.83	5.802
739.15	3.191
739.46	6.122
739.78	8.589
740.09	3.152
740.41	5.831
740.72	5.000
741.04	5.178
741.35	3.860
741.66	4.706
741.98	5.738
742.29	5.439
742.61	2.193
742.92	3.462
743.23	3.610
743.55	-0.388
743.86	4.000
744.18	-2.066
744.49	0.422
744.80	6.584
745.12	3.376
745.43	6.098
745.74	3.017
746.06	4.661
746.37	6.751
746.68	5.285
747.00	-0.833
747.31	2.146
747.62	6.154
747.94	1.619
748.25	0.402
748.56	1.224
748.88	1.282
749.19	7.328
749.50	5.195
749.82	6.827
750.13	7.473
750.44	-1.667
750.75	4.308
751.07	6.769
751.38	2.524
751.69	3.834
752.01	1.942
752.32	4.902
752.63	2.721
752.94	1.384
753.26	1.487
753.57	-1.111
753.88	1.873
754.19	4.502
754.51	0.643
754.82	2.894
755.13	7.541
755.44	3.413
755.75	3.618
756.07	8.657
756.38	2.516
756.69	4.819
757.00	3.047
757.31	4.645
757.63	3.581
757.94	7.277
758.25	6.772
758.56	6.972
758.87	5.227
759.18	4.267
759.50	4.816
759.81	4.762
760.12	4.852
760.43	4.167
760.74	6.404
761.05	4.500
761.36	3.373
761.67	3.807
761.99	1.081
762.30	0.610
762.61	2.640
762.92	5.224
763.23	4.494
763.54	2.518
763.85	6.529
764.16	3.030
764.47	1.408
764.78	8.946
765.10	3.812
765.41	8.974
765.72	1.323
766.03	4.802
766.34	1.254
766.65	-1.742
766.96	3.187
767.27	4.147
767.58	-4.478
767.89	2.404
768.20	-1.878
768.51	2.778
768.82	7.229
769.13	0.379
769.44	-4.615
769.75	5.054
770.06	3.462
770.37	5.118
770.68	-2.553
770.99	-3.239
771.30	6.667
771.61	2.662
771.92	1.852
772.23	5.668
772.54	1.389
772.85	8.295
773.16	7.143
773.47	-3.175
773.78	-2.162
774.09	1.705
774.39	8.500
774.70	4.918
775.01	-2.439
775.32	-2.941
775.63	-4.294
775.94	-10.191
776.25	-1.290
776.56	4.487
776.87	4.082
777.18	-4.828
777.48	0.699
777.79	0.000
778.10	-5.882
778.41	-2.778
778.72	4.828
779.03	-3.086
779.34	-6.061
779.65	3.627
779.95	0.000
780.26	3.977
780.57	-1.935
780.88	5.072
781.19	3.226
781.50	1.765
781.80	0.538
782.11	3.175
782.42	-2.525
782.73	-2.395
783.04	-1.117
783.34	-4.848
783.65	-3.268
783.96	1.863
784.27	-5.357
784.57	-1.987
784.88	-9.286
785.19	-6.299
785.50	-3.150
785.81	-3.759
786.11	-3.846
786.42	-4.317
786.73	-3.597
787.04	2.256
787.34	-2.459
787.65	-1.600
787.96	-8.209
788.26	-2.098
788.57	1.399
788.88	-11.184
789.19	3.922
789.49	-4.110
789.80	-0.709
790.11	-5.512
790.41	-11.719
790.72	-4.237
791.03	-13.592
791.33	-0.870
791.64	-1.754
791.95	-8.036
792.25	1.905
792.56	-8.929
792.87	-9.375
793.17	-5.357
793.48	-12.500
793.79	-26.506
794.09	-11.927
794.40	-13.761
794.70	-1.361
795.01	-5.844
795.32	-6.164
795.62	-4.930
795.93	-10.606
796.23	-7.377
796.54	-16.964
796.85	-9.574
797.15	-10.870
797.46	-17.808
797.76	-13.750
798.07	-7.609
798.37	-12.371
798.68	-20.779
798.99	-19.540
799.29	-5.618
799.60	-5.319
799.90	-16.867
800.21	-21.538
800.51	-29.851
800.82	-16.176
801.12	-28.767
801.43	-25.000
801.73	-16.949
802.04	-9.091
802.34	-38.333
802.65	-16.949
802.95	-8.955
803.26	-25.424
803.56	-13.699
803.87	-5.714
804.17	-9.589
804.48	-40.351
804.78	-8.333
805.09	-10.345
805.39	-18.919
805.70	-19.718
806.00	-10.976
806.30	-18.072
806.61	-12.329
806.91	-0.962
807.22	-8.889
807.52	-18.391
807.83	-1.389
808.13	0.000
808.43	-5.618
808.74	-8.750
809.04	-39.706
809.35	-12.000
809.65	-17.143
809.95	-16.438
810.26	-33.333
810.56	-18.966
810.86	-14.706
811.17	-21.053
811.47	-27.869
811.77	-42.222
812.08	-25.424
812.38	-10.000
812.69	-10.345
812.99	-33.962
813.29	-56.410
813.59	-24.000
813.90	-17.544
814.20	-21.818
814.50	-5.634
814.81	-2.564
815.11	-11.475
815.41	-10.448
815.72	-17.241
816.02	-5.357
816.32	-6.667
816.62	-9.091
816.93	-33.333
817.23	-24.074
817.53	-27.660
817.84	-26.190
818.14	-35.294
818.44	-26.531
818.74	-15.556
819.04	-28.205
819.35	-34.286
819.65	-119.231
819.95	-22.642
820.25	-28.889
820.56	-26.190
820.86	-56.250
821.16	-61.538
821.46	-37.209
821.76	-46.000
822.07	-7.143
822.37	-30.435
822.67	-29.787
822.97	-59.459
823.27	-22.500
823.57	-16.327
823.88	-26.667
824.18	-22.500
824.48	-60.000
824.78	-88.000
825.08	-21.212
825.38	-22.222
825.69	-17.021
825.99	-36.111
826.29	-62.857
826.59	-43.590
826.89	-39.535
827.19	-26.000
827.49	-44.118
827.79	-14.583
828.09	-59.459
828.39	-60.000
828.70	-29.268
829.00	-30.233
829.30	-75.000
829.60	-23.529
829.90	-34.783
830.20	-51.429
830.50	-58.621
830.80	-66.667
831.10	-38.462
831.40	-41.176
831.70	-95.238
832.00	-32.258
832.30	-223.529
832.60	-112.500
832.90	-169.231
833.20	-126.316
833.50	-135.000
833.80	-110.526
834.10	-114.286
834.40	-27.778
834.70	-21.875
835.00	-62.857
835.30	-44.118
835.60	-56.667
835.90	-80.000
836.20	-140.909
836.50	-68.000
836.80	-72.727
837.10	-55.556
837.40	-48.148
837.70	-87.500
838.00	-32.143
838.30	-104.348
838.60	-41.379
838.90	-135.714
839.19	-126.087
839.49	-208.333
839.79	-95.652
840.09	-162.500
840.39	-95.000
840.69	-45.161
840.99	-60.714
841.29	-113.333
841.59	-94.737
841.88	-12.821
842.18	-84.615
842.48	-230.000
842.78	-60.000
843.08	-23.333
843.38	-22.581
843.68	-100.000
843.97	-29.412
844.27	-87.500
844.57	-131.579
844.87	-220.000
845.17	-93.333
845.47	-52.381
845.76	-76.190
846.06	-255.556
846.36	-88.235
846.66	-73.077
846.96	-120.000
847.25	-123.529
847.55	-82.609
847.85	-115.000
848.15	-111.765
848.44	-154.545
848.74	-95.238
849.04	-83.333
849.34	-100.000
849.63	-30.435
849.93	1150.000
850.23	-86.667
850.53	-19.231
850.82	-145.455
851.12	-63.636
851.42	-45.455
851.71	-107.692
852.01	-120.000
852.31	-115.385
852.61	-84.211
852.90	-175.000
853.20	-111.111
853.50	-233.333
853.79	-90.476
854.09	-86.364
854.39	-225.000
854.68	-45.161
854.98	-50.000
855.28	-55.556
855.57	-60.714
855.87	-92.000
856.17	-81.818
856.46	-48.148
856.76	-88.889
857.05	-82.609
857.35	-100.000
857.65	-100.000
857.94	-66.667
858.24	-18.519
858.53	-65.217
858.83	-35.294
859.13	-88.235
859.42	-52.941
859.72	-107.143
860.01	-60.000
860.31	-277.778
860.60	-50.000
860.90	-106.667
861.20	-77.778
861.49	-115.385
861.79	-40.000
862.08	-130.769
862.38	-28.125
862.67	-82.353
862.97	-106.250
863.26	-244.444
863.56	-130.000
863.85	-172.727
864.15	-66.667
864.44	-633.333
864.74	-107.143
865.03	-143.750
865.33	-290.000
865.62	-48.387
865.92	-68.182
866.21	-30.435
866.51	-121.429
866.80	-660.000
867.10	-166.667
867.39	-116.667
867.69	3000.000
867.98	-271.429
868.27	-82.353
868.57	-1800.000
868.86	-270.000
869.16	-76.190
869.45	-50.000
869.75	-81.818
870.04	-257.143
870.33	-158.333
870.63	-400.000
870.92	-425.000
871.22	-362.500
871.51	-200.000
871.80	-900.000
872.10	-950.000
>>>>>End Processed Spectral Data<<<<<
