SpectraSuite Data File
++++++++++++++++++++++++++++++++++++
Date: Thu May 14 16:02:14 PDT 2015
User: schluterlab
Dark Spectrum Present: Yes
Reference Spectrum Present: Yes
Number of Sampled Component Spectra: 1
Spectrometers: USB2E3373
Integration Time (usec): 3000 (USB2E3373)
Spectra Averaged: 3 (USB2E3373)
Boxcar Smoothing: 0 (USB2E3373)
Correct for Electrical Dark: No (USB2E3373)
Strobe/Lamp Enabled: No (USB2E3373)
Correct for Detector Non-linearity: No (USB2E3373)
Correct for Stray Light: No (USB2E3373)
Number of Pixels in Processed Spectrum: 2048
>>>>>Begin Processed Spectral Data<<<<<
178.53	0.000
178.91	285.714
179.29	-1900.000
179.67	-1200.000
180.04	192.857
180.42	150.000
180.80	400.000
181.18	-600.000
181.56	-900.000
181.94	450.000
182.31	-400.000
182.69	433.333
183.07	-600.000
183.45	425.000
183.83	-233.333
184.20	-200.000
184.58	1000.000
184.96	-325.000
185.34	-100.000
185.72	-200.000
186.09	255.556
186.47	800.000
186.85	600.000
187.23	-255.556
187.61	-2400.000
187.98	580.000
188.36	400.000
188.74	-475.000
189.12	-433.333
189.49	-93.750
189.87	-212.500
190.25	-211.111
190.63	-400.000
191.00	-177.778
191.38	0.000
191.76	-525.000
192.14	-250.000
192.51	750.000
192.89	-150.000
193.27	0.000
193.65	-285.714
194.02	-2700.000
194.40	-28.571
194.78	200.000
195.15	0.000
195.53	-109.091
195.91	0.000
196.29	-225.000
196.66	-61.538
197.04	-1500.000
197.42	-257.143
197.79	-850.000
198.17	-250.000
198.55	-328.571
198.92	-166.667
199.30	-300.000
199.68	-154.545
200.05	-100.000
200.43	-950.000
200.81	214.286
201.18	0.000
201.56	266.667
201.94	0.000
202.31	666.667
202.69	-266.667
203.07	2000.000
203.44	-88.889
203.82	-275.000
204.19	-66.667
204.57	-366.667
204.95	-62.500
205.32	-2100.000
205.70	425.000
206.08	-200.000
206.45	-116.667
206.83	420.000
207.20	-183.333
207.58	-580.000
207.96	-216.667
208.33	-33.333
208.71	158.333
209.08	0.000
209.46	0.000
209.84	316.667
210.21	450.000
210.59	500.000
210.96	533.333
211.34	-250.000
211.71	-237.500
212.09	-1900.000
212.46	0.000
212.84	1000.000
213.22	-260.000
213.59	-350.000
213.97	-70.000
214.34	-266.667
214.72	233.333
215.09	-450.000
215.47	0.000
215.84	171.429
216.22	1100.000
216.59	-200.000
216.97	-440.000
217.34	-450.000
217.72	-125.000
218.09	-300.000
218.47	-450.000
218.84	0.000
219.22	180.000
219.59	-76.471
219.97	-80.000
220.34	850.000
220.72	-211.111
221.09	-15.385
221.47	-500.000
221.84	-80.000
222.22	-271.429
222.59	0.000
222.97	-137.500
223.34	-200.000
223.72	-1300.000
224.09	-475.000
224.46	-425.000
224.84	-180.000
225.21	-271.429
225.59	-300.000
225.96	-400.000
226.34	-23.077
226.71	400.000
227.08	-650.000
227.46	-66.667
227.83	-400.000
228.21	-42.105
228.58	225.000
228.95	550.000
229.33	-91.667
229.70	-50.000
230.08	15.789
230.45	130.000
230.82	-200.000
231.20	-35.714
231.57	-158.333
231.95	-163.636
232.32	-100.000
232.69	-45.000
233.07	-300.000
233.44	-94.118
233.81	-120.000
234.19	-22.222
234.56	-40.909
234.93	-13.793
235.31	-26.316
235.68	5.556
236.05	-50.000
236.43	-26.923
236.80	4.000
237.17	-25.926
237.55	-36.364
237.92	-170.000
238.29	-29.032
238.67	-2.273
239.04	-16.667
239.41	7.143
239.79	-10.870
240.16	-9.259
240.53	-2.174
240.91	-7.843
241.28	-3.279
241.65	7.463
242.02	21.622
242.40	-10.769
242.77	-2.667
243.14	-4.878
243.51	-2.632
243.89	12.821
244.26	21.782
244.63	9.804
245.00	11.215
245.38	8.772
245.75	-3.540
246.12	21.429
246.49	13.178
246.87	14.286
247.24	15.232
247.61	17.105
247.98	14.765
248.36	6.790
248.73	14.724
249.10	22.404
249.47	24.378
249.84	24.084
250.22	18.653
250.59	20.556
250.96	18.636
251.33	19.898
251.70	25.214
252.08	25.833
252.45	18.852
252.82	22.727
253.19	21.875
253.56	21.673
253.94	20.385
254.31	21.970
254.68	28.671
255.05	23.779
255.42	23.469
255.79	18.447
256.16	23.510
256.54	22.517
256.91	21.311
257.28	20.656
257.65	22.293
258.02	17.404
258.39	20.228
258.76	26.911
259.14	23.851
259.51	21.614
259.88	24.929
260.25	21.389
260.62	25.753
260.99	25.956
261.36	25.469
261.73	19.629
262.10	24.725
262.47	23.592
262.85	27.273
263.22	21.039
263.59	18.158
263.96	25.320
264.33	22.762
264.70	24.444
265.07	20.525
265.44	25.170
265.81	22.222
266.18	22.449
266.55	24.330
266.92	21.640
267.29	25.602
267.66	23.725
268.03	24.891
268.40	21.712
268.77	24.374
269.14	22.026
269.51	22.588
269.88	25.410
270.25	24.547
270.62	25.738
270.99	26.869
271.36	25.347
271.73	25.147
272.10	25.852
272.47	26.854
272.84	23.494
273.21	24.048
273.58	25.202
273.95	23.077
274.32	23.574
274.69	24.178
275.06	25.641
275.43	21.811
275.80	24.339
276.17	22.963
276.54	22.761
276.91	22.182
277.28	25.678
277.65	23.698
278.02	24.816
278.39	22.464
278.76	22.671
279.13	21.986
279.50	24.742
279.87	23.435
280.23	18.310
280.60	22.712
280.97	22.533
281.34	23.939
281.71	25.888
282.08	23.920
282.45	24.386
282.82	24.019
283.19	22.779
283.56	24.098
283.92	23.423
284.29	22.749
284.66	22.332
285.03	20.192
285.40	23.493
285.77	22.291
286.14	22.443
286.51	22.527
286.87	20.695
287.24	22.139
287.61	23.468
287.98	23.716
288.35	23.225
288.72	21.154
289.08	24.890
289.45	21.746
289.82	20.633
290.19	21.264
290.56	22.676
290.93	21.683
291.29	20.386
291.66	20.799
292.03	19.539
292.40	21.497
292.77	22.102
293.13	20.704
293.50	20.368
293.87	21.611
294.24	21.733
294.60	20.101
294.97	19.329
295.34	20.487
295.71	19.546
296.08	18.605
296.44	19.240
296.81	19.001
297.18	17.933
297.55	18.514
297.91	19.929
298.28	17.773
298.65	18.193
299.02	19.008
299.38	17.963
299.75	18.224
300.12	19.097
300.48	19.816
300.85	18.673
301.22	18.680
301.59	17.009
301.95	18.418
302.32	18.000
302.69	18.072
303.05	17.410
303.42	17.406
303.79	18.542
304.15	18.717
304.52	17.653
304.89	16.859
305.25	17.495
305.62	16.928
305.99	17.320
306.35	17.742
306.72	18.201
307.09	16.751
307.45	17.805
307.82	18.063
308.19	17.558
308.55	18.419
308.92	18.111
309.29	17.529
309.65	17.641
310.02	16.535
310.38	17.913
310.75	18.155
311.12	18.121
311.48	17.595
311.85	18.898
312.22	18.596
312.58	17.465
312.95	16.922
313.31	18.157
313.68	18.132
314.05	18.790
314.41	17.122
314.78	17.984
315.14	19.328
315.51	18.006
315.87	18.362
316.24	19.178
316.61	18.739
316.97	19.095
317.34	18.254
317.70	20.524
318.07	19.048
318.43	19.388
318.80	20.401
319.16	19.313
319.53	18.680
319.89	19.194
320.26	20.374
320.62	19.326
320.99	20.683
321.35	21.719
321.72	20.558
322.08	19.297
322.45	21.229
322.81	22.653
323.18	21.062
323.54	22.155
323.91	21.797
324.27	22.117
324.64	22.082
325.00	22.056
325.37	22.195
325.73	23.140
326.10	22.871
326.46	23.290
326.83	24.660
327.19	22.677
327.56	23.794
327.92	21.951
328.29	23.387
328.65	22.864
329.01	22.758
329.38	24.010
329.74	23.801
330.11	23.801
330.47	24.347
330.84	23.859
331.20	23.917
331.56	23.570
331.93	22.929
332.29	24.068
332.66	24.419
333.02	23.367
333.38	23.238
333.75	24.242
334.11	24.437
334.48	24.505
334.84	25.149
335.20	22.502
335.57	24.874
335.93	23.719
336.29	23.295
336.66	23.213
337.02	23.829
337.38	25.595
337.75	23.388
338.11	24.138
338.47	23.325
338.84	22.927
339.20	22.409
339.56	23.558
339.93	22.989
340.29	22.947
340.65	24.169
341.02	23.703
341.38	23.686
341.74	23.325
342.11	23.652
342.47	22.399
342.83	23.913
343.20	23.957
343.56	23.416
343.92	23.379
344.28	23.984
344.65	23.953
345.01	22.855
345.37	23.328
345.73	22.447
346.10	24.025
346.46	23.813
346.82	22.846
347.19	23.147
347.55	23.445
347.91	23.105
348.27	23.293
348.63	24.219
349.00	23.117
349.36	22.230
349.72	22.842
350.08	23.403
350.45	22.510
350.81	23.002
351.17	21.729
351.53	23.654
351.89	24.222
352.26	23.060
352.62	22.687
352.98	23.817
353.34	23.152
353.70	22.727
354.07	23.920
354.43	23.235
354.79	23.111
355.15	23.326
355.51	22.807
355.87	22.364
356.24	23.118
356.60	22.321
356.96	22.683
357.32	22.082
357.68	22.182
358.04	21.707
358.40	23.060
358.77	22.953
359.13	22.378
359.49	22.007
359.85	22.190
360.21	22.669
360.57	23.331
360.93	22.144
361.29	23.579
361.66	22.520
362.02	23.312
362.38	23.050
362.74	21.997
363.10	24.072
363.46	23.338
363.82	23.722
364.18	22.238
364.54	22.683
364.90	23.478
365.26	23.310
365.62	23.133
365.98	23.281
366.35	23.356
366.71	24.082
367.07	23.275
367.43	23.112
367.79	23.557
368.15	24.615
368.51	23.816
368.87	23.383
369.23	23.333
369.59	23.156
369.95	23.259
370.31	23.700
370.67	24.072
371.03	23.546
371.39	22.901
371.75	23.796
372.11	22.900
372.47	24.103
372.83	23.364
373.19	22.682
373.55	23.848
373.91	22.904
374.27	23.351
374.63	24.290
374.99	23.210
375.35	23.377
375.71	23.548
376.07	23.693
376.42	24.496
376.78	25.109
377.14	23.144
377.50	24.225
377.86	24.815
378.22	24.431
378.58	24.495
378.94	24.178
379.30	23.960
379.66	24.574
380.02	24.409
380.38	25.173
380.74	24.169
381.09	24.274
381.45	24.091
381.81	24.883
382.17	24.644
382.53	24.854
382.89	24.153
383.25	24.267
383.61	24.190
383.97	23.793
384.32	24.581
384.68	23.550
385.04	24.407
385.40	25.162
385.76	25.557
386.12	25.194
386.48	24.824
386.83	25.030
387.19	24.855
387.55	23.650
387.91	23.402
388.27	24.480
388.62	25.601
388.98	25.155
389.34	25.044
389.70	24.753
390.06	24.156
390.42	24.578
390.77	25.527
391.13	25.117
391.49	24.457
391.85	24.242
392.20	24.852
392.56	25.399
392.92	24.646
393.28	25.815
393.64	24.972
393.99	25.625
394.35	25.584
394.71	24.970
395.07	25.150
395.42	24.729
395.78	25.655
396.14	24.955
396.50	24.287
396.85	25.760
397.21	25.858
397.57	25.088
397.92	25.487
398.28	24.498
398.64	24.199
399.00	24.974
399.35	24.398
399.71	25.761
400.07	25.716
400.42	25.262
400.78	24.653
401.14	25.839
401.49	25.810
401.85	24.593
402.21	25.261
402.57	25.939
402.92	25.473
403.28	24.707
403.63	24.523
403.99	24.406
404.35	26.038
404.70	25.949
405.06	24.674
405.42	25.995
405.77	25.573
406.13	25.608
406.49	25.225
406.84	25.263
407.20	25.992
407.55	25.015
407.91	25.079
408.27	24.912
408.62	25.364
408.98	25.189
409.34	25.279
409.69	25.525
410.05	26.143
410.40	25.928
410.76	25.687
411.11	25.073
411.47	25.061
411.83	25.573
412.18	25.904
412.54	24.422
412.89	25.204
413.25	25.226
413.60	25.273
413.96	24.942
414.31	24.306
414.67	25.283
415.03	25.169
415.38	24.716
415.74	25.046
416.09	25.787
416.45	25.110
416.80	24.725
417.16	25.287
417.51	25.405
417.87	24.954
418.22	25.030
418.58	24.659
418.93	25.378
419.29	25.092
419.64	24.790
420.00	24.451
420.35	24.818
420.71	24.182
421.06	25.417
421.42	24.943
421.77	24.286
422.12	24.630
422.48	25.550
422.83	26.013
423.19	25.517
423.54	24.945
423.90	25.124
424.25	25.013
424.61	24.742
424.96	26.194
425.31	25.690
425.67	24.691
426.02	24.516
426.38	25.718
426.73	24.833
427.09	26.009
427.44	24.850
427.79	25.484
428.15	25.114
428.50	25.000
428.85	24.684
429.21	25.745
429.56	25.321
429.92	24.963
430.27	24.723
430.62	24.475
430.98	25.184
431.33	25.562
431.68	24.952
432.04	25.038
432.39	24.692
432.74	24.886
433.10	24.824
433.45	25.028
433.80	25.161
434.16	25.465
434.51	26.053
434.86	25.516
435.22	25.930
435.57	25.708
435.92	24.485
436.28	25.313
436.63	26.270
436.98	24.960
437.34	25.705
437.69	24.271
438.04	25.066
438.39	25.388
438.75	25.235
439.10	26.691
439.45	25.154
439.81	25.650
440.16	25.308
440.51	25.139
440.86	24.847
441.22	24.330
441.57	26.101
441.92	25.897
442.27	26.818
442.63	25.832
442.98	25.880
443.33	25.408
443.68	26.511
444.03	26.905
444.39	25.613
444.74	26.289
445.09	25.342
445.44	26.080
445.79	25.718
446.15	26.259
446.50	24.961
446.85	26.167
447.20	25.870
447.55	26.674
447.91	26.230
448.26	26.110
448.61	25.983
448.96	26.127
449.31	26.405
449.66	25.599
450.02	26.213
450.37	25.839
450.72	25.727
451.07	26.253
451.42	25.650
451.77	25.236
452.12	26.580
452.47	25.609
452.83	26.239
453.18	26.153
453.53	25.215
453.88	25.456
454.23	26.158
454.58	26.407
454.93	25.850
455.28	26.249
455.63	25.696
455.98	25.531
456.34	25.677
456.69	26.161
457.04	26.300
457.39	25.222
457.74	25.895
458.09	24.986
458.44	25.862
458.79	25.735
459.14	25.275
459.49	25.467
459.84	26.338
460.19	25.930
460.54	26.292
460.89	26.310
461.24	26.034
461.59	26.231
461.94	25.328
462.29	26.316
462.64	26.192
462.99	25.487
463.34	24.984
463.69	24.560
464.04	26.181
464.39	26.289
464.74	24.629
465.09	25.894
465.44	26.556
465.79	25.806
466.14	25.378
466.49	25.947
466.84	25.895
467.19	25.665
467.54	24.971
467.89	25.115
468.24	24.931
468.59	24.725
468.94	24.942
469.29	24.475
469.64	25.238
469.99	24.920
470.34	25.062
470.68	25.359
471.03	24.361
471.38	24.657
471.73	25.098
472.08	24.810
472.43	24.684
472.78	25.756
473.13	25.537
473.48	25.196
473.83	25.131
474.17	24.560
474.52	25.436
474.87	25.415
475.22	25.465
475.57	25.026
475.92	24.689
476.27	24.494
476.61	25.441
476.96	23.931
477.31	25.149
477.66	25.289
478.01	24.759
478.36	24.925
478.70	24.581
479.05	25.665
479.40	24.383
479.75	25.600
480.10	24.586
480.45	25.661
480.79	25.306
481.14	24.357
481.49	24.671
481.84	24.891
482.19	25.118
482.53	25.142
482.88	25.210
483.23	24.544
483.58	24.192
483.92	23.892
484.27	24.513
484.62	24.340
484.97	24.844
485.31	24.498
485.66	23.927
486.01	24.321
486.36	25.226
486.70	26.268
487.05	26.288
487.40	25.261
487.75	25.216
488.09	25.247
488.44	24.414
488.79	24.755
489.13	24.439
489.48	23.029
489.83	23.260
490.17	23.005
490.52	23.112
490.87	23.604
491.22	24.263
491.56	24.531
491.91	23.681
492.26	23.756
492.60	24.224
492.95	23.080
493.30	23.084
493.64	22.908
493.99	23.553
494.34	23.084
494.68	23.426
495.03	24.141
495.37	22.858
495.72	22.857
496.07	23.094
496.41	23.466
496.76	23.269
497.11	23.524
497.45	23.263
497.80	23.501
498.14	22.676
498.49	22.702
498.84	23.309
499.18	23.167
499.53	23.632
499.87	22.989
500.22	22.173
500.56	22.132
500.91	22.929
501.26	23.409
501.60	22.536
501.95	22.970
502.29	22.949
502.64	23.262
502.98	22.994
503.33	22.549
503.67	22.634
504.02	22.198
504.36	23.235
504.71	22.692
505.06	22.556
505.40	22.989
505.75	22.541
506.09	22.145
506.44	22.609
506.78	23.394
507.13	23.329
507.47	22.406
507.82	22.206
508.16	22.132
508.51	22.504
508.85	22.485
509.19	22.406
509.54	22.382
509.88	22.341
510.23	23.118
510.57	22.910
510.92	22.738
511.26	21.693
511.61	22.163
511.95	22.060
512.30	22.452
512.64	21.589
512.98	23.312
513.33	22.681
513.67	22.132
514.02	22.483
514.36	21.586
514.70	21.562
515.05	21.898
515.39	21.942
515.74	23.118
516.08	22.240
516.42	21.873
516.77	21.767
517.11	21.403
517.46	23.012
517.80	22.715
518.14	23.069
518.49	22.017
518.83	22.512
519.17	22.079
519.52	21.908
519.86	21.911
520.20	22.311
520.55	21.139
520.89	22.072
521.23	22.111
521.58	22.260
521.92	20.567
522.26	21.649
522.61	22.222
522.95	22.030
523.29	21.322
523.64	22.365
523.98	22.419
524.32	23.438
524.66	22.766
525.01	20.838
525.35	21.654
525.69	21.578
526.04	21.527
526.38	22.184
526.72	21.511
527.06	21.408
527.41	21.808
527.75	21.793
528.09	21.960
528.43	22.025
528.78	21.503
529.12	21.617
529.46	22.428
529.80	22.140
530.15	22.551
530.49	21.234
530.83	22.196
531.17	21.924
531.51	21.119
531.86	22.476
532.20	22.500
532.54	21.484
532.88	21.636
533.22	21.155
533.57	22.389
533.91	22.166
534.25	22.159
534.59	21.897
534.93	21.619
535.27	20.958
535.62	22.172
535.96	22.545
536.30	21.563
536.64	22.883
536.98	22.202
537.32	21.914
537.66	21.959
538.01	20.544
538.35	22.046
538.69	21.034
539.03	21.643
539.37	22.085
539.71	21.261
540.05	21.703
540.39	21.760
540.73	21.008
541.07	21.582
541.42	21.500
541.76	21.174
542.10	21.713
542.44	20.767
542.78	21.715
543.12	21.454
543.46	20.818
543.80	21.163
544.14	21.305
544.48	21.454
544.82	22.202
545.16	21.348
545.50	22.409
545.84	21.372
546.18	22.099
546.52	21.401
546.86	21.069
547.20	20.992
547.54	21.348
547.88	20.916
548.22	20.526
548.56	21.767
548.90	21.731
549.24	21.398
549.58	21.893
549.92	21.173
550.26	22.265
550.60	21.123
550.94	19.534
551.28	20.594
551.62	20.620
551.96	20.453
552.30	21.989
552.64	21.717
552.98	20.898
553.32	21.286
553.66	20.643
554.00	20.933
554.34	21.622
554.68	20.658
555.02	21.682
555.36	21.105
555.69	20.115
556.03	20.618
556.37	21.464
556.71	21.179
557.05	20.703
557.39	20.770
557.73	19.881
558.07	20.132
558.41	20.731
558.75	19.540
559.08	20.738
559.42	20.370
559.76	20.828
560.10	19.826
560.44	20.251
560.78	21.125
561.12	20.197
561.45	21.290
561.79	21.062
562.13	20.518
562.47	19.359
562.81	20.506
563.15	20.518
563.48	20.572
563.82	20.314
564.16	19.624
564.50	19.905
564.84	20.295
565.17	21.059
565.51	20.253
565.85	20.190
566.19	19.643
566.52	20.831
566.86	20.600
567.20	19.848
567.54	20.499
567.88	20.693
568.21	20.306
568.55	20.144
568.89	21.471
569.23	21.377
569.56	21.219
569.90	21.525
570.24	21.821
570.57	21.264
570.91	21.066
571.25	20.827
571.59	21.820
571.92	21.615
572.26	20.831
572.60	20.857
572.93	21.514
573.27	21.551
573.61	21.096
573.95	20.879
574.28	21.841
574.62	21.305
574.96	20.975
575.29	21.304
575.63	20.975
575.97	21.102
576.30	20.651
576.64	21.618
576.98	20.729
577.31	21.397
577.65	21.461
577.98	21.235
578.32	20.978
578.66	21.410
578.99	20.930
579.33	21.254
579.67	21.170
580.00	20.814
580.34	20.746
580.67	20.874
581.01	20.727
581.35	21.255
581.68	21.100
582.02	21.124
582.35	21.424
582.69	21.536
583.02	21.230
583.36	20.969
583.70	20.813
584.03	21.046
584.37	20.662
584.70	20.367
585.04	20.274
585.37	20.968
585.71	20.561
586.04	20.960
586.38	21.054
586.72	20.105
587.05	20.312
587.39	20.868
587.72	20.502
588.06	20.044
588.39	20.115
588.73	20.476
589.06	20.260
589.40	20.283
589.73	20.501
590.07	20.027
590.40	20.419
590.73	19.689
591.07	19.620
591.40	19.557
591.74	19.754
592.07	20.341
592.41	19.677
592.74	19.737
593.08	20.318
593.41	20.677
593.75	20.259
594.08	20.327
594.41	20.096
594.75	20.392
595.08	19.751
595.42	19.935
595.75	20.342
596.09	20.332
596.42	19.455
596.75	19.568
597.09	20.202
597.42	19.388
597.75	19.404
598.09	20.357
598.42	19.300
598.76	19.450
599.09	19.865
599.42	19.578
599.76	19.776
600.09	19.953
600.42	19.920
600.76	19.881
601.09	19.615
601.42	20.014
601.76	19.690
602.09	20.050
602.42	19.411
602.76	19.594
603.09	19.383
603.42	19.834
603.76	19.168
604.09	19.375
604.42	19.303
604.76	19.559
605.09	19.585
605.42	19.059
605.75	19.423
606.09	19.186
606.42	19.591
606.75	18.666
607.09	19.009
607.42	18.960
607.75	19.930
608.08	18.587
608.42	19.186
608.75	19.237
609.08	19.312
609.41	19.232
609.75	17.991
610.08	19.129
610.41	18.989
610.74	18.992
611.07	18.162
611.41	19.596
611.74	18.753
612.07	19.495
612.40	18.346
612.73	19.315
613.07	19.022
613.40	18.912
613.73	18.440
614.06	19.235
614.39	18.562
614.72	19.214
615.06	17.661
615.39	18.946
615.72	19.005
616.05	18.067
616.38	19.677
616.71	17.973
617.05	18.797
617.38	18.566
617.71	19.006
618.04	19.266
618.37	19.235
618.70	18.439
619.03	17.742
619.36	17.571
619.69	17.809
620.03	18.267
620.36	17.791
620.69	17.582
621.02	18.701
621.35	18.287
621.68	18.583
622.01	17.580
622.34	17.085
622.67	18.076
623.00	16.059
623.33	18.646
623.66	18.677
623.99	17.051
624.32	18.194
624.65	17.053
624.99	18.466
625.32	18.419
625.65	18.543
625.98	17.153
626.31	17.080
626.64	17.143
626.97	17.254
627.30	15.945
627.63	17.254
627.96	18.393
628.29	16.809
628.62	16.121
628.95	17.266
629.28	17.077
629.61	16.667
629.94	16.736
630.26	17.966
630.59	16.839
630.92	16.710
631.25	16.905
631.58	18.456
631.91	16.870
632.24	17.387
632.57	17.173
632.90	16.750
633.23	16.837
633.56	17.041
633.89	16.736
634.22	16.632
634.55	16.597
634.88	16.342
635.20	18.192
635.53	17.288
635.86	15.601
636.19	17.603
636.52	16.034
636.85	16.547
637.18	16.216
637.51	15.591
637.83	17.054
638.16	16.590
638.49	15.962
638.82	16.009
639.15	15.808
639.48	17.206
639.81	16.051
640.13	16.019
640.46	13.576
640.79	16.544
641.12	16.398
641.45	15.935
641.77	17.330
642.10	15.879
642.43	17.021
642.76	15.312
643.09	16.027
643.41	14.986
643.74	16.000
644.07	16.828
644.40	14.427
644.73	13.208
645.05	13.803
645.38	16.691
645.71	14.370
646.04	16.356
646.36	14.745
646.69	17.025
647.02	14.679
647.35	16.489
647.67	16.908
648.00	14.650
648.33	15.315
648.66	16.405
648.98	16.463
649.31	14.885
649.64	16.467
649.96	16.180
650.29	14.604
650.62	14.993
650.94	15.616
651.27	14.970
651.60	14.474
651.92	14.438
652.25	15.051
652.58	14.580
652.90	12.791
653.23	15.634
653.56	14.979
653.88	16.994
654.21	14.366
654.54	14.306
654.86	16.289
655.19	13.802
655.52	17.957
655.84	19.882
656.17	23.692
656.49	33.130
656.82	36.489
657.15	27.754
657.47	20.490
657.80	15.098
658.13	11.602
658.45	14.885
658.78	17.738
659.10	16.815
659.43	16.278
659.75	15.484
660.08	14.454
660.41	12.738
660.73	13.113
661.06	13.363
661.38	13.716
661.71	14.138
662.03	13.757
662.36	15.206
662.68	13.508
663.01	16.106
663.33	14.934
663.66	16.667
663.98	13.846
664.31	14.822
664.63	12.717
664.96	16.152
665.28	11.615
665.61	16.434
665.93	15.357
666.26	13.978
666.58	12.177
666.91	14.579
667.23	14.476
667.56	14.990
667.88	13.800
668.21	13.086
668.53	11.197
668.86	13.556
669.18	13.238
669.50	14.314
669.83	13.000
670.15	11.024
670.48	16.865
670.80	13.384
671.13	14.178
671.45	10.630
671.77	16.008
672.10	15.167
672.42	13.269
672.75	13.825
673.07	13.731
673.39	14.792
673.72	15.604
674.04	13.621
674.37	14.848
674.69	14.286
675.01	15.429
675.34	12.023
675.66	13.483
675.98	16.978
676.31	14.648
676.63	14.639
676.95	14.368
677.28	15.323
677.60	14.567
677.92	13.052
678.25	14.991
678.57	14.413
678.89	15.870
679.22	14.286
679.54	15.043
679.86	13.729
680.18	13.599
680.51	14.308
680.83	17.185
681.15	11.552
681.48	15.717
681.80	16.235
682.12	12.413
682.44	13.689
682.77	14.007
683.09	12.879
683.41	13.372
683.73	14.231
684.06	13.100
684.38	13.775
684.70	15.978
685.02	15.146
685.34	14.476
685.67	14.984
685.99	14.877
686.31	12.355
686.63	14.218
686.96	16.088
687.28	14.984
687.60	12.626
687.92	13.666
688.24	15.025
688.56	11.897
688.89	14.519
689.21	14.677
689.53	12.941
689.85	12.032
690.17	13.889
690.49	13.347
690.82	12.673
691.14	11.336
691.46	14.149
691.78	15.101
692.10	14.128
692.42	13.214
692.74	12.704
693.06	10.000
693.39	13.662
693.71	13.910
694.03	12.268
694.35	13.524
694.67	14.168
694.99	13.404
695.31	11.700
695.63	13.203
695.95	13.043
696.27	12.967
696.59	14.602
696.91	12.613
697.23	14.945
697.56	11.202
697.88	12.879
698.20	13.183
698.52	17.424
698.84	16.424
699.16	12.857
699.48	14.226
699.80	10.213
700.12	13.319
700.44	13.594
700.76	11.639
701.08	12.349
701.40	15.285
701.72	13.184
702.04	13.904
702.36	9.948
702.68	12.469
703.00	11.736
703.32	11.823
703.64	11.002
703.96	15.274
704.28	13.268
704.60	12.658
704.91	11.480
705.23	13.973
705.55	13.092
705.87	13.030
706.19	13.190
706.51	10.241
706.83	9.510
707.15	8.995
707.47	10.748
707.79	13.537
708.11	9.958
708.43	14.194
708.74	10.268
709.06	9.977
709.38	16.197
709.70	13.151
710.02	12.403
710.34	15.691
710.66	9.497
710.98	12.022
711.29	14.011
711.61	12.994
711.93	11.966
712.25	10.000
712.57	15.339
712.89	15.294
713.20	11.243
713.52	12.717
713.84	8.914
714.16	11.579
714.48	9.536
714.80	14.026
715.11	13.911
715.43	12.732
715.75	14.737
716.07	12.431
716.39	15.301
716.70	10.542
717.02	15.082
717.34	6.272
717.66	11.074
717.97	5.822
718.29	7.904
718.61	10.197
718.93	12.298
719.24	12.112
719.56	13.804
719.88	9.309
720.20	10.323
720.51	11.491
720.83	10.625
721.15	11.513
721.46	9.247
721.78	11.333
722.10	11.003
722.42	7.383
722.73	12.258
723.05	14.386
723.37	11.806
723.68	11.828
724.00	9.386
724.32	8.099
724.63	10.839
724.95	10.993
725.27	11.498
725.58	9.541
725.90	12.069
726.22	10.345
726.53	14.286
726.85	11.950
727.16	9.970
727.48	14.679
727.80	11.589
728.11	9.187
728.43	13.805
728.74	9.699
729.06	10.265
729.38	13.961
729.69	12.752
730.01	12.500
730.32	6.061
730.64	10.377
730.96	11.801
731.27	17.598
731.59	14.835
731.90	11.429
732.22	11.458
732.53	12.983
732.85	10.000
733.16	10.850
733.48	9.451
733.80	13.649
734.11	12.536
734.43	13.784
734.74	16.456
735.06	13.317
735.37	13.514
735.69	13.784
736.00	12.712
736.32	12.399
736.63	10.833
736.95	9.483
737.26	14.545
737.58	9.697
737.89	14.412
738.21	11.621
738.52	8.197
738.83	13.652
739.15	10.284
739.46	13.605
739.78	16.564
740.09	11.461
740.41	14.577
740.72	13.000
741.04	11.327
741.35	12.632
741.66	12.941
741.98	8.607
742.29	9.205
742.61	10.088
742.92	13.077
743.23	10.108
743.55	12.403
743.86	10.000
744.18	7.025
744.49	6.329
744.80	6.996
745.12	9.283
745.43	10.569
745.74	9.914
746.06	11.441
746.37	11.814
746.68	16.667
747.00	13.750
747.31	10.300
747.62	10.769
747.94	7.287
748.25	4.819
748.56	8.980
748.88	10.256
749.19	10.776
749.50	6.494
749.82	9.237
750.13	9.609
750.44	11.333
750.75	12.000
751.07	10.769
751.38	11.041
751.69	13.419
752.01	8.414
752.32	9.150
752.63	13.605
752.94	13.841
753.26	10.037
753.57	7.778
753.88	8.989
754.19	14.791
754.51	9.325
754.82	11.897
755.13	11.475
755.44	13.311
755.75	13.158
756.07	12.836
756.38	11.321
756.69	14.458
757.00	11.634
757.31	12.568
757.63	10.997
757.94	11.972
758.25	13.770
758.56	13.072
758.87	14.091
759.18	14.400
759.50	11.898
759.81	15.686
760.12	12.938
760.43	12.760
760.74	12.808
761.05	14.250
761.36	13.494
761.67	11.421
761.99	14.595
762.30	10.976
762.61	10.231
762.92	8.582
763.23	13.858
763.54	10.791
763.85	10.653
764.16	10.438
764.47	15.141
764.78	13.738
765.10	10.557
765.41	14.359
765.72	11.640
766.03	11.582
766.34	9.404
766.65	8.362
766.96	8.367
767.27	10.138
767.58	7.463
767.89	12.019
768.20	7.042
768.51	13.426
768.82	13.655
769.13	14.015
769.44	8.462
769.75	13.718
770.06	13.077
770.37	9.843
770.68	8.936
770.99	5.668
771.30	18.148
771.61	11.407
771.92	11.111
772.23	14.575
772.54	4.167
772.85	11.521
773.16	9.524
773.47	10.582
773.78	2.162
774.09	4.545
774.39	11.000
774.70	12.022
775.01	1.220
775.32	4.118
775.63	6.135
775.94	-5.732
776.25	7.097
776.56	8.974
776.87	4.082
777.18	-0.690
777.48	-1.399
777.79	12.162
778.10	0.000
778.41	9.028
778.72	6.897
779.03	4.938
779.34	6.667
779.65	6.218
779.95	10.556
780.26	12.500
780.57	5.806
780.88	7.246
781.19	8.387
781.50	12.353
781.80	10.753
782.11	10.582
782.42	7.071
782.73	5.988
783.04	6.704
783.34	4.242
783.65	3.922
783.96	5.590
784.27	4.167
784.57	15.894
784.88	1.429
785.19	-1.575
785.50	6.299
785.81	4.511
786.11	11.538
786.42	4.317
786.73	5.036
787.04	9.774
787.34	2.459
787.65	5.600
787.96	7.463
788.26	9.091
788.57	9.091
788.88	2.632
789.19	15.033
789.49	0.000
789.80	7.092
790.11	3.937
790.41	7.031
790.72	5.085
791.03	-13.592
791.33	1.739
791.64	1.754
791.95	-5.357
792.25	9.524
792.56	-1.786
792.87	-8.333
793.17	5.357
793.48	-11.458
793.79	-3.614
794.09	1.835
794.40	0.917
794.70	4.762
795.01	4.545
795.32	8.904
795.62	2.113
795.93	10.606
796.23	6.557
796.54	0.000
796.85	1.064
797.15	-5.435
797.46	-15.068
797.76	-21.250
798.07	1.087
798.37	-10.309
798.68	-6.494
798.99	1.149
799.29	6.742
799.60	0.000
799.90	3.614
800.21	-12.308
800.51	-8.955
800.82	-7.353
801.12	-23.288
801.43	-20.588
801.73	-23.729
802.04	-6.061
802.34	-18.333
802.65	-15.254
802.95	-14.925
803.26	-3.390
803.56	-10.959
803.87	-1.429
804.17	-10.959
804.48	-47.368
804.78	-6.944
805.09	-29.310
805.39	-6.757
805.70	-11.268
806.00	-8.537
806.30	-14.458
806.61	0.000
806.91	0.962
807.22	-1.111
807.52	-6.897
807.83	11.111
808.13	13.253
808.43	0.000
808.74	-8.750
809.04	-19.118
809.35	0.000
809.65	-14.286
809.95	-2.740
810.26	-26.316
810.56	-17.241
810.86	-10.294
811.17	-5.263
811.47	-24.590
811.77	-24.444
812.08	-8.475
812.38	0.000
812.69	0.000
812.99	-20.755
813.29	-17.949
813.59	-18.000
813.90	-14.035
814.20	-1.818
814.50	2.817
814.81	8.974
815.11	-13.115
815.41	-11.940
815.72	-3.448
816.02	1.786
816.32	11.111
816.62	-15.909
816.93	-42.222
817.23	-11.111
817.53	-23.404
817.84	-2.381
818.14	-29.412
818.44	-4.082
818.74	-20.000
819.04	-43.590
819.35	-28.571
819.65	-100.000
819.95	-16.981
820.25	-24.444
820.56	-28.571
820.86	-50.000
821.16	-17.949
821.46	-16.279
821.76	-40.000
822.07	-12.500
822.37	-21.739
822.67	-25.532
822.97	-37.838
823.27	-45.000
823.57	-4.082
823.88	-2.222
824.18	-12.500
824.48	-20.000
824.78	-56.000
825.08	-33.333
825.38	-11.111
825.69	-25.532
825.99	-8.333
826.29	-48.571
826.59	-23.077
826.89	-46.512
827.19	-4.000
827.49	-44.118
827.79	-6.250
828.09	-29.730
828.39	-40.000
828.70	-24.390
829.00	-32.558
829.30	-57.143
829.60	-29.412
829.90	-28.261
830.20	-48.571
830.50	-55.172
830.80	-77.778
831.10	-80.769
831.40	-26.471
831.70	-23.810
832.00	-9.677
832.30	-164.706
832.60	-66.667
832.90	-115.385
833.20	-84.211
833.50	-90.000
833.80	-94.737
834.10	-100.000
834.40	-11.111
834.70	-34.375
835.00	-54.286
835.30	-20.588
835.60	-53.333
835.90	-28.000
836.20	-113.636
836.50	-72.000
836.80	-63.636
837.10	-44.444
837.40	-22.222
837.70	-75.000
838.00	-42.857
838.30	-82.609
838.60	-41.379
838.90	-128.571
839.19	-82.609
839.49	-250.000
839.79	-43.478
840.09	-118.750
840.39	-80.000
840.69	-32.258
840.99	-53.571
841.29	-66.667
841.59	-100.000
841.88	2.564
842.18	-80.769
842.48	-210.000
842.78	-60.000
843.08	-33.333
843.38	-41.935
843.68	-127.778
843.97	-14.706
844.27	-18.750
844.57	-36.842
844.87	-290.000
845.17	-73.333
845.47	0.000
845.76	-57.143
846.06	-144.444
846.36	-76.471
846.66	-15.385
846.96	-120.000
847.25	-147.059
847.55	-82.609
847.85	-95.000
848.15	-41.176
848.44	-254.545
848.74	-85.714
849.04	-79.167
849.34	-118.750
849.63	-39.130
849.93	1600.000
850.23	-86.667
850.53	-57.692
850.82	-118.182
851.12	-13.636
851.42	-127.273
851.71	-76.923
852.01	-50.000
852.31	-69.231
852.61	-63.158
852.90	-108.333
853.20	-77.778
853.50	-188.889
853.79	-42.857
854.09	-104.545
854.39	-158.333
854.68	-12.903
854.98	-42.308
855.28	-44.444
855.57	-28.571
855.87	-64.000
856.17	-63.636
856.46	-44.444
856.76	-61.111
857.05	-47.826
857.35	-66.667
857.65	-61.538
857.94	-57.143
858.24	-51.852
858.53	-17.391
858.83	-47.059
859.13	-82.353
859.42	-29.412
859.72	-114.286
860.01	-75.000
860.31	-100.000
860.60	-80.000
860.90	-126.667
861.20	-44.444
861.49	-84.615
861.79	-33.333
862.08	-107.692
862.38	-6.250
862.67	-58.824
862.97	-150.000
863.26	-177.778
863.56	-80.000
863.85	-45.455
864.15	-44.444
864.44	-600.000
864.74	-42.857
865.03	-137.500
865.33	-290.000
865.62	-32.258
865.92	-36.364
866.21	-34.783
866.51	-64.286
866.80	-460.000
867.10	-83.333
867.39	-83.333
867.69	2000.000
867.98	-214.286
868.27	-11.765
868.57	-1800.000
868.86	-160.000
869.16	-85.714
869.45	-54.167
869.75	-136.364
870.04	-242.857
870.33	-108.333
870.63	-228.571
870.92	-275.000
871.22	-350.000
871.51	-190.909
871.80	-600.000
872.10	-1200.000
>>>>>End Processed Spectral Data<<<<<
