SpectraSuite Data File
++++++++++++++++++++++++++++++++++++
Date: Thu May 14 16:01:43 PDT 2015
User: schluterlab
Dark Spectrum Present: Yes
Reference Spectrum Present: Yes
Number of Sampled Component Spectra: 1
Spectrometers: USB2E3373
Integration Time (usec): 3000 (USB2E3373)
Spectra Averaged: 3 (USB2E3373)
Boxcar Smoothing: 0 (USB2E3373)
Correct for Electrical Dark: No (USB2E3373)
Strobe/Lamp Enabled: No (USB2E3373)
Correct for Detector Non-linearity: No (USB2E3373)
Correct for Stray Light: No (USB2E3373)
Number of Pixels in Processed Spectrum: 2048
>>>>>Begin Processed Spectral Data<<<<<
178.53	0.000
178.91	271.429
179.29	-1800.000
179.67	-1500.000
180.04	157.143
180.42	120.000
180.80	280.000
181.18	-2000.000
181.56	-700.000
181.94	500.000
182.31	-400.000
182.69	533.333
183.07	-500.000
183.45	350.000
183.83	-200.000
184.20	-466.667
184.58	1700.000
184.96	-600.000
185.34	-122.222
185.72	-160.000
186.09	277.778
186.47	1150.000
186.85	380.000
187.23	-144.444
187.61	-1900.000
187.98	300.000
188.36	500.000
188.74	-300.000
189.12	-433.333
189.49	-43.750
189.87	-225.000
190.25	-133.333
190.63	-240.000
191.00	-222.222
191.38	0.000
191.76	-450.000
192.14	-50.000
192.51	450.000
192.89	-116.667
193.27	0.000
193.65	-228.571
194.02	-2700.000
194.40	-157.143
194.78	257.143
195.15	0.000
195.53	-54.545
195.91	0.000
196.29	-100.000
196.66	-146.154
197.04	-2000.000
197.42	-114.286
197.79	-700.000
198.17	-200.000
198.55	-200.000
198.92	-177.778
199.30	-75.000
199.68	-118.182
200.05	-71.429
200.43	-1150.000
200.81	400.000
201.18	0.000
201.56	277.778
201.94	0.000
202.31	633.333
202.69	-233.333
203.07	1600.000
203.44	-177.778
203.82	-475.000
204.19	-141.667
204.57	-83.333
204.95	-262.500
205.32	-1300.000
205.70	525.000
206.08	-133.333
206.45	-183.333
206.83	480.000
207.20	-200.000
207.58	-500.000
207.96	-316.667
208.33	-150.000
208.71	125.000
209.08	-50.000
209.46	0.000
209.84	350.000
210.21	1200.000
210.59	1200.000
210.96	700.000
211.34	-375.000
211.71	-237.500
212.09	-1900.000
212.46	0.000
212.84	1100.000
213.22	-560.000
213.59	-400.000
213.97	-140.000
214.34	-533.333
214.72	316.667
215.09	-425.000
215.47	0.000
215.84	242.857
216.22	850.000
216.59	-520.000
216.97	-360.000
217.34	-500.000
217.72	-112.500
218.09	-525.000
218.47	-450.000
218.84	0.000
219.22	400.000
219.59	-58.824
219.97	-85.000
220.34	800.000
220.72	-222.222
221.09	-46.154
221.47	-266.667
221.84	-100.000
222.22	-257.143
222.59	0.000
222.97	-87.500
223.34	-380.000
223.72	-2100.000
224.09	-575.000
224.46	-600.000
224.84	-100.000
225.21	-242.857
225.59	-675.000
225.96	-575.000
226.34	-34.615
226.71	350.000
227.08	-1150.000
227.46	-80.000
227.83	-575.000
228.21	-84.211
228.58	200.000
228.95	1000.000
229.33	-25.000
229.70	-170.000
230.08	-10.526
230.45	240.000
230.82	-366.667
231.20	-85.714
231.57	-91.667
231.95	-109.091
232.32	-154.545
232.69	-5.000
233.07	-625.000
233.44	-82.353
233.81	-240.000
234.19	-22.222
234.56	-50.000
234.93	-27.586
235.31	-100.000
235.68	-77.778
236.05	-90.000
236.43	-23.077
236.80	-24.000
237.17	-37.037
237.55	-48.485
237.92	-240.000
238.29	-32.258
238.67	-9.091
239.04	-36.111
239.41	-30.952
239.79	-17.391
240.16	-16.667
240.53	-6.522
240.91	-19.608
241.28	-22.951
241.65	0.000
242.02	4.054
242.40	-27.692
242.77	-8.000
243.14	-4.878
243.51	-14.474
243.89	-8.974
244.26	7.921
244.63	11.765
245.00	-1.869
245.38	-1.754
245.75	-14.159
246.12	8.730
246.49	-5.426
246.87	1.429
247.24	3.974
247.61	3.289
247.98	3.356
248.36	1.852
248.73	-0.613
249.10	7.104
249.47	11.940
249.84	10.995
250.22	4.145
250.59	5.556
250.96	6.818
251.33	3.571
251.70	9.402
252.08	9.167
252.45	10.246
252.82	4.545
253.19	5.469
253.56	11.027
253.94	7.692
254.31	12.121
254.68	12.587
255.05	10.749
255.42	5.782
255.79	6.796
256.16	9.934
256.54	5.960
256.91	9.508
257.28	8.525
257.65	8.917
258.02	7.965
258.39	9.972
258.76	12.232
259.14	12.644
259.51	10.951
259.88	9.065
260.25	11.389
260.62	11.507
260.99	12.568
261.36	13.405
261.73	9.549
262.10	10.714
262.47	11.260
262.85	12.879
263.22	8.831
263.59	8.684
263.96	11.765
264.33	11.765
264.70	12.840
265.07	13.842
265.44	13.832
265.81	12.963
266.18	13.152
266.55	10.937
266.92	12.984
267.29	12.254
267.66	12.195
268.03	12.445
268.40	10.438
268.77	10.251
269.14	9.912
269.51	12.061
269.88	12.090
270.25	9.658
270.62	11.603
270.99	11.111
271.36	12.079
271.73	11.591
272.10	12.826
272.47	12.024
272.84	11.847
273.21	12.024
273.58	13.508
273.95	11.154
274.32	11.597
274.69	12.766
275.06	13.004
275.43	12.384
275.80	12.875
276.17	10.926
276.54	11.194
276.91	11.270
277.28	11.935
277.65	12.567
278.02	12.132
278.39	13.587
278.76	13.357
279.13	12.234
279.50	14.948
279.87	13.059
280.23	8.803
280.60	13.051
280.97	13.816
281.34	11.205
281.71	13.536
282.08	11.628
282.45	10.475
282.82	11.303
283.19	10.016
283.56	11.639
283.92	13.213
284.29	14.534
284.66	12.808
285.03	10.256
285.40	9.428
285.77	10.681
286.14	14.046
286.51	11.263
286.87	11.848
287.24	12.952
287.61	10.015
287.98	11.027
288.35	11.834
288.72	10.355
289.08	12.299
289.45	11.538
289.82	11.145
290.19	9.770
290.56	11.127
290.93	11.840
291.29	10.193
291.66	10.331
292.03	9.769
292.40	11.565
292.77	10.916
293.13	10.555
293.50	9.724
293.87	10.336
294.24	11.333
294.60	10.999
294.97	9.664
295.34	11.268
295.71	9.079
296.08	9.302
296.44	8.578
296.81	9.501
297.18	9.091
297.55	8.844
297.91	9.727
298.28	9.242
298.65	10.702
299.02	8.028
299.38	10.526
299.75	8.528
300.12	8.333
300.48	9.447
300.85	9.674
301.22	8.389
301.59	9.932
301.95	7.910
302.32	9.667
302.69	9.310
303.05	9.358
303.42	8.647
303.79	9.167
304.15	9.674
304.52	8.668
304.89	8.272
305.25	9.731
305.62	10.136
305.99	9.278
306.35	8.367
306.72	9.307
307.09	7.716
307.45	8.282
307.82	7.568
308.19	9.284
308.55	10.511
308.92	8.569
309.29	9.004
309.65	7.992
310.02	8.020
310.38	8.071
310.75	8.155
311.12	9.108
311.48	7.918
311.85	8.927
312.22	7.685
312.58	8.263
312.95	8.413
313.31	9.395
313.68	9.707
314.05	8.130
314.41	9.107
314.78	8.992
315.14	8.258
315.51	9.141
315.87	8.821
316.24	8.950
316.61	9.059
316.97	8.145
317.34	7.584
317.70	8.559
318.07	8.554
318.43	7.993
318.80	9.365
319.16	8.326
319.53	8.997
319.89	8.501
320.26	9.253
320.62	8.245
320.99	8.310
321.35	8.780
321.72	10.698
322.08	9.017
322.45	8.220
322.81	8.664
323.18	8.053
323.54	8.534
323.91	9.431
324.27	8.348
324.64	9.572
325.00	8.292
325.37	9.009
325.73	8.760
326.10	10.138
326.46	9.772
326.83	9.848
327.19	9.291
327.56	9.328
327.92	9.363
328.29	9.516
328.65	8.961
329.01	9.137
329.38	9.099
329.74	9.503
330.11	9.846
330.47	8.846
330.84	8.527
331.20	10.667
331.56	9.359
331.93	8.870
332.29	10.000
332.66	8.804
333.02	9.296
333.38	8.557
333.75	8.923
334.11	9.341
334.48	8.498
334.84	10.195
335.20	8.060
335.57	8.938
335.93	9.339
336.29	9.068
336.66	8.410
337.02	9.114
337.38	8.163
337.75	8.017
338.11	9.756
338.47	9.098
338.84	9.052
339.20	8.340
339.56	8.814
339.93	7.553
340.29	8.615
340.65	9.084
341.02	9.258
341.38	9.943
341.74	8.152
342.11	9.654
342.47	9.373
342.83	9.098
343.20	9.158
343.56	8.901
343.92	8.647
344.28	9.531
344.65	8.682
345.01	8.736
345.37	9.720
345.73	7.950
346.10	10.140
346.46	7.437
346.82	9.064
347.19	9.244
347.55	9.712
347.91	7.727
348.27	7.967
348.63	9.292
349.00	8.949
349.36	8.773
349.72	8.854
350.08	8.915
350.45	8.593
350.81	8.296
351.17	8.872
351.53	8.188
351.89	8.352
352.26	8.657
352.62	7.836
352.98	8.321
353.34	8.215
353.70	7.473
354.07	7.750
354.43	8.580
354.79	8.601
355.15	8.756
355.51	9.284
355.87	8.227
356.24	7.833
356.60	8.869
356.96	8.525
357.32	7.286
357.68	8.053
358.04	7.335
358.40	7.313
358.77	8.845
359.13	7.533
359.49	7.361
359.85	8.557
360.21	8.537
360.57	7.681
360.93	7.757
361.29	8.421
361.66	8.400
362.02	8.559
362.38	7.941
362.74	7.542
363.10	8.322
363.46	8.587
363.82	7.599
364.18	7.671
364.54	8.022
364.90	8.763
365.26	7.724
365.62	8.733
365.98	7.148
366.35	7.852
366.71	7.959
367.07	8.660
367.43	8.470
367.79	7.830
368.15	9.298
368.51	7.984
368.87	7.969
369.23	7.867
369.59	7.445
369.95	7.708
370.31	7.698
370.67	7.909
371.03	8.864
371.39	7.656
371.75	8.666
372.11	6.978
372.47	7.854
372.83	8.312
373.19	8.072
373.55	8.130
373.91	7.703
374.27	8.279
374.63	7.645
374.99	8.621
375.35	8.442
375.71	7.871
376.07	8.199
376.42	8.186
376.78	7.707
377.14	8.235
377.50	7.843
377.86	7.328
378.22	7.485
378.58	7.669
378.94	8.451
379.30	8.084
379.66	7.584
380.02	7.905
380.38	8.410
380.74	8.056
381.09	8.420
381.45	8.068
381.81	8.314
382.17	7.482
382.53	7.485
382.89	8.014
383.25	8.206
383.61	7.176
383.97	7.479
384.32	7.177
384.68	6.845
385.04	7.924
385.40	8.014
385.76	8.734
386.12	6.882
386.48	7.529
386.83	8.343
387.19	7.590
387.55	6.690
387.91	7.820
388.27	8.487
388.62	7.446
388.98	7.501
389.34	7.543
389.70	7.960
390.06	8.348
390.42	7.530
390.77	7.947
391.13	7.160
391.49	7.729
391.85	7.273
392.20	8.422
392.56	8.210
392.92	8.070
393.28	7.573
393.64	7.486
393.99	8.890
394.35	8.061
394.71	7.904
395.07	6.707
395.42	7.881
395.78	8.227
396.14	7.546
396.50	7.957
396.85	7.871
397.21	7.692
397.57	7.774
397.92	7.388
398.28	6.735
398.64	7.265
399.00	7.277
399.35	8.639
399.71	7.772
400.07	7.412
400.42	8.033
400.78	7.581
401.14	7.797
401.49	7.732
401.85	7.965
402.21	7.764
402.57	8.392
402.92	8.038
403.28	6.733
403.63	6.742
403.99	7.482
404.35	7.732
404.70	8.159
405.06	7.609
405.42	7.787
405.77	7.688
406.13	8.050
406.49	7.714
406.84	8.144
407.20	7.546
407.55	7.329
407.91	7.920
408.27	7.774
408.62	8.144
408.98	8.009
409.34	5.924
409.69	6.984
410.05	7.972
410.40	8.179
410.76	7.179
411.11	8.124
411.47	8.477
411.83	7.525
412.18	7.771
412.54	8.180
412.89	7.916
413.25	7.675
413.60	8.099
413.96	7.809
414.31	7.762
414.67	8.408
415.03	8.246
415.38	7.629
415.74	7.941
416.09	8.698
416.45	7.702
416.80	8.140
417.16	7.854
417.51	7.970
417.87	8.216
418.22	8.263
418.58	7.993
418.93	8.498
419.29	7.830
419.64	7.923
420.00	7.300
420.35	7.805
420.71	7.754
421.06	7.591
421.42	8.544
421.77	7.647
422.12	8.034
422.48	7.988
422.83	8.653
423.19	8.117
423.54	8.628
423.90	7.344
424.25	8.373
424.61	7.463
424.96	8.457
425.31	8.864
425.67	7.193
426.02	7.582
426.38	7.807
426.73	7.533
427.09	8.881
427.44	7.428
427.79	8.402
428.15	7.877
428.50	7.416
428.85	7.750
429.21	8.511
429.56	7.897
429.92	8.206
430.27	8.048
430.62	7.963
430.98	7.723
431.33	7.674
431.68	7.184
432.04	7.821
432.39	7.874
432.74	7.763
433.10	8.167
433.45	7.692
433.80	7.725
434.16	8.213
434.51	7.657
434.86	7.818
435.22	8.023
435.57	7.724
435.92	7.679
436.28	8.134
436.63	7.591
436.98	8.159
437.34	8.230
437.69	8.200
438.04	7.456
438.39	8.386
438.75	7.194
439.10	8.615
439.45	7.993
439.81	7.514
440.16	7.936
440.51	7.915
440.86	8.004
441.22	8.682
441.57	7.704
441.92	8.293
442.27	7.778
442.63	7.750
442.98	8.645
443.33	7.785
443.68	8.077
444.03	8.843
444.39	8.507
444.74	8.218
445.09	8.211
445.44	8.377
445.79	8.669
446.15	8.068
446.50	8.269
446.85	8.560
447.20	8.704
447.55	7.897
447.91	8.429
448.26	8.034
448.61	8.448
448.96	8.369
449.31	7.688
449.66	7.680
450.02	8.544
450.37	8.151
450.72	8.019
451.07	7.631
451.42	8.030
451.77	7.782
452.12	7.957
452.47	7.605
452.83	8.052
453.18	7.823
453.53	7.697
453.88	8.062
454.23	7.853
454.58	7.951
454.93	7.828
455.28	8.368
455.63	8.414
455.98	8.659
456.34	8.245
456.69	7.760
457.04	8.038
457.39	7.816
457.74	8.669
458.09	8.182
458.44	8.567
458.79	8.097
459.14	9.072
459.49	8.093
459.84	8.762
460.19	7.440
460.54	8.575
460.89	7.041
461.24	7.241
461.59	9.020
461.94	7.416
462.29	8.679
462.64	7.604
462.99	7.847
463.34	8.696
463.69	8.617
464.04	8.449
464.39	7.567
464.74	8.780
465.09	8.074
465.44	8.369
465.79	9.043
466.14	8.338
466.49	8.105
466.84	7.438
467.19	7.977
467.54	7.991
467.89	7.759
468.24	8.476
468.59	7.238
468.94	8.100
469.29	8.398
469.64	7.120
469.99	8.413
470.34	7.611
470.68	7.656
471.03	8.317
471.38	7.390
471.73	8.062
472.08	7.424
472.43	8.429
472.78	8.438
473.13	7.712
473.48	8.459
473.83	8.996
474.17	8.265
474.52	8.719
474.87	8.029
475.22	8.732
475.57	8.671
475.92	8.512
476.27	8.520
476.61	7.684
476.96	7.716
477.31	8.465
477.66	8.027
478.01	8.439
478.36	8.624
478.70	9.015
479.05	8.180
479.40	8.391
479.75	8.694
480.10	8.574
480.45	8.022
480.79	8.435
481.14	7.950
481.49	8.042
481.84	8.616
482.19	8.258
482.53	8.833
482.88	8.595
483.23	8.137
483.58	8.210
483.92	7.890
484.27	8.552
484.62	8.086
484.97	8.281
485.31	8.342
485.66	8.399
486.01	8.440
486.36	8.572
486.70	8.895
487.05	8.796
487.40	8.451
487.75	8.626
488.09	8.199
488.44	8.076
488.79	8.702
489.13	8.291
489.48	7.650
489.83	8.249
490.17	8.384
490.52	8.374
490.87	8.629
491.22	8.666
491.56	8.575
491.91	8.635
492.26	8.438
492.60	8.614
492.95	8.600
493.30	8.382
493.64	8.541
493.99	8.728
494.34	8.319
494.68	8.522
495.03	8.238
495.37	8.167
495.72	8.390
496.07	8.457
496.41	8.065
496.76	8.632
497.11	8.790
497.45	8.502
497.80	8.707
498.14	8.662
498.49	8.364
498.84	8.410
499.18	8.997
499.53	8.072
499.87	8.791
500.22	7.747
500.56	8.322
500.91	8.650
501.26	9.091
501.60	7.468
501.95	8.511
502.29	8.556
502.64	8.833
502.98	8.067
503.33	8.337
503.67	8.286
504.02	8.800
504.36	8.758
504.71	8.222
505.06	8.640
505.40	8.638
505.75	8.379
506.09	8.379
506.44	8.124
506.78	9.037
507.13	8.852
507.47	8.669
507.82	8.523
508.16	8.317
508.51	7.876
508.85	8.314
509.19	8.622
509.54	9.030
509.88	8.645
510.23	8.742
510.57	9.328
510.92	8.999
511.26	8.177
511.61	8.402
511.95	8.590
512.30	9.355
512.64	8.196
512.98	8.354
513.33	9.476
513.67	8.465
514.02	8.431
514.36	8.286
514.70	8.490
515.05	8.916
515.39	8.136
515.74	8.537
516.08	8.347
516.42	8.687
516.77	8.307
517.11	8.303
517.46	8.378
517.80	9.246
518.14	9.358
518.49	9.111
518.83	9.047
519.17	8.293
519.52	8.595
519.86	8.923
520.20	8.733
520.55	8.598
520.89	8.727
521.23	7.984
521.58	8.814
521.92	9.008
522.26	8.190
522.61	8.970
522.95	9.112
523.29	8.908
523.64	9.305
523.98	8.899
524.32	9.513
524.66	8.708
525.01	8.947
525.35	9.018
525.69	8.469
526.04	8.209
526.38	8.621
526.72	9.227
527.06	9.912
527.41	8.688
527.75	9.501
528.09	9.091
528.43	9.414
528.78	8.324
529.12	8.200
529.46	8.375
529.80	8.696
530.15	8.696
530.49	9.015
530.83	8.560
531.17	9.020
531.51	8.484
531.86	9.555
532.20	9.207
532.54	8.797
532.88	9.758
533.22	9.134
533.57	9.463
533.91	9.035
534.25	9.723
534.59	8.966
534.93	8.036
535.27	8.845
535.62	9.380
535.96	9.471
536.30	8.754
536.64	9.369
536.98	9.287
537.32	9.753
537.66	9.170
538.01	8.157
538.35	8.770
538.69	8.714
539.03	9.626
539.37	8.304
539.71	9.309
540.05	9.233
540.39	8.619
540.73	8.500
541.07	9.381
541.42	8.801
541.76	8.837
542.10	9.349
542.44	8.404
542.78	8.273
543.12	9.356
543.46	8.669
543.80	8.393
544.14	9.096
544.48	9.279
544.82	8.917
545.16	9.243
545.50	8.688
545.84	8.879
546.18	8.580
546.52	9.045
546.86	8.868
547.20	9.097
547.54	8.614
547.88	8.921
548.22	8.304
548.56	8.602
548.90	8.776
549.24	8.389
549.58	9.464
549.92	8.291
550.26	9.773
550.60	8.296
550.94	9.120
551.28	8.647
551.62	9.030
551.96	9.061
552.30	9.688
552.64	9.459
552.98	9.046
553.32	9.389
553.66	8.682
554.00	9.142
554.34	8.623
554.68	8.522
555.02	8.673
555.36	9.336
555.69	8.200
556.03	9.269
556.37	9.637
556.71	8.561
557.05	9.010
557.39	8.228
557.73	8.851
558.07	8.874
558.41	9.502
558.75	9.939
559.08	9.047
559.42	8.573
559.76	9.701
560.10	9.042
560.44	8.971
560.78	9.438
561.12	10.160
561.45	9.124
561.79	9.707
562.13	9.365
562.47	8.015
562.81	8.924
563.15	9.280
563.48	9.385
563.82	9.069
564.16	8.601
564.50	8.641
564.84	8.791
565.17	9.176
565.51	9.321
565.85	9.382
566.19	8.698
566.52	9.245
566.86	8.829
567.20	8.700
567.54	9.134
567.88	8.869
568.21	9.881
568.55	8.873
568.89	9.260
569.23	9.210
569.56	9.261
569.90	9.052
570.24	9.039
570.57	8.595
570.91	8.512
571.25	9.170
571.59	8.711
571.92	8.875
572.26	8.602
572.60	8.982
572.93	8.851
573.27	8.767
573.61	8.920
573.95	8.983
574.28	9.133
574.62	8.686
574.96	8.359
575.29	8.482
575.63	8.824
575.97	8.814
576.30	8.438
576.64	8.494
576.98	8.724
577.31	8.607
577.65	8.791
577.98	9.168
578.32	8.457
578.66	8.971
578.99	8.847
579.33	8.382
579.67	8.908
580.00	8.564
580.34	8.770
580.67	8.650
581.01	8.330
581.35	8.767
581.68	8.926
582.02	9.055
582.35	8.895
582.69	8.638
583.02	8.578
583.36	8.914
583.70	8.384
584.03	8.327
584.37	8.344
584.70	8.582
585.04	8.021
585.37	8.595
585.71	8.738
586.04	8.675
586.38	8.728
586.72	8.323
587.05	8.058
587.39	8.352
587.72	8.804
588.06	8.656
588.39	8.588
588.73	8.439
589.06	8.465
589.40	8.543
589.73	8.580
590.07	8.853
590.40	8.891
590.73	8.554
591.07	8.935
591.40	8.942
591.74	8.426
592.07	9.054
592.41	8.399
592.74	9.052
593.08	9.236
593.41	9.361
593.75	8.420
594.08	8.513
594.41	8.333
594.75	8.403
595.08	8.412
595.42	8.442
595.75	8.880
596.09	9.217
596.42	8.635
596.75	8.877
597.09	8.929
597.42	8.025
597.75	8.702
598.09	8.730
598.42	8.967
598.76	8.292
599.09	8.829
599.42	8.783
599.76	8.683
600.09	8.809
600.42	9.142
600.76	8.454
601.09	8.762
601.42	8.788
601.76	8.655
602.09	8.470
602.42	8.651
602.76	8.303
603.09	8.994
603.42	8.634
603.76	8.527
604.09	9.120
604.42	8.514
604.76	8.067
605.09	8.935
605.42	8.692
605.75	8.615
606.09	8.921
606.42	8.865
606.75	8.471
607.09	7.834
607.42	8.748
607.75	8.011
608.08	8.208
608.42	8.303
608.75	8.209
609.08	8.319
609.41	8.425
609.75	8.482
610.08	8.839
610.41	8.794
610.74	8.655
611.07	8.659
611.41	9.238
611.74	8.868
612.07	8.696
612.40	7.890
612.73	8.313
613.07	8.655
613.40	8.807
613.73	8.474
614.06	8.881
614.39	8.066
614.72	8.588
615.06	8.951
615.39	8.845
615.72	8.436
616.05	8.451
616.38	9.132
616.71	8.359
617.05	7.827
617.38	9.042
617.71	9.341
618.04	8.904
618.37	8.251
618.70	8.993
619.03	8.065
619.36	7.953
619.69	7.880
620.03	9.102
620.36	8.650
620.69	8.452
621.02	8.465
621.35	8.781
621.68	8.604
622.01	8.114
622.34	8.020
622.67	9.485
623.00	8.097
623.33	10.020
623.66	9.274
623.99	8.361
624.32	8.707
624.65	9.009
624.99	8.583
625.32	9.406
625.65	8.361
625.98	8.475
626.31	9.213
626.64	9.011
626.97	8.327
627.30	7.289
627.63	9.227
627.96	9.835
628.29	8.638
628.62	7.557
628.95	9.641
629.28	7.392
629.61	7.912
629.94	7.950
630.26	7.458
630.59	8.377
630.92	8.312
631.25	9.302
631.58	9.322
631.91	7.779
632.24	8.549
632.57	9.108
632.90	7.723
633.23	7.959
633.56	7.755
633.89	7.128
634.22	8.732
634.55	7.620
634.88	8.117
635.20	9.903
635.53	10.056
635.86	8.451
636.19	8.908
636.52	8.650
636.85	8.172
637.18	8.316
637.51	8.602
637.83	8.859
638.16	8.065
638.49	7.981
638.82	8.794
639.15	8.247
639.48	8.776
639.81	8.776
640.13	8.952
640.46	7.758
640.79	8.456
641.12	7.578
641.45	8.156
641.77	9.628
642.10	8.005
642.43	9.309
642.76	8.672
643.09	8.219
643.41	7.703
643.74	7.034
644.07	10.069
644.40	7.214
644.73	8.563
645.05	7.489
645.38	8.201
645.71	9.091
646.04	9.900
646.36	8.467
646.69	8.282
647.02	9.174
647.35	8.244
647.67	6.280
648.00	8.439
648.33	8.559
648.66	8.131
648.98	9.116
649.31	10.014
649.64	9.562
649.96	9.814
650.29	6.537
650.62	9.477
650.94	8.258
651.27	7.036
651.60	8.333
651.92	6.687
652.25	8.973
652.58	7.153
652.90	6.541
653.23	9.014
653.56	7.275
653.88	10.534
654.21	8.310
654.54	8.092
654.86	7.224
655.19	7.152
655.52	9.258
655.84	9.185
656.17	11.129
656.49	15.771
656.82	16.603
657.15	12.349
657.47	9.007
657.80	6.310
658.13	4.834
658.45	6.243
658.78	7.189
659.10	6.628
659.43	6.732
659.75	5.878
660.08	6.106
660.41	5.955
660.73	6.613
661.06	4.846
661.38	6.380
661.71	7.931
662.03	7.407
662.36	9.839
662.68	7.317
663.01	10.973
663.33	8.507
663.66	8.974
663.98	9.423
664.31	7.880
664.63	4.817
664.96	7.078
665.28	4.537
665.61	10.140
665.93	7.679
666.26	8.781
666.58	6.827
666.91	9.907
667.23	9.714
667.56	7.890
667.88	8.200
668.21	7.617
668.53	5.212
668.86	8.448
669.18	8.554
669.50	7.753
669.83	5.000
670.15	8.071
670.48	8.929
670.80	7.266
671.13	9.263
671.45	8.268
671.77	8.098
672.10	8.333
672.42	8.576
672.75	7.220
673.07	8.806
673.39	7.550
673.72	7.718
674.04	8.793
674.37	10.197
674.69	7.760
675.01	5.905
675.34	7.252
675.66	5.805
675.98	7.090
676.31	7.617
676.63	10.266
676.95	10.345
677.28	7.056
677.60	5.906
677.92	5.950
678.25	8.227
678.57	11.210
678.89	8.532
679.22	6.794
679.54	8.547
679.86	6.102
680.18	7.463
680.51	7.862
680.83	8.511
681.15	8.103
681.48	8.636
681.80	8.808
682.12	6.993
682.44	8.180
682.77	7.270
683.09	7.008
683.41	9.109
683.73	9.108
684.06	7.565
684.38	6.261
684.70	8.079
685.02	9.294
685.34	7.488
685.67	5.994
685.99	7.669
686.31	6.250
686.63	5.213
686.96	6.309
687.28	6.840
687.60	6.061
687.92	7.556
688.24	7.679
688.56	4.828
688.89	6.715
689.21	7.436
689.53	4.706
689.85	6.706
690.17	6.481
690.49	5.378
690.82	7.723
691.14	5.466
691.46	6.692
691.78	8.840
692.10	6.606
692.42	6.429
692.74	6.715
693.06	2.222
693.39	8.159
693.71	5.639
694.03	9.108
694.35	8.190
694.67	7.598
694.99	5.957
695.31	7.285
695.63	5.411
695.95	7.246
696.27	5.934
696.59	6.637
696.91	7.432
697.23	8.571
697.56	5.499
697.88	5.871
698.20	7.533
698.52	9.848
698.84	6.861
699.16	8.571
699.48	6.485
699.80	7.021
700.12	9.389
700.44	8.756
700.76	5.701
701.08	8.717
701.40	6.477
701.72	6.219
702.04	7.754
702.36	4.712
702.68	4.156
703.00	5.623
703.32	7.882
703.64	7.090
703.96	7.399
704.28	4.423
704.60	8.354
704.91	4.337
705.23	6.849
705.55	5.292
705.87	6.364
706.19	5.521
706.51	2.711
706.83	3.746
707.15	4.497
707.47	3.271
707.79	3.930
708.11	3.602
708.43	5.806
708.74	4.241
709.06	4.872
709.38	9.155
709.70	6.700
710.02	7.494
710.34	7.979
710.66	3.911
710.98	3.552
711.29	3.571
711.61	5.650
711.93	6.838
712.25	7.838
712.57	5.605
712.89	8.529
713.20	5.917
713.52	8.092
713.84	7.242
714.16	8.158
714.48	5.155
714.80	9.351
715.11	5.249
715.43	5.836
715.75	5.000
716.07	4.420
716.39	6.011
716.70	4.819
717.02	4.262
717.34	1.045
717.66	6.040
717.97	3.425
718.29	2.062
718.61	6.579
718.93	5.502
719.24	1.242
719.56	3.681
719.88	6.306
720.20	6.129
720.51	4.658
720.83	5.313
721.15	3.289
721.46	1.370
721.78	4.000
722.10	5.178
722.42	3.691
722.73	6.774
723.05	5.614
723.37	6.250
723.68	6.810
724.00	3.249
724.32	3.521
724.63	6.643
724.95	5.319
725.27	7.317
725.58	6.360
725.90	7.931
726.22	5.956
726.53	9.091
726.85	5.660
727.16	6.344
727.48	7.951
727.80	5.629
728.11	2.120
728.43	4.040
728.74	2.676
729.06	3.974
729.38	3.896
729.69	5.034
730.01	5.952
730.32	3.636
730.64	5.346
730.96	0.932
731.27	7.542
731.59	4.945
731.90	4.156
732.22	4.427
732.53	3.315
732.85	6.000
733.16	6.158
733.48	1.220
733.80	6.128
734.11	5.698
734.43	5.135
734.74	9.367
735.06	6.784
735.37	6.486
735.69	6.216
736.00	5.085
736.32	4.043
736.63	5.278
736.95	3.448
737.26	3.333
737.58	3.636
737.89	3.235
738.21	1.835
738.52	-0.984
738.83	3.072
739.15	4.610
739.46	3.401
739.78	4.908
740.09	6.590
740.41	6.414
740.72	0.000
741.04	4.207
741.35	8.070
741.66	0.784
741.98	3.279
742.29	1.255
742.61	3.509
742.92	5.385
743.23	6.137
743.55	2.326
743.86	5.200
744.18	2.479
744.49	2.110
744.80	2.469
745.12	3.376
745.43	4.878
745.74	1.293
746.06	2.966
746.37	2.532
746.68	6.504
747.00	5.833
747.31	3.004
747.62	8.077
747.94	0.810
748.25	1.606
748.56	2.041
748.88	0.000
749.19	1.724
749.50	2.165
749.82	2.008
750.13	7.829
750.44	0.667
750.75	3.692
751.07	4.923
751.38	5.363
751.69	3.195
752.01	5.178
752.32	5.882
752.63	3.401
752.94	2.076
753.26	-0.743
753.57	2.222
753.88	-0.375
754.19	4.502
754.51	3.537
754.82	6.109
755.13	6.557
755.44	0.683
755.75	4.934
756.07	6.567
756.38	3.145
756.69	4.819
757.00	4.432
757.31	6.831
757.63	2.302
757.94	4.225
758.25	4.515
758.56	5.229
758.87	5.227
759.18	5.600
759.50	3.966
759.81	3.922
760.12	6.199
760.43	6.510
760.74	4.926
761.05	4.750
761.36	1.687
761.67	3.299
761.99	6.486
762.30	4.878
762.61	2.640
762.92	7.090
763.23	8.614
763.54	4.676
763.85	2.062
764.16	7.071
764.47	2.465
764.78	5.751
765.10	6.745
765.41	8.462
765.72	3.704
766.03	5.932
766.34	2.194
766.65	0.697
766.96	0.398
767.27	0.461
767.58	-1.990
767.89	10.096
768.20	5.634
768.51	3.241
768.82	3.213
769.13	6.818
769.44	2.692
769.75	8.303
770.06	1.538
770.37	9.449
770.68	0.851
770.99	-2.024
771.30	6.296
771.61	2.662
771.92	3.704
772.23	7.692
772.54	-0.463
772.85	3.226
773.16	4.286
773.47	0.529
773.78	-0.541
774.09	-3.409
774.39	7.500
774.70	5.464
775.01	-1.829
775.32	-2.941
775.63	9.816
775.94	-3.822
776.25	2.581
776.56	8.333
776.87	1.361
777.18	2.069
777.48	4.196
777.79	-2.703
778.10	-9.559
778.41	3.472
778.72	2.759
779.03	4.321
779.34	-6.667
779.65	-1.036
779.95	5.000
780.26	-1.136
780.57	-2.581
780.88	-2.174
781.19	0.645
781.50	1.765
781.80	3.763
782.11	-1.058
782.42	-1.010
782.73	-7.186
783.04	2.793
783.34	-0.606
783.65	-5.229
783.96	4.348
784.27	-1.190
784.57	-0.662
784.88	-2.143
785.19	1.575
785.50	-11.811
785.81	-5.263
786.11	3.846
786.42	-0.719
786.73	-0.719
787.04	1.504
787.34	0.000
787.65	-8.000
787.96	-1.493
788.26	0.699
788.57	4.196
788.88	-10.526
789.19	5.229
789.49	-3.425
789.80	0.709
790.11	0.787
790.41	2.344
790.72	-4.237
791.03	-10.680
791.33	0.870
791.64	5.263
791.95	-4.464
792.25	-5.714
792.56	2.679
792.87	-20.833
793.17	5.357
793.48	-13.542
793.79	-24.096
794.09	-12.844
794.40	-15.596
794.70	-2.041
795.01	-3.247
795.32	-9.589
795.62	2.113
795.93	-6.061
796.23	3.279
796.54	-7.143
796.85	-12.766
797.15	-20.652
797.46	-31.507
797.76	-17.500
798.07	0.000
798.37	-12.371
798.68	-18.182
798.99	-5.747
799.29	-3.371
799.60	-10.638
799.90	-14.458
800.21	-36.923
800.51	-11.940
800.82	-23.529
801.12	-24.658
801.43	-29.412
801.73	-27.119
802.04	-31.818
802.34	-35.000
802.65	-10.169
802.95	-11.940
803.26	-20.339
803.56	-19.178
803.87	-17.143
804.17	-9.589
804.48	-40.351
804.78	-12.500
805.09	-32.759
805.39	-5.405
805.70	-21.127
806.00	2.439
806.30	-8.434
806.61	-17.808
806.91	-1.923
807.22	2.222
807.52	-21.839
807.83	-5.556
808.13	-8.434
808.43	-7.865
808.74	-3.750
809.04	-26.471
809.35	-14.667
809.65	-14.286
809.95	-4.110
810.26	-31.579
810.56	-22.414
810.86	1.471
811.17	-26.316
811.47	-26.230
811.77	-33.333
812.08	-13.559
812.38	-21.667
812.69	-6.897
812.99	-39.623
813.29	-69.231
813.59	-24.000
813.90	-8.772
814.20	-23.636
814.50	-1.408
814.81	-2.564
815.11	-6.557
815.41	-16.418
815.72	-5.172
816.02	-10.714
816.32	-31.111
816.62	-27.273
816.93	-40.000
817.23	-12.963
817.53	-10.638
817.84	-2.381
818.14	-44.118
818.44	-14.286
818.74	-15.556
819.04	-66.667
819.35	-25.714
819.65	-80.769
819.95	-11.321
820.25	-26.667
820.56	-38.095
820.86	-59.375
821.16	-64.103
821.46	-32.558
821.76	-54.000
822.07	-14.286
822.37	-30.435
822.67	-36.170
822.97	-32.432
823.27	-52.500
823.57	-24.490
823.88	-15.556
824.18	-15.000
824.48	-63.333
824.78	-68.000
825.08	-63.636
825.38	-11.111
825.69	-19.149
825.99	-33.333
826.29	-54.286
826.59	-20.513
826.89	-25.581
827.19	-16.000
827.49	-23.529
827.79	8.333
828.09	-29.730
828.39	-70.000
828.70	-26.829
829.00	-25.581
829.30	-64.286
829.60	-29.412
829.90	-23.913
830.20	-54.286
830.50	-55.172
830.80	-94.444
831.10	-30.769
831.40	-35.294
831.70	-66.667
832.00	-16.129
832.30	-141.176
832.60	-70.833
832.90	-192.308
833.20	-131.579
833.50	-90.000
833.80	-115.789
834.10	-157.143
834.40	-16.667
834.70	-15.625
835.00	-74.286
835.30	-67.647
835.60	-56.667
835.90	-84.000
836.20	-131.818
836.50	-56.000
836.80	-63.636
837.10	-59.259
837.40	-44.444
837.70	-150.000
838.00	-39.286
838.30	-52.174
838.60	-41.379
838.90	-128.571
839.19	-91.304
839.49	-133.333
839.79	-73.913
840.09	-68.750
840.39	-105.000
840.69	-38.710
840.99	-85.714
841.29	-133.333
841.59	-63.158
841.88	-10.256
842.18	-61.538
842.48	-140.000
842.78	-95.000
843.08	-40.000
843.38	-41.935
843.68	-127.778
843.97	-35.294
844.27	-118.750
844.57	-84.211
844.87	-140.000
845.17	-140.000
845.47	-42.857
845.76	-57.143
846.06	-244.444
846.36	-94.118
846.66	-34.615
846.96	-120.000
847.25	-64.706
847.55	-52.174
847.85	-75.000
848.15	-82.353
848.44	-127.273
848.74	-19.048
849.04	-20.833
849.34	-68.750
849.63	-82.609
849.93	1100.000
850.23	-106.667
850.53	-23.077
850.82	-154.545
851.12	-40.909
851.42	-127.273
851.71	-100.000
852.01	-95.000
852.31	-107.692
852.61	-68.421
852.90	-100.000
853.20	-88.889
853.50	-322.222
853.79	-95.238
854.09	-90.909
854.39	-150.000
854.68	-22.581
854.98	-53.846
855.28	-88.889
855.57	-71.429
855.87	-28.000
856.17	-109.091
856.46	-74.074
856.76	-83.333
857.05	-73.913
857.35	-54.167
857.65	-107.692
857.94	-52.381
858.24	14.815
858.53	-65.217
858.83	-129.412
859.13	-94.118
859.42	-64.706
859.72	-135.714
860.01	-85.000
860.31	-155.556
860.60	-200.000
860.90	-120.000
861.20	-77.778
861.49	-115.385
861.79	-76.667
862.08	-107.692
862.38	-25.000
862.67	-47.059
862.97	-81.250
863.26	-177.778
863.56	-110.000
863.85	-145.455
864.15	-88.889
864.44	-633.333
864.74	-57.143
865.03	-93.750
865.33	-180.000
865.62	-58.065
865.92	-59.091
866.21	-34.783
866.51	-121.429
866.80	-280.000
867.10	-108.333
867.39	-133.333
867.69	2100.000
867.98	-171.429
868.27	-82.353
868.57	-3300.000
868.86	-310.000
869.16	-61.905
869.45	-50.000
869.75	-118.182
870.04	-257.143
870.33	-150.000
870.63	-385.714
870.92	-350.000
871.22	-287.500
871.51	-218.182
871.80	-833.333
872.10	-1000.000
>>>>>End Processed Spectral Data<<<<<
