SpectraSuite Data File
++++++++++++++++++++++++++++++++++++
Date: Thu May 14 16:02:03 PDT 2015
User: schluterlab
Dark Spectrum Present: Yes
Reference Spectrum Present: Yes
Number of Sampled Component Spectra: 1
Spectrometers: USB2E3373
Integration Time (usec): 3000 (USB2E3373)
Spectra Averaged: 3 (USB2E3373)
Boxcar Smoothing: 0 (USB2E3373)
Correct for Electrical Dark: No (USB2E3373)
Strobe/Lamp Enabled: No (USB2E3373)
Correct for Detector Non-linearity: No (USB2E3373)
Correct for Stray Light: No (USB2E3373)
Number of Pixels in Processed Spectrum: 2048
>>>>>Begin Processed Spectral Data<<<<<
178.53	0.000
178.91	157.143
179.29	-1900.000
179.67	-1700.000
180.04	214.286
180.42	150.000
180.80	280.000
181.18	-1400.000
181.56	-400.000
181.94	300.000
182.31	-375.000
182.69	766.667
183.07	-800.000
183.45	450.000
183.83	-16.667
184.20	-533.333
184.58	1500.000
184.96	-625.000
185.34	-222.222
185.72	-40.000
186.09	322.222
186.47	1100.000
186.85	420.000
187.23	-200.000
187.61	-2400.000
187.98	260.000
188.36	575.000
188.74	-475.000
189.12	-366.667
189.49	-56.250
189.87	-300.000
190.25	-111.111
190.63	-260.000
191.00	-266.667
191.38	0.000
191.76	-725.000
192.14	-233.333
192.51	850.000
192.89	-200.000
193.27	0.000
193.65	-242.857
194.02	-2200.000
194.40	-128.571
194.78	185.714
195.15	0.000
195.53	-100.000
195.91	0.000
196.29	-75.000
196.66	-138.462
197.04	-1800.000
197.42	-271.429
197.79	-1350.000
198.17	-137.500
198.55	-114.286
198.92	-133.333
199.30	-100.000
199.68	-118.182
200.05	-114.286
200.43	-1150.000
200.81	242.857
201.18	0.000
201.56	333.333
201.94	0.000
202.31	633.333
202.69	-188.889
203.07	2100.000
203.44	-155.556
203.82	-375.000
204.19	-116.667
204.57	-333.333
204.95	-237.500
205.32	-1600.000
205.70	300.000
206.08	-333.333
206.45	-116.667
206.83	440.000
207.20	-216.667
207.58	-380.000
207.96	-333.333
208.33	-233.333
208.71	133.333
209.08	-150.000
209.46	0.000
209.84	300.000
210.21	650.000
210.59	900.000
210.96	666.667
211.34	-150.000
211.71	-225.000
212.09	-2000.000
212.46	0.000
212.84	1550.000
213.22	-340.000
213.59	-375.000
213.97	-30.000
214.34	-266.667
214.72	416.667
215.09	-300.000
215.47	0.000
215.84	257.143
216.22	600.000
216.59	-540.000
216.97	-260.000
217.34	-300.000
217.72	-175.000
218.09	-300.000
218.47	-300.000
218.84	0.000
219.22	200.000
219.59	-100.000
219.97	-40.000
220.34	1050.000
220.72	-277.778
221.09	-84.615
221.47	-600.000
221.84	-210.000
222.22	-171.429
222.59	0.000
222.97	-112.500
223.34	-520.000
223.72	-2000.000
224.09	-500.000
224.46	-500.000
224.84	-60.000
225.21	-271.429
225.59	-775.000
225.96	-475.000
226.34	-30.769
226.71	383.333
227.08	-750.000
227.46	-73.333
227.83	-425.000
228.21	-52.632
228.58	112.500
228.95	300.000
229.33	-83.333
229.70	-200.000
230.08	-63.158
230.45	170.000
230.82	-566.667
231.20	-78.571
231.57	-91.667
231.95	-172.727
232.32	-63.636
232.69	10.000
233.07	-350.000
233.44	-70.588
233.81	-150.000
234.19	-61.111
234.56	-86.364
234.93	-10.345
235.31	-63.158
235.68	-100.000
236.05	-85.000
236.43	-11.538
236.80	8.000
237.17	0.000
237.55	-24.242
237.92	-130.000
238.29	-29.032
238.67	-18.182
239.04	-33.333
239.41	-40.476
239.79	-10.870
240.16	-3.704
240.53	-30.435
240.91	-11.765
241.28	-13.115
241.65	0.000
242.02	8.108
242.40	-12.308
242.77	17.333
243.14	-12.195
243.51	-13.158
243.89	0.000
244.26	7.921
244.63	18.627
245.00	-0.935
245.38	14.912
245.75	3.540
246.12	10.317
246.49	6.977
246.87	9.286
247.24	10.596
247.61	11.842
247.98	14.094
248.36	14.815
248.73	3.681
249.10	12.568
249.47	10.448
249.84	18.848
250.22	11.399
250.59	9.444
250.96	12.273
251.33	13.265
251.70	16.239
252.08	14.583
252.45	12.295
252.82	11.157
253.19	12.109
253.56	16.350
253.94	9.615
254.31	15.530
254.68	20.280
255.05	14.984
255.42	14.286
255.79	11.650
256.16	18.543
256.54	11.921
256.91	19.016
257.28	16.393
257.65	11.146
258.02	12.389
258.39	14.245
258.76	19.572
259.14	15.517
259.51	17.003
259.88	15.014
260.25	14.722
260.62	20.548
260.99	16.393
261.36	16.622
261.73	17.772
262.10	13.736
262.47	15.013
262.85	19.949
263.22	14.545
263.59	13.684
263.96	17.647
264.33	13.811
264.70	19.012
265.07	18.377
265.44	18.594
265.81	15.972
266.18	18.141
266.55	17.857
266.92	15.945
267.29	17.505
267.66	17.517
268.03	19.432
268.40	16.701
268.77	16.629
269.14	16.520
269.51	16.667
269.88	18.033
270.25	17.706
270.62	17.722
270.99	21.818
271.36	18.812
271.73	17.092
272.10	19.639
272.47	15.230
272.84	16.667
273.21	17.836
273.58	16.129
273.95	17.692
274.32	14.829
274.69	18.956
275.06	17.399
275.43	17.375
275.80	17.460
276.17	15.926
276.54	16.231
276.91	16.637
277.28	19.530
277.65	19.210
278.02	17.096
278.39	17.210
278.76	18.629
279.13	17.021
279.50	18.557
279.87	17.352
280.23	14.437
280.60	17.797
280.97	17.599
281.34	15.450
281.71	19.289
282.08	16.777
282.45	14.730
282.82	16.641
283.19	14.216
283.56	17.377
283.92	17.718
284.29	18.957
284.66	15.764
285.03	13.301
285.40	17.156
285.77	16.409
286.14	17.710
286.51	15.373
286.87	16.746
287.24	17.620
287.61	17.040
287.98	16.012
288.35	15.089
288.72	16.272
289.08	17.716
289.45	14.941
289.82	15.060
290.19	15.374
290.56	15.493
290.93	16.120
291.29	15.978
291.66	14.187
292.03	14.654
292.40	17.143
292.77	12.534
293.13	14.344
293.50	14.586
293.87	14.228
294.24	14.400
294.60	15.297
294.97	13.423
295.34	14.725
295.71	11.980
296.08	13.437
296.44	13.480
296.81	14.860
297.18	13.450
297.55	12.618
297.91	13.049
298.28	13.270
298.65	13.793
299.02	14.404
299.38	13.730
299.75	13.318
300.12	13.657
300.48	13.364
300.85	13.048
301.22	12.192
301.59	12.900
301.95	13.898
302.32	14.444
302.69	13.253
303.05	13.275
303.42	12.971
303.79	12.292
304.15	12.093
304.52	14.165
304.89	14.031
305.25	12.008
305.62	11.912
305.99	13.814
306.35	12.198
306.72	13.857
307.09	13.909
307.45	11.801
307.82	13.522
308.19	11.705
308.55	14.658
308.92	12.561
309.29	13.697
309.65	12.573
310.02	12.871
310.38	13.484
310.75	14.757
311.12	14.573
311.48	13.294
311.85	13.105
312.22	13.662
312.58	13.427
312.95	14.054
313.31	14.002
313.68	13.919
314.05	14.905
314.41	14.754
314.78	14.351
315.14	16.152
315.51	14.404
315.87	15.572
316.24	15.616
316.61	18.561
316.97	16.561
317.34	17.108
317.70	17.904
318.07	18.430
318.43	18.027
318.80	18.980
319.16	19.657
319.53	19.280
319.89	18.755
320.26	21.263
320.62	19.681
320.99	21.145
321.35	21.811
321.72	22.698
322.08	23.805
322.45	23.306
322.81	24.729
323.18	25.310
323.54	26.034
323.91	26.779
324.27	27.969
324.64	28.799
325.00	30.763
325.37	30.713
325.73	30.000
326.10	32.279
326.46	32.980
326.83	34.267
327.19	34.646
327.56	37.708
327.92	37.136
328.29	36.774
328.65	39.028
329.01	39.932
329.38	40.354
329.74	41.353
330.11	43.236
330.47	43.218
330.84	43.066
331.20	43.833
331.56	44.107
331.93	45.607
332.29	46.780
332.66	45.432
333.02	46.901
333.38	46.057
333.75	48.401
334.11	47.456
334.48	49.092
334.84	49.958
335.20	49.370
335.57	51.096
335.93	50.248
336.29	49.584
336.66	51.388
337.02	50.502
337.38	51.531
337.75	50.661
338.11	52.397
338.47	52.026
338.84	52.369
339.20	50.969
339.56	50.577
339.93	52.299
340.29	51.530
340.65	52.068
341.02	53.152
341.38	54.002
341.74	53.349
342.11	53.178
342.47	51.867
342.83	54.267
343.20	54.129
343.56	54.210
343.92	54.283
344.28	54.844
344.65	54.961
345.01	53.978
345.37	56.065
345.73	55.339
346.10	54.836
346.46	56.646
346.82	53.783
347.19	55.233
347.55	54.704
347.91	56.166
348.27	56.297
348.63	55.522
349.00	55.034
349.36	53.829
349.72	56.994
350.08	55.572
350.45	57.338
350.81	57.014
351.17	56.917
351.53	57.468
351.89	57.327
352.26	57.239
352.62	58.134
352.98	58.092
353.34	56.236
353.70	58.243
354.07	57.452
354.43	57.707
354.79	58.564
355.15	57.469
355.51	57.310
355.87	59.088
356.24	58.783
356.60	57.797
356.96	57.672
357.32	59.257
357.68	58.126
358.04	60.030
358.40	58.060
358.77	58.480
359.13	58.715
359.49	58.736
359.85	58.593
360.21	58.967
360.57	58.722
360.93	58.886
361.29	59.509
361.66	59.957
362.02	60.264
362.38	60.155
362.74	58.589
363.10	59.422
363.46	61.773
363.82	60.014
364.18	60.310
364.54	59.820
364.90	61.806
365.26	60.483
365.62	60.867
365.98	60.790
366.35	61.074
366.71	60.340
367.07	61.570
367.43	59.225
367.79	62.110
368.15	62.943
368.51	60.961
368.87	61.986
369.23	61.333
369.59	63.251
369.95	63.218
370.31	62.188
370.67	61.829
371.03	62.535
371.39	60.578
371.75	62.930
372.11	63.347
372.47	62.492
372.83	62.304
373.19	62.642
373.55	62.127
373.91	62.918
374.27	61.966
374.63	62.788
374.99	62.202
375.35	62.987
375.71	62.516
376.07	61.782
376.42	62.720
376.78	62.772
377.14	61.946
377.50	64.137
377.86	62.438
378.22	63.413
378.58	65.101
378.94	63.087
379.30	62.449
379.66	64.080
380.02	62.839
380.38	64.459
380.74	64.282
381.09	65.447
381.45	63.182
381.81	65.749
382.17	64.014
382.53	64.503
382.89	63.318
383.25	64.361
383.61	64.294
383.97	64.370
384.32	64.115
384.68	62.587
385.04	64.372
385.40	64.879
385.76	66.471
386.12	64.333
386.48	62.941
386.83	65.375
387.19	64.658
387.55	64.378
387.91	64.669
388.27	65.069
388.62	64.777
388.98	63.339
389.34	66.176
389.70	66.299
390.06	65.364
390.42	64.699
390.77	65.924
391.13	65.023
391.49	65.097
391.85	66.485
392.20	63.938
392.56	64.028
392.92	64.940
393.28	64.013
393.64	65.754
393.99	66.008
394.35	66.355
394.71	65.449
395.07	64.850
395.42	65.220
395.78	66.118
396.14	66.013
396.50	65.024
396.85	63.924
397.21	65.030
397.57	65.607
397.92	66.953
398.28	65.019
398.64	64.416
399.00	64.293
399.35	64.974
399.71	65.380
400.07	63.953
400.42	65.600
400.78	65.509
401.14	66.022
401.49	65.264
401.85	65.581
402.21	65.527
402.57	66.080
402.92	66.253
403.28	63.876
403.63	65.155
403.99	65.143
404.35	63.900
404.70	64.476
405.06	62.826
405.42	65.457
405.77	65.921
406.13	64.398
406.49	65.090
406.84	64.765
407.20	64.561
407.55	64.204
407.91	64.551
408.27	63.428
408.62	64.631
408.98	64.423
409.34	64.751
409.69	65.575
410.05	65.709
410.40	65.603
410.76	64.218
411.11	64.991
411.47	64.988
411.83	65.197
412.18	64.880
412.54	64.493
412.89	63.562
413.25	64.447
413.60	65.365
413.96	64.685
414.31	62.493
414.67	63.864
415.03	63.508
415.38	64.250
415.74	62.370
416.09	65.022
416.45	63.494
416.80	63.403
417.16	64.049
417.51	63.076
417.87	64.194
418.22	65.030
418.58	64.374
418.93	63.737
419.29	63.317
419.64	63.866
420.00	62.552
420.35	63.504
420.71	62.665
421.06	62.680
421.42	63.303
421.77	62.951
422.12	62.844
422.48	62.878
422.83	64.403
423.19	63.660
423.54	64.878
423.90	62.176
424.25	64.853
424.61	64.524
424.96	63.317
425.31	64.172
425.67	62.211
426.02	64.029
426.38	62.801
426.73	63.783
427.09	63.149
427.44	63.572
427.79	63.405
428.15	63.128
428.50	62.697
428.85	63.548
429.21	63.191
429.56	62.537
429.92	63.145
430.27	63.422
430.62	63.947
430.98	63.060
431.33	62.414
431.68	62.213
432.04	63.586
432.39	63.042
432.74	63.242
433.10	63.386
433.45	62.653
433.80	62.554
434.16	62.758
434.51	63.669
434.86	64.767
435.22	64.400
435.57	64.741
435.92	64.218
436.28	62.799
436.63	64.937
436.98	61.621
437.34	62.120
437.69	63.236
438.04	63.247
438.39	63.412
438.75	61.649
439.10	63.531
439.45	62.214
439.81	63.390
440.16	62.895
440.51	62.988
440.86	63.313
441.22	63.023
441.57	63.260
441.92	63.046
442.27	63.586
442.63	62.096
442.98	63.714
443.33	62.704
443.68	62.042
444.03	63.970
444.39	63.523
444.74	63.144
445.09	61.835
445.44	61.907
445.79	63.985
446.15	63.155
446.50	62.997
446.85	62.792
447.20	62.573
447.55	63.755
447.91	62.670
448.26	63.425
448.61	61.955
448.96	64.270
449.31	62.248
449.66	62.418
450.02	61.709
450.37	63.346
450.72	63.186
451.07	62.756
451.42	62.103
451.77	62.590
452.12	64.898
452.47	62.151
452.83	64.133
453.18	62.288
453.53	62.723
453.88	62.065
454.23	62.994
454.58	63.900
454.93	61.954
455.28	63.877
455.63	62.820
455.98	62.402
456.34	62.544
456.69	63.492
457.04	63.712
457.39	62.860
457.74	62.752
458.09	61.395
458.44	61.800
458.79	61.578
459.14	61.353
459.49	62.649
459.84	61.438
460.19	61.521
460.54	62.237
460.89	61.408
461.24	61.379
461.59	63.143
461.94	61.038
462.29	61.310
462.64	61.557
462.99	62.210
463.34	60.870
463.69	60.141
464.04	60.367
464.39	60.818
464.74	60.319
465.09	59.631
465.44	61.695
465.79	61.396
466.14	60.448
466.49	61.053
466.84	61.818
467.19	59.595
467.54	58.754
467.89	59.483
468.24	59.834
468.59	59.815
468.94	61.189
469.29	60.708
469.64	59.377
469.99	61.185
470.34	60.891
470.68	62.269
471.03	61.297
471.38	61.347
471.73	61.704
472.08	62.119
472.43	59.783
472.78	59.824
473.13	61.631
473.48	61.208
473.83	61.056
474.17	59.203
474.52	61.696
474.87	58.250
475.22	59.775
475.57	58.152
475.92	59.433
476.27	59.212
476.61	59.138
476.96	59.020
477.31	59.208
477.66	60.126
478.01	58.363
478.36	59.073
478.70	59.803
479.05	59.918
479.40	58.885
479.75	58.549
480.10	58.787
480.45	58.933
480.79	58.549
481.14	58.686
481.49	58.155
481.84	57.876
482.19	58.839
482.53	58.505
482.88	59.637
483.23	58.293
483.58	57.817
483.92	57.004
484.27	57.705
484.62	56.848
484.97	57.465
485.31	56.741
485.66	54.496
486.01	53.259
486.36	53.666
486.70	55.347
487.05	56.379
487.40	55.352
487.75	55.725
488.09	55.424
488.44	54.840
488.79	55.683
489.13	55.177
489.48	56.155
489.83	57.223
490.17	55.407
490.52	56.814
490.87	56.261
491.22	56.629
491.56	56.527
491.91	56.433
492.26	56.859
492.60	55.050
492.95	55.946
493.30	55.939
493.64	56.899
493.99	56.623
494.34	55.444
494.68	55.889
495.03	55.815
495.37	56.769
495.72	56.236
496.07	55.215
496.41	54.826
496.76	55.963
497.11	55.541
497.45	56.021
497.80	55.664
498.14	54.512
498.49	55.974
498.84	55.484
499.18	55.286
499.53	55.605
499.87	55.165
500.22	54.452
500.56	55.286
500.91	55.561
501.26	55.227
501.60	54.750
501.95	54.451
502.29	53.752
502.64	54.613
502.98	53.020
503.33	54.946
503.67	54.165
504.02	53.152
504.36	55.228
504.71	54.203
505.06	53.888
505.40	54.707
505.75	54.235
506.09	55.110
506.44	54.550
506.78	55.275
507.13	54.219
507.47	54.619
507.82	53.362
508.16	53.776
508.51	53.493
508.85	53.708
509.19	52.771
509.54	54.131
509.88	53.715
510.23	54.347
510.57	54.277
510.92	54.330
511.26	53.439
511.61	52.438
511.95	53.001
512.30	54.357
512.64	52.724
512.98	53.127
513.33	52.823
513.67	53.952
514.02	53.909
514.36	53.555
514.70	54.427
515.05	53.650
515.39	52.231
515.74	54.825
516.08	53.671
516.42	52.904
516.77	53.155
517.11	52.347
517.46	52.492
517.80	52.806
518.14	54.189
518.49	53.959
518.83	52.954
519.17	52.666
519.52	52.516
519.86	52.851
520.20	52.662
520.55	52.026
520.89	52.646
521.23	53.378
521.58	52.712
521.92	53.484
522.26	52.921
522.61	54.225
522.95	52.480
523.29	53.046
523.64	51.513
523.98	52.824
524.32	53.295
524.66	53.159
525.01	52.152
525.35	51.637
525.69	52.726
526.04	52.813
526.38	53.161
526.72	53.518
527.06	52.727
527.41	50.262
527.75	53.325
528.09	51.948
528.43	51.095
528.78	51.676
529.12	51.548
529.46	51.939
529.80	51.659
530.15	50.725
530.49	52.076
530.83	52.715
531.17	51.852
531.51	51.925
531.86	51.743
532.20	51.463
532.54	50.209
532.88	50.667
533.22	50.147
533.57	50.721
533.91	49.719
534.25	50.085
534.59	50.287
534.93	49.462
535.27	49.239
535.62	50.313
535.96	50.145
536.30	48.531
536.64	50.631
536.98	49.815
537.32	49.630
537.66	49.470
538.01	50.091
538.35	49.391
538.69	49.099
539.03	50.031
539.37	48.645
539.71	48.949
540.05	49.820
540.39	49.083
540.73	48.634
541.07	49.847
541.42	46.958
541.76	47.094
542.10	48.552
542.44	47.686
542.78	47.871
543.12	48.033
543.46	47.436
543.80	47.122
544.14	47.397
544.48	48.700
544.82	46.918
545.16	46.810
545.50	47.154
545.84	47.030
546.18	49.321
546.52	46.815
546.86	47.421
547.20	47.583
547.54	47.878
547.88	46.293
548.22	47.076
548.56	46.987
548.90	47.881
549.24	46.687
549.58	46.057
549.92	46.556
550.26	47.120
550.60	47.033
550.94	46.960
551.28	46.535
551.62	48.113
551.96	46.796
552.30	46.654
552.64	47.106
552.98	46.475
553.32	47.331
553.66	46.045
554.00	46.910
554.34	46.589
554.68	44.739
555.02	47.175
555.36	46.351
555.69	45.163
556.03	45.208
556.37	46.621
556.71	46.671
557.05	45.942
557.39	46.184
557.73	45.310
558.07	46.093
558.41	45.847
558.75	46.315
559.08	47.251
559.42	44.856
559.76	45.522
560.10	44.608
560.44	45.185
560.78	45.688
561.12	45.320
561.45	44.282
561.79	45.116
562.13	45.348
562.47	44.575
562.81	45.063
563.15	44.886
563.48	44.624
563.82	43.773
564.16	43.549
564.50	43.445
564.84	43.776
565.17	43.941
565.51	42.348
565.85	44.952
566.19	42.742
566.52	44.061
566.86	43.124
567.20	41.599
567.54	42.485
567.88	41.641
568.21	42.688
568.55	42.446
568.89	41.852
569.23	41.572
569.56	40.797
569.90	39.487
570.24	39.359
570.57	39.320
570.91	38.855
571.25	38.183
571.59	38.464
571.92	37.900
572.26	38.274
572.60	38.002
572.93	37.267
573.27	38.269
573.61	37.507
573.95	37.339
574.28	36.861
574.62	36.221
574.96	35.929
575.29	35.933
575.63	36.221
575.97	36.359
576.30	36.393
576.64	36.244
576.98	36.059
577.31	36.071
577.65	36.381
577.98	35.279
578.32	35.429
578.66	35.262
578.99	35.306
579.33	35.416
579.67	35.335
580.00	34.974
580.34	35.100
580.67	34.797
581.01	35.244
581.35	35.106
581.68	34.712
582.02	34.593
582.35	35.317
582.69	34.896
583.02	34.592
583.36	34.792
583.70	35.197
584.03	34.149
584.37	35.078
584.70	34.352
585.04	34.666
585.37	34.490
585.71	34.088
586.04	34.258
586.38	34.819
586.72	34.670
587.05	34.357
587.39	34.729
587.72	34.354
588.06	34.333
588.39	34.205
588.73	34.841
589.06	35.214
589.40	35.095
589.73	35.026
590.07	35.776
590.40	35.936
590.73	35.065
591.07	36.374
591.40	35.770
591.74	35.652
592.07	36.135
592.41	35.765
592.74	35.073
593.08	35.064
593.41	34.821
593.75	34.598
594.08	34.141
594.41	35.513
594.75	34.540
595.08	34.724
595.42	34.610
595.75	34.679
596.09	35.073
596.42	34.647
596.75	34.929
597.09	35.677
597.42	35.638
597.75	34.457
598.09	34.921
598.42	35.464
598.76	34.734
599.09	33.749
599.42	33.456
599.76	34.467
600.09	34.568
600.42	33.734
600.76	34.115
601.09	33.389
601.42	33.127
601.76	33.897
602.09	34.024
602.42	33.842
602.76	34.539
603.09	33.957
603.42	34.429
603.76	34.038
604.09	34.776
604.42	33.468
604.76	33.447
605.09	33.785
605.42	34.370
605.75	33.615
606.09	34.192
606.42	33.345
606.75	32.946
607.09	32.949
607.42	33.141
607.75	33.802
608.08	33.386
608.42	33.777
608.75	33.955
609.08	34.338
609.41	34.363
609.75	35.179
610.08	35.048
610.41	33.985
610.74	34.202
611.07	34.547
611.41	34.619
611.74	34.273
612.07	35.110
612.40	34.221
612.73	34.377
613.07	34.719
613.40	35.226
613.73	34.377
614.06	34.887
614.39	33.771
614.72	34.304
615.06	33.975
615.39	34.074
615.72	33.934
616.05	33.463
616.38	35.015
616.71	34.848
617.05	34.239
617.38	33.654
617.71	34.557
618.04	34.700
618.37	34.754
618.70	35.407
619.03	35.185
619.36	34.587
619.69	35.682
620.03	35.782
620.36	35.460
620.69	34.670
621.02	36.089
621.35	38.026
621.68	37.744
622.01	35.801
622.34	35.425
622.67	35.533
623.00	34.211
623.33	35.634
623.66	35.863
623.99	34.826
624.32	35.932
624.65	34.878
624.99	35.176
625.32	36.577
625.65	35.806
625.98	33.627
626.31	36.145
626.64	35.678
626.97	36.909
627.30	35.535
627.63	36.309
627.96	37.312
628.29	35.720
628.62	35.600
628.95	37.423
629.28	37.808
629.61	37.542
629.94	36.402
630.26	37.542
630.59	36.528
630.92	37.749
631.25	39.088
631.58	38.324
631.91	37.769
632.24	38.232
632.57	36.528
632.90	38.716
633.23	38.673
633.56	38.265
633.89	38.223
634.22	39.501
634.55	38.309
634.88	39.394
635.20	40.474
635.53	40.678
635.86	39.003
636.19	38.918
636.52	39.662
636.85	36.057
637.18	37.630
637.51	39.785
637.83	37.099
638.16	40.438
638.49	38.615
638.82	37.993
639.15	39.061
639.48	40.762
639.81	38.799
640.13	39.223
640.46	38.788
640.79	37.990
641.12	39.255
641.45	41.029
641.77	42.234
642.10	39.764
642.43	41.489
642.76	38.482
643.09	38.493
643.41	39.636
643.74	41.241
644.07	42.483
644.40	40.877
644.73	40.203
645.05	41.997
645.38	39.856
645.71	40.176
646.04	40.890
646.36	39.124
646.69	39.264
647.02	42.661
647.35	43.664
647.67	42.834
648.00	39.968
648.33	39.189
648.66	39.372
648.98	36.599
649.31	38.160
649.64	39.841
649.96	37.931
650.29	37.135
650.62	37.907
650.94	37.838
651.27	38.623
651.60	37.135
651.92	40.426
652.25	37.192
652.58	37.276
652.90	39.244
653.23	38.028
653.56	36.662
653.88	36.798
654.21	37.183
654.54	37.572
654.86	37.819
655.19	34.630
655.52	33.200
655.84	28.508
656.17	32.675
656.49	45.259
656.82	48.774
657.15	37.107
657.47	28.013
657.80	20.729
658.13	16.021
658.45	21.374
658.78	25.982
659.10	24.567
659.43	25.554
659.75	25.861
660.08	26.499
660.41	28.371
660.73	31.471
661.06	35.095
661.38	37.002
661.71	38.276
662.03	38.801
662.36	41.324
662.68	38.462
663.01	40.531
663.33	41.588
663.66	40.293
663.98	38.077
664.31	42.026
664.63	37.765
664.96	40.109
665.28	39.201
665.61	42.308
665.93	36.071
666.26	36.918
666.58	39.852
666.91	40.000
667.23	39.048
667.56	39.053
667.88	43.200
668.21	38.672
668.53	37.259
668.86	39.293
669.18	41.141
669.50	37.376
669.83	40.000
670.15	38.780
670.48	39.484
670.80	39.771
671.13	38.752
671.45	37.205
671.77	38.795
672.10	36.667
672.42	35.761
672.75	35.791
673.07	34.328
673.39	33.590
673.72	36.745
674.04	38.621
674.37	37.388
674.69	36.508
675.01	35.429
675.34	38.740
675.66	36.891
675.98	39.179
676.31	39.063
676.63	37.833
676.95	39.847
677.28	37.500
677.60	36.417
677.92	39.347
678.25	36.929
678.57	38.256
678.89	37.031
679.22	34.669
679.54	34.017
679.86	33.220
680.18	36.650
680.51	32.390
680.83	34.043
681.15	34.310
681.48	35.751
681.80	36.788
682.12	34.091
682.44	32.554
682.77	34.397
683.09	36.174
683.41	37.403
683.73	34.345
684.06	36.162
684.38	33.453
684.70	36.445
685.02	36.317
685.34	33.444
685.67	32.808
685.99	33.589
686.31	31.831
686.63	34.597
686.96	33.912
687.28	32.410
687.60	32.997
687.92	33.280
688.24	33.389
688.56	33.103
688.89	33.212
689.21	36.791
689.53	34.510
689.85	34.122
690.17	35.370
690.49	33.665
690.82	33.663
691.14	35.020
691.46	36.138
691.78	34.991
692.10	34.495
692.42	30.714
692.74	33.031
693.06	30.926
693.39	36.433
693.71	34.023
694.03	32.900
694.35	34.286
694.67	32.033
694.99	34.468
695.31	35.762
695.63	34.848
695.95	32.298
696.27	33.846
696.59	34.956
696.91	38.964
697.23	36.484
697.56	32.179
697.88	33.902
698.20	33.145
698.52	35.985
698.84	33.264
699.16	35.102
699.48	32.427
699.80	34.255
700.12	33.843
700.44	35.253
700.76	36.817
701.08	35.351
701.40	36.010
701.72	38.557
702.04	36.898
702.36	33.508
702.68	38.631
703.00	33.007
703.32	32.512
703.64	33.252
703.96	36.277
704.28	31.204
704.60	36.962
704.91	33.929
705.23	35.342
705.55	37.604
705.87	34.848
706.19	42.025
706.51	34.639
706.83	34.294
707.15	33.333
707.47	30.140
707.79	32.751
708.11	29.449
708.43	33.763
708.74	27.455
709.06	29.930
709.38	35.211
709.70	34.491
710.02	36.693
710.34	33.511
710.66	37.430
710.98	33.880
711.29	33.791
711.61	35.311
711.93	34.758
712.25	32.432
712.57	37.168
712.89	36.176
713.20	33.728
713.52	34.682
713.84	33.148
714.16	34.474
714.48	33.505
714.80	36.883
715.11	28.346
715.43	32.361
715.75	30.526
716.07	32.320
716.39	37.978
716.70	31.024
717.02	36.066
717.34	33.449
717.66	33.557
717.97	30.137
718.29	34.364
718.61	35.526
718.93	35.599
719.24	28.571
719.56	31.288
719.88	32.432
720.20	31.935
720.51	28.882
720.83	31.875
721.15	33.882
721.46	29.795
721.78	34.667
722.10	27.184
722.42	32.886
722.73	30.000
723.05	29.123
723.37	29.861
723.68	36.201
724.00	35.740
724.32	29.930
724.63	33.916
724.95	34.043
725.27	33.798
725.58	28.975
725.90	35.172
726.22	31.034
726.53	32.792
726.85	33.648
727.16	30.816
727.48	33.945
727.80	30.132
728.11	32.155
728.43	32.323
728.74	30.435
729.06	32.781
729.38	29.221
729.69	31.879
730.01	28.274
730.32	29.091
730.64	31.761
730.96	28.882
731.27	31.006
731.59	31.044
731.90	28.312
732.22	27.344
732.53	24.862
732.85	30.857
733.16	29.326
733.48	30.488
733.80	28.412
734.11	30.484
734.43	31.892
734.74	30.886
735.06	28.894
735.37	30.811
735.69	29.730
736.00	33.898
736.32	30.458
736.63	27.222
736.95	28.448
737.26	30.909
737.58	28.788
737.89	30.294
738.21	26.911
738.52	28.525
738.83	27.986
739.15	28.723
739.46	31.633
739.78	29.755
740.09	28.940
740.41	27.988
740.72	27.667
741.04	28.155
741.35	32.982
741.66	29.020
741.98	33.197
742.29	25.523
742.61	35.088
742.92	29.615
743.23	34.657
743.55	30.620
743.86	32.800
744.18	26.860
744.49	29.958
744.80	31.687
745.12	35.443
745.43	29.268
745.74	33.621
746.06	34.746
746.37	31.224
746.68	32.520
747.00	32.083
747.31	29.185
747.62	33.077
747.94	30.364
748.25	33.333
748.56	25.714
748.88	26.068
749.19	33.621
749.50	32.900
749.82	32.932
750.13	34.875
750.44	28.000
750.75	30.462
751.07	26.769
751.38	30.599
751.69	28.115
752.01	27.832
752.32	27.778
752.63	31.633
752.94	26.990
753.26	27.509
753.57	28.148
753.88	28.090
754.19	27.653
754.51	29.260
754.82	27.331
755.13	32.131
755.44	29.352
755.75	26.645
756.07	28.657
756.38	26.730
756.69	30.120
757.00	24.931
757.31	30.055
757.63	25.575
757.94	25.117
758.25	24.605
758.56	24.619
758.87	27.273
759.18	27.200
759.50	28.045
759.81	28.291
760.12	27.224
760.43	26.823
760.74	27.586
761.05	26.500
761.36	25.301
761.67	24.873
761.99	27.297
762.30	23.780
762.61	28.053
762.92	27.612
763.23	29.213
763.54	26.619
763.85	25.430
764.16	27.946
764.47	24.296
764.78	29.073
765.10	28.446
765.41	25.641
765.72	26.720
766.03	24.294
766.34	25.705
766.65	25.087
766.96	28.685
767.27	26.267
767.58	27.363
767.89	30.769
768.20	32.394
768.51	26.389
768.82	25.703
769.13	26.894
769.44	22.308
769.75	27.437
770.06	28.077
770.37	29.528
770.68	20.851
770.99	21.862
771.30	32.593
771.61	20.913
771.92	23.333
772.23	27.126
772.54	21.296
772.85	27.650
773.16	27.619
773.47	22.222
773.78	17.838
774.09	29.545
774.39	35.000
774.70	26.776
775.01	23.171
775.32	28.824
775.63	26.994
775.94	18.471
776.25	33.548
776.56	31.410
776.87	33.333
777.18	27.586
777.48	29.371
777.79	27.703
778.10	19.118
778.41	25.694
778.72	31.724
779.03	25.926
779.34	27.273
779.65	24.870
779.95	30.556
780.26	24.432
780.57	28.387
780.88	32.609
781.19	23.226
781.50	29.412
781.80	26.344
782.11	22.222
782.42	21.717
782.73	25.749
783.04	21.788
783.34	23.030
783.65	16.340
783.96	26.708
784.27	21.429
784.57	21.854
784.88	22.143
785.19	25.984
785.50	24.409
785.81	24.060
786.11	19.231
786.42	22.302
786.73	16.547
787.04	38.346
787.34	15.574
787.65	29.600
787.96	27.612
788.26	25.175
788.57	29.371
788.88	19.737
789.19	24.837
789.49	23.973
789.80	22.695
790.11	19.685
790.41	14.844
790.72	13.559
791.03	8.738
791.33	20.000
791.64	27.193
791.95	17.857
792.25	24.762
792.56	25.893
792.87	7.292
793.17	22.321
793.48	12.500
793.79	12.048
794.09	20.183
794.40	17.431
794.70	17.007
795.01	18.182
795.32	15.753
795.62	23.239
795.93	18.939
796.23	27.049
796.54	21.429
796.85	10.638
797.15	7.609
797.46	17.808
797.76	5.000
798.07	10.870
798.37	10.309
798.68	18.182
798.99	24.138
799.29	7.865
799.60	31.915
799.90	21.687
800.21	3.077
800.51	13.433
800.82	16.176
801.12	-4.110
801.43	-1.471
801.73	10.169
802.04	21.212
802.34	5.000
802.65	18.644
802.95	14.925
803.26	20.339
803.56	8.219
803.87	10.000
804.17	17.808
804.48	-5.263
804.78	8.333
805.09	-6.897
805.39	22.973
805.70	9.859
806.00	14.634
806.30	14.458
806.61	-4.110
806.91	25.962
807.22	13.333
807.52	17.241
807.83	19.444
808.13	15.663
808.43	15.730
808.74	5.000
809.04	5.882
809.35	17.333
809.65	12.857
809.95	23.288
810.26	5.263
810.56	10.345
810.86	20.588
811.17	17.544
811.47	-4.918
811.77	-13.333
812.08	6.780
812.38	6.667
812.69	5.172
812.99	-11.321
813.29	-2.564
813.59	6.000
813.90	0.000
814.20	9.091
814.50	25.352
814.81	12.821
815.11	9.836
815.41	11.940
815.72	10.345
816.02	7.143
816.32	6.667
816.62	18.182
816.93	-20.000
817.23	3.704
817.53	21.277
817.84	16.667
818.14	-2.941
818.44	20.408
818.74	8.889
819.04	-2.564
819.35	-42.857
819.65	-7.692
819.95	15.094
820.25	-2.222
820.56	-19.048
820.86	-9.375
821.16	2.564
821.46	-13.953
821.76	-26.000
822.07	7.143
822.37	21.739
822.67	2.128
822.97	-8.108
823.27	5.000
823.57	22.449
823.88	26.667
824.18	15.000
824.48	-26.667
824.78	0.000
825.08	-24.242
825.38	17.778
825.69	-8.511
825.99	-13.889
826.29	-62.857
826.59	0.000
826.89	-11.628
827.19	-8.000
827.49	-2.941
827.79	18.750
828.09	-5.405
828.39	6.667
828.70	-26.829
829.00	-2.326
829.30	-21.429
829.60	-5.882
829.90	-2.174
830.20	-34.286
830.50	-34.483
830.80	-50.000
831.10	-19.231
831.40	-29.412
831.70	-4.762
832.00	19.355
832.30	-82.353
832.60	-20.833
832.90	-138.462
833.20	-10.526
833.50	10.000
833.80	-68.421
834.10	-66.667
834.40	5.556
834.70	18.750
835.00	-34.286
835.30	26.471
835.60	-33.333
835.90	-4.000
836.20	-68.182
836.50	-4.000
836.80	-21.212
837.10	11.111
837.40	-7.407
837.70	-81.250
838.00	-21.429
838.30	-17.391
838.60	-10.345
838.90	-28.571
839.19	-56.522
839.49	-91.667
839.79	39.130
840.09	-68.750
840.39	-15.000
840.69	29.032
840.99	-35.714
841.29	-53.333
841.59	-68.421
841.88	-7.692
842.18	-19.231
842.48	-110.000
842.78	-50.000
843.08	33.333
843.38	0.000
843.68	-94.444
843.97	8.824
844.27	-37.500
844.57	-68.421
844.87	-100.000
845.17	-53.333
845.47	-52.381
845.76	-28.571
846.06	-77.778
846.36	-52.941
846.66	-26.923
846.96	-113.333
847.25	-47.059
847.55	-4.348
847.85	-20.000
848.15	29.412
848.44	-90.909
848.74	-9.524
849.04	-50.000
849.34	-106.250
849.63	-52.174
849.93	900.000
850.23	-26.667
850.53	-11.538
850.82	-109.091
851.12	-22.727
851.42	-127.273
851.71	-115.385
852.01	-35.000
852.31	-84.615
852.61	-52.632
852.90	-83.333
853.20	-16.667
853.50	-155.556
853.79	-85.714
854.09	-50.000
854.39	-108.333
854.68	3.226
854.98	-38.462
855.28	-61.111
855.57	-50.000
855.87	-12.000
856.17	-13.636
856.46	11.111
856.76	-33.333
857.05	-52.174
857.35	-25.000
857.65	-84.615
857.94	-4.762
858.24	7.407
858.53	-17.391
858.83	-23.529
859.13	-94.118
859.42	-47.059
859.72	-35.714
860.01	-80.000
860.31	-188.889
860.60	-40.000
860.90	-80.000
861.20	-44.444
861.49	-84.615
861.79	-30.000
862.08	-84.615
862.38	21.875
862.67	-17.647
862.97	-25.000
863.26	-155.556
863.56	0.000
863.85	-127.273
864.15	-55.556
864.44	-466.667
864.74	-85.714
865.03	-93.750
865.33	-130.000
865.62	3.226
865.92	-40.909
866.21	-21.739
866.51	-85.714
866.80	-340.000
867.10	-141.667
867.39	-183.333
867.69	2200.000
867.98	-271.429
868.27	-41.176
868.57	-2800.000
868.86	-190.000
869.16	-61.905
869.45	-45.833
869.75	-27.273
870.04	-271.429
870.33	-133.333
870.63	-342.857
870.92	-75.000
871.22	-200.000
871.51	-100.000
871.80	-900.000
872.10	-900.000
>>>>>End Processed Spectral Data<<<<<
