SpectraSuite Data File
++++++++++++++++++++++++++++++++++++
Date: Thu May 14 16:02:17 PDT 2015
User: schluterlab
Dark Spectrum Present: Yes
Reference Spectrum Present: Yes
Number of Sampled Component Spectra: 1
Spectrometers: USB2E3373
Integration Time (usec): 3000 (USB2E3373)
Spectra Averaged: 3 (USB2E3373)
Boxcar Smoothing: 0 (USB2E3373)
Correct for Electrical Dark: No (USB2E3373)
Strobe/Lamp Enabled: No (USB2E3373)
Correct for Detector Non-linearity: No (USB2E3373)
Correct for Stray Light: No (USB2E3373)
Number of Pixels in Processed Spectrum: 2048
>>>>>Begin Processed Spectral Data<<<<<
178.53	0.000
178.91	214.286
179.29	-1900.000
179.67	-1100.000
180.04	192.857
180.42	180.000
180.80	440.000
181.18	-1600.000
181.56	-200.000
181.94	400.000
182.31	-300.000
182.69	500.000
183.07	-600.000
183.45	400.000
183.83	-300.000
184.20	-700.000
184.58	1700.000
184.96	-525.000
185.34	-155.556
185.72	-160.000
186.09	255.556
186.47	650.000
186.85	440.000
187.23	-244.444
187.61	-2200.000
187.98	200.000
188.36	425.000
188.74	-300.000
189.12	-433.333
189.49	-100.000
189.87	-112.500
190.25	-66.667
190.63	-420.000
191.00	-200.000
191.38	0.000
191.76	-575.000
192.14	-350.000
192.51	950.000
192.89	-116.667
193.27	0.000
193.65	-200.000
194.02	-2400.000
194.40	-257.143
194.78	300.000
195.15	0.000
195.53	-100.000
195.91	0.000
196.29	-125.000
196.66	-138.462
197.04	-2300.000
197.42	-300.000
197.79	-1000.000
198.17	-225.000
198.55	-200.000
198.92	-111.111
199.30	-200.000
199.68	-90.909
200.05	-35.714
200.43	-1350.000
200.81	242.857
201.18	0.000
201.56	266.667
201.94	0.000
202.31	566.667
202.69	-188.889
203.07	1200.000
203.44	-144.444
203.82	-375.000
204.19	-125.000
204.57	-283.333
204.95	-137.500
205.32	-2000.000
205.70	375.000
206.08	-216.667
206.45	-216.667
206.83	380.000
207.20	-166.667
207.58	-320.000
207.96	-216.667
208.33	-83.333
208.71	141.667
209.08	-33.333
209.46	0.000
209.84	300.000
210.21	500.000
210.59	850.000
210.96	600.000
211.34	-425.000
211.71	-275.000
212.09	-1800.000
212.46	0.000
212.84	1250.000
213.22	-240.000
213.59	-25.000
213.97	-60.000
214.34	-700.000
214.72	350.000
215.09	-375.000
215.47	0.000
215.84	357.143
216.22	1200.000
216.59	-260.000
216.97	-340.000
217.34	-375.000
217.72	-237.500
218.09	-150.000
218.47	-350.000
218.84	0.000
219.22	500.000
219.59	-58.824
219.97	-25.000
220.34	850.000
220.72	-288.889
221.09	-53.846
221.47	-466.667
221.84	-60.000
222.22	-185.714
222.59	0.000
222.97	-125.000
223.34	-460.000
223.72	-1500.000
224.09	-600.000
224.46	-350.000
224.84	-160.000
225.21	-257.143
225.59	-550.000
225.96	-575.000
226.34	-38.462
226.71	400.000
227.08	-800.000
227.46	-60.000
227.83	-550.000
228.21	-47.368
228.58	200.000
228.95	950.000
229.33	-108.333
229.70	-100.000
230.08	5.263
230.45	240.000
230.82	-566.667
231.20	-57.143
231.57	-83.333
231.95	-154.545
232.32	-90.909
232.69	-10.000
233.07	-150.000
233.44	-70.588
233.81	-120.000
234.19	27.778
234.56	4.545
234.93	-17.241
235.31	-47.368
235.68	-77.778
236.05	-50.000
236.43	11.538
236.80	48.000
237.17	-14.815
237.55	-30.303
237.92	-90.000
238.29	-29.032
238.67	-18.182
239.04	-5.556
239.41	-14.286
239.79	-8.696
240.16	7.407
240.53	-21.739
240.91	-1.961
241.28	-1.639
241.65	7.463
242.02	21.622
242.40	7.692
242.77	9.333
243.14	10.976
243.51	6.579
243.89	20.513
244.26	15.842
244.63	23.529
245.00	10.280
245.38	23.684
245.75	15.044
246.12	15.079
246.49	19.380
246.87	20.000
247.24	23.841
247.61	21.053
247.98	22.148
248.36	17.901
248.73	18.405
249.10	22.951
249.47	27.363
249.84	28.272
250.22	23.316
250.59	24.444
250.96	29.091
251.33	19.388
251.70	27.350
252.08	27.500
252.45	25.820
252.82	26.446
253.19	24.219
253.56	25.856
253.94	26.538
254.31	24.242
254.68	30.070
255.05	28.339
255.42	22.109
255.79	20.388
256.16	24.172
256.54	28.146
256.91	29.508
257.28	27.213
257.65	24.841
258.02	27.434
258.39	26.211
258.76	32.416
259.14	29.023
259.51	28.242
259.88	28.329
260.25	28.333
260.62	28.219
260.99	28.415
261.36	27.078
261.73	25.464
262.10	24.451
262.47	28.954
262.85	29.545
263.22	30.130
263.59	29.211
263.96	27.877
264.33	28.900
264.70	28.395
265.07	32.458
265.44	29.932
265.81	28.009
266.18	31.973
266.55	27.679
266.92	26.651
267.29	28.884
267.66	30.599
268.03	28.603
268.40	27.557
268.77	26.879
269.14	26.211
269.51	29.605
269.88	32.787
270.25	27.767
270.62	30.380
270.99	29.091
271.36	28.713
271.73	25.147
272.10	30.261
272.47	30.461
272.84	27.510
273.21	26.854
273.58	26.210
273.95	28.462
274.32	27.757
274.69	27.853
275.06	31.319
275.43	26.802
275.80	26.455
276.17	27.778
276.54	28.358
276.91	28.086
277.28	28.029
277.65	28.187
278.02	27.390
278.39	26.630
278.76	25.835
279.13	27.660
279.50	28.694
279.87	28.801
280.23	23.768
280.60	28.475
280.97	27.796
281.34	28.353
281.71	27.919
282.08	27.409
282.45	27.823
282.82	26.531
283.19	28.918
283.56	25.082
283.92	26.426
284.29	29.700
284.66	28.407
285.03	24.359
285.40	26.584
285.77	26.161
286.14	27.023
286.51	29.072
286.87	25.434
287.24	25.904
287.61	26.457
287.98	25.076
288.35	28.107
288.72	25.148
289.08	26.354
289.45	26.036
289.82	24.398
290.19	24.282
290.56	25.211
290.93	26.391
291.29	25.344
291.66	26.997
292.03	24.695
292.40	24.490
292.77	24.798
293.13	24.493
293.50	23.653
293.87	23.490
294.24	23.333
294.60	23.641
294.97	22.819
295.34	24.456
295.71	22.699
296.08	22.868
296.44	21.324
296.81	22.412
297.18	21.918
297.55	20.165
297.91	21.352
298.28	21.564
298.65	22.235
299.02	21.488
299.38	21.053
299.75	21.028
300.12	20.486
300.48	21.544
300.85	21.597
301.22	20.246
301.59	22.146
301.95	20.113
302.32	18.778
302.69	20.482
303.05	21.328
303.42	21.175
303.79	20.833
304.15	21.030
304.52	20.613
304.89	20.942
305.25	19.669
305.62	20.481
305.99	20.206
306.35	20.665
306.72	22.544
307.09	20.508
307.45	19.565
307.82	19.980
308.19	19.879
308.55	20.251
308.92	20.935
309.29	22.031
309.65	20.858
310.02	20.099
310.38	20.177
310.75	20.777
311.12	21.764
311.48	21.310
311.85	21.462
312.22	19.260
312.58	19.906
312.95	19.216
313.31	21.771
313.68	21.245
314.05	22.132
314.41	21.311
314.78	22.071
315.14	21.506
315.51	20.960
315.87	21.692
316.24	22.648
316.61	21.581
316.97	22.443
317.34	21.340
317.70	23.755
318.07	23.721
318.43	22.109
318.80	24.582
319.16	23.262
319.53	21.937
319.89	23.225
320.26	24.555
320.62	23.759
320.99	24.100
321.35	25.508
321.72	25.488
322.08	25.248
322.45	24.932
322.81	26.444
323.18	25.664
323.54	26.379
323.91	27.936
324.27	25.904
324.64	28.296
325.00	25.705
325.37	27.764
325.73	28.843
326.10	27.981
326.46	28.990
326.83	30.104
327.19	28.976
327.56	29.723
327.92	28.403
328.29	28.629
328.65	29.146
329.01	30.880
329.38	31.171
329.74	31.421
330.11	29.538
330.47	30.918
330.84	30.405
331.20	30.750
331.56	30.936
331.93	31.297
332.29	30.932
332.66	30.980
333.02	30.653
333.38	29.614
333.75	31.481
334.11	31.776
334.48	31.766
334.84	32.031
335.20	30.982
335.57	31.029
335.93	31.818
336.29	30.283
336.66	29.184
337.02	31.020
337.38	31.463
337.75	30.992
338.11	31.034
338.47	30.687
338.84	30.034
339.20	30.160
339.56	31.054
339.93	31.034
340.29	29.791
340.65	29.440
341.02	30.168
341.38	31.932
341.74	30.589
342.11	30.652
342.47	29.865
342.83	30.435
343.20	31.480
343.56	30.393
343.92	30.745
344.28	30.313
344.65	31.085
345.01	30.031
345.37	31.726
345.73	29.696
346.10	29.953
346.46	30.222
346.82	30.112
347.19	30.481
347.55	30.653
347.91	29.123
348.27	30.121
348.63	30.312
349.00	30.052
349.36	29.368
349.72	29.092
350.08	30.238
350.45	29.886
350.81	29.940
351.17	29.173
351.53	29.947
351.89	30.372
352.26	29.925
352.62	30.522
352.98	30.153
353.34	28.902
353.70	29.045
354.07	29.657
354.43	28.778
354.79	29.993
355.15	29.728
355.51	29.605
355.87	29.020
356.24	29.810
356.60	28.751
356.96	28.466
357.32	27.658
357.68	27.965
358.04	28.668
358.40	29.328
358.77	28.436
359.13	28.360
359.49	27.732
359.85	28.136
360.21	28.981
360.57	28.643
360.93	29.267
361.29	28.491
361.66	28.168
362.02	29.923
362.38	29.585
362.74	29.120
363.10	29.780
363.46	28.809
363.82	28.835
364.18	29.134
364.54	29.737
364.90	29.833
365.26	28.897
365.62	29.467
365.98	28.387
366.35	28.993
366.71	28.912
367.07	29.432
367.43	28.825
367.79	29.064
368.15	29.967
368.51	28.890
368.87	28.413
369.23	28.867
369.59	29.577
369.95	29.750
370.31	28.764
370.67	28.955
371.03	29.571
371.39	29.013
371.75	28.748
372.11	28.726
372.47	29.452
372.83	29.254
373.19	28.085
373.55	28.930
373.91	28.698
374.27	29.948
374.63	30.311
374.99	29.045
375.35	29.805
375.71	29.806
376.07	29.567
376.42	29.030
376.78	30.019
377.14	28.821
377.50	30.234
377.86	29.495
378.22	29.521
378.58	29.191
378.94	28.756
379.30	29.115
379.66	30.159
380.02	30.352
380.38	29.954
380.74	30.873
381.09	29.733
381.45	29.886
381.81	30.562
382.17	30.285
382.53	30.175
382.89	29.176
383.25	30.657
383.61	30.613
383.97	29.976
384.32	30.682
384.68	30.626
385.04	30.480
385.40	31.880
385.76	31.184
386.12	29.862
386.48	30.882
386.83	30.572
387.19	30.301
387.55	30.106
387.91	31.279
388.27	31.236
388.62	30.813
388.98	30.682
389.34	31.114
389.70	31.668
390.06	30.255
390.42	30.482
390.77	31.908
391.13	30.751
391.49	31.884
391.85	30.182
392.20	32.088
392.56	31.778
392.92	31.189
393.28	32.062
393.64	31.061
393.99	31.261
394.35	31.600
394.71	32.395
395.07	30.898
395.42	31.525
395.78	33.211
396.14	31.788
396.50	31.413
396.85	32.916
397.21	32.604
397.57	32.097
397.92	32.589
398.28	31.505
398.64	31.808
399.00	30.262
399.35	32.042
399.71	31.685
400.07	31.948
400.42	32.072
400.78	31.771
401.14	31.986
401.49	33.258
401.85	32.209
402.21	32.155
402.57	32.688
402.92	32.210
403.28	31.909
403.63	31.742
403.99	31.057
404.35	30.870
404.70	32.238
405.06	31.576
405.42	31.792
405.77	32.879
406.13	31.334
406.49	32.601
406.84	32.909
407.20	32.197
407.55	31.678
407.91	32.307
408.27	31.920
408.62	32.461
408.98	32.327
409.34	32.434
409.69	32.818
410.05	31.712
410.40	32.889
410.76	32.586
411.11	32.846
411.47	33.108
411.83	32.745
412.18	32.530
412.54	32.839
412.89	33.353
413.25	32.562
413.60	32.165
413.96	33.042
414.31	33.201
414.67	33.572
415.03	33.231
415.38	33.544
415.74	33.232
416.09	33.683
416.45	33.751
416.80	32.436
417.16	32.567
417.51	33.686
417.87	32.434
418.22	33.713
418.58	33.395
418.93	32.771
419.29	34.710
419.64	33.253
420.00	33.175
420.35	33.184
420.71	32.855
421.06	33.640
421.42	34.346
421.77	33.226
422.12	34.461
422.48	33.794
422.83	33.680
423.19	33.634
423.54	34.679
423.90	33.076
424.25	33.493
424.61	32.664
424.96	33.498
425.31	34.554
425.67	34.031
426.02	34.090
426.38	34.328
426.73	33.984
427.09	34.083
427.44	33.643
427.79	34.052
428.15	33.904
428.50	34.213
428.85	34.615
429.21	34.362
429.56	34.057
429.92	33.317
430.27	35.036
430.62	35.369
430.98	34.235
431.33	33.822
431.68	34.339
432.04	34.688
432.39	34.655
432.74	34.475
433.10	35.316
433.45	34.448
433.80	34.871
434.16	35.640
434.51	36.485
434.86	36.428
435.22	35.972
435.57	35.967
435.92	35.114
436.28	35.324
436.63	36.319
436.98	35.802
437.34	35.682
437.69	35.168
438.04	36.171
438.39	35.841
438.75	36.027
439.10	36.152
439.45	34.992
439.81	36.554
440.16	35.335
440.51	36.065
440.86	35.631
441.22	36.120
441.57	37.264
441.92	37.488
442.27	37.576
442.63	37.705
442.98	36.393
443.33	37.664
443.68	38.008
444.03	38.335
444.39	37.356
444.74	37.672
445.09	38.419
445.44	38.725
445.79	37.596
446.15	38.181
446.50	37.571
446.85	38.959
447.20	38.540
447.55	38.232
447.91	37.696
448.26	38.636
448.61	37.407
448.96	39.217
449.31	37.699
449.66	38.889
450.02	38.397
450.37	38.998
450.72	39.128
451.07	38.440
451.42	39.399
451.77	37.910
452.12	39.786
452.47	38.740
452.83	39.471
453.18	38.004
453.53	37.967
453.88	38.818
454.23	37.853
454.58	38.712
454.93	39.138
455.28	40.217
455.63	39.795
455.98	39.330
456.34	38.693
456.69	39.330
457.04	40.248
457.39	39.523
457.74	39.933
458.09	39.813
458.44	40.679
458.79	39.247
459.14	38.595
459.49	38.936
459.84	39.769
460.19	39.311
460.54	40.034
460.89	39.915
461.24	39.598
461.59	39.181
461.94	37.593
462.29	39.586
462.64	38.564
462.99	39.046
463.34	38.741
463.69	38.980
464.04	38.966
464.39	40.471
464.74	38.883
465.09	38.985
465.44	39.592
465.79	39.662
466.14	38.510
466.49	39.526
466.84	40.220
467.19	38.844
467.54	37.838
467.89	37.874
468.24	39.335
468.59	37.580
468.94	37.937
469.29	37.792
469.64	38.398
469.99	38.623
470.34	38.366
470.68	38.209
471.03	39.293
471.38	37.672
471.73	37.841
472.08	39.023
472.43	39.193
472.78	38.728
473.13	38.748
473.48	39.154
473.83	39.466
474.17	39.977
474.52	39.687
474.87	38.704
475.22	40.000
475.57	38.733
475.92	38.377
476.27	38.552
476.61	38.941
476.96	39.103
477.31	38.416
477.66	40.031
478.01	38.943
478.36	37.836
478.70	39.015
479.05	39.315
479.40	39.240
479.75	39.049
480.10	39.270
480.45	39.517
480.79	38.503
481.14	39.108
481.49	38.801
481.84	39.643
482.19	39.183
482.53	39.834
482.88	38.768
483.23	39.262
483.58	37.860
483.92	37.589
484.27	38.400
484.62	38.573
484.97	38.958
485.31	38.648
485.66	38.428
486.01	39.280
486.36	40.150
486.70	41.570
487.05	40.749
487.40	39.146
487.75	39.109
488.09	37.757
488.44	36.467
488.79	37.639
489.13	36.604
489.48	37.010
489.83	37.022
490.17	37.991
490.52	37.274
490.87	37.394
491.22	37.695
491.56	37.969
491.91	37.811
492.26	37.430
492.60	37.167
492.95	36.902
493.30	37.741
493.64	38.239
493.99	37.193
494.34	36.019
494.68	37.002
495.03	36.960
495.37	36.795
495.72	36.780
496.07	37.248
496.41	36.036
496.76	37.698
497.11	37.665
497.45	36.815
497.80	37.228
498.14	37.052
498.49	36.949
498.84	37.112
499.18	36.752
499.53	36.637
499.87	37.055
500.22	36.198
500.56	35.493
500.91	36.201
501.26	37.545
501.60	36.898
501.95	36.083
502.29	36.814
502.64	37.648
502.98	35.893
503.33	36.026
503.67	36.066
504.02	35.902
504.36	36.461
504.71	35.645
505.06	36.107
505.40	36.792
505.75	36.020
506.09	37.201
506.44	37.001
506.78	36.422
507.13	36.376
507.47	36.333
507.82	36.222
508.16	35.421
508.51	35.443
508.85	36.231
509.19	35.718
509.54	35.687
509.88	35.211
510.23	35.891
510.57	35.379
510.92	35.656
511.26	34.632
511.61	34.862
511.95	35.188
512.30	35.549
512.64	34.433
512.98	35.218
513.33	34.929
513.67	35.186
514.02	35.309
514.36	35.550
514.70	35.833
515.05	34.932
515.39	34.856
515.74	35.154
516.08	34.865
516.42	35.426
516.77	34.543
517.11	34.605
517.46	33.987
517.80	35.436
518.14	34.222
518.49	34.924
518.83	33.475
519.17	33.710
519.52	34.329
519.86	34.530
520.20	34.665
520.55	34.611
520.89	33.727
521.23	33.110
521.58	33.785
521.92	32.975
522.26	34.364
522.61	33.854
522.95	34.371
523.29	33.736
523.64	33.016
523.98	35.083
524.32	35.014
524.66	35.287
525.01	33.465
525.35	32.453
525.69	34.223
526.04	33.295
526.38	33.563
526.72	33.333
527.06	33.372
527.41	33.411
527.75	32.898
528.09	32.940
528.43	33.629
528.78	32.832
529.12	33.372
529.46	33.446
529.80	33.009
530.15	33.449
530.49	32.503
530.83	34.120
531.17	33.453
531.51	32.912
531.86	33.233
532.20	33.171
532.54	32.136
532.88	32.364
533.22	33.235
533.57	32.891
533.91	32.941
534.25	33.239
534.59	33.103
534.93	33.220
535.27	32.620
535.62	32.746
535.96	33.295
536.30	31.904
536.64	34.174
536.98	33.087
537.32	32.284
537.66	32.002
538.01	32.205
538.35	32.704
538.69	32.812
539.03	32.373
539.37	32.568
539.71	32.252
540.05	31.595
540.39	31.968
540.73	31.269
541.07	31.821
541.42	31.719
541.76	31.554
542.10	31.906
542.44	31.060
542.78	32.543
543.12	31.406
543.46	31.441
543.80	30.336
544.14	31.478
544.48	32.092
544.82	31.239
545.16	31.187
545.50	30.857
545.84	31.292
546.18	31.914
546.52	30.828
546.86	30.566
547.20	30.980
547.54	31.336
547.88	30.802
548.22	31.053
548.56	31.480
548.90	30.985
549.24	30.517
549.58	30.726
549.92	30.485
550.26	29.903
550.60	30.185
550.94	30.466
551.28	30.099
551.62	30.997
551.96	28.997
552.30	30.593
552.64	31.052
552.98	30.443
553.32	31.576
553.66	30.225
554.00	31.211
554.34	30.502
554.68	29.245
555.02	28.844
555.36	30.178
555.69	29.596
556.03	28.878
556.37	30.413
556.71	29.930
557.05	29.010
557.39	28.932
557.73	29.260
558.07	29.669
558.41	29.967
558.75	28.533
559.08	29.297
559.42	28.738
559.76	29.308
560.10	29.136
560.44	28.496
560.78	30.563
561.12	29.433
561.45	29.927
561.79	30.098
562.13	29.452
562.47	28.237
562.81	29.430
563.15	29.609
563.48	28.589
563.82	29.081
564.16	29.194
564.50	28.546
564.84	29.145
565.17	28.353
565.51	29.056
565.85	29.157
566.19	27.650
566.52	27.736
566.86	29.428
567.20	28.983
567.54	28.784
567.88	30.122
568.21	29.051
568.55	29.592
568.89	30.413
569.23	30.292
569.56	29.465
569.90	30.185
570.24	30.422
570.57	30.083
570.91	30.220
571.25	29.968
571.59	30.309
571.92	29.851
572.26	29.936
572.60	29.129
572.93	29.251
573.27	29.194
573.61	28.984
573.95	29.133
574.28	30.227
574.62	29.559
574.96	29.687
575.29	29.015
575.63	29.476
575.97	29.246
576.30	28.497
576.64	29.611
576.98	29.408
577.31	29.325
577.65	30.169
577.98	30.196
578.32	29.822
578.66	29.212
578.99	28.855
579.33	28.324
579.67	28.241
580.00	28.636
580.34	28.861
580.67	28.420
581.01	29.057
581.35	28.911
581.68	29.317
582.02	29.577
582.35	30.286
582.69	29.798
583.02	29.434
583.36	28.548
583.70	28.516
584.03	27.982
584.37	28.092
584.70	27.848
585.04	28.272
585.37	28.082
585.71	29.040
586.04	29.150
586.38	28.807
586.72	28.027
587.05	27.782
587.39	28.472
587.72	28.589
588.06	28.844
588.39	28.479
588.73	27.751
589.06	27.991
589.40	28.027
589.73	27.539
590.07	26.989
590.40	27.755
590.73	28.208
591.07	27.215
591.40	27.605
591.74	26.590
592.07	28.015
592.41	27.090
592.74	28.364
593.08	28.599
593.41	28.580
593.75	28.218
594.08	28.113
594.41	27.115
594.75	27.101
595.08	28.028
595.42	27.597
595.75	27.672
596.09	28.194
596.42	27.123
596.75	27.017
597.09	26.222
597.42	26.857
597.75	26.460
598.09	26.905
598.42	27.583
598.76	27.054
599.09	27.447
599.42	27.221
599.76	27.237
600.09	27.895
600.42	26.894
600.76	26.816
601.09	27.215
601.42	26.021
601.76	26.897
602.09	25.840
602.42	26.390
602.76	25.720
603.09	26.615
603.42	26.951
603.76	26.920
604.09	27.608
604.42	26.569
604.76	25.913
605.09	25.728
605.42	25.758
605.75	26.577
606.09	26.502
606.42	26.158
606.75	25.862
607.09	25.998
607.42	25.819
607.75	25.518
608.08	25.651
608.42	25.635
608.75	25.332
609.08	25.042
609.41	25.584
609.75	25.402
610.08	26.297
610.41	25.106
610.74	26.092
611.07	25.444
611.41	25.426
611.74	25.358
612.07	25.900
612.40	25.095
612.73	24.743
613.07	25.477
613.40	25.217
613.73	25.903
614.06	24.583
614.39	24.684
614.72	25.182
615.06	24.928
615.39	24.698
615.72	24.171
616.05	24.964
616.38	24.117
616.71	24.556
617.05	23.589
617.38	25.147
617.71	24.028
618.04	24.609
618.37	24.754
618.70	25.000
619.03	23.835
619.36	24.044
619.69	22.870
620.03	24.419
620.36	24.172
620.69	23.442
621.02	23.294
621.35	23.585
621.68	23.717
622.01	24.270
622.34	23.291
622.67	23.918
623.00	21.660
623.33	23.424
623.66	23.606
623.99	23.502
624.32	24.366
624.65	23.681
624.99	24.122
625.32	23.775
625.65	23.399
625.98	21.966
626.31	22.254
626.64	23.443
626.97	22.881
627.30	22.020
627.63	23.031
627.96	22.973
628.29	22.568
628.62	19.983
628.95	22.174
629.28	21.240
629.61	22.727
629.94	21.925
630.26	21.525
630.59	22.107
630.92	21.645
631.25	21.556
631.58	22.222
631.91	21.556
632.24	21.614
632.57	19.545
632.90	21.665
633.23	21.224
633.56	22.245
633.89	21.384
634.22	20.894
634.55	22.129
634.88	20.238
635.20	19.699
635.53	21.243
635.86	21.668
636.19	21.527
636.52	21.941
636.85	20.633
637.18	21.518
637.51	20.000
637.83	21.484
638.16	20.161
638.49	18.427
638.82	21.646
639.15	20.160
639.48	23.210
639.81	19.284
640.13	20.730
640.46	19.515
640.79	18.505
641.12	19.379
641.45	20.326
641.77	21.566
642.10	19.291
642.43	20.612
642.76	17.886
643.09	18.904
643.41	19.048
643.74	19.724
644.07	18.207
644.40	18.388
644.73	19.739
645.05	19.090
645.38	21.727
645.71	19.062
646.04	19.512
646.36	17.226
646.69	20.245
647.02	18.349
647.35	16.641
647.67	20.129
648.00	18.631
648.33	19.820
648.66	20.257
648.98	20.680
649.31	19.756
649.64	19.920
649.96	20.292
650.29	17.942
650.62	19.236
650.94	17.267
651.27	15.120
651.60	17.836
651.92	17.781
652.25	17.366
652.58	17.469
652.90	18.314
653.23	20.141
653.56	19.116
653.88	21.067
654.21	19.577
654.54	18.931
654.86	20.538
655.19	18.570
655.52	24.342
655.84	27.177
656.17	32.946
656.49	45.370
656.82	48.070
657.15	35.206
657.47	25.435
657.80	17.913
658.13	13.442
658.45	16.944
658.78	19.945
659.10	18.946
659.43	18.492
659.75	17.998
660.08	17.535
660.41	15.715
660.73	15.735
661.06	14.537
661.38	18.341
661.71	16.724
662.03	16.578
662.36	19.499
662.68	17.073
663.01	18.230
663.33	16.257
663.66	18.132
663.98	17.500
664.31	16.886
664.63	16.378
664.96	17.604
665.28	16.878
665.61	19.056
665.93	17.679
666.26	17.921
666.58	17.897
666.91	17.196
667.23	17.714
667.56	18.935
667.88	15.400
668.21	15.625
668.53	16.409
668.86	16.699
669.18	16.701
669.50	17.495
669.83	16.000
670.15	16.142
670.48	15.476
670.80	16.444
671.13	16.068
671.45	16.929
671.77	19.209
672.10	16.667
672.42	18.285
672.75	18.126
673.07	16.866
673.39	16.179
673.72	18.289
674.04	17.241
674.37	18.605
674.69	18.695
675.01	15.429
675.34	15.267
675.66	16.105
675.98	16.791
676.31	17.188
676.63	16.920
676.95	19.157
677.28	17.540
677.60	14.567
677.92	18.042
678.25	17.916
678.57	19.395
678.89	20.648
679.22	16.376
679.54	17.436
679.86	15.932
680.18	18.905
680.51	19.654
680.83	18.003
681.15	17.069
681.48	17.098
681.80	17.617
682.12	17.483
682.44	16.194
682.77	15.780
683.09	17.045
683.41	17.248
683.73	17.078
684.06	17.343
684.38	14.669
684.70	17.594
685.02	18.244
685.34	14.975
685.67	16.877
685.99	16.871
686.31	18.169
686.63	17.536
686.96	16.246
687.28	17.101
687.60	16.330
687.92	17.524
688.24	18.865
688.56	15.862
688.89	16.152
689.21	18.982
689.53	16.471
689.85	13.412
690.17	17.593
690.49	14.741
690.82	16.238
691.14	15.182
691.46	19.503
691.78	17.311
692.10	17.615
692.42	14.107
692.74	16.515
693.06	14.815
693.39	21.063
693.71	16.729
694.03	15.056
694.35	17.524
694.67	16.222
694.99	14.681
695.31	15.673
695.63	16.667
695.95	13.665
696.27	13.626
696.59	15.265
696.91	15.766
697.23	20.000
697.56	17.312
697.88	16.288
698.20	16.384
698.52	17.992
698.84	18.295
699.16	16.939
699.48	15.690
699.80	16.596
700.12	16.376
700.44	14.747
700.76	16.627
701.08	16.949
701.40	14.508
701.72	14.428
702.04	14.439
702.36	15.707
702.68	14.914
703.00	11.247
703.32	12.562
703.64	13.203
703.96	16.229
704.28	13.514
704.60	13.924
704.91	10.459
705.23	12.603
705.55	15.877
705.87	14.848
706.19	13.190
706.51	14.759
706.83	15.562
707.15	13.492
707.47	14.019
707.79	14.847
708.11	12.288
708.43	14.194
708.74	14.286
709.06	12.529
709.38	13.380
709.70	15.633
710.02	14.987
710.34	17.021
710.66	11.732
710.98	14.754
711.29	15.385
711.61	14.407
711.93	14.530
712.25	15.676
712.57	16.224
712.89	17.353
713.20	12.426
713.52	15.318
713.84	12.535
714.16	17.105
714.48	13.918
714.80	16.364
715.11	15.748
715.43	11.671
715.75	15.000
716.07	16.851
716.39	13.661
716.70	11.145
717.02	15.410
717.34	11.498
717.66	13.758
717.97	8.562
718.29	11.684
718.61	12.829
718.93	12.945
719.24	12.422
719.56	14.417
719.88	13.514
720.20	14.194
720.51	11.491
720.83	15.000
721.15	15.461
721.46	9.932
721.78	13.667
722.10	8.414
722.42	13.758
722.73	12.258
723.05	13.684
723.37	13.889
723.68	12.545
724.00	16.245
724.32	10.915
724.63	13.986
724.95	15.957
725.27	13.589
725.58	13.074
725.90	17.931
726.22	14.107
726.53	12.662
726.85	15.409
727.16	16.012
727.48	15.596
727.80	18.212
728.11	9.187
728.43	15.488
728.74	10.033
729.06	13.907
729.38	15.584
729.69	15.772
730.01	16.667
730.32	9.697
730.64	15.409
730.96	11.491
731.27	17.598
731.59	13.736
731.90	13.247
732.22	12.760
732.53	12.431
732.85	15.714
733.16	14.076
733.48	12.805
733.80	14.763
734.11	13.960
734.43	12.703
734.74	20.000
735.06	14.824
735.37	18.108
735.69	14.054
736.00	13.277
736.32	11.590
736.63	15.556
736.95	15.230
737.26	16.364
737.58	11.818
737.89	15.294
738.21	11.315
738.52	13.770
738.83	13.652
739.15	15.248
739.46	12.925
739.78	12.577
740.09	16.332
740.41	15.452
740.72	15.667
741.04	12.621
741.35	13.333
741.66	11.765
741.98	13.934
742.29	12.971
742.61	11.842
742.92	13.846
743.23	14.440
743.55	12.791
743.86	12.000
744.18	9.091
744.49	5.063
744.80	15.638
745.12	10.549
745.43	9.350
745.74	12.069
746.06	12.712
746.37	15.612
746.68	11.789
747.00	10.000
747.31	12.876
747.62	15.000
747.94	10.931
748.25	6.024
748.56	10.204
748.88	8.547
749.19	14.655
749.50	10.390
749.82	13.655
750.13	16.014
750.44	12.667
750.75	15.077
751.07	14.769
751.38	14.826
751.69	13.419
752.01	12.298
752.32	12.745
752.63	17.007
752.94	10.381
753.26	12.268
753.57	11.111
753.88	11.985
754.19	14.469
754.51	15.434
754.82	16.077
755.13	15.738
755.44	13.652
755.75	15.789
756.07	15.821
756.38	13.522
756.69	13.554
757.00	11.080
757.31	14.754
757.63	13.811
757.94	14.085
758.25	17.607
758.56	15.468
758.87	15.909
759.18	16.800
759.50	15.864
759.81	17.087
760.12	14.555
760.43	18.229
760.74	16.502
761.05	14.000
761.36	15.904
761.67	13.959
761.99	15.135
762.30	14.329
762.61	12.211
762.92	14.179
763.23	14.232
763.54	12.590
763.85	13.746
764.16	13.805
764.47	13.028
764.78	16.294
765.10	15.249
765.41	18.974
765.72	13.492
766.03	16.384
766.34	15.361
766.65	8.014
766.96	12.749
767.27	8.756
767.58	7.960
767.89	13.942
768.20	13.615
768.51	11.111
768.82	12.450
769.13	14.773
769.44	8.846
769.75	15.523
770.06	14.231
770.37	13.780
770.68	9.362
770.99	6.478
771.30	15.556
771.61	15.589
771.92	12.593
772.23	13.765
772.54	6.019
772.85	9.677
773.16	13.810
773.47	10.053
773.78	9.730
774.09	12.500
774.39	19.000
774.70	13.661
775.01	8.537
775.32	1.176
775.63	10.429
775.94	5.732
776.25	10.323
776.56	12.821
776.87	10.884
777.18	4.828
777.48	8.392
777.79	4.730
778.10	8.824
778.41	9.028
778.72	14.483
779.03	11.728
779.34	7.879
779.65	9.326
779.95	12.778
780.26	9.659
780.57	11.613
780.88	6.522
781.19	10.323
781.50	16.471
781.80	16.129
782.11	16.402
782.42	8.586
782.73	7.784
783.04	9.497
783.34	6.667
783.65	4.575
783.96	9.317
784.27	8.333
784.57	4.636
784.88	2.857
785.19	3.150
785.50	6.299
785.81	8.271
786.11	14.615
786.42	2.158
786.73	7.194
787.04	10.526
787.34	8.197
787.65	3.200
787.96	13.433
788.26	18.881
788.57	7.692
788.88	10.526
789.19	16.340
789.49	13.014
789.80	17.730
790.11	8.661
790.41	4.687
790.72	5.932
791.03	-2.913
791.33	0.000
791.64	7.018
791.95	1.786
792.25	5.714
792.56	1.786
792.87	-8.333
793.17	-0.893
793.48	-7.292
793.79	-6.024
794.09	0.917
794.40	-1.835
794.70	6.803
795.01	5.195
795.32	2.740
795.62	11.972
795.93	8.333
796.23	3.279
796.54	-8.036
796.85	-11.702
797.15	-9.783
797.46	-10.959
797.76	-7.500
798.07	3.261
798.37	-11.340
798.68	-9.091
798.99	-2.299
799.29	-4.494
799.60	6.383
799.90	1.205
800.21	-13.846
800.51	7.463
800.82	-7.353
801.12	-13.699
801.43	-16.176
801.73	-11.864
802.04	-4.545
802.34	-25.000
802.65	-8.475
802.95	-7.463
803.26	-15.254
803.56	-1.370
803.87	-10.000
804.17	4.110
804.48	-22.807
804.78	1.389
805.09	-46.552
805.39	-9.459
805.70	-23.944
806.00	-10.976
806.30	-2.410
806.61	-5.479
806.91	0.962
807.22	-1.111
807.52	0.000
807.83	0.000
808.13	2.410
808.43	1.124
808.74	0.000
809.04	-19.118
809.35	-2.667
809.65	-10.000
809.95	4.110
810.26	-14.035
810.56	-15.517
810.86	10.294
811.17	-10.526
811.47	-18.033
811.77	-40.000
812.08	-16.949
812.38	-15.000
812.69	-1.724
812.99	-35.849
813.29	-51.282
813.59	18.000
813.90	10.526
814.20	-21.818
814.50	14.085
814.81	-2.564
815.11	-11.475
815.41	-8.955
815.72	5.172
816.02	-16.071
816.32	-28.889
816.62	-9.091
816.93	-17.778
817.23	-27.778
817.53	-17.021
817.84	-7.143
818.14	-11.765
818.44	-14.286
818.74	-33.333
819.04	-43.590
819.35	-37.143
819.65	-76.923
819.95	-18.868
820.25	-11.111
820.56	-23.810
820.86	-56.250
821.16	-35.897
821.46	-30.233
821.76	-22.000
822.07	-19.643
822.37	-8.696
822.67	-34.043
822.97	-45.946
823.27	-10.000
823.57	-12.245
823.88	-13.333
824.18	-25.000
824.48	-46.667
824.78	-24.000
825.08	-21.212
825.38	0.000
825.69	-23.404
825.99	-19.444
826.29	-57.143
826.59	-20.513
826.89	-37.209
827.19	-10.000
827.49	-35.294
827.79	10.417
828.09	-40.541
828.39	-46.667
828.70	-26.829
829.00	-20.930
829.30	-64.286
829.60	-47.059
829.90	-15.217
830.20	-40.000
830.50	-79.310
830.80	-105.556
831.10	-42.308
831.40	-67.647
831.70	-85.714
832.00	0.000
832.30	-147.059
832.60	-25.000
832.90	-146.154
833.20	-73.684
833.50	-110.000
833.80	-63.158
834.10	-114.286
834.40	8.333
834.70	-21.875
835.00	-48.571
835.30	-20.588
835.60	-33.333
835.90	-44.000
836.20	-86.364
836.50	-64.000
836.80	-39.394
837.10	-22.222
837.40	-48.148
837.70	-162.500
838.00	-7.143
838.30	-26.087
838.60	-41.379
838.90	-114.286
839.19	-60.870
839.49	-175.000
839.79	-56.522
840.09	-131.250
840.39	-55.000
840.69	-9.677
840.99	-57.143
841.29	-53.333
841.59	-78.947
841.88	-28.205
842.18	-73.077
842.48	-220.000
842.78	-70.000
843.08	-20.000
843.38	-25.806
843.68	-116.667
843.97	-38.235
844.27	-18.750
844.57	-78.947
844.87	-170.000
845.17	-93.333
845.47	-52.381
845.76	-90.476
846.06	-144.444
846.36	-100.000
846.66	-34.615
846.96	-86.667
847.25	-70.588
847.55	-26.087
847.85	-70.000
848.15	-88.235
848.44	-181.818
848.74	-80.952
849.04	-45.833
849.34	-75.000
849.63	-47.826
849.93	1400.000
850.23	-60.000
850.53	-53.846
850.82	-163.636
851.12	-45.455
851.42	-136.364
851.71	-107.692
852.01	-85.000
852.31	-76.923
852.61	-52.632
852.90	-91.667
853.20	-66.667
853.50	-333.333
853.79	-133.333
854.09	-104.545
854.39	-150.000
854.68	-19.355
854.98	-34.615
855.28	-22.222
855.57	-53.571
855.87	-24.000
856.17	-36.364
856.46	-44.444
856.76	-122.222
857.05	-60.870
857.35	-79.167
857.65	-146.154
857.94	-95.238
858.24	-14.815
858.53	-17.391
858.83	-35.294
859.13	-52.941
859.42	-47.059
859.72	-85.714
860.01	-40.000
860.31	-166.667
860.60	-30.000
860.90	-33.333
861.20	-16.667
861.49	-123.077
861.79	-56.667
862.08	-184.615
862.38	-18.750
862.67	-70.588
862.97	-81.250
863.26	-233.333
863.56	-170.000
863.85	-127.273
864.15	-33.333
864.44	-566.667
864.74	-100.000
865.03	-100.000
865.33	-160.000
865.62	-70.968
865.92	-36.364
866.21	-52.174
866.51	-100.000
866.80	-440.000
867.10	-83.333
867.39	-208.333
867.69	1900.000
867.98	-185.714
868.27	-47.059
868.57	-2600.000
868.86	-180.000
869.16	-42.857
869.45	-25.000
869.75	-90.909
870.04	-100.000
870.33	-116.667
870.63	-514.286
870.92	-225.000
871.22	-287.500
871.51	-145.455
871.80	-833.333
872.10	-1000.000
>>>>>End Processed Spectral Data<<<<<
