SpectraSuite Data File
++++++++++++++++++++++++++++++++++++
Date: Thu May 14 16:03:25 PDT 2015
User: schluterlab
Dark Spectrum Present: Yes
Reference Spectrum Present: Yes
Number of Sampled Component Spectra: 1
Spectrometers: USB2E3373
Integration Time (usec): 3000 (USB2E3373)
Spectra Averaged: 3 (USB2E3373)
Boxcar Smoothing: 0 (USB2E3373)
Correct for Electrical Dark: No (USB2E3373)
Strobe/Lamp Enabled: No (USB2E3373)
Correct for Detector Non-linearity: No (USB2E3373)
Correct for Stray Light: No (USB2E3373)
Number of Pixels in Processed Spectrum: 2048
>>>>>Begin Processed Spectral Data<<<<<
178.53	0.000
178.91	71.429
179.29	-2900.000
179.67	-2200.000
180.04	207.143
180.42	80.000
180.80	420.000
181.18	-900.000
181.56	-1300.000
181.94	375.000
182.31	-325.000
182.69	833.333
183.07	-500.000
183.45	300.000
183.83	-283.333
184.20	-466.667
184.58	1800.000
184.96	-375.000
185.34	-144.444
185.72	-320.000
186.09	288.889
186.47	750.000
186.85	400.000
187.23	-188.889
187.61	-2100.000
187.98	260.000
188.36	400.000
188.74	-325.000
189.12	-266.667
189.49	-25.000
189.87	-175.000
190.25	-55.556
190.63	-140.000
191.00	-266.667
191.38	0.000
191.76	-650.000
192.14	-266.667
192.51	800.000
192.89	-66.667
193.27	0.000
193.65	-257.143
194.02	-2300.000
194.40	-200.000
194.78	371.429
195.15	0.000
195.53	-54.545
195.91	0.000
196.29	-325.000
196.66	-153.846
197.04	-2400.000
197.42	-228.571
197.79	-950.000
198.17	-287.500
198.55	-214.286
198.92	-222.222
199.30	-162.500
199.68	-154.545
200.05	-78.571
200.43	-750.000
200.81	300.000
201.18	0.000
201.56	188.889
201.94	0.000
202.31	600.000
202.69	-244.444
203.07	700.000
203.44	-111.111
203.82	-300.000
204.19	-33.333
204.57	-283.333
204.95	-212.500
205.32	-1400.000
205.70	425.000
206.08	-200.000
206.45	-166.667
206.83	420.000
207.20	-416.667
207.58	-480.000
207.96	-316.667
208.33	-133.333
208.71	100.000
209.08	0.000
209.46	0.000
209.84	216.667
210.21	750.000
210.59	950.000
210.96	533.333
211.34	-75.000
211.71	-237.500
212.09	-1900.000
212.46	0.000
212.84	1450.000
213.22	-240.000
213.59	-175.000
213.97	-80.000
214.34	-766.667
214.72	333.333
215.09	-375.000
215.47	0.000
215.84	385.714
216.22	1150.000
216.59	-300.000
216.97	-220.000
217.34	-450.000
217.72	-237.500
218.09	-250.000
218.47	-525.000
218.84	0.000
219.22	200.000
219.59	-52.941
219.97	10.000
220.34	700.000
220.72	-211.111
221.09	-115.385
221.47	-633.333
221.84	0.000
222.22	-28.571
222.59	0.000
222.97	-150.000
223.34	-500.000
223.72	-2000.000
224.09	-400.000
224.46	-400.000
224.84	0.000
225.21	-185.714
225.59	-400.000
225.96	-250.000
226.34	-30.769
226.71	383.333
227.08	-600.000
227.46	-133.333
227.83	-475.000
228.21	-36.842
228.58	175.000
228.95	700.000
229.33	-66.667
229.70	-110.000
230.08	31.579
230.45	200.000
230.82	-266.667
231.20	-35.714
231.57	25.000
231.95	-81.818
232.32	-109.091
232.69	-15.000
233.07	-400.000
233.44	-11.765
233.81	-170.000
234.19	11.111
234.56	-4.545
234.93	13.793
235.31	-21.053
235.68	0.000
236.05	-110.000
236.43	3.846
236.80	4.000
237.17	3.704
237.55	-15.152
237.92	-160.000
238.29	-32.258
238.67	-20.455
239.04	-16.667
239.41	-9.524
239.79	0.000
240.16	0.000
240.53	2.174
240.91	-9.804
241.28	6.557
241.65	17.910
242.02	1.351
242.40	-10.769
242.77	2.667
243.14	7.317
243.51	9.211
243.89	1.282
244.26	17.822
244.63	13.725
245.00	18.692
245.38	7.018
245.75	0.885
246.12	19.841
246.49	9.302
246.87	21.429
247.24	15.232
247.61	17.105
247.98	14.765
248.36	15.432
248.73	17.791
249.10	14.754
249.47	25.871
249.84	25.131
250.22	18.653
250.59	22.222
250.96	21.364
251.33	14.796
251.70	23.077
252.08	20.000
252.45	21.311
252.82	23.967
253.19	20.313
253.56	20.152
253.94	15.000
254.31	19.697
254.68	16.434
255.05	21.824
255.42	20.408
255.79	21.359
256.16	19.868
256.54	21.192
256.91	21.639
257.28	21.967
257.65	21.019
258.02	17.699
258.39	21.368
258.76	25.382
259.14	24.425
259.51	23.919
259.88	20.680
260.25	24.444
260.62	21.918
260.99	24.863
261.36	26.542
261.73	23.342
262.10	19.780
262.47	24.129
262.85	23.990
263.22	22.078
263.59	19.737
263.96	21.739
264.33	21.228
264.70	24.444
265.07	27.208
265.44	24.717
265.81	23.380
266.18	22.449
266.55	22.768
266.92	20.957
267.29	26.696
267.66	23.947
268.03	24.017
268.40	24.426
268.77	22.096
269.14	23.128
269.51	21.272
269.88	26.025
270.25	23.340
270.62	23.418
270.99	24.444
271.36	23.762
271.73	24.165
272.10	23.848
272.47	24.048
272.84	21.888
273.21	23.046
273.58	21.371
273.95	22.500
274.32	21.103
274.69	23.211
275.06	21.795
275.43	21.442
275.80	22.046
276.17	22.222
276.54	23.507
276.91	23.077
277.28	22.785
277.65	21.724
278.02	25.919
278.39	24.094
278.76	24.077
279.13	23.227
279.50	23.540
279.87	25.045
280.23	18.486
280.60	24.576
280.97	23.849
281.34	21.902
281.71	24.365
282.08	23.754
282.45	20.786
282.82	21.036
283.19	21.486
283.56	22.459
283.92	22.973
284.29	25.434
284.66	24.466
285.03	20.673
285.40	22.102
285.77	21.981
286.14	23.817
286.51	22.374
286.87	21.801
287.24	21.687
287.61	21.375
287.98	21.903
288.35	21.746
288.72	23.077
289.08	21.816
289.45	21.302
289.82	20.783
290.19	21.983
290.56	23.099
290.93	20.399
291.29	20.386
291.66	20.110
292.03	19.810
292.40	23.129
292.77	19.272
293.13	19.621
293.50	20.762
293.87	18.658
294.24	20.800
294.60	19.469
294.97	19.463
295.34	22.023
295.71	18.285
296.08	18.734
296.44	17.647
296.81	18.636
297.18	17.684
297.55	18.986
297.91	18.861
298.28	19.194
298.65	18.787
299.02	18.418
299.38	18.535
299.75	16.822
300.12	18.171
300.48	18.664
300.85	17.998
301.22	18.009
301.59	17.694
301.95	19.096
302.32	18.556
302.69	17.634
303.05	19.587
303.42	18.736
303.79	18.542
304.15	19.979
304.52	17.759
304.89	18.010
305.25	18.634
305.62	18.286
305.99	17.320
306.35	18.952
306.72	19.855
307.09	18.173
307.45	18.944
307.82	17.861
308.19	19.273
308.55	19.286
308.92	19.085
309.29	18.774
309.65	18.908
310.02	19.109
310.38	18.602
310.75	19.223
311.12	20.230
311.48	19.159
311.85	20.228
312.22	18.121
312.58	19.906
312.95	20.076
313.31	20.867
313.68	21.978
314.05	21.771
314.41	23.224
314.78	20.981
315.14	21.506
315.51	22.068
315.87	22.322
316.24	22.648
316.61	24.423
316.97	22.081
317.34	24.162
317.70	24.891
318.07	23.633
318.43	24.830
318.80	24.749
319.16	24.721
319.53	24.336
319.89	24.365
320.26	26.779
320.62	25.355
320.99	28.070
321.35	26.155
321.72	27.907
322.08	28.224
322.45	29.539
322.81	29.152
323.18	28.319
323.54	29.483
323.91	31.762
324.27	31.325
324.64	32.997
325.00	32.587
325.37	33.497
325.73	32.562
326.10	34.631
326.46	35.016
326.83	36.269
327.19	34.882
327.56	35.968
327.92	35.799
328.29	35.161
328.65	35.930
329.01	37.902
329.38	38.079
329.74	39.812
330.11	40.154
330.47	37.658
330.84	38.587
331.20	39.250
331.56	39.428
331.93	40.837
332.29	41.186
332.66	40.698
333.02	38.526
333.38	40.268
333.75	39.226
334.11	40.951
334.48	40.594
334.84	41.546
335.20	40.134
335.57	41.568
335.93	41.240
336.29	40.349
336.66	42.557
337.02	41.472
337.38	42.432
337.75	41.818
338.11	42.220
338.47	41.191
338.84	42.724
339.20	42.291
339.56	41.516
339.93	41.626
340.29	40.902
340.65	40.552
341.02	42.698
341.38	42.361
341.74	41.969
342.11	42.880
342.47	42.176
342.83	43.881
343.20	42.191
343.56	44.427
343.92	43.555
344.28	42.812
344.65	44.031
345.01	42.044
345.37	42.924
345.73	41.933
346.10	43.994
346.46	43.671
346.82	42.697
347.19	43.086
347.55	44.082
347.91	42.051
348.27	43.096
348.63	43.031
349.00	43.699
349.36	43.197
349.72	43.304
350.08	43.462
350.45	44.715
350.81	42.308
351.17	42.782
351.53	43.290
351.89	44.191
352.26	43.433
352.62	43.582
352.98	44.198
353.34	42.868
353.70	44.684
354.07	43.666
354.43	44.419
354.79	42.857
355.15	43.414
355.51	43.787
355.87	44.353
356.24	44.335
356.60	41.981
356.96	44.255
357.32	43.048
357.68	42.972
358.04	43.413
358.40	43.881
358.77	43.202
359.13	42.910
359.49	43.494
359.85	43.220
360.21	44.046
360.57	43.862
360.93	42.877
361.29	43.439
361.66	43.881
362.02	44.468
362.38	42.797
362.74	43.366
363.10	42.779
363.46	43.698
363.82	42.827
364.18	44.405
364.54	44.329
364.90	44.749
365.26	43.586
365.62	44.067
365.98	43.159
366.35	44.161
366.71	44.354
367.07	43.640
367.43	43.926
367.79	44.924
368.15	44.013
368.51	43.166
368.87	44.742
369.23	43.467
369.59	43.921
369.95	42.664
370.31	44.429
370.67	43.879
371.03	42.659
371.39	42.713
371.75	43.741
372.11	44.173
372.47	45.295
372.83	42.997
373.19	43.296
373.55	42.209
373.91	42.672
374.27	42.238
374.63	43.369
374.99	41.711
375.35	42.792
375.71	42.323
376.07	43.577
376.42	42.506
376.78	43.567
377.14	41.797
377.50	41.935
377.86	43.103
378.22	41.856
378.58	42.806
378.94	42.547
379.30	42.941
379.66	42.857
380.02	44.259
380.38	44.009
380.74	43.099
381.09	43.148
381.45	42.841
381.81	43.033
382.17	42.577
382.53	42.690
382.89	42.156
383.25	42.380
383.61	42.361
383.97	42.226
384.32	42.644
384.68	41.879
385.04	42.684
385.40	42.133
385.76	42.204
386.12	41.951
386.48	43.118
386.83	42.491
387.19	41.831
387.55	42.430
387.91	42.123
388.27	41.628
388.62	42.096
388.98	40.553
389.34	42.074
389.70	41.197
390.06	40.912
390.42	40.602
390.77	42.083
391.13	41.725
391.49	41.969
391.85	40.061
392.20	40.629
392.56	41.406
392.92	41.167
393.28	41.183
393.64	40.894
393.99	42.069
394.35	41.472
394.71	42.455
395.07	40.060
395.42	40.034
395.78	42.169
396.14	41.830
396.50	39.667
396.85	40.668
397.21	40.178
397.57	40.459
397.92	40.435
398.28	40.304
398.64	39.474
399.00	39.319
399.35	39.529
399.71	41.359
400.07	40.202
400.42	38.475
400.78	38.542
401.14	38.133
401.49	39.341
401.85	39.302
402.21	39.745
402.57	39.906
402.92	38.239
403.28	38.525
403.63	38.783
403.99	37.648
404.35	37.692
404.70	37.224
405.06	36.685
405.42	37.705
405.77	38.004
406.13	38.142
406.49	37.950
406.84	37.895
407.20	37.731
407.55	37.735
407.91	36.832
408.27	36.396
408.62	36.940
408.98	37.377
409.34	35.836
409.69	37.392
410.05	36.694
410.40	37.355
410.76	37.297
411.11	37.463
411.47	36.548
411.83	37.096
412.18	37.048
412.54	36.515
412.89	35.739
413.25	36.061
413.60	36.760
413.96	36.131
414.31	36.374
414.67	35.420
415.03	35.138
415.38	35.813
415.74	35.553
416.09	36.459
416.45	34.753
416.80	34.517
417.16	36.271
417.51	34.247
417.87	33.844
418.22	35.389
418.58	35.192
418.93	35.914
419.29	34.957
419.64	34.034
420.00	34.659
420.35	33.745
420.71	34.118
421.06	34.158
421.42	34.002
421.77	33.495
422.12	33.985
422.48	33.897
422.83	34.337
423.19	34.111
423.54	35.122
423.90	33.241
424.25	34.293
424.61	33.754
424.96	33.278
425.31	33.864
425.67	32.689
426.02	33.481
426.38	33.295
426.73	32.645
427.09	33.852
427.44	32.387
427.79	33.057
428.15	32.306
428.50	32.416
428.85	33.238
429.21	33.617
429.56	32.922
429.92	32.187
430.27	32.964
430.62	32.829
430.98	32.120
431.33	32.893
431.68	31.561
432.04	33.012
432.39	32.030
432.74	32.763
433.10	32.720
433.45	31.605
433.80	31.277
434.16	31.715
434.51	31.346
434.86	32.030
435.22	32.412
435.57	33.137
435.92	31.608
436.28	31.684
436.63	32.714
436.98	31.401
437.34	32.244
437.69	30.820
438.04	31.359
438.39	31.419
438.75	32.429
439.10	31.448
439.45	30.743
439.81	30.056
440.16	30.724
440.51	30.825
440.86	30.406
441.22	30.439
441.57	30.084
441.92	30.068
442.27	31.111
442.63	30.849
442.98	31.270
443.33	29.932
443.68	30.823
444.03	31.326
444.39	30.975
444.74	30.781
445.09	29.701
445.44	30.875
445.79	30.412
446.15	30.832
446.50	30.078
446.85	30.253
447.20	30.368
447.55	30.596
447.91	29.110
448.26	29.175
448.61	29.490
448.96	30.043
449.31	29.003
449.66	29.575
450.02	30.116
450.37	30.368
450.72	28.687
451.07	29.841
451.42	28.769
451.77	27.960
452.12	30.248
452.47	29.709
452.83	30.236
453.18	29.072
453.53	29.925
453.88	29.873
454.23	29.040
454.58	29.193
454.93	28.034
455.28	29.380
455.63	29.562
455.98	28.436
456.34	29.800
456.69	28.454
457.04	28.901
457.39	28.714
457.74	29.083
458.09	27.897
458.44	28.125
458.79	27.643
459.14	28.631
459.49	28.806
459.84	28.017
460.19	28.151
460.54	28.507
460.89	28.216
461.24	27.586
461.59	28.224
461.94	26.412
462.29	29.059
462.64	27.882
462.99	27.684
463.34	27.385
463.69	27.960
464.04	28.127
464.39	27.915
464.74	27.138
465.09	27.220
465.44	27.307
465.79	27.816
466.14	26.524
466.49	26.421
466.84	27.438
467.19	26.879
467.54	26.263
467.89	26.437
468.24	27.147
468.59	26.115
468.94	25.524
469.29	26.395
469.64	26.573
469.99	26.068
470.34	27.166
470.68	26.726
471.03	27.112
471.38	26.619
471.73	26.723
472.08	26.206
472.43	26.610
472.78	26.889
473.13	26.422
473.48	26.707
473.83	26.930
474.17	26.729
474.52	26.398
474.87	26.744
475.22	27.268
475.57	25.130
475.92	26.381
476.27	27.583
476.61	25.857
476.96	25.600
477.31	26.584
477.66	26.076
478.01	25.064
478.36	25.573
478.70	25.222
479.05	25.358
479.40	25.469
479.75	25.841
480.10	25.154
480.45	25.661
480.79	25.578
481.14	25.689
481.49	25.716
481.84	25.718
482.19	25.634
482.53	25.885
482.88	25.609
483.23	26.145
483.58	24.672
483.92	24.734
484.27	24.767
484.62	25.578
484.97	25.117
485.31	24.780
485.66	23.683
486.01	23.509
486.36	24.338
486.70	24.759
487.05	25.297
487.40	24.936
487.75	24.809
488.09	24.852
488.44	24.322
488.79	24.958
489.13	24.149
489.48	24.233
489.83	23.984
490.17	24.099
490.52	24.959
490.87	24.069
491.22	25.173
491.56	25.085
491.91	24.291
492.26	24.362
492.60	24.749
492.95	24.265
493.30	24.697
493.64	23.828
493.99	24.079
494.34	23.955
494.68	24.368
495.03	24.846
495.37	24.723
495.72	24.490
496.07	24.628
496.41	23.423
496.76	24.187
497.11	24.671
497.45	23.565
497.80	24.211
498.14	24.535
498.49	24.862
498.84	24.497
499.18	23.617
499.53	24.484
499.87	23.912
500.22	23.152
500.56	23.032
500.91	24.348
501.26	23.591
501.60	23.464
501.95	23.752
502.29	23.519
502.64	24.093
502.98	23.512
503.33	23.110
503.67	23.506
504.02	23.555
504.36	24.173
504.71	23.794
505.06	22.738
505.40	22.898
505.75	24.044
506.09	23.250
506.44	23.445
506.78	23.394
507.13	23.421
507.47	24.775
507.82	23.674
508.16	22.992
508.51	22.550
508.85	23.240
509.19	23.685
509.54	24.015
509.88	23.215
510.23	23.604
510.57	23.635
510.92	23.077
511.26	22.703
511.61	23.274
511.95	23.036
512.30	24.077
512.64	23.188
512.98	22.661
513.33	23.488
513.67	23.559
514.02	23.097
514.36	23.939
514.70	23.594
515.05	22.106
515.39	23.307
515.74	23.436
516.08	23.244
516.42	24.071
516.77	23.502
517.11	23.311
517.46	23.383
517.80	23.944
518.14	23.613
518.49	24.078
518.83	23.257
519.17	23.048
519.52	22.694
519.86	23.020
520.20	22.737
520.55	22.563
520.89	23.592
521.23	23.283
521.58	23.559
521.92	22.833
522.26	23.253
522.61	23.148
522.95	22.837
523.29	22.874
523.64	22.982
523.98	23.617
524.32	23.840
524.66	23.392
525.01	23.103
525.35	22.401
525.69	22.796
526.04	23.307
526.38	22.356
526.72	22.318
527.06	22.581
527.41	23.499
527.75	23.040
528.09	23.613
528.43	23.327
528.78	22.139
529.12	23.394
529.46	23.440
529.80	22.140
530.15	23.188
530.49	23.013
530.83	23.495
531.17	22.401
531.51	23.105
531.86	23.077
532.20	23.476
532.54	22.442
532.88	22.727
533.22	23.217
533.57	23.139
533.91	22.783
534.25	22.838
534.59	22.931
534.93	22.071
535.27	22.817
535.62	23.991
535.96	22.952
536.30	23.208
536.64	23.063
536.98	23.186
537.32	22.716
537.66	23.518
538.01	21.934
538.35	21.803
538.69	22.175
539.03	22.685
539.37	22.615
539.71	22.162
540.05	22.722
540.39	22.311
540.73	21.858
541.07	22.869
541.42	21.914
541.76	21.945
542.10	22.376
542.44	21.924
542.78	22.263
543.12	21.871
543.46	21.978
543.80	21.523
544.14	21.364
544.48	22.045
544.82	23.040
545.16	21.646
545.50	22.349
545.84	22.658
546.18	23.642
546.52	22.739
546.86	21.635
547.20	22.583
547.54	21.598
547.88	21.519
548.22	21.930
548.56	21.826
548.90	22.687
549.24	22.006
549.58	21.956
549.92	22.003
550.26	22.136
550.60	22.144
550.94	22.574
551.28	22.244
551.62	22.776
551.96	21.424
552.30	22.180
552.64	21.593
552.98	21.647
553.32	22.508
553.66	22.379
554.00	21.816
554.34	21.879
554.68	21.046
555.02	21.879
555.36	22.354
555.69	20.820
556.03	21.311
556.37	21.214
556.71	22.321
557.05	21.470
557.39	21.301
557.73	22.193
558.07	20.530
558.41	21.860
558.75	21.433
559.08	21.781
559.42	21.674
559.76	22.931
560.10	21.701
560.44	21.702
560.78	22.313
561.12	22.167
561.45	21.959
561.79	22.466
562.13	21.257
562.47	20.715
562.81	21.582
563.15	21.654
563.48	21.753
563.82	21.765
564.16	20.775
564.50	21.395
564.84	21.003
565.17	21.588
565.51	20.771
565.85	21.615
566.19	20.622
566.52	21.299
566.86	21.279
567.20	20.283
567.54	20.818
567.88	21.152
568.21	21.492
568.55	21.679
568.89	20.926
569.23	21.082
569.56	20.555
569.90	21.026
570.24	20.236
570.57	19.917
570.91	19.841
571.25	19.931
571.59	19.928
571.92	19.856
572.26	20.090
572.60	19.956
572.93	20.429
573.27	20.146
573.61	19.693
573.95	19.495
574.28	19.341
574.62	19.759
574.96	19.519
575.29	19.784
575.63	19.543
575.97	19.497
576.30	19.418
576.64	19.423
576.98	19.590
577.31	19.492
577.65	19.521
577.98	19.672
578.32	19.673
578.66	19.035
578.99	19.250
579.33	19.742
579.67	19.606
580.00	19.285
580.34	19.350
580.67	19.440
581.01	19.342
581.35	19.345
581.68	19.468
582.02	19.023
582.35	19.352
582.69	19.603
583.02	19.473
583.36	19.552
583.70	19.427
584.03	19.534
584.37	19.378
584.70	19.169
585.04	19.414
585.37	19.421
585.71	19.439
586.04	19.199
586.38	19.058
586.72	19.027
587.05	18.982
587.39	19.571
587.72	19.450
588.06	19.826
588.39	19.393
588.73	19.180
589.06	19.752
589.40	19.392
589.73	19.409
590.07	19.562
590.40	20.014
590.73	19.371
591.07	19.806
591.40	20.062
591.74	19.873
592.07	20.179
592.41	19.913
592.74	18.992
593.08	19.268
593.41	19.802
593.75	19.483
594.08	19.418
594.41	19.231
594.75	19.462
595.08	18.977
595.42	19.610
595.75	19.148
596.09	19.858
596.42	19.312
596.75	19.722
597.09	20.162
597.42	19.706
597.75	19.914
598.09	19.683
598.42	19.944
598.76	19.106
599.09	19.331
599.42	18.840
599.76	18.554
600.09	19.620
600.42	19.586
600.76	19.221
601.09	18.852
601.42	19.087
601.76	19.310
602.09	19.085
602.42	19.375
602.76	19.815
603.09	19.457
603.42	19.184
603.76	18.393
604.09	20.014
604.42	19.009
604.76	19.368
605.09	19.625
605.42	19.139
605.75	18.577
606.09	19.634
606.42	18.752
606.75	18.928
607.09	19.470
607.42	19.152
607.75	18.953
608.08	19.298
608.42	18.783
608.75	19.362
609.08	18.591
609.41	19.541
609.75	19.375
610.08	19.481
610.41	19.711
610.74	19.706
611.07	18.783
611.41	19.148
611.74	19.723
612.07	18.841
612.40	19.011
612.73	19.462
613.07	19.707
613.40	19.731
613.73	19.788
614.06	19.529
614.39	19.776
614.72	20.039
615.06	19.057
615.39	19.043
615.72	19.194
616.05	19.427
616.38	19.627
616.71	19.801
617.05	19.862
617.38	20.171
617.71	19.762
618.04	19.860
618.37	20.000
618.70	19.740
619.03	19.534
619.36	19.236
619.69	19.923
620.03	19.397
620.36	19.325
620.69	19.494
621.02	20.932
621.35	20.682
621.68	20.824
622.01	20.356
622.34	19.735
622.67	20.550
623.00	18.826
623.33	21.367
623.66	19.844
623.99	20.013
624.32	20.338
624.65	19.369
624.99	20.936
625.32	20.248
625.65	20.769
625.98	19.525
626.31	19.915
626.64	20.586
626.97	19.955
627.30	19.514
627.63	19.655
627.96	20.571
628.29	20.078
628.62	19.899
628.95	19.720
629.28	20.306
629.61	19.613
629.94	19.749
630.26	19.068
630.59	21.071
630.92	19.394
631.25	20.483
631.58	21.846
631.91	21.181
632.24	20.269
632.57	20.588
632.90	21.063
633.23	20.000
633.56	21.122
633.89	19.215
634.22	21.622
634.55	19.624
634.88	20.671
635.20	22.282
635.53	20.000
635.86	21.560
636.19	20.467
636.52	21.308
636.85	20.633
637.18	21.518
637.51	20.860
637.83	22.924
638.16	21.198
638.49	21.479
638.82	19.842
639.15	20.848
639.48	22.286
639.81	21.709
640.13	21.437
640.46	19.394
640.79	20.221
641.12	20.745
641.45	23.338
641.77	24.134
642.10	20.866
642.43	21.144
642.76	22.222
643.09	21.370
643.41	18.908
643.74	21.517
644.07	21.241
644.40	20.651
644.73	20.029
645.05	21.145
645.38	20.863
645.71	19.208
646.04	21.808
646.36	21.752
646.69	20.859
647.02	21.560
647.35	21.832
647.67	22.222
648.00	21.178
648.33	21.471
648.66	20.827
648.98	21.497
649.31	22.463
649.64	21.780
649.96	20.292
650.29	19.193
650.62	20.368
650.94	19.670
651.27	19.162
651.60	21.930
651.92	20.365
652.25	22.431
652.58	21.045
652.90	18.459
653.23	20.141
653.56	18.545
653.88	23.315
654.21	19.014
654.54	20.231
654.86	19.688
655.19	18.068
655.52	20.351
655.84	18.239
656.17	21.096
656.49	29.794
656.82	32.468
657.15	25.471
657.47	19.159
657.80	14.224
658.13	11.042
658.45	14.654
658.78	17.562
659.10	17.307
659.43	17.385
659.75	16.376
660.08	17.031
660.41	17.287
660.73	17.902
661.06	19.090
661.38	19.617
661.71	20.517
662.03	21.693
662.36	20.572
662.68	21.388
663.01	20.354
663.33	22.495
663.66	23.810
663.98	20.000
664.31	22.139
664.63	20.617
664.96	21.234
665.28	18.330
665.61	22.378
665.93	20.179
666.26	22.043
666.58	19.557
666.91	21.869
667.23	19.238
667.56	22.091
667.88	21.400
668.21	20.508
668.53	18.726
668.86	21.218
669.18	17.515
669.50	20.278
669.83	21.600
670.15	20.079
670.48	21.825
670.80	19.885
671.13	18.904
671.45	21.654
671.77	20.339
672.10	17.167
672.42	19.741
672.75	18.587
673.07	18.806
673.39	20.647
673.72	20.470
674.04	20.690
674.37	21.825
674.69	20.988
675.01	19.810
675.34	20.229
675.66	19.476
675.98	22.761
676.31	19.922
676.63	19.011
676.95	22.414
677.28	22.581
677.60	17.717
677.92	19.002
678.25	22.303
678.57	21.174
678.89	19.795
679.22	17.944
679.54	21.368
679.86	19.322
680.18	19.237
680.51	19.340
680.83	19.640
681.15	18.621
681.48	21.934
681.80	20.553
682.12	18.007
682.44	20.200
682.77	19.504
683.09	19.697
683.41	21.705
683.73	22.391
684.06	17.897
684.38	17.710
684.70	23.160
685.02	18.761
685.34	19.301
685.67	17.666
685.99	19.172
686.31	17.297
686.63	18.009
686.96	16.719
687.28	19.544
687.60	17.340
687.92	20.579
688.24	19.533
688.56	19.483
688.89	17.786
689.21	18.591
689.53	16.275
689.85	18.146
690.17	18.889
690.49	17.131
690.82	19.208
691.14	17.206
691.46	19.120
691.78	18.969
692.10	19.817
692.42	16.786
692.74	18.512
693.06	17.222
693.39	19.924
693.71	18.797
694.03	19.517
694.35	17.524
694.67	18.480
694.99	18.936
695.31	19.647
695.63	19.913
695.95	18.841
696.27	20.220
696.59	20.796
696.91	18.919
697.23	20.879
697.56	17.312
697.88	19.318
698.20	18.832
698.52	20.076
698.84	18.919
699.16	18.980
699.48	20.502
699.80	17.447
700.12	20.087
700.44	18.203
700.76	19.715
701.08	18.160
701.40	20.207
701.72	20.149
702.04	23.262
702.36	19.634
702.68	17.115
703.00	16.870
703.32	17.488
703.64	22.249
703.96	20.525
704.28	19.410
704.60	17.975
704.91	21.429
705.23	18.356
705.55	18.663
705.87	22.424
706.19	19.018
706.51	19.277
706.83	14.697
707.15	14.550
707.47	17.523
707.79	16.812
708.11	16.102
708.43	15.484
708.74	16.518
709.06	17.169
709.38	19.249
709.70	20.347
710.02	17.829
710.34	22.074
710.66	15.642
710.98	16.120
711.29	17.033
711.61	19.209
711.93	20.228
712.25	17.568
712.57	19.764
712.89	20.588
713.20	16.864
713.52	20.809
713.84	22.563
714.16	18.947
714.48	18.299
714.80	19.221
715.11	19.160
715.43	16.446
715.75	21.579
716.07	17.127
716.39	19.399
716.70	17.470
717.02	16.721
717.34	16.028
717.66	19.463
717.97	16.781
718.29	20.619
718.61	15.789
718.93	17.799
719.24	17.702
719.56	15.337
719.88	15.916
720.20	18.387
720.51	16.770
720.83	16.250
721.15	14.474
721.46	17.808
721.78	18.667
722.10	15.534
722.42	16.443
722.73	14.516
723.05	17.895
723.37	16.667
723.68	20.430
724.00	19.134
724.32	15.493
724.63	19.231
724.95	17.021
725.27	17.422
725.58	14.841
725.90	21.034
726.22	16.301
726.53	17.532
726.85	20.126
727.16	17.523
727.48	18.654
727.80	15.563
728.11	16.608
728.43	19.192
728.74	16.388
729.06	14.901
729.38	16.234
729.69	18.792
730.01	15.476
730.32	13.636
730.64	19.182
730.96	15.528
731.27	18.994
731.59	15.385
731.90	15.325
732.22	19.271
732.53	15.746
732.85	15.714
733.16	15.543
733.48	12.500
733.80	16.992
734.11	15.100
734.43	17.838
734.74	21.266
735.06	12.563
735.37	15.676
735.69	15.135
736.00	16.384
736.32	14.555
736.63	16.667
736.95	14.080
737.26	14.545
737.58	13.939
737.89	15.000
738.21	14.067
738.52	16.393
738.83	17.065
739.15	15.957
739.46	17.347
739.78	13.804
740.09	14.040
740.41	18.659
740.72	14.667
741.04	16.505
741.35	16.140
741.66	12.941
741.98	18.852
742.29	15.063
742.61	16.228
742.92	17.692
743.23	17.329
743.55	13.953
743.86	17.200
744.18	9.091
744.49	12.658
744.80	18.107
745.12	18.143
745.43	18.699
745.74	13.362
746.06	16.525
746.37	18.987
746.68	22.358
747.00	14.583
747.31	15.451
747.62	17.308
747.94	15.385
748.25	15.663
748.56	8.571
748.88	13.675
749.19	17.241
749.50	10.390
749.82	16.867
750.13	18.861
750.44	12.667
750.75	15.077
751.07	16.308
751.38	18.612
751.69	16.933
752.01	14.563
752.32	17.320
752.63	12.245
752.94	12.803
753.26	13.011
753.57	15.185
753.88	14.232
754.19	16.399
754.51	18.328
754.82	14.791
755.13	14.754
755.44	16.382
755.75	15.132
756.07	19.701
756.38	12.264
756.69	14.458
757.00	15.512
757.31	19.126
757.63	14.066
757.94	13.146
758.25	15.124
758.56	14.161
758.87	15.000
759.18	16.267
759.50	16.714
759.81	15.686
760.12	14.555
760.43	15.104
760.74	19.212
761.05	14.750
761.36	14.940
761.67	16.751
761.99	14.865
762.30	13.720
762.61	10.561
762.92	15.672
763.23	15.730
763.54	17.986
763.85	17.182
764.16	13.805
764.47	14.789
764.78	17.891
765.10	15.836
765.41	15.641
765.72	15.608
766.03	14.689
766.34	10.658
766.65	12.544
766.96	12.351
767.27	18.894
767.58	13.930
767.89	15.865
768.20	11.737
768.51	15.741
768.82	12.048
769.13	14.394
769.44	9.615
769.75	17.329
770.06	15.769
770.37	19.291
770.68	13.617
770.99	14.170
771.30	16.296
771.61	14.449
771.92	12.593
772.23	15.385
772.54	10.185
772.85	15.668
773.16	13.333
773.47	11.640
773.78	11.892
774.09	15.341
774.39	15.000
774.70	18.033
775.01	6.707
775.32	9.412
775.63	12.270
775.94	5.732
776.25	12.903
776.56	16.667
776.87	17.007
777.18	11.034
777.48	10.490
777.79	8.108
778.10	1.471
778.41	9.028
778.72	17.931
779.03	16.667
779.34	10.303
779.65	15.544
779.95	16.111
780.26	15.341
780.57	18.065
780.88	14.493
781.19	16.129
781.50	18.824
781.80	17.742
782.11	16.931
782.42	8.586
782.73	6.587
783.04	13.408
783.34	12.121
783.65	11.111
783.96	8.696
784.27	13.690
784.57	7.285
784.88	13.571
785.19	7.874
785.50	7.087
785.81	9.023
786.11	17.692
786.42	7.914
786.73	9.353
787.04	17.293
787.34	3.279
787.65	12.000
787.96	15.672
788.26	18.881
788.57	10.490
788.88	5.263
789.19	13.072
789.49	10.959
789.80	8.511
790.11	4.724
790.41	1.563
790.72	9.322
791.03	-1.942
791.33	8.696
791.64	5.263
791.95	8.929
792.25	17.143
792.56	1.786
792.87	3.125
793.17	16.071
793.48	7.292
793.79	4.819
794.09	-4.587
794.40	13.761
794.70	8.163
795.01	11.688
795.32	9.589
795.62	19.718
795.93	8.333
796.23	8.197
796.54	9.821
796.85	5.319
797.15	10.870
797.46	1.370
797.76	-3.750
798.07	1.087
798.37	-6.186
798.68	-11.688
798.99	0.000
799.29	3.371
799.60	12.766
799.90	2.410
800.21	6.154
800.51	-10.448
800.82	5.882
801.12	-16.438
801.43	-13.235
801.73	-8.475
802.04	-1.515
802.34	-25.000
802.65	-10.169
802.95	5.970
803.26	-8.475
803.56	-5.479
803.87	-2.857
804.17	9.589
804.48	-21.053
804.78	-2.778
805.09	-17.241
805.39	14.865
805.70	-16.901
806.00	0.000
806.30	-3.614
806.61	-21.918
806.91	2.885
807.22	7.778
807.52	3.448
807.83	8.333
808.13	9.639
808.43	1.124
808.74	-1.250
809.04	-8.824
809.35	4.000
809.65	-7.143
809.95	-12.329
810.26	-15.789
810.56	-8.621
810.86	23.529
811.17	-14.035
811.47	-11.475
811.77	-35.556
812.08	-10.169
812.38	-11.667
812.69	18.966
812.99	-26.415
813.29	-25.641
813.59	0.000
813.90	-12.281
814.20	-5.455
814.50	9.859
814.81	7.692
815.11	-3.279
815.41	-2.985
815.72	3.448
816.02	5.357
816.32	-11.111
816.62	-13.636
816.93	-6.667
817.23	5.556
817.53	-10.638
817.84	-4.762
818.14	-14.706
818.44	-16.327
818.74	-6.667
819.04	-17.949
819.35	-25.714
819.65	-50.000
819.95	-7.547
820.25	8.889
820.56	-35.714
820.86	-40.625
821.16	-17.949
821.46	-16.279
821.76	-26.000
822.07	-16.071
822.37	-21.739
822.67	-27.660
822.97	-45.946
823.27	-30.000
823.57	6.122
823.88	4.444
824.18	-15.000
824.48	0.000
824.78	-48.000
825.08	-15.152
825.38	-15.556
825.69	2.128
825.99	-5.556
826.29	-22.857
826.59	-12.821
826.89	-20.930
827.19	-6.000
827.49	-11.765
827.79	4.167
828.09	-35.135
828.39	-36.667
828.70	-26.829
829.00	-39.535
829.30	-14.286
829.60	-17.647
829.90	-8.696
830.20	-37.143
830.50	-31.034
830.80	-100.000
831.10	-46.154
831.40	-41.176
831.70	-23.810
832.00	12.903
832.30	-100.000
832.60	-54.167
832.90	-146.154
833.20	-57.895
833.50	-35.000
833.80	-78.947
834.10	-104.762
834.40	-19.444
834.70	18.750
835.00	-22.857
835.30	-38.235
835.60	-30.000
835.90	-28.000
836.20	-63.636
836.50	-40.000
836.80	-72.727
837.10	14.815
837.40	-25.926
837.70	-75.000
838.00	0.000
838.30	-73.913
838.60	-34.483
838.90	-78.571
839.19	-104.348
839.49	-141.667
839.79	-47.826
840.09	-156.250
840.39	-100.000
840.69	-41.935
840.99	-60.714
841.29	-100.000
841.59	-73.684
841.88	15.385
842.18	-26.923
842.48	-130.000
842.78	-40.000
843.08	-23.333
843.38	-6.452
843.68	-100.000
843.97	-47.059
844.27	-112.500
844.57	-68.421
844.87	-140.000
845.17	-80.000
845.47	-23.810
845.76	-76.190
846.06	-133.333
846.36	-94.118
846.66	3.846
846.96	-66.667
847.25	-58.824
847.55	-65.217
847.85	-90.000
848.15	-29.412
848.44	-190.909
848.74	-23.810
849.04	-62.500
849.34	-68.750
849.63	-43.478
849.93	1250.000
850.23	-86.667
850.53	3.846
850.82	-109.091
851.12	-31.818
851.42	-127.273
851.71	-76.923
852.01	-75.000
852.31	-161.538
852.61	-42.105
852.90	-33.333
853.20	-55.556
853.50	-211.111
853.79	-71.429
854.09	-54.545
854.39	-191.667
854.68	-25.806
854.98	-61.538
855.28	-27.778
855.57	-7.143
855.87	-32.000
856.17	-27.273
856.46	14.815
856.76	-83.333
857.05	-60.870
857.35	-58.333
857.65	-107.692
857.94	4.762
858.24	-25.926
858.53	-39.130
858.83	-111.765
859.13	-47.059
859.42	-47.059
859.72	-64.286
860.01	-30.000
860.31	-200.000
860.60	-90.000
860.90	-160.000
861.20	-61.111
861.49	-69.231
861.79	-16.667
862.08	-146.154
862.38	-3.125
862.67	-17.647
862.97	-100.000
863.26	-200.000
863.56	-110.000
863.85	-172.727
864.15	-38.889
864.44	-533.333
864.74	-57.143
865.03	-75.000
865.33	-150.000
865.62	-38.710
865.92	-81.818
866.21	-56.522
866.51	-14.286
866.80	-200.000
867.10	-133.333
867.39	-208.333
867.69	1900.000
867.98	-242.857
868.27	-29.412
868.57	-3400.000
868.86	-280.000
869.16	-76.190
869.45	-58.333
869.75	-72.727
870.04	-185.714
870.33	-100.000
870.63	-485.714
870.92	-100.000
871.22	-337.500
871.51	-181.818
871.80	-800.000
872.10	-1150.000
>>>>>End Processed Spectral Data<<<<<
