SpectraSuite Data File
++++++++++++++++++++++++++++++++++++
Date: Thu May 14 16:05:04 PDT 2015
User: schluterlab
Dark Spectrum Present: Yes
Reference Spectrum Present: Yes
Number of Sampled Component Spectra: 1
Spectrometers: USB2E3373
Integration Time (usec): 3000 (USB2E3373)
Spectra Averaged: 3 (USB2E3373)
Boxcar Smoothing: 0 (USB2E3373)
Correct for Electrical Dark: No (USB2E3373)
Strobe/Lamp Enabled: No (USB2E3373)
Correct for Detector Non-linearity: No (USB2E3373)
Correct for Stray Light: No (USB2E3373)
Number of Pixels in Processed Spectrum: 2048
>>>>>Begin Processed Spectral Data<<<<<
178.53	0.000
178.91	300.000
179.29	-2300.000
179.67	-1700.000
180.04	214.286
180.42	170.000
180.80	420.000
181.18	-1600.000
181.56	-800.000
181.94	400.000
182.31	-175.000
182.69	466.667
183.07	-750.000
183.45	475.000
183.83	-283.333
184.20	-66.667
184.58	800.000
184.96	-700.000
185.34	-188.889
185.72	-180.000
186.09	355.556
186.47	1050.000
186.85	340.000
187.23	-133.333
187.61	-1400.000
187.98	260.000
188.36	425.000
188.74	-425.000
189.12	-433.333
189.49	-87.500
189.87	-225.000
190.25	-133.333
190.63	-280.000
191.00	-300.000
191.38	0.000
191.76	-400.000
192.14	-300.000
192.51	850.000
192.89	-66.667
193.27	0.000
193.65	-185.714
194.02	-2200.000
194.40	-28.571
194.78	271.429
195.15	0.000
195.53	-63.636
195.91	0.000
196.29	-300.000
196.66	-100.000
197.04	-2000.000
197.42	-157.143
197.79	-950.000
198.17	-187.500
198.55	-214.286
198.92	-111.111
199.30	-275.000
199.68	-127.273
200.05	-64.286
200.43	-900.000
200.81	328.571
201.18	0.000
201.56	200.000
201.94	0.000
202.31	400.000
202.69	-155.556
203.07	1300.000
203.44	-77.778
203.82	-275.000
204.19	-100.000
204.57	-250.000
204.95	-225.000
205.32	-1300.000
205.70	125.000
206.08	-233.333
206.45	-183.333
206.83	640.000
207.20	-250.000
207.58	-440.000
207.96	-350.000
208.33	-200.000
208.71	116.667
209.08	-66.667
209.46	0.000
209.84	300.000
210.21	650.000
210.59	850.000
210.96	666.667
211.34	-300.000
211.71	-212.500
212.09	-900.000
212.46	0.000
212.84	1050.000
213.22	-300.000
213.59	-300.000
213.97	-60.000
214.34	-500.000
214.72	250.000
215.09	-425.000
215.47	0.000
215.84	257.143
216.22	950.000
216.59	-160.000
216.97	-320.000
217.34	-200.000
217.72	-112.500
218.09	-450.000
218.47	-375.000
218.84	0.000
219.22	180.000
219.59	-52.941
219.97	-30.000
220.34	750.000
220.72	-200.000
221.09	-23.077
221.47	-333.333
221.84	-160.000
222.22	-271.429
222.59	0.000
222.97	-162.500
223.34	-540.000
223.72	-1200.000
224.09	-100.000
224.46	-325.000
224.84	-340.000
225.21	-314.286
225.59	-325.000
225.96	-450.000
226.34	-7.692
226.71	416.667
227.08	-950.000
227.46	-73.333
227.83	-250.000
228.21	-63.158
228.58	100.000
228.95	1050.000
229.33	-91.667
229.70	-110.000
230.08	0.000
230.45	210.000
230.82	-400.000
231.20	-35.714
231.57	-66.667
231.95	-172.727
232.32	-90.909
232.69	-35.000
233.07	-375.000
233.44	-52.941
233.81	-130.000
234.19	-44.444
234.56	-40.909
234.93	-31.034
235.31	-57.895
235.68	-38.889
236.05	-110.000
236.43	-19.231
236.80	24.000
237.17	-44.444
237.55	-6.061
237.92	-200.000
238.29	-51.613
238.67	-18.182
239.04	-25.000
239.41	-35.714
239.79	-26.087
240.16	-24.074
240.53	-39.130
240.91	-33.333
241.28	-19.672
241.65	1.493
242.02	-14.865
242.40	-18.462
242.77	-10.667
243.14	-17.073
243.51	-19.737
243.89	-24.359
244.26	-5.941
244.63	6.863
245.00	-1.869
245.38	-7.018
245.75	-15.929
246.12	-2.381
246.49	-2.326
246.87	-0.714
247.24	-3.974
247.61	-1.316
247.98	0.671
248.36	-3.086
248.73	-9.202
249.10	1.093
249.47	5.970
249.84	3.141
250.22	0.518
250.59	2.222
250.96	5.455
251.33	-1.531
251.70	1.282
252.08	-0.833
252.45	7.377
252.82	4.959
253.19	2.344
253.56	1.521
253.94	-1.923
254.31	4.924
254.68	6.294
255.05	7.492
255.42	6.803
255.79	5.178
256.16	6.623
256.54	2.980
256.91	7.869
257.28	5.246
257.65	3.503
258.02	2.065
258.39	7.977
258.76	8.563
259.14	6.322
259.51	4.323
259.88	5.382
260.25	5.278
260.62	6.027
260.99	6.557
261.36	7.507
261.73	5.570
262.10	3.297
262.47	9.115
262.85	8.586
263.22	3.117
263.59	3.158
263.96	6.138
264.33	5.371
264.70	8.148
265.07	7.876
265.44	8.617
265.81	5.093
266.18	6.122
266.55	6.473
266.92	5.239
267.29	8.315
267.66	6.208
268.03	5.022
268.40	5.637
268.77	2.961
269.14	4.185
269.51	6.579
269.88	9.221
270.25	7.847
270.62	7.384
270.99	7.071
271.36	8.119
271.73	7.466
272.10	8.216
272.47	7.415
272.84	6.827
273.21	9.218
273.58	5.444
273.95	4.423
274.32	2.471
274.69	6.383
275.06	5.678
275.43	3.882
275.80	8.113
276.17	5.000
276.54	8.022
276.91	7.335
277.28	6.148
277.65	6.284
278.02	7.353
278.39	6.703
278.76	4.745
279.13	6.028
279.50	7.560
279.87	7.335
280.23	4.225
280.60	5.424
280.97	6.086
281.34	6.112
281.71	6.768
282.08	4.983
282.45	5.401
282.82	4.082
283.19	5.170
283.56	4.426
283.92	5.405
284.29	9.163
284.66	6.404
285.03	4.647
285.40	6.955
285.77	6.966
286.14	7.939
286.51	6.849
286.87	6.319
287.24	7.681
287.61	7.025
287.98	7.704
288.35	8.580
288.72	8.284
289.08	9.078
289.45	6.509
289.82	7.078
290.19	6.322
290.56	8.873
290.93	6.847
291.29	7.025
291.66	7.163
292.03	6.649
292.40	8.571
292.77	7.951
293.13	8.525
293.50	6.702
293.87	8.054
294.24	9.467
294.60	8.723
294.97	6.443
295.34	9.347
295.71	7.314
296.08	7.364
296.44	7.966
296.81	6.334
297.18	7.721
297.55	7.311
297.91	7.473
298.28	7.820
298.65	8.561
299.02	7.674
299.38	8.924
299.75	8.645
300.12	8.796
300.48	7.604
300.85	8.999
301.22	8.277
301.59	9.475
301.95	9.040
302.32	9.444
302.69	7.667
303.05	8.596
303.42	9.645
303.79	8.438
304.15	9.674
304.52	10.042
304.89	7.330
305.25	9.524
305.62	8.046
305.99	10.412
306.35	9.677
306.72	8.997
307.09	9.848
307.45	8.489
307.82	8.880
308.19	9.284
308.55	10.511
308.92	10.224
309.29	10.536
309.65	9.649
310.02	9.505
310.38	10.236
310.75	10.680
311.12	10.163
311.48	11.535
311.85	10.066
312.22	9.583
312.58	11.362
312.95	10.707
313.31	12.014
313.68	12.546
314.05	12.376
314.41	11.566
314.78	12.988
315.14	12.250
315.51	13.019
315.87	13.411
316.24	14.064
316.61	14.298
316.97	12.760
317.34	12.610
317.70	13.886
318.07	14.109
318.43	14.031
318.80	14.632
319.16	15.021
319.53	13.282
319.89	15.250
320.26	15.747
320.62	15.160
320.99	14.866
321.35	15.619
321.72	16.000
322.08	15.329
322.45	16.531
322.81	15.884
323.18	14.779
323.54	16.983
323.91	16.548
324.27	17.040
324.64	17.968
325.00	16.833
325.37	17.936
325.73	17.934
326.10	18.329
326.46	18.404
326.83	19.536
327.19	18.661
327.56	18.893
327.92	18.175
328.29	18.790
328.65	18.090
329.01	17.936
329.38	20.135
329.74	20.120
330.11	19.692
330.47	19.798
330.84	20.069
331.20	19.250
331.56	20.624
331.93	20.167
332.29	19.661
332.66	20.515
333.02	19.179
333.38	18.540
333.75	19.949
334.11	20.601
334.48	19.967
334.84	20.221
335.20	18.976
335.57	19.815
335.93	19.174
336.29	19.884
336.66	19.765
337.02	19.732
337.38	19.898
337.75	19.174
338.11	19.680
338.47	20.017
338.84	18.782
339.20	19.377
339.56	18.946
339.93	18.883
340.29	19.163
340.65	18.329
341.02	20.192
341.38	19.968
341.74	19.774
342.11	18.423
342.47	18.745
342.83	20.048
343.20	20.033
343.56	19.407
343.92	19.215
344.28	19.062
344.65	20.698
345.01	19.735
345.37	19.440
345.73	18.862
346.10	19.891
346.46	20.095
346.82	19.551
347.19	20.397
347.55	19.423
347.91	19.985
348.27	19.196
348.63	19.954
349.00	19.612
349.36	20.446
349.72	19.717
350.08	20.951
350.45	19.316
350.81	19.683
351.17	20.301
351.53	19.712
351.89	20.273
352.26	20.746
352.62	21.045
352.98	19.313
353.34	18.895
353.70	20.493
354.07	19.598
354.43	19.970
354.79	19.970
355.15	19.426
355.51	21.272
355.87	19.895
356.24	20.228
356.60	19.956
356.96	20.015
357.32	19.777
357.68	18.887
358.04	18.937
358.40	19.851
358.77	19.664
359.13	20.606
359.49	20.000
359.85	21.247
360.21	20.301
360.57	19.454
360.93	20.733
361.29	20.421
361.66	20.420
362.02	20.877
362.38	20.520
362.74	20.251
363.10	22.421
363.46	20.845
363.82	20.881
364.18	22.027
364.54	20.954
364.90	20.936
365.26	20.276
365.62	22.333
365.98	20.967
366.35	21.477
366.71	21.905
367.07	22.463
367.43	20.946
367.79	21.898
368.15	21.940
368.51	21.448
368.87	21.881
369.23	21.733
369.59	22.473
369.95	21.771
370.31	21.540
370.67	22.490
371.03	22.161
371.39	21.692
371.75	22.765
372.11	21.951
372.47	23.020
372.83	22.317
373.19	22.482
373.55	21.274
373.91	21.677
374.27	23.868
374.63	22.598
374.99	22.546
375.35	23.312
375.71	23.032
376.07	22.853
376.42	23.237
376.78	24.549
377.14	23.706
377.50	24.035
377.86	23.953
378.22	23.952
378.58	23.662
378.94	24.178
379.30	23.843
379.66	24.103
380.02	24.812
380.38	24.136
380.74	24.225
381.09	24.623
381.45	24.205
381.81	25.293
382.17	24.644
382.53	24.620
382.89	25.000
383.25	24.912
383.61	24.595
383.97	25.088
384.32	25.478
384.68	24.478
385.04	25.564
385.40	25.869
385.76	26.436
386.12	25.673
386.48	26.294
386.83	26.103
387.19	25.782
387.55	25.528
387.91	26.256
388.27	26.155
388.62	25.888
388.98	26.170
389.34	26.400
389.70	26.612
390.06	27.117
390.42	26.627
390.77	26.911
391.13	26.995
391.49	27.234
391.85	26.303
392.20	26.928
392.56	28.057
392.92	27.045
393.28	27.418
393.64	26.592
393.99	28.181
394.35	27.804
394.71	27.246
395.07	26.467
395.42	26.842
395.78	27.971
396.14	28.045
396.50	28.207
396.85	27.907
397.21	27.988
397.57	27.444
397.92	28.064
398.28	27.702
398.64	27.002
399.00	28.063
399.35	28.010
399.71	28.207
400.07	28.355
400.42	28.929
400.78	27.373
401.14	28.401
401.49	28.312
401.85	29.651
402.21	28.563
402.57	28.286
402.92	29.196
403.28	29.098
403.63	28.282
403.99	28.088
404.35	28.596
404.70	29.065
405.06	28.478
405.42	29.625
405.77	29.716
406.13	28.633
406.49	28.941
406.84	29.141
407.20	28.899
407.55	28.892
407.91	28.598
408.27	28.799
408.62	29.901
408.98	29.077
409.34	27.918
409.69	29.604
410.05	29.777
410.40	29.988
410.76	29.613
411.11	30.333
411.47	29.975
411.83	29.101
412.18	30.361
412.54	28.631
412.89	29.278
413.25	29.966
413.60	29.064
413.96	30.303
414.31	28.952
414.67	29.338
415.03	28.862
415.38	29.445
415.74	29.200
416.09	29.241
416.45	29.743
416.80	29.009
417.16	30.013
417.51	30.137
417.87	29.736
418.22	29.880
418.58	29.492
418.93	30.326
419.29	30.641
419.64	30.072
420.00	30.208
420.35	30.039
420.71	29.466
421.06	29.845
421.42	30.619
421.77	29.402
422.12	30.074
422.48	29.493
422.83	30.449
423.19	30.239
423.54	30.586
423.90	30.260
424.25	30.667
424.61	29.564
424.96	30.917
425.31	30.679
425.67	29.683
426.02	30.880
426.38	30.195
426.73	29.743
427.09	30.277
427.44	30.093
427.79	29.409
428.15	29.795
428.50	29.719
428.85	29.736
429.21	30.745
429.56	30.405
429.92	30.418
430.27	30.506
430.62	30.093
430.98	30.448
431.33	30.547
431.68	29.454
432.04	29.964
432.39	29.620
432.74	30.479
433.10	30.611
433.45	29.431
433.80	30.687
434.16	30.733
434.51	31.398
434.86	32.085
435.22	31.190
435.57	31.427
435.92	30.774
436.28	30.205
436.63	30.803
436.98	31.347
437.34	31.342
437.69	30.765
438.04	30.460
438.39	30.959
438.75	31.101
439.10	32.452
439.45	30.688
439.81	30.508
440.16	30.080
440.51	29.989
440.86	30.517
441.22	30.225
441.57	31.184
441.92	31.474
442.27	31.162
442.63	30.601
442.98	30.683
443.33	30.984
443.68	31.219
444.03	30.950
444.39	31.022
444.74	31.802
445.09	30.715
445.44	31.560
445.79	31.705
446.15	31.346
446.50	30.181
446.85	30.885
447.20	30.464
447.55	30.649
447.91	31.152
448.26	30.814
448.61	31.615
448.96	31.223
449.31	31.124
449.66	30.664
450.02	30.643
450.37	30.954
450.72	30.624
451.07	30.467
451.42	30.156
451.77	29.961
452.12	30.926
452.47	31.075
452.83	31.194
453.18	30.356
453.53	31.017
453.88	30.812
454.23	30.847
454.58	30.644
454.93	30.825
455.28	31.487
455.63	30.927
455.98	31.229
456.34	30.860
456.69	30.100
457.04	29.846
457.39	29.933
457.74	32.215
458.09	29.819
458.44	30.765
458.79	30.376
459.14	31.096
459.49	31.579
459.84	30.325
460.19	29.817
460.54	31.062
460.89	30.810
461.24	30.690
461.59	31.101
461.94	30.519
462.29	30.347
462.64	30.477
462.99	30.571
463.34	30.370
463.69	29.308
464.04	29.906
464.39	30.830
464.74	30.901
465.09	30.738
465.44	30.204
465.79	31.465
466.14	30.120
466.49	30.368
466.84	30.579
467.19	30.983
467.54	29.847
467.89	28.563
468.24	30.803
468.59	28.141
468.94	29.720
469.29	29.334
469.64	28.989
469.99	29.254
470.34	30.322
470.68	30.485
471.03	30.124
471.38	30.216
471.73	29.649
472.08	29.632
472.43	29.380
472.78	29.660
473.13	29.709
473.48	29.547
473.83	29.658
474.17	29.367
474.52	30.367
474.87	29.956
475.22	29.690
475.57	29.907
475.92	30.114
476.27	29.393
476.61	28.764
476.96	29.301
477.31	29.752
477.66	30.010
478.01	29.385
478.36	29.262
478.70	29.951
479.05	29.908
479.40	29.763
479.75	29.971
480.10	29.086
480.45	29.763
480.79	29.252
481.14	28.722
481.49	29.441
481.84	29.460
482.19	30.065
482.53	29.996
482.88	31.059
483.23	29.302
483.58	28.734
483.92	28.546
484.27	29.340
484.62	29.290
484.97	29.121
485.31	28.687
485.66	28.409
486.01	29.104
486.36	29.726
486.70	30.347
487.05	29.972
487.40	29.557
487.75	29.135
488.09	29.360
488.44	27.959
488.79	28.702
489.13	28.602
489.48	28.272
489.83	28.209
490.17	28.028
490.52	27.956
490.87	29.019
491.22	28.899
491.56	28.626
491.91	28.740
492.26	27.434
492.60	28.422
492.95	28.653
493.30	27.701
493.64	28.296
493.99	27.675
494.34	28.092
494.68	27.966
495.03	28.238
495.37	28.007
495.72	28.027
496.07	28.659
496.41	28.529
496.76	28.774
497.11	28.110
497.45	28.269
497.80	28.521
498.14	27.846
498.49	28.355
498.84	27.605
499.18	28.160
499.53	27.623
499.87	28.659
500.22	27.115
500.56	27.440
500.91	27.872
501.26	28.818
501.60	27.176
501.95	27.269
502.29	27.819
502.64	27.722
502.98	27.394
503.33	27.775
503.67	27.082
504.02	27.145
504.36	28.061
504.71	28.020
505.06	27.558
505.40	27.102
505.75	26.867
506.09	27.993
506.44	28.273
506.78	27.982
507.13	27.755
507.47	27.380
507.82	26.894
508.16	27.964
508.51	26.582
508.85	27.775
509.19	26.717
509.54	26.945
509.88	27.538
510.23	27.683
510.57	28.275
510.92	27.576
511.26	26.792
511.61	26.074
511.95	26.061
512.30	26.933
512.64	26.637
512.98	27.314
513.33	27.369
513.67	26.772
514.02	26.980
514.36	27.570
514.70	26.146
515.05	27.112
515.39	26.982
515.74	27.466
516.08	27.205
516.42	27.525
516.77	28.076
517.11	25.941
517.46	27.625
517.80	27.205
518.14	28.346
518.49	27.223
518.83	26.557
519.17	26.494
519.52	26.310
519.86	27.878
520.20	27.742
520.55	26.944
520.89	27.365
521.23	26.857
521.58	28.023
521.92	26.912
522.26	26.346
522.61	27.141
522.95	26.701
523.29	26.494
523.64	26.850
523.98	28.523
524.32	28.596
524.66	27.718
525.01	26.727
525.35	26.020
525.69	27.262
526.04	26.005
526.38	27.184
526.72	27.047
527.06	27.155
527.41	26.706
527.75	27.316
528.09	26.387
528.43	26.584
528.78	27.399
529.12	26.433
529.46	26.419
529.80	26.888
530.15	26.783
530.49	25.919
530.83	26.210
531.17	26.822
531.51	26.594
531.86	26.563
532.20	27.012
532.54	26.631
532.88	26.545
533.22	26.753
533.57	27.063
533.91	26.319
534.25	27.304
534.59	26.264
534.93	26.203
535.27	26.817
535.62	26.890
535.96	27.193
536.30	27.321
536.64	26.486
536.98	25.892
537.32	26.111
537.66	27.074
538.01	25.438
538.35	26.857
538.69	25.481
539.03	26.303
539.37	26.384
539.71	26.366
540.05	26.918
540.39	25.733
540.73	25.440
541.07	25.628
541.42	25.103
541.76	25.623
542.10	26.297
542.44	25.579
542.78	26.521
543.12	25.626
543.46	25.641
543.80	26.019
544.14	25.135
544.48	26.182
544.82	25.613
545.16	26.058
545.50	25.704
545.84	25.964
546.18	26.667
546.52	25.159
546.86	24.843
547.20	26.018
547.54	24.969
547.88	25.196
548.22	25.146
548.56	25.161
548.90	25.373
549.24	25.593
549.58	25.300
549.92	23.852
550.26	25.307
550.60	25.399
550.94	25.550
551.28	25.281
551.62	25.539
551.96	24.595
552.30	24.984
552.64	24.829
552.98	25.328
553.32	25.080
553.66	24.309
554.00	25.851
554.34	25.161
554.68	24.532
555.02	25.690
555.36	24.721
555.69	24.664
556.03	24.464
556.37	25.344
556.71	24.984
557.05	24.601
557.39	24.353
557.73	23.844
558.07	23.841
558.41	24.850
558.75	23.867
559.08	24.008
559.42	24.211
559.76	25.170
560.10	23.979
560.44	25.264
560.78	25.437
561.12	24.692
561.45	24.635
561.79	24.725
562.13	25.200
562.47	23.736
562.81	24.747
563.15	24.053
563.48	24.425
563.82	24.547
564.16	23.561
564.50	24.374
564.84	23.068
565.17	24.235
565.51	23.878
565.85	23.931
566.19	24.251
566.52	23.698
566.86	23.656
567.20	23.600
567.54	24.057
567.88	24.465
568.21	24.704
568.55	24.844
568.89	23.877
569.23	23.997
569.56	24.189
569.90	24.020
570.24	24.317
570.57	24.567
570.91	24.097
571.25	24.183
571.59	24.214
571.92	24.307
572.26	23.796
572.60	23.751
572.93	23.852
573.27	23.827
573.61	23.954
573.95	24.035
574.28	23.686
574.62	23.738
574.96	23.467
575.29	23.573
575.63	23.539
575.97	23.186
576.30	23.365
576.64	23.121
576.98	23.508
577.31	24.047
577.65	23.958
577.98	23.927
578.32	23.258
578.66	23.313
578.99	22.937
579.33	23.410
579.67	22.733
580.00	22.971
580.34	23.320
580.67	22.816
581.01	23.064
581.35	23.534
581.68	23.443
582.02	23.534
582.35	24.005
582.69	23.606
583.02	23.435
583.36	22.900
583.70	22.949
584.03	22.414
584.37	22.488
584.70	22.298
585.04	22.181
585.37	22.404
585.71	22.848
586.04	22.325
586.38	22.748
586.72	22.361
587.05	22.307
587.39	22.663
587.72	23.014
588.06	22.776
588.39	22.679
588.73	22.169
589.06	22.714
589.40	22.434
589.73	22.494
590.07	22.745
590.40	22.549
590.73	21.421
591.07	22.450
591.40	21.734
591.74	21.741
592.07	21.965
592.41	22.082
592.74	22.187
593.08	22.898
593.41	23.068
593.75	22.270
594.08	22.781
594.41	22.468
594.75	21.853
595.08	21.467
595.42	21.656
595.75	21.989
596.09	21.755
596.42	22.071
596.75	22.462
597.09	22.303
597.42	22.288
597.75	21.207
598.09	21.865
598.42	21.954
598.76	21.628
599.09	21.787
599.42	21.488
599.76	21.063
600.09	22.222
600.42	21.121
600.76	21.731
601.09	21.706
601.42	21.456
601.76	20.690
602.09	21.194
602.42	21.374
602.76	20.959
603.09	21.219
603.42	21.532
603.76	20.930
604.09	21.930
604.42	21.028
604.76	20.738
605.09	21.021
605.42	21.491
605.75	20.692
606.09	20.866
606.42	21.160
606.75	20.315
607.09	20.353
607.42	20.655
607.75	20.750
608.08	21.113
608.42	20.959
608.75	21.186
609.08	19.949
609.41	21.129
609.75	20.580
610.08	21.504
610.41	21.028
610.74	20.798
611.07	20.604
611.41	21.211
611.74	20.831
612.07	21.038
612.40	19.772
612.73	20.587
613.07	20.049
613.40	20.885
613.73	20.510
614.06	20.756
614.39	20.554
614.72	20.864
615.06	20.067
615.39	20.735
615.72	20.806
616.05	21.127
616.38	21.292
616.71	20.010
617.05	19.808
617.38	20.385
617.71	20.680
618.04	20.669
618.37	20.929
618.70	20.758
619.03	20.609
619.36	20.160
619.69	20.243
620.03	19.586
620.36	19.755
620.69	19.988
621.02	19.685
621.35	20.392
621.68	20.607
622.01	19.786
622.34	19.596
622.67	20.275
623.00	18.893
623.33	19.443
623.66	20.363
623.99	20.079
624.32	20.273
624.65	19.884
624.99	21.326
625.32	20.901
625.65	19.757
625.98	19.661
626.31	19.773
626.64	19.780
626.97	20.105
627.30	19.134
627.63	19.655
627.96	20.345
628.29	19.377
628.62	18.724
628.95	19.281
629.28	17.842
629.61	20.455
629.94	19.665
630.26	19.068
630.59	19.430
630.92	18.874
631.25	20.304
631.58	19.774
631.91	18.838
632.24	18.540
632.57	18.406
632.90	19.157
633.23	18.571
633.56	18.980
633.89	18.698
634.22	19.439
634.55	19.207
634.88	18.723
635.20	19.591
635.53	18.983
635.86	19.610
636.19	19.618
636.52	18.671
636.85	18.590
637.18	18.295
637.51	17.527
637.83	19.823
638.16	19.240
638.49	18.192
638.82	17.926
639.15	18.213
639.48	19.053
639.81	18.360
640.13	18.728
640.46	18.182
640.79	18.627
641.12	18.385
641.45	18.444
641.77	19.255
642.10	17.323
642.43	19.149
642.76	19.106
643.09	16.164
643.41	18.067
643.74	17.103
644.07	17.241
644.40	15.983
644.73	16.401
645.05	17.915
645.38	18.561
645.71	16.569
646.04	19.799
646.36	18.540
646.69	17.025
647.02	19.113
647.35	18.168
647.67	19.646
648.00	17.834
648.33	18.619
648.66	16.548
648.98	18.095
649.31	17.185
649.64	18.858
649.96	18.170
650.29	16.412
650.62	16.549
650.94	16.066
651.27	17.365
651.60	17.398
651.92	16.109
652.25	17.511
652.58	16.781
652.90	15.407
653.23	19.014
653.56	15.835
653.88	19.101
654.21	16.901
654.54	17.919
654.86	17.989
655.19	15.935
655.52	19.713
655.84	19.980
656.17	24.056
656.49	33.435
656.82	35.480
657.15	26.693
657.47	19.447
657.80	13.732
658.13	10.457
658.45	13.209
658.78	15.296
659.10	14.403
659.43	14.243
659.75	13.741
660.08	13.277
660.41	13.317
660.73	14.253
661.06	12.628
661.38	16.268
661.71	16.897
662.03	16.226
662.36	18.068
662.68	15.760
663.01	16.991
663.33	15.501
663.66	17.399
663.98	17.308
664.31	15.572
664.63	14.836
664.96	17.423
665.28	15.789
665.61	18.706
665.93	15.179
666.26	16.308
666.58	15.867
666.91	16.636
667.23	15.619
667.56	16.371
667.88	16.800
668.21	12.891
668.53	13.127
668.86	16.699
669.18	13.035
669.50	15.109
669.83	16.200
670.15	14.173
670.48	16.865
670.80	14.914
671.13	16.257
671.45	13.386
671.77	17.326
672.10	16.500
672.42	15.696
672.75	16.129
673.07	16.567
673.39	16.641
673.72	15.772
674.04	15.517
674.37	13.953
674.69	17.460
675.01	15.429
675.34	14.504
675.66	14.794
675.98	16.418
676.31	16.797
676.63	16.350
676.95	15.709
677.28	13.508
677.60	12.402
677.92	15.739
678.25	15.905
678.57	16.904
678.89	17.747
679.22	15.679
679.54	16.752
679.86	14.746
680.18	17.579
680.51	17.453
680.83	17.840
681.15	13.448
681.48	17.098
681.80	16.926
682.12	15.559
682.44	17.529
682.77	14.894
683.09	14.394
683.41	15.504
683.73	13.662
684.06	14.760
684.38	15.027
684.70	17.594
685.02	16.351
685.34	17.304
685.67	14.984
685.99	14.877
686.31	14.826
686.63	13.270
686.96	15.615
687.28	15.309
687.60	13.805
687.92	13.505
688.24	15.693
688.56	14.655
688.89	13.249
689.21	16.047
689.53	11.961
689.85	14.004
690.17	15.185
690.49	14.143
690.82	14.059
691.14	12.348
691.46	14.149
691.78	16.575
692.10	14.128
692.42	14.286
692.74	14.882
693.06	14.815
693.39	14.991
693.71	13.910
694.03	15.056
694.35	14.667
694.67	15.811
694.99	14.043
695.31	11.479
695.63	12.338
695.95	14.907
696.27	13.846
696.59	12.168
696.91	14.865
697.23	15.604
697.56	13.646
697.88	15.909
698.20	14.501
698.52	16.667
698.84	14.137
699.16	15.714
699.48	13.180
699.80	13.191
700.12	13.755
700.44	12.442
700.76	13.539
701.08	12.833
701.40	14.508
701.72	12.687
702.04	12.834
702.36	12.827
702.68	11.247
703.00	11.980
703.32	12.069
703.64	14.425
703.96	11.695
704.28	14.988
704.60	16.203
704.91	12.500
705.23	11.507
705.55	10.864
705.87	15.152
706.19	14.417
706.51	11.446
706.83	12.392
707.15	13.228
707.47	13.084
707.79	12.009
708.11	10.593
708.43	11.398
708.74	10.714
709.06	14.617
709.38	12.676
709.70	12.903
710.02	12.403
710.34	11.702
710.66	10.335
710.98	14.208
711.29	11.813
711.61	12.147
711.93	11.966
712.25	10.811
712.57	12.684
712.89	13.824
713.20	10.651
713.52	14.451
713.84	9.471
714.16	12.105
714.48	13.144
714.80	13.247
715.11	11.286
715.43	11.671
715.75	13.947
716.07	10.221
716.39	13.661
716.70	11.446
717.02	10.820
717.34	10.453
717.66	10.738
717.97	8.904
718.29	6.186
718.61	10.197
718.93	13.592
719.24	13.975
719.56	9.509
719.88	12.012
720.20	11.613
720.51	12.422
720.83	15.000
721.15	8.224
721.46	6.164
721.78	14.333
722.10	11.327
722.42	6.376
722.73	11.613
723.05	12.281
723.37	10.417
723.68	11.470
724.00	11.191
724.32	10.211
724.63	8.042
724.95	9.574
725.27	11.150
725.58	6.714
725.90	15.862
726.22	10.658
726.53	14.286
726.85	11.950
727.16	11.782
727.48	11.927
727.80	10.596
728.11	8.481
728.43	12.795
728.74	11.706
729.06	8.609
729.38	11.364
729.69	9.396
730.01	11.310
730.32	7.576
730.64	6.918
730.96	5.280
731.27	12.570
731.59	10.165
731.90	9.091
732.22	9.635
732.53	8.564
732.85	12.286
733.16	6.452
733.48	6.707
733.80	10.864
734.11	11.681
734.43	13.784
734.74	13.165
735.06	12.060
735.37	10.811
735.69	10.811
736.00	11.017
736.32	11.860
736.63	8.611
736.95	8.046
737.26	10.303
737.58	10.606
737.89	11.765
738.21	5.505
738.52	7.541
738.83	12.287
739.15	8.511
739.46	11.224
739.78	9.509
740.09	9.169
740.41	10.496
740.72	10.667
741.04	14.563
741.35	9.825
741.66	9.804
741.98	8.197
742.29	12.552
742.61	7.018
742.92	6.538
743.23	8.664
743.55	6.589
743.86	9.600
744.18	4.545
744.49	3.797
744.80	14.403
745.12	12.236
745.43	13.008
745.74	10.776
746.06	9.746
746.37	10.549
746.68	12.195
747.00	11.667
747.31	3.863
747.62	10.385
747.94	6.478
748.25	7.631
748.56	6.939
748.88	8.547
749.19	12.500
749.50	10.823
749.82	10.040
750.13	11.744
750.44	10.667
750.75	11.692
751.07	10.769
751.38	10.726
751.69	11.182
752.01	7.767
752.32	10.131
752.63	12.245
752.94	10.381
753.26	7.063
753.57	6.296
753.88	7.491
754.19	9.003
754.51	12.862
754.82	9.325
755.13	13.115
755.44	8.874
755.75	11.184
756.07	13.433
756.38	11.006
756.69	13.554
757.00	9.972
757.31	9.290
757.63	6.650
757.94	10.798
758.25	12.867
758.56	11.111
758.87	10.455
759.18	11.733
759.50	8.782
759.81	12.885
760.12	11.860
760.43	11.979
760.74	11.084
761.05	9.500
761.36	9.157
761.67	11.168
761.99	9.459
762.30	8.232
762.61	5.281
762.92	7.463
763.23	11.985
763.54	10.432
763.85	10.653
764.16	7.407
764.47	10.563
764.78	9.585
765.10	9.384
765.41	11.538
765.72	10.317
766.03	12.712
766.34	7.210
766.65	5.575
766.96	7.968
767.27	11.060
767.58	0.000
767.89	11.058
768.20	4.225
768.51	9.722
768.82	9.639
769.13	6.439
769.44	2.692
769.75	9.025
770.06	5.769
770.37	8.268
770.68	-0.851
770.99	1.619
771.30	10.370
771.61	9.506
771.92	5.185
772.23	11.336
772.54	5.093
772.85	14.286
773.16	10.952
773.47	1.058
773.78	3.243
774.09	5.682
774.39	8.500
774.70	12.022
775.01	-0.610
775.32	-0.588
775.63	6.135
775.94	-1.274
776.25	1.935
776.56	14.103
776.87	4.082
777.18	3.448
777.48	0.699
777.79	2.703
778.10	-1.471
778.41	10.417
778.72	10.345
779.03	4.321
779.34	7.273
779.65	-1.036
779.95	6.667
780.26	5.682
780.57	5.806
780.88	3.623
781.19	8.387
781.50	10.588
781.80	13.441
782.11	14.815
782.42	6.061
782.73	9.581
783.04	11.173
783.34	3.030
783.65	-1.961
783.96	3.727
784.27	4.167
784.57	4.636
784.88	4.286
785.19	3.150
785.50	0.000
785.81	1.504
786.11	3.077
786.42	1.439
786.73	3.597
787.04	4.511
787.34	0.820
787.65	1.600
787.96	0.746
788.26	6.294
788.57	9.790
788.88	1.316
789.19	6.536
789.49	8.219
789.80	2.128
790.11	5.512
790.41	2.344
790.72	0.847
791.03	-11.650
791.33	8.696
791.64	2.632
791.95	-2.679
792.25	-0.952
792.56	2.679
792.87	-3.125
793.17	12.500
793.48	2.083
793.79	-8.434
794.09	0.917
794.40	-2.752
794.70	6.122
795.01	1.299
795.32	-2.740
795.62	4.930
795.93	0.000
796.23	-3.279
796.54	-3.571
796.85	0.000
797.15	-1.087
797.46	-13.699
797.76	-15.000
798.07	-1.087
798.37	-4.124
798.68	-12.987
798.99	-14.943
799.29	-4.494
799.60	5.319
799.90	-1.205
800.21	-26.154
800.51	-26.866
800.82	-13.235
801.12	-1.370
801.43	-20.588
801.73	-18.644
802.04	-21.212
802.34	-21.667
802.65	-20.339
802.95	-11.940
803.26	-15.254
803.56	-4.110
803.87	-7.143
804.17	-8.219
804.48	-33.333
804.78	0.000
805.09	-20.690
805.39	1.351
805.70	-21.127
806.00	-9.756
806.30	-14.458
806.61	-8.219
806.91	4.808
807.22	-4.444
807.52	1.149
807.83	6.944
808.13	9.639
808.43	1.124
808.74	-2.500
809.04	-32.353
809.35	-16.000
809.65	-11.429
809.95	-6.849
810.26	-26.316
810.56	-17.241
810.86	-8.824
811.17	-8.772
811.47	-6.557
811.77	-42.222
812.08	-11.864
812.38	-5.000
812.69	3.448
812.99	-22.642
813.29	-58.974
813.59	-8.000
813.90	12.281
814.20	-14.545
814.50	2.817
814.81	0.000
815.11	0.000
815.41	-8.955
815.72	0.000
816.02	-23.214
816.32	-2.222
816.62	-11.364
816.93	-22.222
817.23	-7.407
817.53	-19.149
817.84	14.286
818.14	-26.471
818.44	-20.408
818.74	-26.667
819.04	-46.154
819.35	-42.857
819.65	-76.923
819.95	-13.208
820.25	-4.444
820.56	-26.190
820.86	-68.750
821.16	-46.154
821.46	-34.884
821.76	-24.000
822.07	-14.286
822.37	-15.217
822.67	-27.660
822.97	-40.541
823.27	-17.500
823.57	-18.367
823.88	2.222
824.18	-5.000
824.48	-43.333
824.78	-68.000
825.08	-54.545
825.38	-4.444
825.69	10.638
825.99	-25.000
826.29	-77.143
826.59	-53.846
826.89	-27.907
827.19	-16.000
827.49	-5.882
827.79	-10.417
828.09	-37.838
828.39	-53.333
828.70	-12.195
829.00	-30.233
829.30	-50.000
829.60	-14.706
829.90	-34.783
830.20	-34.286
830.50	-44.828
830.80	-72.222
831.10	-26.923
831.40	-29.412
831.70	-57.143
832.00	-32.258
832.30	-147.059
832.60	-54.167
832.90	-207.692
833.20	-52.632
833.50	-90.000
833.80	-63.158
834.10	-152.381
834.40	-36.111
834.70	-9.375
835.00	-54.286
835.30	-23.529
835.60	-43.333
835.90	-48.000
836.20	-113.636
836.50	-44.000
836.80	-78.788
837.10	-55.556
837.40	-25.926
837.70	-106.250
838.00	-39.286
838.30	-69.565
838.60	-17.241
838.90	-121.429
839.19	-86.957
839.49	-150.000
839.79	-47.826
840.09	-143.750
840.39	-90.000
840.69	-3.226
840.99	-71.429
841.29	-126.667
841.59	-100.000
841.88	7.692
842.18	-11.538
842.48	-160.000
842.78	-125.000
843.08	-26.667
843.38	6.452
843.68	-77.778
843.97	2.941
844.27	-93.750
844.57	-36.842
844.87	-100.000
845.17	-120.000
845.47	-57.143
845.76	-66.667
846.06	-244.444
846.36	-76.471
846.66	-23.077
846.96	-73.333
847.25	-88.235
847.55	-34.783
847.85	-50.000
848.15	-88.235
848.44	-127.273
848.74	-14.286
849.04	-66.667
849.34	-112.500
849.63	-56.522
849.93	850.000
850.23	-60.000
850.53	-3.846
850.82	-109.091
851.12	-9.091
851.42	-145.455
851.71	-53.846
852.01	-100.000
852.31	-61.538
852.61	-63.158
852.90	-50.000
853.20	-66.667
853.50	-155.556
853.79	-38.095
854.09	-68.182
854.39	-158.333
854.68	-19.355
854.98	-65.385
855.28	-50.000
855.57	-60.714
855.87	-40.000
856.17	-72.727
856.46	-11.111
856.76	-105.556
857.05	-104.348
857.35	-25.000
857.65	-38.462
857.94	-71.429
858.24	3.704
858.53	-13.043
858.83	-117.647
859.13	-58.824
859.42	-52.941
859.72	-121.429
860.01	-35.000
860.31	-177.778
860.60	-120.000
860.90	-33.333
861.20	-61.111
861.49	-100.000
861.79	10.000
862.08	-146.154
862.38	0.000
862.67	-105.882
862.97	-106.250
863.26	-255.556
863.56	-100.000
863.85	-81.818
864.15	-72.222
864.44	-633.333
864.74	-107.143
865.03	-93.750
865.33	-180.000
865.62	-19.355
865.92	-31.818
866.21	-69.565
866.51	-121.429
866.80	-420.000
867.10	-66.667
867.39	-166.667
867.69	2700.000
867.98	-214.286
868.27	-5.882
868.57	-2800.000
868.86	-210.000
869.16	-90.476
869.45	-62.500
869.75	-90.909
870.04	-200.000
870.33	-75.000
870.63	-242.857
870.92	-200.000
871.22	-337.500
871.51	-118.182
871.80	-933.333
872.10	-800.000
>>>>>End Processed Spectral Data<<<<<
