SpectraSuite Data File
++++++++++++++++++++++++++++++++++++
Date: Thu May 14 16:04:59 PDT 2015
User: schluterlab
Dark Spectrum Present: Yes
Reference Spectrum Present: Yes
Number of Sampled Component Spectra: 1
Spectrometers: USB2E3373
Integration Time (usec): 3000 (USB2E3373)
Spectra Averaged: 3 (USB2E3373)
Boxcar Smoothing: 0 (USB2E3373)
Correct for Electrical Dark: No (USB2E3373)
Strobe/Lamp Enabled: No (USB2E3373)
Correct for Detector Non-linearity: No (USB2E3373)
Correct for Stray Light: No (USB2E3373)
Number of Pixels in Processed Spectrum: 2048
>>>>>Begin Processed Spectral Data<<<<<
178.53	0.000
178.91	157.143
179.29	-2300.000
179.67	-1300.000
180.04	207.143
180.42	190.000
180.80	460.000
181.18	-2400.000
181.56	-700.000
181.94	300.000
182.31	-200.000
182.69	633.333
183.07	-600.000
183.45	650.000
183.83	-300.000
184.20	-100.000
184.58	1200.000
184.96	-575.000
185.34	-100.000
185.72	-160.000
186.09	322.222
186.47	450.000
186.85	400.000
187.23	-177.778
187.61	-2100.000
187.98	180.000
188.36	275.000
188.74	-475.000
189.12	-466.667
189.49	-25.000
189.87	-287.500
190.25	-77.778
190.63	-200.000
191.00	-188.889
191.38	0.000
191.76	-225.000
192.14	-66.667
192.51	850.000
192.89	-150.000
193.27	0.000
193.65	-171.429
194.02	-2700.000
194.40	-228.571
194.78	185.714
195.15	0.000
195.53	-109.091
195.91	0.000
196.29	-50.000
196.66	-69.231
197.04	-1800.000
197.42	-271.429
197.79	-950.000
198.17	-225.000
198.55	-257.143
198.92	-144.444
199.30	-50.000
199.68	-36.364
200.05	-42.857
200.43	-600.000
200.81	257.143
201.18	0.000
201.56	211.111
201.94	0.000
202.31	433.333
202.69	-244.444
203.07	800.000
203.44	-133.333
203.82	-600.000
204.19	8.333
204.57	-266.667
204.95	-150.000
205.32	-1800.000
205.70	325.000
206.08	-283.333
206.45	-116.667
206.83	320.000
207.20	-200.000
207.58	-440.000
207.96	-300.000
208.33	-150.000
208.71	175.000
209.08	-16.667
209.46	0.000
209.84	383.333
210.21	250.000
210.59	450.000
210.96	733.333
211.34	-325.000
211.71	-125.000
212.09	-1300.000
212.46	0.000
212.84	1300.000
213.22	-620.000
213.59	-450.000
213.97	-120.000
214.34	-366.667
214.72	366.667
215.09	-450.000
215.47	0.000
215.84	185.714
216.22	1000.000
216.59	-300.000
216.97	-300.000
217.34	-250.000
217.72	-112.500
218.09	-275.000
218.47	-425.000
218.84	0.000
219.22	160.000
219.59	-35.294
219.97	-25.000
220.34	1300.000
220.72	-244.444
221.09	-30.769
221.47	-366.667
221.84	-90.000
222.22	-142.857
222.59	0.000
222.97	-37.500
223.34	-400.000
223.72	-1900.000
224.09	-250.000
224.46	-475.000
224.84	-220.000
225.21	-200.000
225.59	-325.000
225.96	-325.000
226.34	-7.692
226.71	400.000
227.08	-400.000
227.46	-86.667
227.83	-250.000
228.21	-26.316
228.58	125.000
228.95	850.000
229.33	-58.333
229.70	-40.000
230.08	-47.368
230.45	260.000
230.82	-166.667
231.20	-121.429
231.57	-66.667
231.95	-118.182
232.32	-109.091
232.69	-55.000
233.07	-275.000
233.44	-29.412
233.81	-170.000
234.19	-72.222
234.56	-59.091
234.93	13.793
235.31	-57.895
235.68	-55.556
236.05	-80.000
236.43	-26.923
236.80	-28.000
237.17	-44.444
237.55	-33.333
237.92	-160.000
238.29	-22.581
238.67	-11.364
239.04	-16.667
239.41	-30.952
239.79	-10.870
240.16	-3.704
240.53	-15.217
240.91	-25.490
241.28	-11.475
241.65	2.985
242.02	-8.108
242.40	-35.385
242.77	-22.667
243.14	-12.195
243.51	-27.632
243.89	-21.795
244.26	-5.941
244.63	2.941
245.00	-5.607
245.38	-11.404
245.75	-23.894
246.12	-5.556
246.49	-10.078
246.87	-0.714
247.24	-3.974
247.61	-6.579
247.98	-8.054
248.36	-9.877
248.73	-7.975
249.10	-3.825
249.47	-0.995
249.84	-3.665
250.22	-6.736
250.59	-5.000
250.96	0.000
251.33	-13.776
251.70	-2.564
252.08	-2.500
252.45	0.000
252.82	-3.306
253.19	-4.297
253.56	-1.141
253.94	-1.154
254.31	-3.409
254.68	-0.350
255.05	1.954
255.42	-0.340
255.79	-2.265
256.16	-3.974
256.54	-8.609
256.91	-3.607
257.28	-2.295
257.65	-3.185
258.02	-4.425
258.39	0.855
258.76	1.529
259.14	-1.724
259.51	-2.594
259.88	-1.983
260.25	-1.111
260.62	1.096
260.99	1.913
261.36	0.268
261.73	-1.061
262.10	-0.824
262.47	-3.217
262.85	1.515
263.22	-1.558
263.59	-3.684
263.96	0.767
264.33	-1.279
264.70	-0.494
265.07	0.955
265.44	2.494
265.81	-1.157
266.18	-0.907
266.55	0.000
266.92	0.456
267.29	2.626
267.66	-0.887
268.03	-0.873
268.40	0.418
268.77	-2.050
269.14	-3.524
269.51	0.219
269.88	3.484
270.25	1.610
270.62	1.266
270.99	1.414
271.36	2.574
271.73	0.393
272.10	1.002
272.47	0.000
272.84	0.000
273.21	0.401
273.58	1.008
273.95	0.000
274.32	-3.232
274.69	-2.128
275.06	-0.183
275.43	-0.555
275.80	0.705
276.17	-0.556
276.54	0.373
276.91	0.358
277.28	0.362
277.65	0.898
278.02	1.103
278.39	0.362
278.76	0.703
279.13	0.532
279.50	2.405
279.87	1.252
280.23	-0.704
280.60	0.339
280.97	0.000
281.34	-1.019
281.71	2.538
282.08	0.664
282.45	-0.164
282.82	1.570
283.19	-1.939
283.56	-0.820
283.92	1.652
284.29	1.422
284.66	0.821
285.03	-0.321
285.40	1.700
285.77	1.393
286.14	2.137
286.51	-0.304
286.87	0.474
287.24	2.410
287.61	0.747
287.98	1.662
288.35	1.183
288.72	-0.592
289.08	0.586
289.45	1.479
289.82	0.000
290.19	1.149
290.56	1.690
290.93	1.284
291.29	1.653
291.66	-0.275
292.03	0.136
292.40	2.857
292.77	0.943
293.13	1.353
293.50	0.131
293.87	0.940
294.24	2.000
294.60	2.276
294.97	0.000
295.34	2.177
295.71	1.009
296.08	0.517
296.44	2.574
296.81	2.071
297.18	1.494
297.55	0.943
297.91	1.542
298.28	0.474
298.65	1.665
299.02	0.590
299.38	2.517
299.75	0.701
300.12	0.463
300.48	1.613
300.85	1.912
301.22	2.013
301.59	1.256
301.95	1.356
302.32	2.667
302.69	1.424
303.05	1.306
303.42	0.665
303.79	1.979
304.15	2.629
304.52	1.268
304.89	2.094
305.25	1.760
305.62	1.881
305.99	2.165
306.35	2.722
306.72	2.792
307.09	1.320
307.45	2.692
307.82	1.110
308.19	2.321
308.55	3.375
308.92	2.337
309.29	3.161
309.65	2.339
310.02	1.980
310.38	2.657
310.75	3.107
311.12	3.931
311.48	3.226
311.85	2.659
312.22	2.562
312.58	3.380
312.95	3.824
313.31	3.794
313.68	5.220
314.05	4.968
314.41	4.827
314.78	4.178
315.14	5.626
315.51	6.094
315.87	6.031
316.24	6.301
316.61	7.105
316.97	5.973
317.34	5.820
317.70	6.026
318.07	7.319
318.43	9.269
318.80	9.365
319.16	8.927
319.53	8.312
319.89	8.151
320.26	10.498
320.62	10.195
320.99	10.342
321.35	11.645
321.72	12.465
322.08	10.460
322.45	13.098
322.81	12.455
323.18	12.743
323.54	15.000
323.91	14.413
324.27	13.941
324.64	15.365
325.00	15.340
325.37	16.790
325.73	17.190
326.10	18.086
326.46	18.404
326.83	19.135
327.19	19.055
327.56	19.447
327.92	20.456
328.29	19.919
328.65	20.519
329.01	20.474
329.38	21.820
329.74	22.688
330.11	22.603
330.47	22.831
330.84	24.289
331.20	23.333
331.56	23.744
331.93	24.100
332.29	24.153
332.66	24.003
333.02	24.623
333.38	22.903
333.75	24.411
334.11	24.937
334.48	25.495
334.84	24.299
335.20	23.762
335.57	25.379
335.93	25.620
336.29	24.792
336.66	23.802
337.02	25.251
337.38	24.915
337.75	24.298
338.11	24.643
338.47	24.814
338.84	23.604
339.20	24.768
339.56	24.217
339.93	24.302
340.29	23.430
340.65	24.655
341.02	25.938
341.38	25.869
341.74	24.052
342.11	25.181
342.47	23.511
342.83	24.960
343.20	25.511
343.56	24.619
343.92	24.259
344.28	25.234
344.65	25.504
345.01	24.727
345.37	23.639
345.73	24.084
346.10	26.053
346.46	25.158
346.82	25.318
347.19	24.370
347.55	25.797
347.91	25.409
348.27	24.431
348.63	24.829
349.00	23.863
349.36	24.907
349.72	24.554
350.08	25.483
350.45	24.335
350.81	24.284
351.17	24.737
351.53	24.716
351.89	24.525
352.26	25.149
352.62	24.776
352.98	24.733
353.34	24.869
353.70	25.424
354.07	24.367
354.43	24.677
354.79	25.056
355.15	24.135
355.51	24.854
355.87	23.485
356.24	24.335
356.60	24.464
356.96	25.130
357.32	23.717
357.68	24.451
358.04	24.925
358.40	24.328
358.77	23.099
359.13	24.520
359.49	23.717
359.85	22.843
360.21	25.251
360.57	25.341
360.93	23.907
361.29	24.140
361.66	24.403
362.02	26.374
362.38	24.596
362.74	25.279
363.10	24.347
363.46	24.861
363.82	25.213
364.18	24.771
364.54	24.136
364.90	24.348
365.26	23.379
365.62	25.133
365.98	25.868
366.35	25.034
366.71	25.442
367.07	25.169
367.43	24.228
367.79	25.415
368.15	25.084
368.51	25.778
368.87	24.886
369.23	24.933
369.59	24.522
369.95	25.625
370.31	25.861
370.67	25.241
371.03	24.100
371.39	24.580
371.75	25.378
372.11	26.084
372.47	24.306
372.83	25.262
373.19	25.817
373.55	24.661
373.91	24.881
374.27	25.162
374.63	25.846
374.99	24.934
375.35	24.870
375.71	25.484
376.07	24.532
376.42	25.882
376.78	25.917
377.14	25.452
377.50	26.312
377.86	25.616
378.22	25.389
378.58	25.505
378.94	25.117
379.30	25.835
379.66	26.514
380.02	25.736
380.38	26.498
380.74	25.803
381.09	25.610
381.45	25.455
381.81	26.230
382.17	25.950
382.53	25.380
382.89	26.072
383.25	26.084
383.61	25.637
383.97	25.029
384.32	26.256
384.68	24.942
385.04	25.506
385.40	26.635
385.76	27.257
386.12	25.913
386.48	26.941
386.83	26.341
387.19	26.130
387.55	25.528
387.91	26.769
388.27	25.577
388.62	26.403
388.98	26.114
389.34	26.164
389.70	26.671
390.06	26.761
390.42	26.506
390.77	25.527
391.13	25.998
391.49	26.570
391.85	26.364
392.20	26.750
392.56	26.462
392.92	26.227
393.28	27.363
393.64	26.480
393.99	27.077
394.35	27.220
394.71	26.347
395.07	26.287
395.42	26.556
395.78	27.544
396.14	27.570
396.50	26.128
396.85	25.939
397.21	25.917
397.57	26.796
397.92	27.262
398.28	25.964
398.64	26.087
399.00	25.340
399.35	26.230
399.71	26.087
400.07	27.063
400.42	27.008
400.78	26.968
401.14	26.124
401.49	26.265
401.85	26.628
402.21	27.231
402.57	28.228
402.92	26.950
403.28	26.815
403.63	26.372
403.99	26.841
404.35	26.208
404.70	26.912
405.06	26.685
405.42	26.639
405.77	27.099
406.13	26.526
406.49	26.126
406.84	26.648
407.20	25.713
407.55	27.135
407.91	27.027
408.27	26.620
408.62	26.585
408.98	26.814
409.34	26.217
409.69	26.329
410.05	26.788
410.40	27.204
410.76	27.314
411.11	27.236
411.47	27.027
411.83	27.396
412.18	26.928
412.54	27.504
412.89	26.834
413.25	27.088
413.60	27.455
413.96	25.466
414.31	27.195
414.67	26.714
415.03	26.031
415.38	26.671
415.74	26.268
416.09	26.712
416.45	26.174
416.80	27.295
417.16	27.331
417.51	26.961
417.87	26.180
418.22	26.347
418.58	25.774
418.93	26.542
419.29	26.572
419.64	26.230
420.00	26.588
420.35	26.783
420.71	26.249
421.06	26.912
421.42	27.236
421.77	26.494
422.12	26.480
422.48	26.779
422.83	26.616
423.19	27.427
423.54	27.876
423.90	26.726
424.25	26.987
424.61	26.866
424.96	26.689
425.31	27.070
425.67	26.516
426.02	26.729
426.38	27.440
426.73	26.060
427.09	27.797
427.44	26.980
427.79	26.810
428.15	27.112
428.50	27.416
428.85	27.210
429.21	26.702
429.56	27.394
429.92	26.437
430.27	26.940
430.62	27.357
430.98	26.660
431.33	26.686
431.68	26.485
432.04	27.171
432.39	27.156
432.74	27.283
433.10	26.555
433.45	26.533
433.80	26.717
434.16	27.273
434.51	27.441
434.86	27.036
435.22	27.311
435.57	27.712
435.92	26.210
436.28	27.247
436.63	27.854
436.98	27.053
437.34	27.339
437.69	27.298
438.04	27.181
438.39	27.053
438.75	26.342
439.10	27.431
439.45	27.110
439.81	27.401
440.16	27.185
440.51	27.258
440.86	27.682
441.22	26.795
441.57	26.887
441.92	26.867
442.27	27.172
442.63	28.167
442.98	27.908
443.33	27.617
443.68	27.304
444.03	28.081
444.39	27.601
444.74	27.310
445.09	27.623
445.44	27.503
445.79	27.538
446.15	27.184
446.50	27.028
446.85	27.772
447.20	27.128
447.55	27.720
447.91	27.435
448.26	27.061
448.61	27.683
448.96	28.219
449.31	27.359
449.66	26.852
450.02	27.004
450.37	27.331
450.72	27.610
451.07	27.847
451.42	28.018
451.77	27.293
452.12	27.596
452.47	28.402
452.83	28.097
453.18	27.262
453.53	27.111
453.88	27.388
454.23	27.571
454.58	27.336
454.93	27.245
455.28	28.417
455.63	27.402
455.98	27.151
456.34	27.385
456.69	27.396
457.04	27.187
457.39	27.328
457.74	28.188
458.09	27.567
458.44	28.394
458.79	28.159
459.14	27.163
459.49	27.448
459.84	27.545
460.19	26.263
460.54	27.541
460.89	27.581
461.24	26.494
461.59	27.892
461.94	26.640
462.29	27.436
462.64	26.856
462.99	27.370
463.34	27.969
463.69	27.374
464.04	27.960
464.39	27.242
464.74	26.967
465.09	26.759
465.44	26.931
465.79	27.076
466.14	26.785
466.49	27.526
466.84	27.769
467.19	26.821
467.54	26.733
467.89	26.782
468.24	27.645
468.59	26.288
468.94	26.515
469.29	25.855
469.64	25.811
469.99	27.024
470.34	27.104
470.68	27.409
471.03	27.046
471.38	27.338
471.73	26.008
472.08	27.411
472.43	27.032
472.78	26.259
473.13	27.307
473.48	27.311
473.83	26.756
474.17	27.257
474.52	26.759
474.87	26.966
475.22	27.155
475.57	27.155
475.92	26.879
476.27	26.677
476.61	27.570
476.96	26.017
477.31	27.277
477.66	27.702
478.01	26.080
478.36	26.820
478.70	26.355
479.05	26.687
479.40	27.246
479.75	26.273
480.10	26.386
480.45	27.256
480.79	26.712
481.14	26.700
481.49	26.670
481.84	27.023
482.19	26.624
482.53	26.891
482.88	26.761
483.23	26.856
483.58	26.419
483.92	25.754
484.27	25.995
484.62	25.908
484.97	26.827
485.31	26.012
485.66	24.791
486.01	25.152
486.36	25.532
486.70	26.509
487.05	26.981
487.40	26.260
487.75	26.310
488.09	26.599
488.44	25.339
488.79	25.970
489.13	25.561
489.48	24.971
489.83	25.674
490.17	25.395
490.52	26.149
490.87	26.269
491.22	25.953
491.56	25.469
491.91	26.472
492.26	25.746
492.60	26.410
492.95	25.801
493.30	25.594
493.64	25.975
493.99	25.044
494.34	25.740
494.68	25.567
495.03	25.903
495.37	26.454
495.72	25.941
496.07	25.767
496.41	24.882
496.76	25.521
497.11	26.157
497.45	25.205
497.80	24.878
498.14	26.122
498.49	26.057
498.84	25.457
499.18	25.596
499.53	25.874
499.87	25.670
500.22	24.933
500.56	25.551
500.91	25.538
501.26	25.682
501.60	25.232
501.95	25.532
502.29	24.835
502.64	25.754
502.98	25.108
503.33	24.924
503.67	25.774
504.02	25.044
504.36	25.380
504.71	24.897
505.06	25.466
505.40	25.640
505.75	25.273
506.09	25.184
506.44	24.977
506.78	24.862
507.13	25.542
507.47	24.680
507.82	25.237
508.16	25.048
508.51	25.176
508.85	25.886
509.19	25.059
509.54	25.841
509.88	25.206
510.23	25.498
510.57	25.955
510.92	25.254
511.26	25.445
511.61	24.336
511.95	24.646
512.30	24.963
512.64	24.838
512.98	24.162
513.33	24.950
513.67	24.732
514.02	24.374
514.36	25.422
514.70	25.104
515.05	24.557
515.39	25.039
515.74	25.080
516.08	24.934
516.42	25.327
516.77	25.394
517.11	23.672
517.46	24.390
517.80	25.067
518.14	24.755
518.49	25.054
518.83	24.162
519.17	24.502
519.52	24.423
519.86	25.079
520.20	24.228
520.55	24.863
520.89	23.311
521.23	24.456
521.58	24.746
521.92	24.476
522.26	23.540
522.61	25.405
522.95	24.279
523.29	24.540
523.64	23.879
523.98	24.815
524.32	25.158
524.66	23.904
525.01	24.179
525.35	24.986
525.69	24.188
526.04	23.536
526.38	24.655
526.72	24.279
527.06	24.575
527.41	23.032
527.75	25.000
528.09	23.377
528.43	23.683
528.78	23.064
529.12	23.394
529.46	23.834
529.80	24.771
530.15	23.884
530.49	23.310
530.83	23.908
531.17	23.238
531.51	23.706
531.86	24.339
532.20	23.841
532.54	23.878
532.88	23.273
533.22	23.571
533.57	24.120
533.91	23.850
534.25	23.403
534.59	23.908
534.93	23.826
535.27	23.606
535.62	23.820
535.96	23.823
536.30	23.267
536.64	23.243
536.98	23.862
537.32	24.198
537.66	22.957
538.01	21.571
538.35	21.985
538.69	23.498
539.03	23.053
539.37	23.027
539.71	22.823
540.05	23.022
540.39	21.699
540.73	22.283
541.07	22.685
541.42	22.800
541.76	22.361
542.10	22.557
542.44	22.899
542.78	23.175
543.12	23.242
543.46	22.589
543.80	21.703
544.14	22.561
544.48	23.463
544.82	23.339
545.16	22.481
545.50	22.469
545.84	22.045
546.18	22.963
546.52	22.166
546.86	22.075
547.20	21.565
547.54	21.660
547.88	21.579
548.22	22.105
548.56	22.235
548.90	21.791
549.24	21.398
549.58	22.019
549.92	22.194
550.26	22.071
550.60	22.655
550.94	21.928
551.28	21.452
551.62	23.046
551.96	21.618
552.30	20.905
552.64	22.589
552.98	21.772
553.32	21.865
553.66	21.158
554.00	21.438
554.34	21.686
554.68	21.240
555.02	21.485
555.36	21.828
555.69	21.525
556.03	21.122
556.37	20.150
556.71	21.179
557.05	21.789
557.39	20.969
557.73	21.004
558.07	21.192
558.41	21.528
558.75	21.974
559.08	22.129
559.42	20.919
559.76	21.642
560.10	20.630
560.44	21.240
560.78	21.875
561.12	20.690
561.45	21.229
561.79	21.306
562.13	21.873
562.47	20.469
562.81	20.633
563.15	21.023
563.48	21.690
563.82	20.677
564.16	20.533
564.50	20.024
564.84	20.177
565.17	20.412
565.51	20.311
565.85	20.784
566.19	20.449
566.52	19.953
566.86	20.770
567.20	20.174
567.54	20.393
567.88	19.980
568.21	19.713
568.55	20.048
568.89	20.018
569.23	20.406
569.56	20.164
569.90	19.886
570.24	19.899
570.57	19.532
570.91	18.922
571.25	20.075
571.59	19.594
571.92	18.870
572.26	19.534
572.60	19.028
572.93	19.482
573.27	19.331
573.61	19.428
573.95	19.131
574.28	19.224
574.62	18.622
574.96	18.372
575.29	18.903
575.63	18.457
575.97	19.066
576.30	18.653
576.64	19.017
576.98	18.952
577.31	19.032
577.65	19.067
577.98	18.863
578.32	18.386
578.66	18.357
578.99	18.595
579.33	18.697
579.67	18.608
580.00	18.678
580.34	19.066
580.67	18.005
581.01	18.758
581.35	18.235
581.68	18.367
582.02	18.094
582.35	18.941
582.69	18.543
583.02	18.296
583.36	18.258
583.70	18.382
584.03	18.143
584.37	18.711
584.70	18.411
585.04	17.740
585.37	17.830
585.71	18.188
586.04	18.362
586.38	18.315
586.72	17.649
587.05	17.933
587.39	18.424
587.72	17.943
588.06	18.109
588.39	18.347
588.73	17.778
589.06	17.692
589.40	17.732
589.73	18.413
590.07	18.302
590.40	18.323
590.73	18.028
591.07	18.243
591.40	17.691
591.74	17.806
592.07	18.149
592.41	17.192
592.74	18.175
593.08	17.675
593.41	18.314
593.75	17.615
594.08	17.752
594.41	17.853
594.75	17.004
595.08	16.925
595.42	17.825
595.75	17.630
596.09	17.994
596.42	17.306
596.75	16.982
597.09	17.859
597.42	17.441
597.75	17.797
598.09	17.778
598.42	18.134
598.76	16.890
599.09	16.768
599.42	17.030
599.76	17.365
600.09	17.551
600.42	17.251
600.76	16.876
601.09	16.827
601.42	16.821
601.76	17.000
602.09	17.084
602.42	16.249
602.76	16.900
603.09	17.070
603.42	17.233
603.76	16.667
604.09	17.246
604.42	17.505
604.76	17.085
605.09	17.072
605.42	16.587
605.75	16.385
606.09	16.051
606.42	16.527
606.75	15.855
607.09	16.743
607.42	16.493
607.75	16.530
608.08	16.456
608.42	16.848
608.75	17.123
609.08	16.766
609.41	16.012
609.75	16.652
610.08	16.799
610.41	16.100
610.74	15.672
611.07	16.829
611.41	17.175
611.74	16.628
612.07	16.643
612.40	16.445
612.73	16.626
613.07	16.381
613.40	16.362
613.73	16.707
614.06	15.898
614.39	15.841
614.72	16.642
615.06	16.121
615.39	15.708
615.72	16.256
616.05	16.707
616.38	15.691
616.71	16.196
617.05	16.400
617.38	16.533
617.71	16.253
618.04	15.920
618.37	16.448
618.70	16.572
619.03	15.233
619.36	15.660
619.69	16.208
620.03	16.384
620.36	16.319
620.69	16.039
621.02	16.667
621.35	15.965
621.68	17.570
622.01	15.943
622.34	15.411
622.67	15.670
623.00	15.115
623.33	15.660
623.66	16.083
623.99	15.602
624.32	16.634
624.65	16.088
624.99	16.515
625.32	17.374
625.65	16.993
625.98	14.915
626.31	14.954
626.64	15.604
626.97	15.004
627.30	14.958
627.63	15.079
627.96	16.667
628.29	14.708
628.62	15.617
628.95	16.039
629.28	15.973
629.61	16.751
629.94	14.812
630.26	15.085
630.59	15.199
630.92	15.931
631.25	16.458
631.58	16.008
631.91	14.902
632.24	15.754
632.57	16.983
632.90	14.845
633.23	15.306
633.56	15.408
633.89	15.186
634.22	15.281
634.55	15.553
634.88	14.177
635.20	16.900
635.53	15.593
635.86	15.926
636.19	17.073
636.52	15.928
636.85	14.607
637.18	16.320
637.51	15.699
637.83	16.390
638.16	16.359
638.49	15.493
638.82	15.220
639.15	14.891
639.48	15.358
639.81	15.820
640.13	16.372
640.46	13.333
640.79	14.706
641.12	15.652
641.45	15.307
641.77	16.303
642.10	14.698
642.43	16.223
642.76	13.957
643.09	14.795
643.41	15.546
643.74	14.897
644.07	14.759
644.40	13.296
644.73	12.917
645.05	14.978
645.38	14.388
645.71	14.370
646.04	16.212
646.36	14.891
646.69	14.877
647.02	16.514
647.35	16.336
647.67	13.527
648.00	13.694
648.33	14.865
648.66	13.552
648.98	14.150
649.31	13.802
649.64	15.007
649.96	14.589
650.29	13.630
650.62	14.003
650.94	11.712
651.27	12.874
651.60	14.035
651.92	12.614
652.25	14.616
652.58	13.755
652.90	11.773
653.23	14.366
653.56	14.265
653.88	15.590
654.21	14.366
654.54	16.185
654.86	15.297
655.19	12.171
655.52	14.046
655.84	14.197
656.17	16.219
656.49	22.613
656.82	24.799
657.15	19.360
657.47	14.426
657.80	10.687
658.13	8.269
658.45	11.055
658.78	13.342
659.10	12.787
659.43	12.717
659.75	12.201
660.08	11.597
660.41	11.828
660.73	9.806
661.06	11.454
661.38	12.919
661.71	11.552
662.03	12.346
662.36	13.596
662.68	13.133
663.01	14.159
663.33	13.233
663.66	16.667
663.98	12.115
664.31	13.508
664.63	12.524
664.96	13.793
665.28	10.526
665.61	13.112
665.93	13.571
666.26	14.337
666.58	11.624
666.91	16.449
667.23	13.143
667.56	13.609
667.88	13.400
668.21	9.766
668.53	10.618
668.86	13.360
669.18	12.016
669.50	10.934
669.83	12.800
670.15	11.024
670.48	13.294
670.80	11.855
671.13	12.854
671.45	12.008
671.77	12.806
672.10	10.833
672.42	12.460
672.75	12.596
673.07	12.388
673.39	10.786
673.72	13.423
674.04	12.586
674.37	12.522
674.69	14.109
675.01	9.905
675.34	12.595
675.66	12.172
675.98	13.246
676.31	11.914
676.63	11.787
676.95	13.218
677.28	10.282
677.60	9.055
677.92	10.557
678.25	13.894
678.57	11.388
678.89	14.505
679.22	11.324
679.54	12.479
679.86	10.169
680.18	10.945
680.51	12.579
680.83	12.930
681.15	11.034
681.48	11.744
681.80	14.162
682.12	11.713
682.44	11.853
682.77	10.638
683.09	11.174
683.41	10.659
683.73	14.042
684.06	11.255
684.38	10.197
684.70	12.567
685.02	11.188
685.34	12.146
685.67	10.410
685.99	12.883
686.31	8.430
686.63	12.164
686.96	11.514
687.28	11.564
687.60	9.596
687.92	10.932
688.24	12.855
688.56	8.966
688.89	11.978
689.21	10.959
689.53	9.412
689.85	11.637
690.17	11.852
690.49	11.554
690.82	10.099
691.14	11.538
691.46	10.134
691.78	13.260
692.10	10.642
692.42	10.357
692.74	12.523
693.06	6.111
693.39	11.575
693.71	10.714
694.03	12.082
694.35	10.857
694.67	11.088
694.99	8.511
695.31	9.051
695.63	9.740
695.95	8.903
696.27	10.110
696.59	11.062
696.91	11.036
697.23	12.308
697.56	7.739
697.88	7.576
698.20	11.488
698.52	12.689
698.84	11.850
699.16	12.857
699.48	10.460
699.80	12.979
700.12	11.572
700.44	7.604
700.76	10.451
701.08	13.075
701.40	9.585
701.72	9.453
702.04	11.230
702.36	6.806
702.68	8.802
703.00	11.980
703.32	10.099
703.64	9.291
703.96	13.604
704.28	8.354
704.60	10.886
704.91	9.184
705.23	10.959
705.55	9.192
705.87	8.182
706.19	10.736
706.51	7.229
706.83	9.510
707.15	8.201
707.47	7.944
707.79	8.734
708.11	7.627
708.43	6.667
708.74	6.920
709.06	9.281
709.38	10.563
709.70	11.663
710.02	10.078
710.34	11.436
710.66	7.542
710.98	9.290
711.29	6.044
711.61	8.192
711.93	6.553
712.25	7.838
712.57	11.504
712.89	10.000
713.20	6.805
713.52	9.249
713.84	7.799
714.16	10.526
714.48	8.763
714.80	12.208
715.11	11.286
715.43	9.019
715.75	7.632
716.07	7.735
716.39	8.743
716.70	7.229
717.02	10.164
717.34	4.181
717.66	9.060
717.97	6.507
718.29	6.529
718.61	8.553
718.93	4.854
719.24	8.075
719.56	6.135
719.88	9.610
720.20	8.065
720.51	7.453
720.83	7.500
721.15	5.263
721.46	2.740
721.78	10.333
722.10	3.560
722.42	6.376
722.73	5.806
723.05	5.614
723.37	7.986
723.68	10.036
724.00	7.581
724.32	5.986
724.63	5.944
724.95	7.801
725.27	5.575
725.58	2.473
725.90	8.621
726.22	6.583
726.53	9.740
726.85	9.748
727.16	6.042
727.48	13.150
727.80	4.967
728.11	5.654
728.43	8.754
728.74	4.682
729.06	4.967
729.38	10.065
729.69	5.369
730.01	6.548
730.32	5.152
730.64	4.717
730.96	3.727
731.27	9.497
731.59	8.242
731.90	8.052
732.22	7.552
732.53	3.315
732.85	6.000
733.16	9.384
733.48	1.524
733.80	8.914
734.11	4.843
734.43	10.000
734.74	8.861
735.06	5.276
735.37	8.649
735.69	6.486
736.00	9.040
736.32	6.469
736.63	7.500
736.95	6.322
737.26	9.091
737.58	6.364
737.89	6.765
738.21	4.587
738.52	6.557
738.83	5.119
739.15	7.447
739.46	5.782
739.78	6.442
740.09	3.152
740.41	7.580
740.72	3.000
741.04	8.414
741.35	8.421
741.66	5.098
741.98	4.508
742.29	3.347
742.61	7.018
742.92	6.154
743.23	5.415
743.55	8.527
743.86	3.600
744.18	-1.653
744.49	2.532
744.80	5.761
745.12	2.954
745.43	8.130
745.74	2.586
746.06	5.508
746.37	8.861
746.68	4.065
747.00	4.167
747.31	4.721
747.62	6.923
747.94	2.024
748.25	2.008
748.56	5.306
748.88	3.846
749.19	7.759
749.50	3.030
749.82	9.639
750.13	8.897
750.44	2.667
750.75	8.000
751.07	8.615
751.38	5.678
751.69	6.709
752.01	7.767
752.32	4.248
752.63	5.782
752.94	6.920
753.26	2.602
753.57	3.704
753.88	1.498
754.19	6.109
754.51	9.325
754.82	6.752
755.13	8.852
755.44	5.119
755.75	6.908
756.07	7.761
756.38	6.604
756.69	5.422
757.00	2.216
757.31	6.831
757.63	5.627
757.94	6.103
758.25	7.675
758.56	5.664
758.87	7.955
759.18	6.133
759.50	6.799
759.81	7.283
760.12	5.660
760.43	6.250
760.74	6.404
761.05	6.000
761.36	4.578
761.67	6.091
761.99	6.216
762.30	4.268
762.61	3.630
762.92	2.985
763.23	9.363
763.54	2.878
763.85	4.124
764.16	10.438
764.47	3.521
764.78	7.668
765.10	4.399
765.41	11.282
765.72	5.820
766.03	4.802
766.34	3.448
766.65	5.575
766.96	5.179
767.27	3.687
767.58	1.990
767.89	9.135
768.20	3.756
768.51	0.463
768.82	2.811
769.13	1.894
769.44	0.769
769.75	5.776
770.06	3.077
770.37	6.299
770.68	2.553
770.99	0.810
771.30	9.630
771.61	7.224
771.92	2.963
772.23	6.073
772.54	-2.315
772.85	5.991
773.16	4.762
773.47	3.175
773.78	-2.703
774.09	-4.545
774.39	8.500
774.70	10.929
775.01	-1.829
775.32	1.176
775.63	5.521
775.94	-5.732
776.25	5.161
776.56	2.564
776.87	2.721
777.18	-1.379
777.48	-0.699
777.79	-2.703
778.10	1.471
778.41	7.639
778.72	2.069
779.03	0.617
779.34	0.606
779.65	7.254
779.95	2.222
780.26	2.273
780.57	-0.645
780.88	0.000
781.19	7.097
781.50	-0.588
781.80	4.301
782.11	2.646
782.42	1.515
782.73	-2.395
783.04	2.235
783.34	-4.848
783.65	-3.268
783.96	4.348
784.27	1.786
784.57	-1.325
784.88	-1.429
785.19	0.000
785.50	-1.575
785.81	-4.511
786.11	3.846
786.42	4.317
786.73	-4.317
787.04	-0.752
787.34	4.918
787.65	-0.800
787.96	-7.463
788.26	4.895
788.57	9.790
788.88	2.632
789.19	7.843
789.49	0.000
789.80	1.418
790.11	-1.575
790.41	-0.781
790.72	-3.390
791.03	-10.680
791.33	3.478
791.64	-0.877
791.95	-3.571
792.25	9.524
792.56	8.036
792.87	-5.208
793.17	-1.786
793.48	-9.375
793.79	-9.639
794.09	-5.505
794.40	-7.339
794.70	-4.082
795.01	-0.649
795.32	5.479
795.62	1.408
795.93	-3.030
796.23	-2.459
796.54	-2.679
796.85	-12.766
797.15	-4.348
797.46	-21.918
797.76	-15.000
798.07	-13.043
798.37	1.031
798.68	-11.688
798.99	-8.046
799.29	-8.989
799.60	-1.064
799.90	-6.024
800.21	-21.538
800.51	-16.418
800.82	-23.529
801.12	-23.288
801.43	-36.765
801.73	-10.169
802.04	-12.121
802.34	-30.000
802.65	-16.949
802.95	-11.940
803.26	-16.949
803.56	-1.370
803.87	-1.429
804.17	-2.740
804.48	-40.351
804.78	-2.778
805.09	-25.862
805.39	0.000
805.70	-22.535
806.00	2.439
806.30	-13.253
806.61	-8.219
806.91	1.923
807.22	-4.444
807.52	-17.241
807.83	-11.111
808.13	-6.024
808.43	-3.371
808.74	-15.000
809.04	-22.059
809.35	-5.333
809.65	-7.143
809.95	-20.548
810.26	-21.053
810.56	-18.966
810.86	-1.471
811.17	-3.509
811.47	-49.180
811.77	-48.889
812.08	-18.644
812.38	-13.333
812.69	-13.793
812.99	-35.849
813.29	-41.026
813.59	-12.000
813.90	-12.281
814.20	-21.818
814.50	7.042
814.81	-5.128
815.11	-26.230
815.41	-1.493
815.72	-8.621
816.02	-14.286
816.32	-11.111
816.62	11.364
816.93	6.667
817.23	1.852
817.53	-8.511
817.84	-4.762
818.14	-26.471
818.44	-10.204
818.74	-22.222
819.04	-53.846
819.35	-45.714
819.65	-84.615
819.95	-9.434
820.25	-6.667
820.56	-30.952
820.86	-40.625
821.16	-33.333
821.46	-32.558
821.76	-32.000
822.07	5.357
822.37	-17.391
822.67	-19.149
822.97	-62.162
823.27	-37.500
823.57	-16.327
823.88	-20.000
824.18	-22.500
824.48	-53.333
824.78	-24.000
825.08	-45.455
825.38	-11.111
825.69	-17.021
825.99	-30.556
826.29	-74.286
826.59	-20.513
826.89	-44.186
827.19	-24.000
827.49	-11.765
827.79	-8.333
828.09	-48.649
828.39	-66.667
828.70	-17.073
829.00	-23.256
829.30	-25.000
829.60	-23.529
829.90	-26.087
830.20	-45.714
830.50	-48.276
830.80	-111.111
831.10	-53.846
831.40	-35.294
831.70	-85.714
832.00	9.677
832.30	-147.059
832.60	-62.500
832.90	-107.692
833.20	-94.737
833.50	-20.000
833.80	-78.947
834.10	-114.286
834.40	-2.778
834.70	-31.250
835.00	-42.857
835.30	-23.529
835.60	-36.667
835.90	-32.000
836.20	-122.727
836.50	-24.000
836.80	-36.364
837.10	-44.444
837.40	-22.222
837.70	-112.500
838.00	-25.000
838.30	-78.261
838.60	-24.138
838.90	-121.429
839.19	-108.696
839.49	-150.000
839.79	-73.913
840.09	-168.750
840.39	-70.000
840.69	-35.484
840.99	-50.000
841.29	-153.333
841.59	-36.842
841.88	0.000
842.18	-30.769
842.48	-180.000
842.78	-65.000
843.08	-3.333
843.38	-38.710
843.68	-100.000
843.97	-11.765
844.27	-25.000
844.57	-84.211
844.87	-170.000
845.17	-120.000
845.47	-61.905
845.76	-80.952
846.06	-200.000
846.36	-117.647
846.66	-15.385
846.96	-86.667
847.25	-76.471
847.55	-43.478
847.85	-60.000
848.15	-100.000
848.44	-127.273
848.74	-14.286
849.04	-75.000
849.34	-75.000
849.63	-52.174
849.93	1050.000
850.23	-13.333
850.53	-3.846
850.82	-45.455
851.12	-4.545
851.42	-118.182
851.71	-69.231
852.01	-55.000
852.31	-107.692
852.61	-73.684
852.90	-141.667
853.20	-105.556
853.50	-255.556
853.79	-47.619
854.09	-81.818
854.39	-125.000
854.68	-16.129
854.98	-73.077
855.28	-66.667
855.57	-25.000
855.87	-48.000
856.17	-40.909
856.46	-33.333
856.76	-77.778
857.05	-78.261
857.35	-37.500
857.65	-130.769
857.94	-28.571
858.24	-22.222
858.53	-17.391
858.83	-47.059
859.13	-135.294
859.42	-47.059
859.72	-85.714
860.01	-80.000
860.31	-200.000
860.60	-160.000
860.90	-73.333
861.20	-16.667
861.49	-130.769
861.79	-46.667
862.08	-138.462
862.38	-6.250
862.67	-29.412
862.97	-100.000
863.26	-177.778
863.56	-120.000
863.85	-109.091
864.15	-50.000
864.44	-533.333
864.74	-92.857
865.03	-118.750
865.33	-230.000
865.62	-22.581
865.92	-4.545
866.21	-13.043
866.51	-78.571
866.80	-320.000
867.10	-100.000
867.39	-116.667
867.69	2200.000
867.98	-157.143
868.27	-70.588
868.57	-2400.000
868.86	-200.000
869.16	-61.905
869.45	-37.500
869.75	-81.818
870.04	-142.857
870.33	-125.000
870.63	-314.286
870.92	-225.000
871.22	-337.500
871.51	-172.727
871.80	-833.333
872.10	-1100.000
>>>>>End Processed Spectral Data<<<<<
