SpectraSuite Data File
++++++++++++++++++++++++++++++++++++
Date: Thu May 14 16:04:45 PDT 2015
User: schluterlab
Dark Spectrum Present: Yes
Reference Spectrum Present: Yes
Number of Sampled Component Spectra: 1
Spectrometers: USB2E3373
Integration Time (usec): 3000 (USB2E3373)
Spectra Averaged: 3 (USB2E3373)
Boxcar Smoothing: 0 (USB2E3373)
Correct for Electrical Dark: No (USB2E3373)
Strobe/Lamp Enabled: No (USB2E3373)
Correct for Detector Non-linearity: No (USB2E3373)
Correct for Stray Light: No (USB2E3373)
Number of Pixels in Processed Spectrum: 2048
>>>>>Begin Processed Spectral Data<<<<<
178.53	0.000
178.91	171.429
179.29	-2000.000
179.67	-1500.000
180.04	250.000
180.42	100.000
180.80	300.000
181.18	-1800.000
181.56	-700.000
181.94	425.000
182.31	-150.000
182.69	800.000
183.07	-350.000
183.45	375.000
183.83	-216.667
184.20	-700.000
184.58	1300.000
184.96	-600.000
185.34	-133.333
185.72	-120.000
186.09	255.556
186.47	600.000
186.85	500.000
187.23	-233.333
187.61	-1300.000
187.98	240.000
188.36	525.000
188.74	-300.000
189.12	-300.000
189.49	-62.500
189.87	-162.500
190.25	-144.444
190.63	-220.000
191.00	-144.444
191.38	0.000
191.76	-500.000
192.14	-250.000
192.51	350.000
192.89	-200.000
193.27	0.000
193.65	-171.429
194.02	-2900.000
194.40	-114.286
194.78	157.143
195.15	0.000
195.53	-27.273
195.91	0.000
196.29	-175.000
196.66	-92.308
197.04	-2300.000
197.42	-185.714
197.79	-550.000
198.17	-150.000
198.55	-157.143
198.92	-100.000
199.30	-250.000
199.68	-54.545
200.05	-85.714
200.43	-950.000
200.81	171.429
201.18	0.000
201.56	188.889
201.94	0.000
202.31	533.333
202.69	-233.333
203.07	1100.000
203.44	-188.889
203.82	-300.000
204.19	-100.000
204.57	-383.333
204.95	-287.500
205.32	-1700.000
205.70	225.000
206.08	-400.000
206.45	-200.000
206.83	420.000
207.20	-83.333
207.58	-220.000
207.96	-350.000
208.33	-100.000
208.71	141.667
209.08	-116.667
209.46	0.000
209.84	383.333
210.21	550.000
210.59	750.000
210.96	433.333
211.34	-275.000
211.71	-125.000
212.09	-700.000
212.46	0.000
212.84	1250.000
213.22	-160.000
213.59	-200.000
213.97	-130.000
214.34	-500.000
214.72	333.333
215.09	-200.000
215.47	0.000
215.84	242.857
216.22	850.000
216.59	-200.000
216.97	-180.000
217.34	-350.000
217.72	-62.500
218.09	-425.000
218.47	-525.000
218.84	0.000
219.22	160.000
219.59	-82.353
219.97	-60.000
220.34	1100.000
220.72	-222.222
221.09	-76.923
221.47	-466.667
221.84	-70.000
222.22	-200.000
222.59	0.000
222.97	-112.500
223.34	-340.000
223.72	-300.000
224.09	-300.000
224.46	-475.000
224.84	-240.000
225.21	-271.429
225.59	-600.000
225.96	-450.000
226.34	-38.462
226.71	400.000
227.08	-1100.000
227.46	-73.333
227.83	-500.000
228.21	-10.526
228.58	125.000
228.95	950.000
229.33	-91.667
229.70	-50.000
230.08	36.842
230.45	220.000
230.82	-366.667
231.20	-50.000
231.57	-58.333
231.95	-109.091
232.32	9.091
232.69	-70.000
233.07	-450.000
233.44	-47.059
233.81	-200.000
234.19	-44.444
234.56	-77.273
234.93	17.241
235.31	5.263
235.68	-44.444
236.05	-60.000
236.43	11.538
236.80	12.000
237.17	-37.037
237.55	-27.273
237.92	-120.000
238.29	-16.129
238.67	-18.182
239.04	-27.778
239.41	-42.857
239.79	-2.174
240.16	-18.519
240.53	-19.565
240.91	-25.490
241.28	0.000
241.65	8.955
242.02	4.054
242.40	1.538
242.77	-2.667
243.14	-1.220
243.51	-7.895
243.89	-3.846
244.26	14.851
244.63	10.784
245.00	10.280
245.38	9.649
245.75	3.540
246.12	19.048
246.49	18.605
246.87	10.000
247.24	17.881
247.61	12.500
247.98	8.725
248.36	15.432
248.73	9.816
249.10	10.383
249.47	17.413
249.84	18.325
250.22	16.580
250.59	17.222
250.96	18.182
251.33	16.327
251.70	16.667
252.08	20.833
252.45	15.984
252.82	18.595
253.19	16.406
253.56	18.251
253.94	17.692
254.31	18.939
254.68	22.378
255.05	20.521
255.42	19.388
255.79	16.828
256.16	19.536
256.54	16.225
256.91	18.033
257.28	18.361
257.65	17.197
258.02	15.929
258.39	16.524
258.76	20.489
259.14	20.977
259.51	15.562
259.88	17.280
260.25	16.944
260.62	21.644
260.99	19.672
261.36	20.643
261.73	15.915
262.10	19.780
262.47	15.550
262.85	21.717
263.22	16.104
263.59	15.000
263.96	23.529
264.33	18.159
264.70	19.012
265.07	20.525
265.44	21.088
265.81	19.213
266.18	20.635
266.55	19.196
266.92	19.134
267.29	19.037
267.66	17.960
268.03	18.777
268.40	20.042
268.77	17.084
269.14	18.943
269.51	19.956
269.88	19.877
270.25	20.523
270.62	20.886
270.99	19.596
271.36	20.396
271.73	18.468
272.10	22.244
272.47	18.637
272.84	19.076
273.21	20.842
273.58	20.161
273.95	20.577
274.32	19.962
274.69	21.083
275.06	20.147
275.43	18.484
275.80	19.224
276.17	18.333
276.54	20.709
276.91	19.141
277.28	17.541
277.65	19.210
278.02	18.199
278.39	19.022
278.76	18.629
279.13	19.504
279.50	19.072
279.87	18.784
280.23	16.725
280.60	17.966
280.97	19.079
281.34	16.469
281.71	20.135
282.08	19.103
282.45	18.167
282.82	18.524
283.19	17.124
283.56	16.557
283.92	19.820
284.29	18.167
284.66	20.525
285.03	17.949
285.40	18.083
285.77	18.576
286.14	18.473
286.51	20.091
286.87	17.062
287.24	20.030
287.61	20.329
287.98	19.033
288.35	18.047
288.72	17.012
289.08	18.594
289.45	18.787
289.82	16.717
290.19	18.966
290.56	17.746
290.93	17.832
291.29	19.835
291.66	17.631
292.03	16.961
292.40	17.551
292.77	18.059
293.13	17.997
293.50	16.426
293.87	17.181
294.24	18.533
294.60	16.056
294.97	14.497
295.34	18.822
295.71	16.015
296.08	15.762
296.44	16.422
296.81	17.783
297.18	14.819
297.55	16.274
297.91	15.896
298.28	16.469
298.65	16.766
299.02	16.175
299.38	16.705
299.75	14.720
300.12	15.394
300.48	16.820
300.85	16.198
301.22	16.219
301.59	15.639
301.95	16.497
302.32	16.222
302.69	16.429
303.05	15.669
303.42	15.743
303.79	16.771
304.15	15.668
304.52	16.385
304.89	15.812
305.25	16.253
305.62	17.032
305.99	16.701
306.35	16.028
306.72	17.477
307.09	16.142
307.45	17.598
307.82	16.044
308.19	16.347
308.55	16.393
308.92	16.943
309.29	16.571
309.65	15.595
310.02	17.228
310.38	15.945
310.75	17.282
311.12	17.833
311.48	15.738
311.85	18.708
312.22	16.888
312.58	16.714
312.95	17.591
313.31	17.886
313.68	18.681
314.05	19.422
314.41	19.035
314.78	18.892
315.14	19.691
315.51	19.391
315.87	19.712
316.24	20.365
316.61	21.670
316.97	20.724
317.34	20.899
317.70	20.699
318.07	20.547
318.43	21.514
318.80	21.405
319.16	21.116
319.53	20.223
319.89	20.684
320.26	20.819
320.62	20.567
320.99	20.776
321.35	21.349
321.72	24.186
322.08	23.895
322.45	22.584
322.81	24.549
323.18	23.805
323.54	24.138
323.91	25.267
324.27	23.924
324.64	24.265
325.00	25.041
325.37	26.208
325.73	26.529
326.10	26.521
326.46	28.909
326.83	27.942
327.19	27.795
327.56	28.300
327.92	27.695
328.29	28.952
328.65	28.476
329.01	30.288
329.38	30.497
329.74	29.880
330.11	29.709
330.47	30.666
330.84	29.888
331.20	31.000
331.56	31.023
331.93	31.130
332.29	32.119
332.66	31.894
333.02	30.737
333.38	31.124
333.75	32.071
334.11	31.359
334.48	31.353
334.84	33.475
335.20	31.570
335.57	33.558
335.93	33.306
336.29	30.948
336.66	32.128
337.02	32.609
337.38	33.503
337.75	32.893
338.11	32.044
338.47	31.596
338.84	33.756
339.20	32.687
339.56	32.784
339.93	33.169
340.29	32.367
340.65	33.901
341.02	33.839
341.38	34.115
341.74	32.930
342.11	33.548
342.47	32.327
342.83	34.138
343.20	33.769
343.56	33.200
343.92	34.508
344.28	34.531
344.65	34.109
345.01	34.399
345.37	34.837
345.73	34.451
346.10	34.867
346.46	35.047
346.82	33.933
347.19	33.843
347.55	34.143
347.91	34.027
348.27	34.901
348.63	35.491
349.00	34.526
349.36	34.052
349.72	34.970
350.08	35.364
350.45	36.122
350.81	34.314
351.17	35.489
351.53	34.420
351.89	35.080
352.26	34.254
352.62	35.000
352.98	36.260
353.34	34.653
353.70	35.824
354.07	34.948
354.43	35.687
354.79	35.378
355.15	34.879
355.51	36.257
355.87	34.630
356.24	36.046
356.60	34.885
356.96	35.656
357.32	35.688
357.68	36.530
358.04	35.853
358.40	36.194
358.77	36.404
359.13	35.968
359.49	34.721
359.85	35.678
360.21	36.155
360.57	36.683
360.93	36.037
361.29	36.070
361.66	37.581
362.02	38.274
362.38	36.543
362.74	35.684
363.10	37.070
363.46	36.704
363.82	37.003
364.18	37.227
364.54	36.860
364.90	36.388
365.26	36.897
365.62	38.067
365.98	36.964
366.35	37.718
366.71	37.415
367.07	37.957
367.43	36.638
367.79	38.155
368.15	38.261
368.51	38.160
368.87	36.708
369.23	36.933
369.59	38.798
369.95	37.661
370.31	37.137
370.67	36.520
371.03	37.881
371.39	38.012
371.75	37.895
372.11	37.466
372.47	37.779
372.83	38.743
373.19	38.826
373.55	38.347
373.91	37.219
374.27	38.616
374.63	38.972
374.99	39.721
375.35	39.416
375.71	37.613
376.07	38.735
376.42	39.547
376.78	38.347
377.14	38.802
377.50	38.836
377.86	39.039
378.22	39.820
378.58	40.369
378.94	39.261
379.30	39.367
379.66	39.624
380.02	39.411
380.38	41.359
380.74	40.394
381.09	40.360
381.45	39.659
381.81	40.398
382.17	40.261
382.53	39.708
382.89	40.181
383.25	40.680
383.61	40.856
383.97	40.459
384.32	40.849
384.68	41.415
385.04	41.353
385.40	41.662
385.76	41.735
386.12	40.275
386.48	41.824
386.83	42.014
387.19	41.483
387.55	40.317
387.91	41.381
388.27	41.455
388.62	41.180
388.98	41.117
389.34	41.956
389.70	42.127
390.06	41.445
390.42	41.807
390.77	42.505
391.13	41.080
391.49	43.599
391.85	43.273
392.20	42.230
392.56	41.878
392.92	41.058
393.28	42.067
393.64	42.235
393.99	42.127
394.35	42.874
394.71	42.515
395.07	41.377
395.42	41.805
395.78	42.962
396.14	42.840
396.50	42.577
396.85	40.966
397.21	42.485
397.57	42.815
397.92	43.471
398.28	41.825
398.64	42.391
399.00	41.623
399.35	43.717
399.71	43.261
400.07	44.413
400.42	43.248
400.78	42.593
401.14	43.028
401.49	43.547
401.85	44.070
402.21	43.627
402.57	44.777
402.92	44.917
403.28	42.916
403.63	42.780
403.99	42.874
404.35	42.808
404.70	42.380
405.06	43.152
405.42	43.150
405.77	44.002
406.13	44.625
406.49	43.975
406.84	43.823
407.20	44.271
407.55	43.307
407.91	44.123
408.27	43.698
408.62	44.212
408.98	43.761
409.34	43.871
409.69	43.572
410.05	43.787
410.40	44.896
410.76	45.597
411.11	45.237
411.47	43.919
411.83	45.973
412.18	45.181
412.54	43.687
412.89	45.227
413.25	44.244
413.60	44.917
413.96	44.814
414.31	44.873
414.67	44.126
415.03	44.800
415.38	46.028
415.74	43.800
416.09	44.417
416.45	43.582
416.80	44.064
417.16	46.041
417.51	44.458
417.87	45.248
418.22	45.329
418.58	46.097
418.93	45.634
419.29	44.760
419.64	45.078
420.00	44.392
420.35	45.312
420.71	44.170
421.06	45.141
421.42	44.782
421.77	43.780
422.12	45.402
422.48	44.854
422.83	45.893
423.19	45.995
423.54	46.515
423.90	44.064
424.25	45.120
424.61	45.235
424.96	46.074
425.31	44.533
425.67	44.391
426.02	46.154
426.38	45.350
426.73	45.201
427.09	46.367
427.44	45.330
427.79	45.274
428.15	45.263
428.50	45.112
428.85	44.489
429.21	45.798
429.56	44.472
429.92	44.717
430.27	44.578
430.62	44.700
430.98	44.171
431.33	44.379
431.68	43.870
432.04	45.404
432.39	44.885
432.74	44.578
433.10	44.835
433.45	44.203
433.80	44.635
434.16	44.628
434.51	45.170
434.86	46.471
435.22	45.643
435.57	45.578
435.92	45.186
436.28	45.620
436.63	45.931
436.98	45.464
437.34	46.787
437.69	44.799
438.04	44.209
438.39	44.917
438.75	44.936
439.10	45.719
439.45	45.221
439.81	45.141
440.16	44.933
440.51	45.318
440.86	44.414
441.22	44.480
441.57	45.650
441.92	44.956
442.27	46.162
442.63	45.007
442.98	46.905
443.33	45.345
443.68	44.747
444.03	45.908
444.39	45.724
444.74	45.125
445.09	44.653
445.44	45.943
445.79	45.690
446.15	44.450
446.50	45.840
446.85	46.206
447.20	45.019
447.55	45.816
447.91	45.445
448.26	44.715
448.61	44.793
448.96	46.620
449.31	44.857
449.66	45.425
450.02	45.411
450.37	44.006
450.72	44.349
451.07	44.248
451.42	45.061
451.77	45.748
452.12	45.485
452.47	44.801
452.83	46.227
453.18	45.126
453.53	44.285
453.88	44.782
454.23	44.294
454.58	45.618
454.93	46.177
455.28	45.575
455.63	44.287
455.98	45.866
456.34	44.170
456.69	45.032
457.04	46.099
457.39	44.900
457.74	45.694
458.09	45.470
458.44	44.666
458.79	44.507
459.14	43.891
459.49	45.331
459.84	45.016
460.19	45.086
460.54	45.769
460.89	45.368
461.24	45.402
461.59	44.992
461.94	43.525
462.29	45.801
462.64	44.900
462.99	45.825
463.34	44.062
463.69	44.373
464.04	45.748
464.39	45.852
464.74	44.584
465.09	45.559
465.44	45.655
465.79	44.632
466.14	44.659
466.49	45.842
466.84	45.785
467.19	46.532
467.54	45.006
467.89	44.598
468.24	44.543
468.59	45.281
468.94	43.823
469.29	45.591
469.64	45.137
469.99	45.507
470.34	46.163
470.68	46.070
471.03	46.038
471.38	46.109
471.73	45.904
472.08	46.129
472.43	46.057
472.78	45.529
473.13	45.322
473.48	46.042
473.83	46.082
474.17	45.721
474.52	46.542
474.87	44.906
475.22	45.972
475.57	45.431
475.92	46.093
476.27	46.060
476.61	45.016
476.96	46.350
477.31	47.277
477.66	46.905
478.01	45.958
478.36	45.414
478.70	46.404
479.05	46.217
479.40	46.989
479.75	46.446
480.10	46.897
480.45	46.490
480.79	46.349
481.14	45.864
481.49	45.479
481.84	46.780
482.19	46.581
482.53	46.786
482.88	47.054
483.23	47.354
483.58	46.725
483.92	46.055
484.27	45.385
484.62	46.328
484.97	46.034
485.31	45.864
485.66	43.478
486.01	42.271
486.36	43.410
486.70	44.910
487.05	46.989
487.40	46.645
487.75	46.768
488.09	47.873
488.44	46.640
488.79	47.926
489.13	46.162
489.48	46.058
489.83	45.634
490.17	46.092
490.52	45.690
490.87	47.250
491.22	46.750
491.56	46.331
491.91	46.271
492.26	45.954
492.60	46.524
492.95	46.687
493.30	46.392
493.64	46.693
493.99	47.237
494.34	47.387
494.68	47.281
495.03	47.445
495.37	47.625
495.72	46.848
496.07	47.239
496.41	47.447
496.76	47.039
497.11	47.049
497.45	47.691
497.80	47.490
498.14	47.347
498.49	47.197
498.84	47.349
499.18	46.649
499.53	47.668
499.87	46.681
500.22	46.483
500.56	47.548
500.91	48.055
501.26	48.273
501.60	48.343
501.95	47.330
502.29	46.863
502.64	48.054
502.98	47.843
503.33	46.955
503.67	48.365
504.02	47.680
504.36	49.196
504.71	48.875
505.06	48.249
505.40	48.766
505.75	47.678
506.09	49.309
506.44	49.629
506.78	48.624
507.13	48.041
507.47	49.171
507.82	49.053
508.16	49.379
508.51	48.851
508.85	48.890
509.19	48.887
509.54	50.865
509.88	49.781
510.23	50.656
510.57	50.797
510.92	49.734
511.26	49.110
511.61	48.865
511.95	48.804
512.30	51.009
512.64	48.076
512.98	50.725
513.33	50.958
513.67	51.045
514.02	51.303
514.36	49.821
514.70	50.000
515.05	51.929
515.39	51.024
515.74	53.022
516.08	50.924
516.42	52.381
516.77	51.472
517.11	51.160
517.46	52.174
517.80	53.875
518.14	53.428
518.49	53.471
518.83	51.197
519.17	51.535
519.52	51.992
519.86	52.640
520.20	52.875
520.55	53.067
520.89	55.011
521.23	53.099
521.58	54.068
521.92	53.371
522.26	53.837
522.61	53.762
522.95	54.152
523.29	53.563
523.64	53.924
523.98	55.448
524.32	55.415
524.66	53.443
525.01	53.114
525.35	53.130
525.69	55.278
526.04	54.133
526.38	55.402
526.72	54.210
527.06	56.481
527.41	56.152
527.75	56.116
528.09	54.782
528.43	55.536
528.78	55.665
529.12	54.415
529.46	54.469
529.80	55.950
530.15	56.290
530.49	56.109
530.83	56.553
531.17	56.571
531.51	56.679
531.86	56.911
532.20	58.232
532.54	55.296
532.88	56.848
533.22	55.215
533.57	55.626
533.91	56.285
534.25	55.738
534.59	56.322
534.93	55.461
535.27	57.408
535.62	57.419
535.96	56.944
536.30	56.228
536.64	58.318
536.98	57.503
537.32	57.037
537.66	57.330
538.01	56.133
538.35	56.760
538.69	56.791
539.03	57.511
539.37	55.830
539.71	57.598
540.05	57.794
540.39	55.012
540.73	56.831
541.07	56.898
541.42	56.881
541.76	56.702
542.10	56.514
542.44	58.404
542.78	56.326
543.12	56.794
543.46	56.532
543.80	57.134
544.14	57.690
544.48	56.738
544.82	57.271
545.16	57.782
545.50	58.538
545.84	57.195
546.18	58.765
546.52	58.408
546.86	56.855
547.20	59.160
547.54	56.804
547.88	56.058
548.22	57.018
548.56	56.934
548.90	57.552
549.24	57.751
549.58	57.413
549.92	57.079
550.26	58.058
550.60	57.116
550.94	59.056
551.28	57.492
551.62	57.817
551.96	56.764
552.30	58.254
552.64	57.996
552.98	58.391
553.32	58.006
553.66	58.199
554.00	57.945
554.34	58.945
554.68	56.165
555.02	59.001
555.36	59.632
555.69	57.335
556.03	58.386
556.37	58.260
556.71	57.641
557.05	58.339
557.39	59.058
557.73	57.530
558.07	58.940
558.41	59.336
558.75	59.973
559.08	59.847
559.42	59.053
559.76	58.277
560.10	57.401
560.44	58.113
560.78	58.500
561.12	58.251
561.45	59.307
561.79	57.387
562.13	58.226
562.47	57.152
562.81	59.114
563.15	58.649
563.48	57.738
563.82	57.013
564.16	56.148
564.50	56.794
564.84	57.168
565.17	58.176
565.51	56.617
565.85	57.898
566.19	57.200
566.52	57.519
566.86	58.574
567.20	56.933
567.54	57.196
567.88	58.002
568.21	57.856
568.55	57.218
568.89	57.558
569.23	56.020
569.56	55.139
569.90	54.847
570.24	55.076
570.57	54.811
570.91	54.715
571.25	53.920
571.59	53.994
571.92	53.811
572.26	53.759
572.60	54.955
572.93	54.050
573.27	53.779
573.61	53.600
573.95	53.508
574.28	53.142
574.62	53.388
574.96	52.139
575.29	51.928
575.63	53.800
575.97	53.916
576.30	53.565
576.64	53.686
576.98	52.961
577.31	52.825
577.65	53.178
577.98	52.391
578.32	52.105
578.66	52.488
578.99	52.673
579.33	54.068
579.67	54.352
580.00	53.450
580.34	53.469
580.67	53.707
581.01	52.856
581.35	52.562
581.68	52.138
582.02	51.629
582.35	53.157
582.69	53.626
583.02	53.485
583.36	54.405
583.70	54.419
584.03	54.116
584.37	54.579
584.70	54.230
585.04	53.894
585.37	52.916
585.71	52.039
586.04	53.148
586.38	52.971
586.72	53.347
587.05	54.387
587.39	54.001
587.72	53.804
588.06	53.748
588.39	53.821
588.73	53.228
589.06	55.107
589.40	55.009
589.73	54.724
590.07	54.377
590.40	54.462
590.73	54.896
591.07	55.436
591.40	54.666
591.74	55.286
592.07	55.095
592.41	53.509
592.74	53.887
593.08	54.108
593.41	54.243
593.75	53.592
594.08	54.256
594.41	54.615
594.75	54.301
595.08	54.946
595.42	54.123
595.75	55.118
596.09	55.473
596.42	55.930
596.75	56.426
597.09	55.071
597.42	54.430
597.75	54.763
598.09	54.484
598.42	54.805
598.76	53.993
599.09	54.646
599.42	51.928
599.76	54.044
600.09	53.987
600.42	52.986
600.76	53.336
601.09	53.833
601.42	53.484
601.76	54.483
602.09	54.718
602.42	54.562
602.76	54.723
603.09	55.250
603.42	55.058
603.76	54.299
604.09	55.145
604.42	54.826
604.76	53.691
605.09	54.368
605.42	56.140
605.75	54.885
606.09	54.013
606.42	53.995
606.75	53.561
607.09	54.531
607.42	54.875
607.75	54.084
608.08	54.696
608.42	54.897
608.75	55.141
609.08	55.518
609.41	55.404
609.75	55.893
610.08	55.805
610.41	55.692
610.74	55.042
611.07	55.950
611.41	56.547
611.74	55.612
612.07	54.885
612.40	55.798
612.73	56.968
613.07	55.746
613.40	56.015
613.73	55.705
614.06	55.545
614.39	54.713
614.72	56.429
615.06	54.379
615.39	54.616
615.72	55.592
616.05	55.221
616.38	57.164
616.71	56.061
617.05	54.686
617.38	56.554
617.71	57.019
618.04	55.747
618.37	56.831
618.70	56.900
619.03	56.511
619.36	57.583
619.69	57.399
620.03	57.125
620.36	56.810
620.69	56.570
621.02	58.333
621.35	59.724
621.68	58.641
622.01	58.149
622.34	57.950
622.67	56.976
623.00	57.355
623.33	58.062
623.66	57.069
623.99	58.065
624.32	57.245
624.65	56.628
624.99	57.932
625.32	58.001
625.65	57.923
625.98	57.966
626.31	58.398
626.64	58.755
626.97	59.340
627.30	58.542
627.63	59.565
627.96	59.459
628.29	57.665
628.62	58.522
628.95	61.788
629.28	59.813
629.61	59.933
629.94	60.084
630.26	59.661
630.59	57.427
630.92	59.567
631.25	60.644
631.58	60.264
631.91	60.918
632.24	62.728
632.57	61.101
632.90	61.785
633.23	62.041
633.56	60.000
633.89	59.607
634.22	62.890
634.55	62.526
634.88	59.957
635.20	62.002
635.53	63.503
635.86	62.730
636.19	59.597
636.52	60.232
636.85	59.653
637.18	60.499
637.51	60.860
637.83	60.244
638.16	62.673
638.49	60.563
638.82	60.541
639.15	61.283
639.48	62.356
639.81	61.316
640.13	62.191
640.46	60.242
640.79	63.971
641.12	62.236
641.45	61.481
641.77	63.286
642.10	61.024
642.43	64.894
642.76	59.756
643.09	62.877
643.41	62.605
643.74	61.379
644.07	65.241
644.40	60.962
644.73	63.425
645.05	62.996
645.38	63.741
645.71	63.050
646.04	64.562
646.36	64.088
646.69	64.571
647.02	65.138
647.35	64.885
647.67	66.667
648.00	68.312
648.33	63.814
648.66	61.198
648.98	60.544
649.31	61.434
649.64	62.815
649.96	61.008
650.29	59.666
650.62	61.245
650.94	62.613
651.27	62.874
651.60	60.380
651.92	62.006
652.25	62.084
652.58	58.597
652.90	60.320
653.23	61.268
653.56	61.484
653.88	62.079
654.21	60.704
654.54	61.561
654.86	61.048
655.19	57.215
655.52	58.500
655.84	49.803
656.17	55.662
656.49	77.302
656.82	85.569
657.15	68.842
657.47	54.270
657.80	40.908
658.13	32.728
658.45	44.138
658.78	53.800
659.10	53.208
659.43	52.693
659.75	51.966
660.08	50.588
660.41	52.026
660.73	54.960
661.06	58.590
661.38	60.128
661.71	63.966
662.03	63.492
662.36	62.791
662.68	62.664
663.01	60.177
663.33	66.163
663.66	63.004
663.98	63.462
664.31	63.790
664.63	62.813
664.96	62.432
665.28	61.162
665.61	63.112
665.93	60.714
666.26	62.545
666.58	62.915
666.91	62.430
667.23	64.381
667.56	63.905
667.88	66.400
668.21	60.742
668.53	60.618
668.86	63.261
669.18	63.136
669.50	63.022
669.83	62.400
670.15	62.008
670.48	63.294
670.80	57.170
671.13	63.138
671.45	60.827
671.77	63.465
672.10	59.500
672.42	58.900
672.75	58.525
673.07	56.269
673.39	58.398
673.72	61.242
674.04	59.655
674.37	62.254
674.69	61.552
675.01	61.143
675.34	61.641
675.66	58.989
675.98	61.381
676.31	62.109
676.63	60.646
676.95	60.920
677.28	61.492
677.60	58.465
677.92	60.461
678.25	58.135
678.57	60.854
678.89	58.191
679.22	58.014
679.54	58.632
679.86	56.610
680.18	57.546
680.51	58.491
680.83	57.447
681.15	59.138
681.48	57.858
681.80	58.031
682.12	59.790
682.44	56.427
682.77	59.397
683.09	60.038
683.41	59.884
683.73	58.254
684.06	53.875
684.38	55.993
684.70	56.732
685.02	59.897
685.34	58.569
685.67	55.047
685.99	56.902
686.31	53.198
686.63	55.924
686.96	53.785
687.28	56.678
687.60	57.576
687.92	53.215
688.24	56.761
688.56	55.172
688.89	56.806
689.21	61.252
689.53	56.667
689.85	60.355
690.17	54.259
690.49	56.375
690.82	56.040
691.14	57.287
691.46	56.788
691.78	58.195
692.10	54.495
692.42	54.643
692.74	53.358
693.06	54.815
693.39	57.306
693.71	54.699
694.03	54.461
694.35	54.286
694.67	57.495
694.99	55.106
695.31	60.486
695.63	58.442
695.95	55.072
696.27	54.505
696.59	54.646
696.91	54.505
697.23	58.901
697.56	56.008
697.88	54.545
698.20	54.049
698.52	55.871
698.84	58.004
699.16	56.327
699.48	56.067
699.80	55.957
700.12	59.825
700.44	56.452
700.76	58.432
701.08	57.869
701.40	56.995
701.72	57.711
702.04	61.230
702.36	57.068
702.68	54.768
703.00	56.968
703.32	55.665
703.64	55.257
703.96	55.370
704.28	55.037
704.60	54.684
704.91	53.061
705.23	55.342
705.55	55.710
705.87	59.697
706.19	61.350
706.51	53.614
706.83	58.501
707.15	52.646
707.47	49.766
707.79	52.402
708.11	49.364
708.43	50.968
708.74	51.563
709.06	51.044
709.38	55.164
709.70	57.320
710.02	56.331
710.34	57.447
710.66	51.676
710.98	56.284
711.29	53.571
711.61	55.650
711.93	57.550
712.25	52.432
712.57	58.702
712.89	57.647
713.20	52.663
713.52	55.780
713.84	52.368
714.16	50.789
714.48	49.485
714.80	54.805
715.11	49.344
715.43	49.867
715.75	51.316
716.07	54.144
716.39	49.454
716.70	52.410
717.02	56.721
717.34	52.265
717.66	52.349
717.97	51.027
718.29	50.172
718.61	52.961
718.93	55.016
719.24	50.621
719.56	50.307
719.88	49.249
720.20	53.548
720.51	54.969
720.83	51.250
721.15	52.632
721.46	51.370
721.78	52.000
722.10	50.809
722.42	47.315
722.73	50.645
723.05	53.333
723.37	48.958
723.68	45.161
724.00	53.430
724.32	44.014
724.63	47.902
724.95	52.837
725.27	53.659
725.58	52.650
725.90	60.690
726.22	47.962
726.53	51.948
726.85	50.314
727.16	47.734
727.48	46.483
727.80	50.000
728.11	44.523
728.43	48.822
728.74	49.164
729.06	52.318
729.38	49.351
729.69	49.664
730.01	48.214
730.32	42.121
730.64	50.000
730.96	46.894
731.27	48.603
731.59	48.077
731.90	48.052
732.22	45.052
732.53	44.199
732.85	48.286
733.16	43.109
733.48	45.122
733.80	45.404
734.11	43.590
734.43	46.486
734.74	46.329
735.06	44.221
735.37	44.324
735.69	48.108
736.00	46.893
736.32	44.744
736.63	45.556
736.95	45.977
737.26	47.879
737.58	45.455
737.89	47.059
738.21	43.425
738.52	45.246
738.83	50.853
739.15	46.099
739.46	50.000
739.78	45.399
740.09	43.266
740.41	47.522
740.72	43.667
741.04	44.660
741.35	52.982
741.66	50.196
741.98	47.541
742.29	47.280
742.61	48.246
742.92	47.692
743.23	49.819
743.55	49.612
743.86	48.400
744.18	39.669
744.49	45.570
744.80	55.144
745.12	46.835
745.43	54.878
745.74	46.552
746.06	49.153
746.37	51.477
746.68	50.813
747.00	48.333
747.31	51.502
747.62	51.538
747.94	51.012
748.25	46.586
748.56	40.816
748.88	47.009
749.19	48.707
749.50	49.351
749.82	51.406
750.13	49.466
750.44	48.000
750.75	47.385
751.07	46.462
751.38	42.902
751.69	45.367
752.01	40.453
752.32	43.137
752.63	48.639
752.94	43.253
753.26	39.777
753.57	47.778
753.88	46.816
754.19	45.659
754.51	42.444
754.82	46.302
755.13	44.918
755.44	51.536
755.75	47.368
756.07	46.567
756.38	42.453
756.69	46.386
757.00	40.997
757.31	42.896
757.63	41.432
757.94	39.202
758.25	44.018
758.56	38.562
758.87	40.682
759.18	38.933
759.50	46.459
759.81	44.538
760.12	46.361
760.43	40.104
760.74	43.103
761.05	40.250
761.36	39.277
761.67	42.893
761.99	40.000
762.30	38.415
762.61	40.594
762.92	41.418
763.23	44.195
763.54	42.446
763.85	38.144
764.16	44.444
764.47	46.831
764.78	43.131
765.10	42.815
765.41	41.795
765.72	39.153
766.03	36.723
766.34	37.931
766.65	38.328
766.96	39.442
767.27	46.083
767.58	41.294
767.89	43.269
768.20	50.704
768.51	37.963
768.82	38.956
769.13	44.697
769.44	34.615
769.75	41.516
770.06	42.692
770.37	45.276
770.68	36.170
770.99	38.866
771.30	42.593
771.61	46.768
771.92	40.370
772.23	43.320
772.54	40.278
772.85	42.396
773.16	43.333
773.47	44.444
773.78	33.514
774.09	40.909
774.39	38.500
774.70	42.077
775.01	41.463
775.32	37.059
775.63	34.356
775.94	33.758
776.25	43.226
776.56	41.026
776.87	42.857
777.18	38.621
777.48	39.860
777.79	31.757
778.10	33.088
778.41	38.889
778.72	35.862
779.03	35.185
779.34	33.333
779.65	35.233
779.95	43.333
780.26	41.477
780.57	41.935
780.88	44.203
781.19	38.710
781.50	42.353
781.80	37.634
782.11	44.444
782.42	32.323
782.73	32.934
783.04	36.872
783.34	38.182
783.65	35.294
783.96	39.752
784.27	38.690
784.57	40.397
784.88	42.857
785.19	33.858
785.50	30.709
785.81	33.083
786.11	43.077
786.42	28.777
786.73	26.619
787.04	33.835
787.34	39.344
787.65	32.800
787.96	29.104
788.26	38.462
788.57	48.252
788.88	30.263
789.19	35.948
789.49	29.452
789.80	33.333
790.11	32.283
790.41	35.938
790.72	27.966
791.03	29.126
791.33	26.957
791.64	34.211
791.95	22.321
792.25	30.476
792.56	33.036
792.87	28.125
793.17	25.000
793.48	27.083
793.79	30.120
794.09	24.771
794.40	33.028
794.70	31.973
795.01	26.623
795.32	25.342
795.62	30.986
795.93	28.788
796.23	38.525
796.54	28.571
796.85	27.660
797.15	19.565
797.46	26.027
797.76	15.000
798.07	34.783
798.37	20.619
798.68	25.974
798.99	34.483
799.29	37.079
799.60	29.787
799.90	27.711
800.21	30.769
800.51	37.313
800.82	29.412
801.12	10.959
801.43	-1.471
801.73	15.254
802.04	36.364
802.34	38.333
802.65	32.203
802.95	23.881
803.26	22.034
803.56	15.068
803.87	31.429
804.17	26.027
804.48	26.316
804.78	27.778
805.09	13.793
805.39	20.270
805.70	5.634
806.00	24.390
806.30	20.482
806.61	19.178
806.91	28.846
807.22	24.444
807.52	29.885
807.83	43.056
808.13	33.735
808.43	24.719
808.74	11.250
809.04	19.118
809.35	24.000
809.65	17.143
809.95	24.658
810.26	14.035
810.56	34.483
810.86	35.294
811.17	21.053
811.47	13.115
811.77	11.111
812.08	25.424
812.38	13.333
812.69	22.414
812.99	22.642
813.29	-25.641
813.59	18.000
813.90	36.842
814.20	5.455
814.50	29.577
814.81	12.821
815.11	32.787
815.41	7.463
815.72	17.241
816.02	17.857
816.32	28.889
816.62	4.545
816.93	-20.000
817.23	1.852
817.53	10.638
817.84	40.476
818.14	26.471
818.44	10.204
818.74	22.222
819.04	10.256
819.35	8.571
819.65	7.692
819.95	30.189
820.25	4.444
820.56	-11.905
820.86	15.625
821.16	7.692
821.46	-4.651
821.76	14.000
822.07	19.643
822.37	2.174
822.67	21.277
822.97	-21.622
823.27	10.000
823.57	26.531
823.88	20.000
824.18	17.500
824.48	-26.667
824.78	-4.000
825.08	-15.152
825.38	40.000
825.69	19.149
825.99	19.444
826.29	-25.714
826.59	5.128
826.89	0.000
827.19	8.000
827.49	29.412
827.79	27.083
828.09	-8.108
828.39	-13.333
828.70	9.756
829.00	4.651
829.30	-14.286
829.60	14.706
829.90	-2.174
830.20	-2.857
830.50	-13.793
830.80	-27.778
831.10	-46.154
831.40	8.824
831.70	19.048
832.00	22.581
832.30	-111.765
832.60	-16.667
832.90	-92.308
833.20	-31.579
833.50	-45.000
833.80	0.000
834.10	-85.714
834.40	22.222
834.70	31.250
835.00	-22.857
835.30	0.000
835.60	-13.333
835.90	-4.000
836.20	-86.364
836.50	8.000
836.80	-30.303
837.10	-29.630
837.40	-11.111
837.70	-93.750
838.00	-14.286
838.30	-34.783
838.60	3.448
838.90	-121.429
839.19	-47.826
839.49	-108.333
839.79	13.043
840.09	-50.000
840.39	-30.000
840.69	25.806
840.99	-57.143
841.29	-73.333
841.59	-10.526
841.88	23.077
842.18	11.538
842.48	-90.000
842.78	-15.000
843.08	3.333
843.38	-3.226
843.68	-44.444
843.97	-23.529
844.27	-25.000
844.57	-42.105
844.87	-120.000
845.17	-26.667
845.47	0.000
845.76	-38.095
846.06	-188.889
846.36	-100.000
846.66	-38.462
846.96	-93.333
847.25	-47.059
847.55	17.391
847.85	-55.000
848.15	-29.412
848.44	-81.818
848.74	-19.048
849.04	-45.833
849.34	-81.250
849.63	-39.130
849.93	600.000
850.23	-46.667
850.53	11.538
850.82	-72.727
851.12	-13.636
851.42	-118.182
851.71	-15.385
852.01	-75.000
852.31	-61.538
852.61	-36.842
852.90	-33.333
853.20	5.556
853.50	-244.444
853.79	-71.429
854.09	-59.091
854.39	-66.667
854.68	-6.452
854.98	11.538
855.28	11.111
855.57	-28.571
855.87	-40.000
856.17	0.000
856.46	-29.630
856.76	-66.667
857.05	-56.522
857.35	-33.333
857.65	-100.000
857.94	-28.571
858.24	3.704
858.53	-26.087
858.83	-5.882
859.13	-11.765
859.42	0.000
859.72	-42.857
860.01	-40.000
860.31	-177.778
860.60	-60.000
860.90	-26.667
861.20	-72.222
861.49	-53.846
861.79	20.000
862.08	-161.538
862.38	-6.250
862.67	-76.471
862.97	-62.500
863.26	-188.889
863.56	-90.000
863.85	-154.545
864.15	-55.556
864.44	-733.333
864.74	-100.000
865.03	-62.500
865.33	-120.000
865.62	-35.484
865.92	13.636
866.21	0.000
866.51	-57.143
866.80	-300.000
867.10	-158.333
867.39	-100.000
867.69	2000.000
867.98	-157.143
868.27	-35.294
868.57	-3000.000
868.86	-110.000
869.16	-23.810
869.45	-33.333
869.75	-100.000
870.04	-257.143
870.33	-83.333
870.63	-214.286
870.92	-100.000
871.22	-287.500
871.51	-136.364
871.80	-700.000
872.10	-950.000
>>>>>End Processed Spectral Data<<<<<
