SpectraSuite Data File
++++++++++++++++++++++++++++++++++++
Date: Thu May 14 16:05:02 PDT 2015
User: schluterlab
Dark Spectrum Present: Yes
Reference Spectrum Present: Yes
Number of Sampled Component Spectra: 1
Spectrometers: USB2E3373
Integration Time (usec): 3000 (USB2E3373)
Spectra Averaged: 3 (USB2E3373)
Boxcar Smoothing: 0 (USB2E3373)
Correct for Electrical Dark: No (USB2E3373)
Strobe/Lamp Enabled: No (USB2E3373)
Correct for Detector Non-linearity: No (USB2E3373)
Correct for Stray Light: No (USB2E3373)
Number of Pixels in Processed Spectrum: 2048
>>>>>Begin Processed Spectral Data<<<<<
178.53	0.000
178.91	142.857
179.29	-1300.000
179.67	-1800.000
180.04	207.143
180.42	160.000
180.80	340.000
181.18	-900.000
181.56	100.000
181.94	325.000
182.31	-50.000
182.69	533.333
183.07	-650.000
183.45	425.000
183.83	-166.667
184.20	-433.333
184.58	1100.000
184.96	-425.000
185.34	-122.222
185.72	-340.000
186.09	277.778
186.47	900.000
186.85	360.000
187.23	-166.667
187.61	-1900.000
187.98	380.000
188.36	600.000
188.74	-525.000
189.12	-300.000
189.49	-25.000
189.87	-100.000
190.25	-111.111
190.63	-240.000
191.00	-133.333
191.38	0.000
191.76	-575.000
192.14	-250.000
192.51	700.000
192.89	-33.333
193.27	0.000
193.65	-142.857
194.02	-1700.000
194.40	-114.286
194.78	185.714
195.15	0.000
195.53	-90.909
195.91	0.000
196.29	-250.000
196.66	-69.231
197.04	-2200.000
197.42	-228.571
197.79	-700.000
198.17	-100.000
198.55	-300.000
198.92	-100.000
199.30	-175.000
199.68	-118.182
200.05	-35.714
200.43	-650.000
200.81	342.857
201.18	0.000
201.56	222.222
201.94	0.000
202.31	533.333
202.69	-200.000
203.07	1200.000
203.44	-111.111
203.82	-250.000
204.19	-100.000
204.57	-216.667
204.95	-162.500
205.32	-1600.000
205.70	250.000
206.08	-83.333
206.45	-166.667
206.83	480.000
207.20	-200.000
207.58	-480.000
207.96	-283.333
208.33	-100.000
208.71	116.667
209.08	-150.000
209.46	0.000
209.84	416.667
210.21	600.000
210.59	400.000
210.96	266.667
211.34	-150.000
211.71	-187.500
212.09	-2200.000
212.46	0.000
212.84	1100.000
213.22	-380.000
213.59	-425.000
213.97	-10.000
214.34	-466.667
214.72	266.667
215.09	-325.000
215.47	0.000
215.84	171.429
216.22	900.000
216.59	-300.000
216.97	-320.000
217.34	-175.000
217.72	-37.500
218.09	-425.000
218.47	-125.000
218.84	0.000
219.22	240.000
219.59	-88.235
219.97	-35.000
220.34	800.000
220.72	-66.667
221.09	-61.538
221.47	-466.667
221.84	-150.000
222.22	-171.429
222.59	0.000
222.97	-212.500
223.34	-500.000
223.72	-2300.000
224.09	-300.000
224.46	-575.000
224.84	-180.000
225.21	-400.000
225.59	-375.000
225.96	-375.000
226.34	3.846
226.71	433.333
227.08	-700.000
227.46	-13.333
227.83	-325.000
228.21	-84.211
228.58	150.000
228.95	1000.000
229.33	-16.667
229.70	-170.000
230.08	5.263
230.45	230.000
230.82	-466.667
231.20	-85.714
231.57	-66.667
231.95	-118.182
232.32	-36.364
232.69	0.000
233.07	-350.000
233.44	-94.118
233.81	-200.000
234.19	-27.778
234.56	-77.273
234.93	-27.586
235.31	-31.579
235.68	-83.333
236.05	-95.000
236.43	11.538
236.80	-4.000
237.17	-29.630
237.55	-18.182
237.92	-100.000
238.29	0.000
238.67	-38.636
239.04	0.000
239.41	-19.048
239.79	-26.087
240.16	-5.556
240.53	-4.348
240.91	-19.608
241.28	-9.836
241.65	22.388
242.02	18.919
242.40	-1.538
242.77	5.333
243.14	-2.439
243.51	-21.053
243.89	0.000
244.26	9.901
244.63	16.667
245.00	14.953
245.38	12.281
245.75	2.655
246.12	19.048
246.49	11.628
246.87	10.714
247.24	13.245
247.61	12.500
247.98	6.711
248.36	6.790
248.73	9.816
249.10	8.197
249.47	16.915
249.84	17.801
250.22	15.026
250.59	16.667
250.96	15.909
251.33	16.837
251.70	18.803
252.08	18.333
252.45	14.754
252.82	18.595
253.19	11.719
253.56	14.829
253.94	14.231
254.31	17.045
254.68	16.783
255.05	18.893
255.42	18.027
255.79	16.828
256.16	16.887
256.54	14.238
256.91	16.721
257.28	15.410
257.65	14.331
258.02	12.094
258.39	17.379
258.76	21.407
259.14	19.540
259.51	18.156
259.88	18.980
260.25	20.000
260.62	18.082
260.99	17.486
261.36	19.303
261.73	16.446
262.10	18.132
262.47	18.231
262.85	22.475
263.22	16.883
263.59	15.789
263.96	19.182
264.33	15.857
264.70	21.481
265.07	20.764
265.44	19.274
265.81	17.361
266.18	18.594
266.55	18.973
266.92	16.401
267.29	19.694
267.66	19.956
268.03	19.432
268.40	17.745
268.77	17.312
269.14	17.621
269.51	19.518
269.88	19.877
270.25	18.913
270.62	20.042
270.99	18.586
271.36	18.218
271.73	17.878
272.10	21.443
272.47	17.034
272.84	20.281
273.21	19.439
273.58	19.960
273.95	17.308
274.32	19.202
274.69	20.696
275.06	19.048
275.43	18.669
275.80	21.517
276.17	18.333
276.54	16.791
276.91	15.385
277.28	18.807
277.65	19.928
278.02	18.199
278.39	17.391
278.76	19.332
279.13	17.908
279.50	20.275
279.87	20.036
280.23	13.908
280.60	19.153
280.97	17.434
281.34	17.317
281.71	20.474
282.08	18.439
282.45	19.640
282.82	17.582
283.19	17.609
283.56	18.525
283.92	18.468
284.29	18.641
284.66	18.883
285.03	17.628
285.40	18.702
285.77	19.195
286.14	19.237
286.51	18.721
286.87	18.009
287.24	17.771
287.61	18.685
287.98	17.523
288.35	17.751
288.72	18.343
289.08	19.180
289.45	18.491
289.82	18.675
290.19	18.678
290.56	18.732
290.93	18.830
291.29	17.355
291.66	18.733
292.03	18.996
292.40	19.728
292.77	16.307
293.13	18.945
293.50	18.528
293.87	18.792
294.24	19.333
294.60	18.710
294.97	16.242
295.34	17.926
295.71	17.781
296.08	17.313
296.44	18.627
296.81	17.052
297.18	16.065
297.55	18.278
297.91	17.794
298.28	17.654
298.65	19.382
299.02	17.473
299.38	17.735
299.75	17.290
300.12	17.245
300.48	17.857
300.85	17.773
301.22	18.121
301.59	17.808
301.95	18.531
302.32	20.111
302.69	17.525
303.05	19.151
303.42	18.182
303.79	17.812
304.15	17.560
304.52	17.970
304.89	17.068
305.25	18.530
305.62	17.764
305.99	18.351
306.35	17.843
306.72	20.062
307.09	17.462
307.45	19.669
307.82	19.273
308.19	18.466
308.55	18.997
308.92	19.182
309.29	19.923
309.65	19.103
310.02	18.614
310.38	18.406
310.75	20.291
311.12	19.271
311.48	18.182
311.85	20.133
312.22	20.873
312.58	19.437
312.95	20.363
313.31	19.964
313.68	19.872
314.05	22.042
314.41	21.494
314.78	20.436
315.14	21.234
315.51	22.161
315.87	21.152
316.24	22.740
316.61	23.002
316.97	21.719
317.34	22.134
317.70	22.445
318.07	23.721
318.43	22.194
318.80	22.742
319.16	23.262
319.53	22.279
319.89	22.524
320.26	23.843
320.62	23.759
320.99	22.992
321.35	24.954
321.72	25.116
322.08	23.986
322.45	25.474
322.81	24.729
323.18	26.106
323.54	25.259
323.91	26.601
324.27	26.506
324.64	26.448
325.00	26.617
325.37	27.027
325.73	27.603
326.10	26.845
326.46	27.606
326.83	28.263
327.19	26.614
327.56	28.458
327.92	26.672
328.29	26.694
328.65	28.057
329.01	28.342
329.38	29.318
329.74	28.510
330.11	27.825
330.47	27.211
330.84	29.285
331.20	28.917
331.56	29.896
331.93	30.126
332.29	28.983
332.66	29.651
333.02	27.806
333.38	28.020
333.75	28.872
334.11	29.191
334.48	29.373
334.84	28.887
335.20	28.631
335.57	29.258
335.93	29.587
336.29	29.118
336.66	29.773
337.02	28.177
337.38	28.741
337.75	28.182
338.11	29.857
338.47	28.701
338.84	29.780
339.20	28.812
339.56	28.336
339.93	29.310
340.29	28.180
340.65	28.386
341.02	28.970
341.38	28.779
341.74	29.298
342.11	30.330
342.47	28.118
342.83	29.710
343.20	29.518
343.56	29.270
343.92	29.063
344.28	29.609
344.65	28.992
345.01	29.719
345.37	29.393
345.73	27.903
346.10	29.095
346.46	29.430
346.82	29.363
347.19	29.794
347.55	29.287
347.91	28.083
348.27	28.983
348.63	29.703
349.00	29.157
349.36	29.591
349.72	29.911
350.08	29.049
350.45	29.886
350.81	28.959
351.17	29.323
351.53	30.553
351.89	29.992
352.26	29.328
352.62	29.552
352.98	29.084
353.34	29.201
353.70	30.123
354.07	29.359
354.43	30.524
354.79	30.292
355.15	29.360
355.51	29.678
355.87	29.768
356.24	30.190
356.60	30.377
356.96	31.134
357.32	30.335
357.68	29.283
358.04	30.165
358.40	30.299
358.77	29.898
359.13	30.281
359.49	29.740
359.85	31.255
360.21	29.842
360.57	29.864
360.93	29.831
361.29	31.228
361.66	30.920
362.02	31.663
362.38	32.256
362.74	31.145
363.10	31.431
363.46	30.748
363.82	32.884
364.18	30.542
364.54	31.604
364.90	30.970
365.26	32.966
365.62	32.267
365.98	32.880
366.35	30.940
366.71	30.544
367.07	31.597
367.43	32.699
367.79	33.378
368.15	32.508
368.51	33.085
368.87	31.940
369.23	32.200
369.59	32.445
369.95	33.333
370.31	33.761
370.67	33.700
371.03	32.964
371.39	32.102
371.75	33.631
372.11	33.875
372.47	33.649
372.83	33.050
373.19	33.089
373.55	33.198
373.91	32.924
374.27	33.441
374.63	35.318
374.99	33.621
375.35	34.351
375.71	34.710
376.07	34.216
376.42	33.816
376.78	34.742
377.14	34.373
377.50	34.851
377.86	35.530
378.22	34.910
378.58	35.434
378.94	35.857
379.30	35.501
379.66	35.215
380.02	35.545
380.38	36.060
380.74	35.437
381.09	36.469
381.45	35.284
381.81	36.651
382.17	35.867
382.53	34.737
382.89	35.948
383.25	36.166
383.61	36.111
383.97	35.689
384.32	36.782
384.68	36.775
385.04	37.189
385.40	37.183
385.76	36.928
386.12	36.445
386.48	37.706
386.83	37.843
387.19	37.891
387.55	37.148
387.91	36.815
388.27	38.626
388.62	37.572
388.98	36.830
389.34	38.126
389.70	37.885
390.06	37.774
390.42	37.771
390.77	37.387
391.13	39.143
391.49	38.225
391.85	38.848
392.20	38.019
392.56	38.748
392.92	38.386
393.28	38.751
393.64	38.603
393.99	38.989
394.35	39.720
394.71	39.341
395.07	38.503
395.42	38.664
395.78	40.098
396.14	38.978
396.50	39.430
396.85	38.402
397.21	38.107
397.57	39.517
397.92	40.206
398.28	39.109
398.64	38.787
399.00	38.534
399.35	38.534
399.71	39.076
400.07	39.697
400.42	39.756
400.78	40.567
401.14	39.727
401.49	39.966
401.85	40.814
402.21	39.803
402.57	40.434
402.92	39.953
403.28	38.466
403.63	39.737
403.99	39.786
404.35	39.227
404.70	40.000
405.06	38.804
405.42	40.398
405.77	40.458
406.13	40.194
406.49	40.428
406.84	39.778
407.20	40.078
407.55	40.400
407.91	40.729
408.27	40.165
408.62	39.151
408.98	40.627
409.34	40.235
409.69	41.286
410.05	39.859
410.40	40.835
410.76	39.428
411.11	41.555
411.47	40.663
411.83	40.506
412.18	40.723
412.54	41.020
412.89	40.279
413.25	40.181
413.60	40.666
413.96	41.783
414.31	39.320
414.67	40.489
415.03	40.369
415.38	40.984
415.74	41.539
416.09	40.716
416.45	39.449
416.80	40.881
417.16	41.060
417.51	40.349
417.87	40.711
418.22	40.539
418.58	40.149
418.93	41.502
419.29	41.369
419.64	40.336
420.00	40.297
420.35	40.707
420.71	39.977
421.06	40.196
421.42	40.998
421.77	39.795
422.12	40.645
422.48	41.731
422.83	40.581
423.19	40.265
423.54	40.929
423.90	39.978
424.25	41.600
424.61	39.552
424.96	40.253
425.31	40.711
425.67	41.331
426.02	41.837
426.38	40.700
426.73	41.071
427.09	41.119
427.44	40.142
427.79	40.575
428.15	40.126
428.50	39.944
428.85	40.069
429.21	41.277
429.56	40.918
429.92	40.541
430.27	41.398
430.62	40.840
430.98	40.679
431.33	40.958
431.68	40.517
432.04	40.325
432.39	40.761
432.74	40.240
433.10	41.103
433.45	40.357
433.80	40.665
434.16	40.444
434.51	40.904
434.86	41.477
435.22	41.339
435.57	41.156
435.92	41.959
436.28	41.240
436.63	41.289
436.98	40.902
437.34	41.770
437.69	40.782
438.04	40.984
438.39	40.437
438.75	40.786
439.10	41.860
439.45	40.302
439.81	40.169
440.16	39.946
440.51	40.412
440.86	40.245
441.22	41.426
441.57	41.509
441.92	41.853
442.27	41.263
442.63	41.331
442.98	41.729
443.33	40.505
443.68	41.477
444.03	41.533
444.39	42.164
444.74	41.041
445.09	39.990
445.44	41.096
445.79	41.427
446.15	40.904
446.50	40.413
446.85	40.516
447.20	40.522
447.55	39.906
447.91	39.843
448.26	40.433
448.61	40.489
448.96	41.631
449.31	40.615
449.66	39.869
450.02	41.878
450.37	40.330
450.72	42.196
451.07	40.490
451.42	40.612
451.77	39.800
452.12	41.648
452.47	40.761
452.83	40.766
453.18	40.222
453.53	40.666
453.88	40.309
454.23	39.718
454.58	39.350
454.93	40.534
455.28	40.337
455.63	40.136
455.98	40.615
456.34	40.224
456.69	40.447
457.04	40.721
457.39	40.022
457.74	40.548
458.09	39.703
458.44	41.110
458.79	40.021
459.14	40.010
459.49	39.672
459.84	40.084
460.19	39.700
460.54	40.602
460.89	41.133
461.24	39.483
461.59	41.561
461.94	39.019
462.29	40.370
462.64	38.986
462.99	39.485
463.34	40.234
463.69	38.980
464.04	40.245
464.39	40.078
464.74	38.997
465.09	39.965
465.44	40.021
465.79	40.561
466.14	40.281
466.49	40.368
466.84	39.174
467.19	38.786
467.54	38.719
467.89	38.391
468.24	38.560
468.59	37.522
468.94	38.520
469.29	39.712
469.64	38.144
469.99	39.069
470.34	39.171
470.68	39.029
471.03	38.507
471.38	38.849
471.73	39.012
472.08	39.150
472.43	39.374
472.78	39.169
473.13	39.507
473.48	38.731
473.83	39.582
474.17	38.159
474.52	40.409
474.87	38.870
475.22	39.380
475.57	38.110
475.92	38.925
476.27	39.350
476.61	38.162
476.96	38.217
477.31	38.416
477.66	39.244
478.01	37.722
478.36	38.534
478.70	38.719
479.05	40.082
479.40	38.796
479.75	38.617
480.10	38.607
480.45	37.785
480.79	38.685
481.14	38.557
481.49	38.710
481.84	38.164
482.19	38.882
482.53	38.566
482.88	38.414
483.23	38.773
483.58	38.297
483.92	37.234
484.27	37.553
484.62	36.799
484.97	38.336
485.31	36.959
485.66	36.295
486.01	37.433
486.36	37.839
486.70	39.066
487.05	39.085
487.40	38.054
487.75	37.532
488.09	36.461
488.44	36.159
488.79	36.223
489.13	36.894
489.48	36.699
489.83	36.539
490.17	36.412
490.52	36.371
490.87	36.041
491.22	36.525
491.56	37.073
491.91	36.546
492.26	36.434
492.60	37.298
492.95	36.595
493.30	36.934
493.64	36.969
493.99	36.711
494.34	36.150
494.68	36.360
495.03	36.344
495.37	36.218
495.72	35.828
496.07	36.328
496.41	36.251
496.76	35.947
497.11	36.603
497.45	36.340
497.80	36.428
498.14	36.417
498.49	36.029
498.84	36.015
499.18	35.403
499.53	35.874
499.87	36.000
500.22	35.040
500.56	35.313
500.91	35.652
501.26	36.545
501.60	35.086
501.95	35.215
502.29	35.981
502.64	35.767
502.98	35.418
503.33	35.896
503.67	35.543
504.02	35.114
504.36	36.327
504.71	35.554
505.06	34.516
505.40	35.055
505.75	35.428
506.09	35.359
506.44	36.072
506.78	35.917
507.13	35.823
507.47	36.049
507.82	36.127
508.16	35.899
508.51	35.021
508.85	34.530
509.19	35.670
509.54	35.495
509.88	35.988
510.23	36.037
510.57	35.476
510.92	35.172
511.26	34.873
511.61	34.524
511.95	34.358
512.30	35.746
512.64	34.883
512.98	34.467
513.33	35.887
513.67	35.696
514.02	35.360
514.36	35.601
514.70	34.479
515.05	34.724
515.39	34.856
515.74	35.525
516.08	35.552
516.42	35.113
516.77	34.069
517.11	34.141
517.46	35.419
517.80	34.313
518.14	35.147
518.49	35.683
518.83	34.912
519.17	34.303
519.52	35.325
519.86	35.692
520.20	34.558
520.55	34.337
520.89	34.459
521.23	33.501
521.58	35.085
521.92	34.674
522.26	33.562
522.61	35.243
522.95	35.352
523.29	35.000
523.64	34.922
523.98	34.740
524.32	35.817
524.66	35.515
525.01	34.315
525.35	34.061
525.69	35.441
526.04	33.812
526.38	34.655
526.72	34.198
527.06	35.015
527.41	34.286
527.75	34.382
528.09	35.301
528.43	34.340
528.78	34.855
529.12	34.060
529.46	34.289
529.80	34.039
530.15	34.783
530.49	34.520
530.83	34.002
531.17	34.289
531.51	33.815
531.86	35.397
532.20	34.146
532.54	33.932
532.88	34.909
533.22	33.707
533.57	33.583
533.91	33.670
534.25	33.635
534.59	34.310
534.93	34.126
535.27	34.366
535.62	34.736
535.96	34.399
536.30	33.549
536.64	33.574
536.98	34.010
537.32	34.383
537.66	34.373
538.01	34.079
538.35	33.496
538.69	33.654
539.03	34.273
539.37	32.921
539.71	34.114
540.05	34.053
540.39	32.396
540.73	34.123
541.07	32.986
541.42	32.250
541.76	33.452
542.10	33.233
542.44	32.704
542.78	32.908
543.12	32.718
543.46	33.028
543.80	33.153
544.14	33.034
544.48	33.865
544.82	32.974
545.16	33.393
545.50	31.636
545.84	32.027
546.18	33.704
546.52	32.994
546.86	33.082
547.20	33.015
547.54	32.772
547.88	32.550
548.22	32.047
548.56	32.651
548.90	32.836
549.24	33.435
549.58	32.934
549.92	32.781
550.26	32.298
550.60	32.546
550.94	31.759
551.28	32.211
551.62	32.749
551.96	33.204
552.30	32.377
552.64	32.607
552.98	32.813
553.32	32.605
553.66	32.412
554.00	32.787
554.34	31.660
554.68	31.569
555.02	31.472
555.36	33.070
555.69	31.775
556.03	31.778
556.37	32.228
556.71	32.023
557.05	31.182
557.39	33.046
557.73	31.704
558.07	31.457
558.41	31.296
558.75	31.508
559.08	32.498
559.42	31.001
559.76	30.529
560.10	31.547
560.44	31.662
560.78	31.375
561.12	31.034
561.45	32.482
561.79	31.258
562.13	31.608
562.47	30.641
562.81	31.203
563.15	31.881
563.48	30.516
563.82	31.741
564.16	31.314
564.50	31.824
564.84	31.091
565.17	30.471
565.51	30.552
565.85	30.701
566.19	31.164
566.52	31.656
566.86	32.258
567.20	31.158
567.54	30.377
567.88	31.397
568.21	31.225
568.55	31.079
568.89	31.729
569.23	30.249
569.56	32.044
569.90	31.468
570.24	31.771
570.57	31.334
570.91	30.710
571.25	31.270
571.59	31.394
571.92	31.477
572.26	31.286
572.60	30.494
572.93	29.836
573.27	30.598
573.61	30.863
573.95	30.639
574.28	30.273
574.62	30.355
574.96	30.834
575.29	29.896
575.63	30.862
575.97	30.060
576.30	30.175
576.64	30.398
576.98	30.843
577.31	30.859
577.65	30.953
577.98	30.572
578.32	30.539
578.66	30.437
578.99	30.494
579.33	30.703
579.67	29.488
580.00	29.872
580.34	30.236
580.67	29.898
581.01	29.944
581.35	29.788
581.68	30.790
582.02	30.586
582.35	30.516
582.69	30.551
583.02	30.368
583.36	30.212
583.70	29.675
584.03	28.990
584.37	29.055
584.70	28.973
585.04	29.412
585.37	29.231
585.71	29.083
586.04	29.899
586.38	29.526
586.72	29.606
587.05	29.522
587.39	29.195
587.72	29.809
588.06	29.908
588.39	29.375
588.73	28.889
589.06	29.176
589.40	29.041
589.73	29.145
590.07	29.178
590.40	29.412
590.73	28.420
591.07	28.779
591.40	29.082
591.74	28.577
592.07	28.908
592.41	28.904
592.74	28.860
593.08	30.064
593.41	29.921
593.75	29.023
594.08	29.597
594.41	29.263
594.75	28.429
595.08	28.398
595.42	28.669
595.75	28.964
596.09	29.007
596.42	28.090
596.75	28.406
597.09	29.374
597.42	28.804
597.75	29.087
598.09	28.095
598.42	28.629
598.76	28.315
599.09	28.480
599.42	28.126
599.76	28.029
600.09	29.196
600.42	28.996
600.76	28.864
601.09	28.178
601.42	28.321
601.76	27.759
602.09	28.020
602.42	28.026
602.76	28.118
603.09	28.561
603.42	29.082
603.76	28.295
604.09	29.560
604.42	28.220
604.76	27.930
605.09	28.041
605.42	27.472
605.75	27.269
606.09	27.809
606.42	28.055
606.75	27.661
607.09	27.112
607.42	27.399
607.75	28.331
608.08	27.230
608.42	27.449
608.75	27.985
609.08	26.613
609.41	27.614
609.75	27.634
610.08	28.364
610.41	27.060
610.74	26.807
611.07	27.442
611.41	26.951
611.74	28.083
612.07	27.069
612.40	27.757
612.73	27.384
613.07	27.824
613.40	27.526
613.73	27.347
614.06	27.036
614.39	26.774
614.72	26.929
615.06	27.623
615.39	26.196
615.72	27.299
616.05	27.489
616.38	28.355
616.71	27.220
617.05	26.837
617.38	27.287
617.71	26.782
618.04	27.955
618.37	27.541
618.70	26.923
619.03	26.404
619.36	25.586
619.69	26.778
620.03	27.370
620.36	26.074
620.69	26.835
621.02	27.165
621.35	28.520
621.68	26.030
622.01	27.402
622.34	26.011
622.67	27.491
623.00	26.113
623.33	27.405
623.66	26.070
623.99	26.728
624.32	26.901
624.65	26.255
624.99	27.698
625.32	27.694
625.65	26.905
625.98	26.373
626.31	26.506
626.64	25.714
626.97	26.332
627.30	25.588
627.63	25.281
627.96	26.502
628.29	27.004
628.62	25.693
628.95	26.380
629.28	26.168
629.61	27.104
629.94	25.188
630.26	25.932
630.59	26.770
630.92	26.147
631.25	27.013
631.58	26.083
631.91	26.242
632.24	25.744
632.57	24.383
632.90	25.777
633.23	24.184
633.56	25.816
633.89	24.587
634.22	27.339
634.55	25.261
634.88	25.649
635.20	26.265
635.53	25.198
635.86	26.761
636.19	26.511
636.52	25.316
636.85	24.923
637.18	24.636
637.51	25.269
637.83	25.249
638.16	25.806
638.49	24.648
638.82	26.268
639.15	24.971
639.48	25.982
639.81	26.097
640.13	24.853
640.46	24.121
640.79	23.897
641.12	25.714
641.45	25.345
641.77	25.546
642.10	24.934
642.43	25.532
642.76	25.610
643.09	24.932
643.41	24.370
643.74	24.414
644.07	24.828
644.40	23.338
644.73	23.657
645.05	24.963
645.38	25.180
645.71	24.047
646.04	25.538
646.36	23.796
646.69	24.540
647.02	24.465
647.35	24.885
647.67	24.477
648.00	21.656
648.33	23.724
648.66	23.823
648.98	23.946
649.31	24.222
649.64	26.162
649.96	23.873
650.29	22.670
650.62	24.470
650.94	23.724
651.27	24.551
651.60	22.368
651.92	24.316
652.25	25.470
652.58	22.421
652.90	22.093
653.23	25.070
653.56	23.395
653.88	25.000
654.21	23.944
654.54	23.988
654.86	24.363
655.19	23.714
655.52	26.417
655.84	27.736
656.17	33.014
656.49	45.039
656.82	47.824
657.15	36.140
657.47	26.206
657.80	18.677
658.13	14.265
658.45	18.252
658.78	21.352
659.10	20.585
659.43	20.048
659.75	19.011
660.08	18.599
660.41	18.445
660.73	18.472
661.06	20.264
661.38	20.574
661.71	20.862
662.03	23.104
662.36	24.329
662.68	22.702
663.01	20.354
663.33	24.764
663.66	22.161
663.98	22.308
664.31	23.452
664.63	23.699
664.96	23.412
665.28	22.505
665.61	22.378
665.93	20.714
666.26	20.789
666.58	20.849
666.91	22.430
667.23	23.619
667.56	23.274
667.88	23.800
668.21	20.508
668.53	20.077
668.86	22.200
669.18	21.996
669.50	17.495
669.83	20.800
670.15	21.850
670.48	22.421
670.80	21.606
671.13	21.172
671.45	21.260
671.77	23.352
672.10	21.500
672.42	22.168
672.75	22.427
673.07	21.642
673.39	18.798
673.72	21.980
674.04	21.034
674.37	23.614
674.69	22.222
675.01	20.762
675.34	18.511
675.66	21.723
675.98	22.015
676.31	20.117
676.63	22.624
676.95	24.521
677.28	23.387
677.60	19.291
677.92	21.689
678.25	20.475
678.57	23.488
678.89	24.744
679.22	20.209
679.54	20.855
679.86	20.508
680.18	21.227
680.51	21.541
680.83	22.913
681.15	21.379
681.48	23.143
681.80	21.762
682.12	21.329
682.44	21.202
682.77	21.277
683.09	21.402
683.41	20.930
683.73	21.442
684.06	19.188
684.38	21.288
684.70	21.005
685.02	21.515
685.34	19.468
685.67	20.820
685.99	19.479
686.31	19.913
686.63	19.431
686.96	20.505
687.28	21.010
687.60	19.529
687.92	19.132
688.24	22.538
688.56	20.000
688.89	21.597
689.21	22.701
689.53	18.235
689.85	20.710
690.17	17.778
690.49	20.120
690.82	20.990
691.14	19.636
691.46	24.092
691.78	23.020
692.10	20.550
692.42	18.571
692.74	21.234
693.06	17.963
693.39	20.683
693.71	18.609
694.03	21.375
694.35	20.190
694.67	22.177
694.99	18.723
695.31	20.309
695.63	19.481
695.95	20.290
696.27	18.901
696.59	19.690
696.91	19.820
697.23	20.440
697.56	18.534
697.88	21.023
698.20	19.209
698.52	23.295
698.84	21.622
699.16	21.429
699.48	19.456
699.80	20.000
700.12	20.524
700.44	19.355
700.76	19.952
701.08	16.465
701.40	17.876
701.72	19.154
702.04	21.925
702.36	20.157
702.68	17.115
703.00	18.337
703.32	19.704
703.64	20.538
703.96	17.422
704.28	15.725
704.60	20.000
704.91	19.388
705.23	22.740
705.55	17.827
705.87	17.273
706.19	16.258
706.51	12.651
706.83	17.867
707.15	19.048
707.47	18.458
707.79	18.559
708.11	13.771
708.43	17.634
708.74	17.634
709.06	16.937
709.38	19.718
709.70	18.859
710.02	18.088
710.34	17.287
710.66	15.363
710.98	16.393
711.29	14.560
711.61	15.819
711.93	20.228
712.25	18.649
712.57	20.354
712.89	19.412
713.20	16.568
713.52	17.052
713.84	16.435
714.16	19.737
714.48	18.557
714.80	18.442
715.11	17.848
715.43	14.854
715.75	17.632
716.07	17.403
716.39	19.126
716.70	16.566
717.02	16.393
717.34	14.983
717.66	19.128
717.97	15.068
718.29	17.869
718.61	17.763
718.93	17.476
719.24	18.323
719.56	14.724
719.88	17.417
720.20	16.452
720.51	16.770
720.83	15.313
721.15	13.816
721.46	17.466
721.78	15.333
722.10	16.181
722.42	15.772
722.73	16.129
723.05	17.544
723.37	15.278
723.68	17.204
724.00	16.968
724.32	14.437
724.63	15.035
724.95	21.631
725.27	16.725
725.58	14.841
725.90	15.862
726.22	14.107
726.53	16.883
726.85	17.296
727.16	14.502
727.48	15.902
727.80	17.219
728.11	11.661
728.43	14.815
728.74	15.050
729.06	16.556
729.38	20.130
729.69	15.436
730.01	16.667
730.32	17.273
730.64	17.610
730.96	13.354
731.27	18.994
731.59	17.857
731.90	18.701
732.22	15.365
732.53	13.536
732.85	16.857
733.16	15.543
733.48	14.024
733.80	15.042
734.11	16.524
734.43	19.189
734.74	16.709
735.06	18.593
735.37	20.000
735.69	15.405
736.00	18.079
736.32	17.520
736.63	15.556
736.95	14.943
737.26	14.848
737.58	17.879
737.89	16.471
738.21	16.820
738.52	14.754
738.83	18.771
739.15	14.894
739.46	12.925
739.78	14.724
740.09	16.046
740.41	18.659
740.72	13.333
741.04	15.858
741.35	16.140
741.66	16.863
741.98	17.213
742.29	16.736
742.61	11.404
742.92	16.923
743.23	16.968
743.55	17.442
743.86	16.800
744.18	9.917
744.49	19.409
744.80	18.107
745.12	15.612
745.43	15.854
745.74	15.086
746.06	16.102
746.37	19.831
746.68	18.293
747.00	13.333
747.31	18.455
747.62	15.385
747.94	15.385
748.25	15.663
748.56	10.612
748.88	15.385
749.19	14.655
749.50	8.225
749.82	19.679
750.13	14.591
750.44	13.667
750.75	17.538
751.07	15.077
751.38	12.618
751.69	17.572
752.01	16.828
752.32	15.359
752.63	15.306
752.94	14.533
753.26	11.152
753.57	12.593
753.88	11.610
754.19	16.399
754.51	10.611
754.82	18.650
755.13	18.033
755.44	13.993
755.75	16.776
756.07	17.313
756.38	14.151
756.69	16.566
757.00	15.235
757.31	17.486
757.63	17.136
757.94	16.432
758.25	16.479
758.56	15.033
758.87	16.591
759.18	14.133
759.50	18.130
759.81	14.846
760.12	18.329
760.43	19.271
760.74	18.473
761.05	15.500
761.36	16.145
761.67	14.721
761.99	14.324
762.30	15.244
762.61	9.241
762.92	17.164
763.23	16.479
763.54	21.942
763.85	13.058
764.16	14.478
764.47	15.141
764.78	18.850
765.10	14.370
765.41	18.974
765.72	12.698
766.03	16.102
766.34	16.614
766.65	13.240
766.96	12.351
767.27	11.521
767.58	5.970
767.89	16.827
768.20	14.085
768.51	10.648
768.82	11.245
769.13	14.773
769.44	10.769
769.75	17.690
770.06	15.000
770.37	12.598
770.68	14.468
770.99	12.551
771.30	19.259
771.61	15.589
771.92	13.333
772.23	17.004
772.54	13.426
772.85	18.433
773.16	13.810
773.47	10.053
773.78	7.568
774.09	12.500
774.39	11.500
774.70	15.301
775.01	6.098
775.32	6.471
775.63	10.429
775.94	5.732
776.25	16.774
776.56	19.231
776.87	12.245
777.18	6.897
777.48	6.993
777.79	12.162
778.10	0.735
778.41	10.417
778.72	20.690
779.03	16.049
779.34	12.727
779.65	14.508
779.95	8.889
780.26	17.614
780.57	7.742
780.88	8.696
781.19	17.419
781.50	10.588
781.80	11.828
782.11	12.169
782.42	7.071
782.73	2.395
783.04	16.201
783.34	7.879
783.65	9.150
783.96	8.075
784.27	11.905
784.57	4.636
784.88	9.286
785.19	2.362
785.50	6.299
785.81	9.774
786.11	12.308
786.42	5.036
786.73	5.036
787.04	11.278
787.34	11.475
787.65	10.400
787.96	8.209
788.26	16.783
788.57	16.783
788.88	6.579
789.19	14.379
789.49	7.534
789.80	12.057
790.11	15.748
790.41	9.375
790.72	7.627
791.03	0.000
791.33	4.348
791.64	14.035
791.95	4.464
792.25	10.476
792.56	11.607
792.87	0.000
793.17	2.679
793.48	1.042
793.79	-7.229
794.09	1.835
794.40	11.009
794.70	13.605
795.01	12.987
795.32	8.904
795.62	9.859
795.93	10.606
796.23	13.115
796.54	7.143
796.85	-3.191
797.15	-3.261
797.46	8.219
797.76	11.250
798.07	3.261
798.37	-4.124
798.68	-3.896
798.99	2.299
799.29	3.371
799.60	12.766
799.90	-1.205
800.21	-3.077
800.51	-2.985
800.82	-14.706
801.12	-26.027
801.43	-16.176
801.73	-10.169
802.04	1.515
802.34	-11.667
802.65	10.169
802.95	5.970
803.26	-18.644
803.56	-9.589
803.87	-7.143
804.17	2.740
804.48	-24.561
804.78	0.000
805.09	-17.241
805.39	-10.811
805.70	1.408
806.00	3.659
806.30	4.819
806.61	1.370
806.91	5.769
807.22	-1.111
807.52	3.448
807.83	22.222
808.13	6.024
808.43	1.124
808.74	-3.750
809.04	-17.647
809.35	9.333
809.65	4.286
809.95	-13.699
810.26	-7.018
810.56	0.000
810.86	5.882
811.17	-5.263
811.47	-11.475
811.77	-20.000
812.08	-15.254
812.38	3.333
812.69	-13.793
812.99	-24.528
813.29	-23.077
813.59	-22.000
813.90	-15.789
814.20	-7.273
814.50	22.535
814.81	16.667
815.11	1.639
815.41	0.000
815.72	15.517
816.02	-5.357
816.32	22.222
816.62	-4.545
816.93	-33.333
817.23	3.704
817.53	-12.766
817.84	19.048
818.14	-29.412
818.44	-26.531
818.74	-15.556
819.04	-15.385
819.35	-31.429
819.65	-34.615
819.95	-18.868
820.25	-11.111
820.56	-16.667
820.86	-18.750
821.16	-17.949
821.46	-25.581
821.76	-26.000
822.07	7.143
822.37	-23.913
822.67	-4.255
822.97	-27.027
823.27	-15.000
823.57	-2.041
823.88	-26.667
824.18	-7.500
824.48	-10.000
824.78	-24.000
825.08	-33.333
825.38	2.222
825.69	2.128
825.99	-5.556
826.29	-45.714
826.59	-20.513
826.89	-37.209
827.19	-18.000
827.49	-14.706
827.79	4.167
828.09	-18.919
828.39	-30.000
828.70	-24.390
829.00	-6.977
829.30	-60.714
829.60	-14.706
829.90	-8.696
830.20	-28.571
830.50	-34.483
830.80	-72.222
831.10	-84.615
831.40	-50.000
831.70	-52.381
832.00	9.677
832.30	-170.588
832.60	-54.167
832.90	-169.231
833.20	-84.211
833.50	-30.000
833.80	-47.368
834.10	-114.286
834.40	-25.000
834.70	-18.750
835.00	-25.714
835.30	-17.647
835.60	-53.333
835.90	-44.000
836.20	-95.455
836.50	-52.000
836.80	-30.303
837.10	-44.444
837.40	14.815
837.70	-100.000
838.00	-32.143
838.30	-56.522
838.60	-34.483
838.90	-107.143
839.19	-126.087
839.49	-175.000
839.79	-34.783
840.09	-131.250
840.39	-85.000
840.69	-29.032
840.99	-50.000
841.29	-126.667
841.59	-110.526
841.88	20.513
842.18	-15.385
842.48	-80.000
842.78	-45.000
843.08	0.000
843.38	-19.355
843.68	-94.444
843.97	-23.529
844.27	-50.000
844.57	-47.368
844.87	-250.000
845.17	-80.000
845.47	-23.810
845.76	-61.905
846.06	-211.111
846.36	-111.765
846.66	0.000
846.96	-126.667
847.25	-147.059
847.55	-34.783
847.85	-80.000
848.15	-5.882
848.44	-181.818
848.74	-90.476
849.04	-54.167
849.34	-125.000
849.63	-47.826
849.93	1050.000
850.23	-60.000
850.53	-11.538
850.82	-109.091
851.12	-9.091
851.42	-81.818
851.71	-15.385
852.01	-60.000
852.31	-107.692
852.61	-52.632
852.90	-91.667
853.20	5.556
853.50	-177.778
853.79	-71.429
854.09	-104.545
854.39	-175.000
854.68	-22.581
854.98	-23.077
855.28	-38.889
855.57	-67.857
855.87	-44.000
856.17	-31.818
856.46	-44.444
856.76	-66.667
857.05	-39.130
857.35	-66.667
857.65	-146.154
857.94	-33.333
858.24	-25.926
858.53	-17.391
858.83	-52.941
859.13	-52.941
859.42	-41.176
859.72	-64.286
860.01	-85.000
860.31	-244.444
860.60	-30.000
860.90	-60.000
861.20	-77.778
861.49	-107.692
861.79	-33.333
862.08	-176.923
862.38	-43.750
862.67	-94.118
862.97	-56.250
863.26	-266.667
863.56	-160.000
863.85	-90.909
864.15	-44.444
864.44	-300.000
864.74	-92.857
865.03	-131.250
865.33	-180.000
865.62	-16.129
865.92	-31.818
866.21	-56.522
866.51	-35.714
866.80	-500.000
867.10	-116.667
867.39	-133.333
867.69	2300.000
867.98	-200.000
868.27	-52.941
868.57	-2400.000
868.86	-240.000
869.16	-66.667
869.45	-29.167
869.75	-36.364
870.04	-328.571
870.33	-158.333
870.63	-371.429
870.92	-125.000
871.22	-312.500
871.51	-200.000
871.80	-533.333
872.10	-500.000
>>>>>End Processed Spectral Data<<<<<
