SpectraSuite Data File
++++++++++++++++++++++++++++++++++++
Date: Thu May 14 16:04:31 PDT 2015
User: schluterlab
Dark Spectrum Present: Yes
Reference Spectrum Present: Yes
Number of Sampled Component Spectra: 1
Spectrometers: USB2E3373
Integration Time (usec): 3000 (USB2E3373)
Spectra Averaged: 3 (USB2E3373)
Boxcar Smoothing: 0 (USB2E3373)
Correct for Electrical Dark: No (USB2E3373)
Strobe/Lamp Enabled: No (USB2E3373)
Correct for Detector Non-linearity: No (USB2E3373)
Correct for Stray Light: No (USB2E3373)
Number of Pixels in Processed Spectrum: 2048
>>>>>Begin Processed Spectral Data<<<<<
178.53	0.000
178.91	142.857
179.29	-2400.000
179.67	-1800.000
180.04	214.286
180.42	100.000
180.80	160.000
181.18	-1500.000
181.56	-600.000
181.94	150.000
182.31	-200.000
182.69	366.667
183.07	-950.000
183.45	475.000
183.83	-266.667
184.20	-566.667
184.58	1100.000
184.96	-400.000
185.34	-233.333
185.72	-300.000
186.09	188.889
186.47	650.000
186.85	540.000
187.23	-244.444
187.61	-2800.000
187.98	480.000
188.36	550.000
188.74	-325.000
189.12	-466.667
189.49	-50.000
189.87	-187.500
190.25	-88.889
190.63	-260.000
191.00	-211.111
191.38	0.000
191.76	-350.000
192.14	-266.667
192.51	1000.000
192.89	-316.667
193.27	0.000
193.65	-214.286
194.02	-1300.000
194.40	-114.286
194.78	214.286
195.15	0.000
195.53	-127.273
195.91	0.000
196.29	-175.000
196.66	-123.077
197.04	-900.000
197.42	-157.143
197.79	-750.000
198.17	-75.000
198.55	-257.143
198.92	-55.556
199.30	-212.500
199.68	-81.818
200.05	-50.000
200.43	-1300.000
200.81	228.571
201.18	0.000
201.56	300.000
201.94	0.000
202.31	533.333
202.69	-233.333
203.07	1300.000
203.44	-111.111
203.82	-425.000
204.19	-83.333
204.57	-383.333
204.95	-200.000
205.32	-2300.000
205.70	425.000
206.08	-316.667
206.45	-266.667
206.83	580.000
207.20	-166.667
207.58	-560.000
207.96	-433.333
208.33	-16.667
208.71	125.000
209.08	-166.667
209.46	0.000
209.84	233.333
210.21	850.000
210.59	350.000
210.96	533.333
211.34	-450.000
211.71	-225.000
212.09	-1700.000
212.46	0.000
212.84	900.000
213.22	-420.000
213.59	-400.000
213.97	-70.000
214.34	-533.333
214.72	216.667
215.09	-600.000
215.47	0.000
215.84	71.429
216.22	600.000
216.59	-260.000
216.97	-520.000
217.34	-450.000
217.72	-137.500
218.09	-500.000
218.47	-375.000
218.84	0.000
219.22	360.000
219.59	-47.059
219.97	-30.000
220.34	1050.000
220.72	-188.889
221.09	-30.769
221.47	-366.667
221.84	-170.000
222.22	-328.571
222.59	0.000
222.97	-125.000
223.34	-280.000
223.72	-500.000
224.09	-400.000
224.46	-400.000
224.84	-180.000
225.21	-242.857
225.59	-575.000
225.96	-200.000
226.34	-30.769
226.71	466.667
227.08	-550.000
227.46	-120.000
227.83	-350.000
228.21	-78.947
228.58	212.500
228.95	1150.000
229.33	-66.667
229.70	-120.000
230.08	0.000
230.45	200.000
230.82	-366.667
231.20	-7.143
231.57	-108.333
231.95	-100.000
232.32	-63.636
232.69	-45.000
233.07	-250.000
233.44	-11.765
233.81	-110.000
234.19	38.889
234.56	-22.727
234.93	-24.138
235.31	-36.842
235.68	-33.333
236.05	-50.000
236.43	7.692
236.80	24.000
237.17	-7.407
237.55	-3.030
237.92	-120.000
238.29	0.000
238.67	-9.091
239.04	-19.444
239.41	9.524
239.79	-8.696
240.16	-1.852
240.53	-30.435
240.91	-11.765
241.28	-3.279
241.65	29.851
242.02	9.459
242.40	23.077
242.77	8.000
243.14	12.195
243.51	7.895
243.89	15.385
244.26	27.723
244.63	24.510
245.00	14.953
245.38	17.544
245.75	15.044
246.12	22.222
246.49	15.504
246.87	22.143
247.24	28.477
247.61	27.632
247.98	25.503
248.36	25.926
248.73	23.313
249.10	24.044
249.47	30.348
249.84	30.890
250.22	24.352
250.59	27.778
250.96	31.818
251.33	27.041
251.70	31.197
252.08	21.250
252.45	29.508
252.82	27.686
253.19	28.125
253.56	27.757
253.94	27.308
254.31	32.576
254.68	33.916
255.05	28.990
255.42	28.912
255.79	24.919
256.16	29.470
256.54	25.828
256.91	30.492
257.28	28.525
257.65	29.299
258.02	27.729
258.39	30.199
258.76	33.333
259.14	33.908
259.51	30.836
259.88	28.329
260.25	32.500
260.62	31.233
260.99	30.601
261.36	33.244
261.73	29.178
262.10	31.319
262.47	29.491
262.85	33.333
263.22	28.312
263.59	28.947
263.96	30.435
264.33	31.202
264.70	29.877
265.07	32.936
265.44	32.426
265.81	30.093
266.18	30.385
266.55	29.241
266.92	30.979
267.29	30.416
267.66	30.377
268.03	33.406
268.40	30.271
268.77	29.841
269.14	27.533
269.51	32.237
269.88	29.918
270.25	30.181
270.62	32.068
270.99	31.111
271.36	31.683
271.73	32.024
272.10	30.461
272.47	29.860
272.84	30.723
273.21	29.860
273.58	30.040
273.95	27.115
274.32	29.278
274.69	29.400
275.06	30.037
275.43	26.248
275.80	31.393
276.17	29.259
276.54	28.545
276.91	30.590
277.28	31.103
277.65	29.623
278.02	31.066
278.39	30.435
278.76	30.053
279.13	31.028
279.50	29.725
279.87	28.801
280.23	26.408
280.60	30.000
280.97	30.428
281.34	29.881
281.71	31.134
282.08	29.070
282.45	28.805
282.82	30.141
283.19	29.079
283.56	27.541
283.92	30.781
284.29	31.912
284.66	29.721
285.03	26.923
285.40	29.057
285.77	29.412
286.14	29.466
286.51	29.072
286.87	28.278
287.24	28.916
287.61	29.746
287.98	28.097
288.35	28.994
288.72	29.586
289.08	28.404
289.45	27.071
289.82	26.958
290.19	26.580
290.56	28.451
290.93	26.248
291.29	26.997
291.66	25.895
292.03	24.966
292.40	26.803
292.77	26.415
293.13	24.628
293.50	26.150
293.87	24.698
294.24	25.333
294.60	24.147
294.97	23.893
295.34	26.248
295.71	23.329
296.08	23.643
296.44	24.387
296.81	23.752
297.18	23.537
297.55	22.642
297.91	22.539
298.28	22.156
298.65	21.760
299.02	23.495
299.38	22.769
299.75	23.832
300.12	22.454
300.48	22.005
300.85	22.272
301.22	23.043
301.59	22.146
301.95	24.068
302.32	23.667
302.69	21.906
303.05	22.851
303.42	23.392
303.79	21.042
304.15	21.977
304.52	21.353
304.89	21.990
305.25	21.636
305.62	22.780
305.99	21.443
306.35	22.278
306.72	21.406
307.09	22.234
307.45	21.222
307.82	21.796
308.19	20.283
308.55	22.083
308.92	19.474
309.29	20.402
309.65	20.468
310.02	21.980
310.38	20.374
310.75	21.165
311.12	21.189
311.48	19.844
311.85	20.893
312.22	20.114
312.58	20.376
312.95	18.929
313.31	21.590
313.68	21.886
314.05	21.229
314.41	20.310
314.78	20.890
315.14	21.597
315.51	19.298
315.87	20.432
316.24	21.826
316.61	21.048
316.97	19.819
317.34	19.929
317.70	20.873
318.07	20.811
318.43	20.323
318.80	20.569
319.16	20.429
319.53	19.366
319.89	19.194
320.26	21.441
320.62	19.681
320.99	19.391
321.35	21.442
321.72	21.116
322.08	20.739
322.45	19.874
322.81	20.668
323.18	20.442
323.54	21.983
323.91	20.641
324.27	20.482
324.64	21.159
325.00	19.652
325.37	20.885
325.73	20.165
326.10	21.087
326.46	21.091
326.83	22.098
327.19	20.000
327.56	20.791
327.92	20.142
328.29	20.565
328.65	19.765
329.01	20.474
329.38	20.219
329.74	21.318
330.11	20.976
330.47	21.230
330.84	19.811
331.20	21.333
331.56	20.971
331.93	21.339
332.29	20.932
332.66	20.681
333.02	21.106
333.38	19.715
333.75	20.960
334.11	20.350
334.48	20.380
334.84	20.816
335.20	20.823
335.57	20.067
335.93	20.826
336.29	19.384
336.66	19.849
337.02	19.816
337.38	20.153
337.75	20.744
338.11	19.765
338.47	20.347
338.84	20.051
339.20	19.292
339.56	18.616
339.93	19.540
340.29	18.841
340.65	18.897
341.02	20.591
341.38	20.776
341.74	19.128
342.11	19.871
342.47	18.586
342.83	20.290
343.20	19.215
343.56	19.808
343.92	19.616
344.28	19.844
344.65	20.465
345.01	18.955
345.37	20.218
345.73	18.862
346.10	19.657
346.46	18.354
346.82	19.551
347.19	19.786
347.55	19.575
347.91	18.499
348.27	19.272
348.63	19.573
349.00	19.761
349.36	19.777
349.72	19.420
350.08	19.837
350.45	18.631
350.81	18.854
351.17	20.000
351.53	19.560
351.89	19.438
352.26	19.104
352.62	18.881
352.98	17.939
353.34	18.297
353.70	19.492
354.07	18.703
354.43	18.907
354.79	18.250
355.15	19.205
355.51	19.664
355.87	19.222
356.24	18.251
356.60	18.551
356.96	18.606
357.32	17.844
357.68	17.130
358.04	18.114
358.40	17.761
358.77	18.860
359.13	18.538
359.49	17.100
359.85	17.476
360.21	17.719
360.57	17.947
360.93	18.759
361.29	18.596
361.66	17.451
362.02	18.928
362.38	18.482
362.74	17.947
363.10	18.432
363.46	18.421
363.82	18.537
364.18	17.734
364.54	18.396
364.90	18.662
365.26	17.655
365.62	18.067
365.98	17.631
366.35	18.658
366.71	17.075
367.07	18.674
367.43	17.991
367.79	17.916
368.15	18.662
368.51	17.456
368.87	17.701
369.23	18.067
369.59	17.896
369.95	17.174
370.31	17.421
370.67	18.019
371.03	18.006
371.39	17.394
371.75	16.919
372.11	18.564
372.47	17.942
372.83	18.979
373.19	18.412
373.55	17.615
373.91	17.791
374.27	17.270
374.63	18.133
374.99	17.507
375.35	17.727
375.71	17.548
376.07	18.076
376.42	18.010
376.78	18.397
377.14	17.467
377.50	17.963
377.86	18.473
378.22	18.383
378.58	18.252
378.94	17.077
379.30	18.395
379.66	18.107
380.02	17.542
380.38	17.915
380.74	17.746
381.09	17.712
381.45	17.614
381.81	17.857
382.17	17.993
382.53	18.129
382.89	17.043
383.25	17.116
383.61	17.187
383.97	17.962
384.32	17.823
384.68	17.053
385.04	17.987
385.40	17.560
385.76	18.171
386.12	17.415
386.48	18.294
386.83	17.402
387.19	17.671
387.55	16.784
387.91	16.610
388.27	17.841
388.62	17.068
388.98	16.808
389.34	17.914
389.70	18.013
390.06	17.170
390.42	17.530
390.77	18.182
391.13	17.077
391.49	17.633
391.85	16.970
392.20	17.141
392.56	17.720
392.92	17.939
393.28	17.689
393.64	16.089
393.99	18.187
394.35	17.757
394.71	18.263
395.07	16.886
395.42	17.533
395.78	18.342
396.14	17.231
396.50	17.340
396.85	16.219
397.21	17.633
397.57	17.373
397.92	17.297
398.28	16.947
398.64	17.449
399.00	16.597
399.35	18.377
399.71	16.739
400.07	16.901
400.42	17.113
400.78	16.782
401.14	17.701
401.49	17.908
401.85	17.616
402.21	18.366
402.57	17.019
402.92	17.376
403.28	16.803
403.63	16.706
403.99	16.746
404.35	16.600
404.70	17.110
405.06	17.174
405.42	16.979
405.77	17.503
406.13	17.720
406.49	17.624
406.84	18.006
407.20	17.943
407.55	17.444
407.91	17.662
408.27	17.079
408.62	17.219
408.98	16.715
409.34	16.422
409.69	17.305
410.05	17.292
410.40	18.097
410.76	17.330
411.11	17.124
411.47	17.690
411.83	18.283
412.18	17.410
412.54	17.783
412.89	17.171
413.25	17.720
413.60	17.634
413.96	18.240
414.31	17.564
414.67	17.531
415.03	17.169
415.38	17.087
415.74	17.166
416.09	17.829
416.45	17.971
416.80	16.830
417.16	17.561
417.51	17.497
417.87	17.903
418.22	17.904
418.58	16.605
418.93	18.219
419.29	17.386
419.64	16.867
420.00	17.270
420.35	17.799
420.71	16.944
421.06	16.849
421.42	17.374
421.77	16.532
422.12	17.706
422.48	17.256
422.83	17.306
423.19	17.135
423.54	17.201
423.90	17.835
424.25	17.493
424.61	17.566
424.96	17.628
425.31	18.100
425.67	16.694
426.02	17.488
426.38	17.968
426.73	16.629
427.09	17.878
427.44	16.658
427.79	17.579
428.15	16.838
428.50	17.135
428.85	17.279
429.21	17.287
429.56	16.930
429.92	17.641
430.27	18.120
430.62	17.147
430.98	17.265
431.33	17.840
431.68	17.002
432.04	18.233
432.39	17.140
432.74	17.180
433.10	18.010
433.45	17.391
433.80	17.972
434.16	17.975
434.51	17.523
434.86	17.481
435.22	18.172
435.57	17.099
435.92	18.364
436.28	17.747
436.63	18.351
436.98	17.499
437.34	17.700
437.69	17.336
438.04	17.240
438.39	17.117
438.75	17.045
439.10	18.658
439.45	17.049
439.81	17.401
440.16	16.729
440.51	17.726
440.86	17.065
441.22	17.953
441.57	17.715
441.92	17.556
442.27	18.081
442.63	17.933
442.98	18.036
443.33	17.412
443.68	18.533
444.03	18.674
444.39	18.077
444.74	18.019
445.09	17.892
445.44	18.177
445.79	18.295
446.15	17.831
446.50	17.623
446.85	18.337
447.20	18.133
447.55	17.364
447.91	17.906
448.26	17.178
448.61	17.428
448.96	18.240
449.31	17.869
449.66	17.484
450.02	18.618
450.37	18.380
450.72	16.900
451.07	18.793
451.42	17.735
451.77	17.565
452.12	17.325
452.47	16.875
452.83	18.018
453.18	16.813
453.53	16.887
453.88	18.498
454.23	18.701
454.58	18.224
454.93	18.022
455.28	18.182
455.63	18.647
455.98	18.380
456.34	18.080
456.69	18.342
457.04	17.908
457.39	17.794
457.74	17.953
458.09	18.122
458.44	17.619
458.79	17.690
459.14	18.353
459.49	18.449
459.84	18.573
460.19	17.657
460.54	18.569
460.89	18.370
461.24	17.011
461.59	19.037
461.94	17.969
462.29	18.421
462.64	17.924
462.99	17.891
463.34	18.105
463.69	18.464
464.04	19.122
464.39	18.834
464.74	18.244
465.09	17.935
465.44	17.972
465.79	18.139
466.14	17.144
466.49	18.158
466.84	18.953
467.19	18.092
467.54	17.685
467.89	17.586
468.24	18.615
468.59	17.661
468.94	18.473
469.29	18.476
469.64	18.309
469.99	17.718
470.34	18.874
470.68	17.977
471.03	18.468
471.38	18.116
471.73	17.555
472.08	17.957
472.43	18.242
472.78	18.388
473.13	18.710
473.48	19.215
473.83	19.327
474.17	18.581
474.52	18.340
474.87	18.826
475.22	18.648
475.57	17.965
475.92	18.865
476.27	18.637
476.61	18.536
476.96	17.779
477.31	18.812
477.66	19.412
478.01	19.319
478.36	18.495
478.70	18.867
479.05	18.865
479.40	18.707
479.75	19.260
480.10	18.617
480.45	18.186
480.79	18.912
481.14	18.199
481.49	18.764
481.84	19.104
482.19	18.667
482.53	19.021
482.88	19.805
483.23	19.520
483.58	19.039
483.92	18.706
484.27	18.586
484.62	18.812
484.97	18.663
485.31	18.127
485.66	17.472
486.01	17.507
486.36	17.771
486.70	18.320
487.05	18.918
487.40	18.667
487.75	19.084
488.09	18.456
488.44	18.280
488.79	19.022
489.13	19.044
489.48	18.408
489.83	18.350
490.17	18.348
490.52	19.089
490.87	18.443
491.22	18.761
491.56	19.582
491.91	19.451
492.26	19.602
492.60	18.933
492.95	18.956
493.30	18.960
493.64	18.966
493.99	19.474
494.34	19.338
494.68	18.672
495.03	19.251
495.37	18.553
495.72	19.048
496.07	19.369
496.41	18.833
496.76	19.224
497.11	19.363
497.45	19.206
497.80	19.680
498.14	19.637
498.49	19.807
498.84	19.561
499.18	18.893
499.53	19.507
499.87	19.956
500.22	18.833
500.56	18.399
500.91	19.130
501.26	19.818
501.60	19.178
501.95	19.713
502.29	19.131
502.64	19.502
502.98	18.680
503.33	18.618
503.67	19.320
504.02	19.133
504.36	20.152
504.71	20.028
505.06	19.736
505.40	19.881
505.75	19.308
506.09	19.383
506.44	19.777
506.78	20.321
507.13	19.640
507.47	20.417
507.82	19.981
508.16	19.694
508.51	19.644
508.85	19.556
509.19	19.801
509.54	20.077
509.88	19.573
510.23	19.961
510.57	20.058
510.92	20.174
511.26	19.721
511.61	19.845
511.95	20.400
512.30	20.778
512.64	19.640
512.98	20.210
513.33	19.909
513.67	20.959
514.02	19.928
514.36	19.693
514.70	20.208
515.05	20.594
515.39	20.052
515.74	20.573
516.08	19.968
516.42	20.670
516.77	19.558
517.11	19.804
517.46	20.361
517.80	21.165
518.14	21.491
518.49	21.150
518.83	20.277
519.17	20.571
519.52	20.860
519.86	20.644
520.20	20.501
520.55	20.591
520.89	21.002
521.23	20.324
521.58	21.073
521.92	20.510
522.26	20.561
522.61	20.544
522.95	21.107
523.29	20.920
523.64	20.796
523.98	20.993
524.32	21.834
524.66	20.603
525.01	21.178
525.35	20.333
525.69	21.288
526.04	21.297
526.38	21.264
526.72	21.799
527.06	21.232
527.41	21.458
527.75	21.912
528.09	21.724
528.43	20.130
528.78	20.867
529.12	21.273
529.46	20.686
529.80	20.709
530.15	21.275
530.49	20.463
530.83	21.311
531.17	21.027
531.51	21.661
531.86	21.695
532.20	21.220
532.54	21.424
532.88	21.879
533.22	20.919
533.57	20.716
533.91	21.324
534.25	21.481
534.59	21.149
534.93	21.619
535.27	20.620
535.62	21.603
535.96	21.383
536.30	20.212
536.64	21.982
536.98	21.956
537.32	22.469
537.66	21.834
538.01	20.665
538.35	21.315
538.69	20.853
539.03	22.318
539.37	20.848
539.71	21.562
540.05	20.923
540.39	20.721
540.73	20.947
541.07	21.398
541.42	21.205
541.76	20.819
542.10	21.954
542.44	20.767
542.78	21.837
543.12	21.752
543.46	21.917
543.80	20.983
544.14	21.724
544.48	21.454
544.82	21.843
545.16	22.481
545.50	21.330
545.84	21.188
546.18	22.037
546.52	21.338
546.86	21.195
547.20	21.756
547.54	21.848
547.88	20.675
548.22	20.409
548.56	20.831
548.90	21.134
549.24	21.216
549.58	21.830
549.92	21.173
550.26	22.330
550.60	21.442
550.94	21.798
551.28	22.310
551.62	21.833
551.96	22.654
552.30	21.606
552.64	21.655
552.98	20.836
553.32	22.701
553.66	21.672
554.00	21.942
554.34	21.815
554.68	20.981
555.02	22.208
555.36	21.893
555.69	21.076
556.03	22.068
556.37	22.466
556.71	21.053
557.05	22.620
557.39	21.367
557.73	22.721
558.07	21.656
558.41	22.126
558.75	21.839
559.08	22.686
559.42	22.291
559.76	21.981
560.10	22.371
560.44	22.230
560.78	21.875
561.12	20.874
561.45	21.715
561.79	22.222
562.13	22.181
562.47	21.825
562.81	21.962
563.15	21.402
563.48	21.753
563.82	21.463
564.16	21.381
564.50	22.288
564.84	21.593
565.17	21.588
565.51	21.231
565.85	21.200
566.19	21.141
566.52	21.709
566.86	21.619
567.20	21.262
567.54	21.402
567.88	20.999
568.21	20.553
568.55	20.911
568.89	20.654
569.23	21.039
569.56	20.399
569.90	19.922
570.24	20.472
570.57	19.756
570.91	19.688
571.25	20.075
571.59	19.677
571.92	19.136
572.26	19.137
572.60	19.629
572.93	20.011
573.27	19.725
573.61	19.799
573.95	19.568
574.28	19.668
574.62	19.463
574.96	19.012
575.29	18.969
575.63	19.404
575.97	19.401
576.30	19.368
576.64	19.423
576.98	19.362
577.31	19.251
577.65	18.923
577.98	18.919
578.32	18.625
578.66	18.639
578.99	18.820
579.33	19.609
579.67	19.084
580.00	19.016
580.34	19.263
580.67	19.241
581.01	19.256
581.35	18.819
581.68	18.953
582.02	18.990
582.35	19.352
582.69	19.124
583.02	19.043
583.36	19.409
583.70	19.586
584.03	19.558
584.37	19.452
584.70	18.802
585.04	18.926
585.37	19.068
585.71	18.878
586.04	19.177
586.38	19.220
586.72	19.504
587.05	19.570
587.39	19.122
587.72	19.306
588.06	19.802
588.39	19.318
588.73	19.312
589.06	19.357
589.40	20.221
589.73	19.955
590.07	19.728
590.40	20.284
590.73	20.007
591.07	20.625
591.40	20.023
591.74	19.754
592.07	21.194
592.41	19.716
592.74	19.950
593.08	20.510
593.41	19.977
593.75	20.057
594.08	19.540
594.41	19.968
594.75	19.827
595.08	19.919
595.42	19.481
595.75	19.890
596.09	19.993
596.42	19.993
596.75	20.494
597.09	20.404
597.42	19.627
597.75	20.110
598.09	20.794
598.42	20.708
598.76	19.985
599.09	19.900
599.42	19.578
599.76	19.016
600.09	19.786
600.42	19.686
600.76	19.089
601.09	19.715
601.42	20.323
601.76	19.862
602.09	20.193
602.42	19.375
602.76	19.668
603.09	20.154
603.42	19.870
603.76	19.908
604.09	20.050
604.42	19.817
604.76	19.635
605.09	20.104
605.42	20.375
605.75	20.154
606.09	19.895
606.42	19.518
606.75	19.828
607.09	19.892
607.42	19.692
607.75	19.852
608.08	19.890
608.42	20.073
608.75	20.357
609.08	19.610
609.41	19.982
609.75	19.955
610.08	20.800
610.41	20.433
610.74	20.504
611.07	20.959
611.41	20.314
611.74	20.647
612.07	20.477
612.40	20.010
612.73	20.244
613.07	21.320
613.40	20.837
613.73	20.125
614.06	20.658
614.39	20.019
614.72	19.990
615.06	20.597
615.39	19.961
615.72	20.711
616.05	20.058
616.38	21.140
616.71	21.317
617.05	21.086
617.38	20.653
617.71	20.680
618.04	21.047
618.37	20.820
618.70	21.041
619.03	20.191
619.36	21.825
619.69	21.589
620.03	21.343
620.36	20.920
620.69	21.036
621.02	21.654
621.35	22.206
621.68	22.632
622.01	22.135
622.34	20.781
622.67	21.856
623.00	19.838
623.33	21.632
623.66	21.855
623.99	21.198
624.32	21.832
624.65	20.849
624.99	21.782
625.32	22.730
625.65	20.971
625.98	20.881
626.31	21.545
626.64	22.711
626.97	22.656
627.30	21.564
627.63	22.581
627.96	22.372
628.29	22.412
628.62	22.502
628.95	22.962
629.28	22.430
629.61	22.643
629.94	22.176
630.26	21.780
630.59	22.021
630.92	21.905
631.25	24.597
631.58	23.446
631.91	22.868
632.24	23.919
632.57	21.917
632.90	22.367
633.23	22.857
633.56	21.735
633.89	23.450
634.22	22.973
634.55	23.173
634.88	22.944
635.20	24.112
635.53	23.729
635.86	23.402
636.19	23.966
636.52	22.679
636.85	23.187
637.18	25.156
637.51	24.516
637.83	24.474
638.16	23.618
638.49	22.418
638.82	24.014
639.15	21.993
639.48	25.982
639.81	23.441
640.13	24.382
640.46	22.909
640.79	23.652
641.12	23.851
641.45	23.463
641.77	27.728
642.10	25.328
642.43	26.995
642.76	24.390
643.09	24.658
643.41	24.510
643.74	24.966
644.07	25.379
644.40	24.187
644.73	23.803
645.05	25.257
645.38	27.050
645.71	25.073
646.04	25.108
646.36	24.234
646.69	26.074
647.02	26.147
647.35	24.885
647.67	24.799
648.00	25.478
648.33	23.874
648.66	23.395
648.98	24.082
649.31	25.034
649.64	22.842
649.96	24.536
650.29	21.280
650.62	24.328
650.94	23.874
651.27	23.653
651.60	23.538
651.92	24.772
652.25	24.313
652.58	24.759
652.90	22.820
653.23	25.211
653.56	22.397
653.88	25.843
654.21	24.507
654.54	25.867
654.86	24.504
655.19	22.585
655.52	21.708
655.84	18.567
656.17	21.622
656.49	29.989
656.82	32.892
657.15	25.929
657.47	19.871
657.80	14.835
658.13	11.763
658.45	15.853
658.78	19.125
659.10	18.642
659.43	19.090
659.75	18.930
660.08	18.431
660.41	18.362
660.73	20.182
661.06	20.558
661.38	23.604
661.71	24.310
662.03	24.515
662.36	25.760
662.68	23.077
663.01	25.310
663.33	24.008
663.66	26.190
663.98	28.846
664.31	24.390
664.63	22.351
664.96	24.319
665.28	22.323
665.61	26.224
665.93	23.929
666.26	24.014
666.58	23.801
666.91	25.794
667.23	26.476
667.56	26.627
667.88	23.600
668.21	24.414
668.53	25.097
668.86	24.361
669.18	24.033
669.50	27.833
669.83	24.400
670.15	24.409
670.48	26.786
670.80	24.283
671.13	25.331
671.45	24.016
671.77	26.365
672.10	23.500
672.42	23.463
672.75	24.117
673.07	22.836
673.39	22.650
673.72	24.329
674.04	24.655
674.37	25.939
674.69	26.102
675.01	20.381
675.34	24.809
675.66	25.655
675.98	24.254
676.31	24.023
676.63	25.856
676.95	26.628
677.28	25.202
677.60	22.441
677.92	24.952
678.25	23.766
678.57	23.843
678.89	24.403
679.22	20.906
679.54	22.906
679.86	20.000
680.18	22.886
680.51	23.899
680.83	22.750
681.15	22.586
681.48	24.007
681.80	25.561
682.12	22.552
682.44	23.205
682.77	23.582
683.09	21.780
683.41	24.225
683.73	23.719
684.06	22.325
684.38	22.719
684.70	26.032
685.02	22.203
685.34	22.962
685.67	22.397
685.99	21.166
686.31	21.366
686.63	22.591
686.96	20.978
687.28	23.290
687.60	20.034
687.92	22.186
688.24	21.870
688.56	21.552
688.89	22.868
689.21	24.462
689.53	22.157
689.85	24.458
690.17	22.778
690.49	22.709
690.82	21.782
691.14	19.838
691.46	21.797
691.78	21.731
692.10	21.284
692.42	21.250
692.74	19.238
693.06	21.667
693.39	23.909
693.71	21.241
694.03	21.004
694.35	24.381
694.67	24.435
694.99	21.915
695.31	19.647
695.63	24.892
695.95	20.911
696.27	20.220
696.59	21.239
696.91	22.748
697.23	23.077
697.56	21.589
697.88	20.076
698.20	22.222
698.52	25.947
698.84	22.661
699.16	22.653
699.48	22.385
699.80	22.553
700.12	22.926
700.44	20.276
700.76	24.466
701.08	24.697
701.40	24.870
701.72	25.871
702.04	26.738
702.36	21.990
702.68	21.271
703.00	21.027
703.32	20.443
703.64	22.005
703.96	25.298
704.28	21.867
704.60	23.291
704.91	21.939
705.23	24.110
705.55	21.727
705.87	24.545
706.19	23.620
706.51	23.193
706.83	24.496
707.15	20.106
707.47	21.028
707.79	23.362
708.11	19.280
708.43	18.710
708.74	20.536
709.06	20.186
709.38	21.596
709.70	23.325
710.02	24.031
710.34	23.670
710.66	19.274
710.98	22.951
711.29	21.154
711.61	23.729
711.93	24.217
712.25	20.541
712.57	23.009
712.89	22.353
713.20	18.935
713.52	25.434
713.84	21.170
714.16	22.895
714.48	20.103
714.80	24.156
715.11	19.423
715.43	18.568
715.75	23.158
716.07	22.376
716.39	25.683
716.70	19.277
717.02	19.344
717.34	20.557
717.66	25.168
717.97	18.493
718.29	19.588
718.61	21.053
718.93	22.654
719.24	22.050
719.56	20.552
719.88	18.619
720.20	17.097
720.51	18.634
720.83	20.313
721.15	19.408
721.46	18.836
721.78	18.667
722.10	22.006
722.42	19.799
722.73	21.613
723.05	22.105
723.37	23.958
723.68	24.014
724.00	18.773
724.32	17.606
724.63	19.930
724.95	24.823
725.27	22.997
725.58	20.141
725.90	22.069
726.22	17.555
726.53	21.429
726.85	22.956
727.16	21.148
727.48	22.324
727.80	20.861
728.11	22.615
728.43	23.232
728.74	18.729
729.06	17.881
729.38	21.753
729.69	20.805
730.01	18.155
730.32	16.061
730.64	18.239
730.96	20.807
731.27	21.508
731.59	22.253
731.90	17.922
732.22	18.229
732.53	14.641
732.85	16.857
733.16	18.475
733.48	19.512
733.80	19.220
734.11	18.519
734.43	20.811
734.74	22.278
735.06	19.347
735.37	17.027
735.69	18.919
736.00	21.186
736.32	20.216
736.63	19.722
736.95	18.678
737.26	18.485
737.58	17.576
737.89	23.235
738.21	18.349
738.52	17.049
738.83	22.184
739.15	20.213
739.46	20.748
739.78	18.712
740.09	18.338
740.41	20.117
740.72	18.000
741.04	19.094
741.35	27.018
741.66	16.863
741.98	21.311
742.29	21.339
742.61	24.561
742.92	19.231
743.23	21.661
743.55	18.605
743.86	20.800
744.18	21.901
744.49	18.565
744.80	18.519
745.12	18.565
745.43	22.764
745.74	18.966
746.06	22.034
746.37	22.363
746.68	25.610
747.00	19.583
747.31	19.313
747.62	22.308
747.94	22.672
748.25	22.088
748.56	21.633
748.88	17.521
749.19	21.552
749.50	12.987
749.82	23.695
750.13	22.064
750.44	15.000
750.75	20.308
751.07	20.923
751.38	20.820
751.69	21.406
752.01	18.770
752.32	18.954
752.63	21.429
752.94	20.761
753.26	21.561
753.57	18.519
753.88	20.974
754.19	19.293
754.51	20.900
754.82	19.293
755.13	21.967
755.44	20.478
755.75	21.382
756.07	22.090
756.38	18.239
756.69	21.687
757.00	14.681
757.31	18.306
757.63	17.391
757.94	16.901
758.25	19.187
758.56	17.429
758.87	19.091
759.18	18.133
759.50	19.263
759.81	20.448
760.12	18.329
760.43	17.969
760.74	17.241
761.05	17.500
761.36	15.663
761.67	17.005
761.99	20.270
762.30	17.073
762.61	17.162
762.92	16.791
763.23	23.221
763.54	16.547
763.85	15.464
764.16	18.855
764.47	23.592
764.78	19.169
765.10	19.355
765.41	19.487
765.72	15.873
766.03	20.056
766.34	14.107
766.65	14.983
766.96	19.124
767.27	22.120
767.58	13.930
767.89	23.558
768.20	18.310
768.51	17.130
768.82	16.064
769.13	18.561
769.44	11.923
769.75	19.495
770.06	22.308
770.37	18.110
770.68	14.043
770.99	12.146
771.30	22.222
771.61	18.251
771.92	14.815
772.23	19.838
772.54	17.130
772.85	23.041
773.16	20.952
773.47	10.053
773.78	12.973
774.09	19.318
774.39	18.500
774.70	21.311
775.01	18.293
775.32	12.353
775.63	19.018
775.94	13.376
776.25	18.710
776.56	26.282
776.87	21.088
777.18	15.172
777.48	14.685
777.79	16.216
778.10	11.029
778.41	15.972
778.72	17.931
779.03	20.988
779.34	17.576
779.65	18.135
779.95	15.556
780.26	14.205
780.57	16.129
780.88	23.913
781.19	18.710
781.50	17.647
781.80	19.892
782.11	14.286
782.42	11.616
782.73	13.772
783.04	13.408
783.34	10.909
783.65	7.190
783.96	10.559
784.27	10.714
784.57	7.285
784.88	14.286
785.19	14.173
785.50	11.811
785.81	18.797
786.11	17.692
786.42	12.230
786.73	17.266
787.04	20.301
787.34	14.754
787.65	12.800
787.96	14.179
788.26	16.783
788.57	13.287
788.88	13.158
789.19	24.183
789.49	17.123
789.80	14.894
790.11	22.047
790.41	11.719
790.72	14.407
791.03	10.680
791.33	21.739
791.64	11.404
791.95	4.464
792.25	9.524
792.56	16.964
792.87	7.292
793.17	9.821
793.48	5.208
793.79	3.614
794.09	4.587
794.40	0.917
794.70	12.245
795.01	12.987
795.32	15.068
795.62	7.042
795.93	4.545
796.23	15.574
796.54	12.500
796.85	6.383
797.15	-1.087
797.46	8.219
797.76	-1.250
798.07	20.652
798.37	0.000
798.68	6.494
798.99	12.644
799.29	10.112
799.60	24.468
799.90	2.410
800.21	-1.538
800.51	0.000
800.82	2.941
801.12	-10.959
801.43	-1.471
801.73	1.695
802.04	10.606
802.34	5.000
802.65	10.169
802.95	5.970
803.26	-3.390
803.56	13.699
803.87	2.857
804.17	1.370
804.48	-5.263
804.78	13.889
805.09	-13.793
805.39	20.270
805.70	-5.634
806.00	7.317
806.30	-3.614
806.61	2.740
806.91	8.654
807.22	11.111
807.52	5.747
807.83	6.944
808.13	4.819
808.43	7.865
808.74	6.250
809.04	-1.471
809.35	-5.333
809.65	-1.429
809.95	1.370
810.26	-7.018
810.56	5.172
810.86	2.941
811.17	3.509
811.47	1.639
811.77	-13.333
812.08	-3.390
812.38	-1.667
812.69	5.172
812.99	-3.774
813.29	-23.077
813.59	2.000
813.90	-7.018
814.20	-1.818
814.50	1.408
814.81	3.846
815.11	16.393
815.41	11.940
815.72	6.897
816.02	-3.571
816.32	4.444
816.62	2.273
816.93	-24.444
817.23	-12.963
817.53	-2.128
817.84	-4.762
818.14	-8.824
818.44	8.163
818.74	8.889
819.04	-23.077
819.35	-42.857
819.65	-34.615
819.95	5.660
820.25	0.000
820.56	-19.048
820.86	-21.875
821.16	-2.564
821.46	-18.605
821.76	-6.000
822.07	-1.786
822.37	-21.739
822.67	8.511
822.97	-32.432
823.27	-32.500
823.57	6.122
823.88	13.333
824.18	7.500
824.48	-30.000
824.78	-48.000
825.08	-12.121
825.38	26.667
825.69	-10.638
825.99	19.444
826.29	-57.143
826.59	-30.769
826.89	-23.256
827.19	-14.000
827.49	0.000
827.79	4.167
828.09	5.405
828.39	-13.333
828.70	7.317
829.00	-23.256
829.30	-10.714
829.60	-5.882
829.90	-21.739
830.20	-22.857
830.50	-41.379
830.80	-72.222
831.10	-15.385
831.40	-38.235
831.70	-23.810
832.00	-12.903
832.30	-158.824
832.60	-41.667
832.90	-107.692
833.20	-42.105
833.50	-35.000
833.80	-63.158
834.10	-133.333
834.40	-11.111
834.70	9.375
835.00	-31.429
835.30	-14.706
835.60	-26.667
835.90	-48.000
836.20	-68.182
836.50	-40.000
836.80	-48.485
837.10	-77.778
837.40	-25.926
837.70	-56.250
838.00	-32.143
838.30	-34.783
838.60	-24.138
838.90	-64.286
839.19	-82.609
839.49	-133.333
839.79	-30.435
840.09	-112.500
840.39	-25.000
840.69	6.452
840.99	-50.000
841.29	-113.333
841.59	-31.579
841.88	-2.564
842.18	-30.769
842.48	-100.000
842.78	-55.000
843.08	-20.000
843.38	-32.258
843.68	-127.778
843.97	-20.588
844.27	-56.250
844.57	-42.105
844.87	-120.000
845.17	-6.667
845.47	-19.048
845.76	-47.619
846.06	-144.444
846.36	-58.824
846.66	-11.538
846.96	-153.333
847.25	-64.706
847.55	-47.826
847.85	-20.000
848.15	-35.294
848.44	-63.636
848.74	-52.381
849.04	-75.000
849.34	-75.000
849.63	-26.087
849.93	450.000
850.23	-86.667
850.53	-7.692
850.82	-54.545
851.12	13.636
851.42	-90.909
851.71	-38.462
852.01	-65.000
852.31	-130.769
852.61	-52.632
852.90	-83.333
853.20	-27.778
853.50	-211.111
853.79	-42.857
854.09	-59.091
854.39	-166.667
854.68	-9.677
854.98	-46.154
855.28	-22.222
855.57	-17.857
855.87	-28.000
856.17	-54.545
856.46	-48.148
856.76	-55.556
857.05	-47.826
857.35	-37.500
857.65	-115.385
857.94	-33.333
858.24	-11.111
858.53	4.348
858.83	-58.824
859.13	-105.882
859.42	-52.941
859.72	-71.429
860.01	-5.000
860.31	-111.111
860.60	-50.000
860.90	-26.667
861.20	-72.222
861.49	-100.000
861.79	0.000
862.08	-100.000
862.38	-25.000
862.67	-70.588
862.97	-6.250
863.26	-133.333
863.56	-120.000
863.85	-109.091
864.15	-77.778
864.44	-66.667
864.74	-35.714
865.03	-106.250
865.33	-210.000
865.62	-19.355
865.92	-22.727
866.21	-17.391
866.51	-57.143
866.80	-400.000
867.10	-125.000
867.39	-158.333
867.69	2400.000
867.98	-171.429
868.27	-35.294
868.57	-1900.000
868.86	-200.000
869.16	-9.524
869.45	-29.167
869.75	-118.182
870.04	-257.143
870.33	-116.667
870.63	-314.286
870.92	0.000
871.22	-337.500
871.51	-54.545
871.80	-1033.333
872.10	-800.000
>>>>>End Processed Spectral Data<<<<<
