SpectraSuite Data File
++++++++++++++++++++++++++++++++++++
Date: Wed May 13 19:19:06 PDT 2015
User: schluterlab
Dark Spectrum Present: Yes
Reference Spectrum Present: Yes
Number of Sampled Component Spectra: 1
Spectrometers: USB2E3373
Integration Time (usec): 3000 (USB2E3373)
Spectra Averaged: 3 (USB2E3373)
Boxcar Smoothing: 0 (USB2E3373)
Correct for Electrical Dark: No (USB2E3373)
Strobe/Lamp Enabled: No (USB2E3373)
Correct for Detector Non-linearity: No (USB2E3373)
Correct for Stray Light: No (USB2E3373)
Number of Pixels in Processed Spectrum: 2048
>>>>>Begin Processed Spectral Data<<<<<
178.53	0.000
178.91	-1375.000
179.29	-1375.000
179.67	-261.111
180.04	-1650.000
180.42	2500.000
180.80	1320.000
181.18	-1375.000
181.56	828.571
181.94	0.000
182.31	-842.857
182.69	1833.333
183.07	-587.500
183.45	-666.667
183.83	590.909
184.20	-420.000
184.58	3050.000
184.96	7200.000
185.34	-840.000
185.72	-700.000
186.09	-2450.000
186.47	3200.000
186.85	3050.000
187.23	5500.000
187.61	-1900.000
187.98	1350.000
188.36	563.636
188.74	581.818
189.12	-1120.000
189.49	570.000
189.87	-5600.000
190.25	-1475.000
190.63	392.857
191.00	523.077
191.38	1100.000
191.76	-1250.000
192.14	1750.000
192.51	600.000
192.89	1083.333
193.27	762.500
193.65	-1325.000
194.02	620.000
194.40	1020.000
194.78	550.000
195.15	550.000
195.53	790.000
195.91	-2650.000
196.29	412.500
196.66	363.158
197.04	-410.000
197.42	0.000
197.79	620.000
198.17	-5300.000
198.55	828.571
198.92	712.500
199.30	1060.000
199.68	0.000
200.05	327.778
200.43	857.143
200.81	5300.000
201.18	1933.333
201.56	-1700.000
201.94	777.778
202.31	666.667
202.69	491.667
203.07	620.000
203.44	0.000
203.82	1350.000
204.19	914.286
204.57	521.429
204.95	725.000
205.32	1766.667
205.70	536.364
206.08	450.000
206.45	3250.000
206.83	381.250
207.20	1000.000
207.58	880.000
207.96	388.889
208.33	787.500
208.71	-850.000
209.08	757.143
209.46	633.333
209.84	427.273
210.21	-1766.667
210.59	1500.000
210.96	-612.500
211.34	2700.000
211.71	650.000
212.09	916.667
212.46	0.000
212.84	1900.000
213.22	1575.000
213.59	-4700.000
213.97	866.667
214.34	800.000
214.72	600.000
215.09	1120.000
215.47	-2700.000
215.84	-2800.000
216.22	1900.000
216.59	471.429
216.97	1525.000
217.34	490.909
217.72	-916.667
218.09	0.000
218.47	-6000.000
218.84	777.778
219.22	757.143
219.59	1633.333
219.97	-771.429
220.34	1220.000
220.72	-1566.667
221.09	492.857
221.47	1700.000
221.84	-933.333
222.22	0.000
222.59	1625.000
222.97	-2900.000
223.34	1140.000
223.72	484.615
224.09	1240.000
224.46	2600.000
224.84	-5800.000
225.21	-1120.000
225.59	-5500.000
225.96	700.000
226.34	340.000
226.71	2700.000
227.08	750.000
227.46	670.000
227.83	-1475.000
228.21	-1750.000
228.58	722.222
228.95	-2400.000
229.33	-2500.000
229.70	1866.667
230.08	842.857
230.45	-960.000
230.82	466.667
231.20	933.333
231.57	742.857
231.95	566.667
232.32	290.909
232.69	472.727
233.07	871.429
233.44	415.385
233.81	-1933.333
234.19	294.737
234.56	375.000
234.93	341.667
235.31	509.091
235.68	469.231
236.05	342.857
236.43	181.818
236.80	278.947
237.17	4900.000
237.55	238.095
237.92	189.286
238.29	247.619
238.67	138.710
239.04	200.000
239.41	133.333
239.79	115.217
240.16	138.095
240.53	115.909
240.91	111.765
241.28	98.000
241.65	108.000
242.02	84.058
242.40	90.323
242.77	81.667
243.14	62.366
243.51	69.663
243.89	55.294
244.26	61.111
244.63	55.914
245.00	54.255
245.38	54.455
245.75	50.467
246.12	34.862
246.49	54.015
246.87	57.600
247.24	39.231
247.61	47.857
247.98	41.830
248.36	27.703
248.73	40.127
249.10	36.306
249.47	34.463
249.84	35.829
250.22	26.203
250.59	26.627
250.96	29.293
251.33	33.175
251.70	30.198
252.08	26.667
252.45	25.112
252.82	27.826
253.19	25.957
253.56	30.588
253.94	23.651
254.31	22.266
254.68	25.385
255.05	22.140
255.42	24.390
255.79	22.794
256.16	25.271
256.54	20.495
256.91	21.708
257.28	15.108
257.65	20.132
258.02	22.360
258.39	18.612
258.76	20.401
259.14	17.857
259.51	17.629
259.88	20.497
260.25	17.825
260.62	17.630
260.99	18.944
261.36	17.718
261.73	17.765
262.10	15.407
262.47	16.338
262.85	17.827
263.22	13.960
263.59	17.379
263.96	15.659
264.33	15.927
264.70	15.789
265.07	19.182
265.44	15.404
265.81	15.085
266.18	13.065
266.55	15.854
266.92	12.531
267.29	13.889
267.66	15.367
268.03	14.545
268.40	12.850
268.77	11.695
269.14	10.586
269.51	14.447
269.88	16.317
270.25	13.093
270.62	12.135
270.99	16.129
271.36	15.880
271.73	13.785
272.10	11.739
272.47	13.548
272.84	14.286
273.21	15.514
273.58	13.974
273.95	13.627
274.32	11.570
274.69	11.991
275.06	10.630
275.43	13.191
275.80	13.427
276.17	12.220
276.54	13.306
276.91	13.439
277.28	11.523
277.65	11.992
278.02	11.801
278.39	11.523
278.76	12.182
279.13	11.698
279.50	13.035
279.87	11.554
280.23	11.178
280.60	8.511
280.97	11.645
281.34	10.973
281.71	13.091
282.08	11.516
282.45	8.000
282.82	11.012
283.19	9.447
283.56	11.754
283.92	11.337
284.29	10.053
284.66	9.800
285.03	8.137
285.40	12.324
285.77	8.923
286.14	8.808
286.51	10.333
286.87	12.137
287.24	11.075
287.61	9.149
287.98	10.227
288.35	9.826
288.72	9.813
289.08	9.703
289.45	9.885
289.82	9.593
290.19	8.634
290.56	10.567
290.93	7.704
291.29	8.282
291.66	9.587
292.03	11.773
292.40	12.335
292.77	9.024
293.13	8.358
293.50	9.038
293.87	9.037
294.24	8.889
294.60	8.588
294.97	9.593
295.34	9.168
295.71	10.227
296.08	6.695
296.44	7.703
296.81	7.133
297.18	8.943
297.55	6.596
297.91	8.047
298.28	8.701
298.65	9.269
299.02	7.773
299.38	7.968
299.75	6.604
300.12	7.152
300.48	8.000
300.85	6.289
301.22	7.898
301.59	7.323
301.95	8.060
302.32	7.317
302.69	7.407
303.05	7.394
303.42	6.790
303.79	7.248
304.15	5.594
304.52	5.562
304.89	6.504
305.25	6.961
305.62	8.041
305.99	7.320
306.35	6.935
306.72	6.951
307.09	6.548
307.45	7.095
307.82	6.027
308.19	7.837
308.55	7.120
308.92	5.908
309.29	5.702
309.65	5.514
310.02	6.660
310.38	6.237
310.75	6.864
311.12	6.960
311.48	6.688
311.85	6.709
312.22	6.348
312.58	5.613
312.95	6.864
313.31	6.117
313.68	6.549
314.05	8.284
314.41	6.231
314.78	6.647
315.14	5.660
315.51	7.003
315.87	6.733
316.24	6.455
316.61	6.433
316.97	5.969
317.34	4.697
317.70	6.501
318.07	6.833
318.43	6.458
318.80	6.654
319.16	7.345
319.53	5.629
319.89	8.095
320.26	7.000
320.62	6.052
320.99	6.263
321.35	5.455
321.72	6.879
322.08	7.700
322.45	8.657
322.81	7.074
323.18	7.707
323.54	7.328
323.91	6.509
324.27	6.692
324.64	5.219
325.00	5.861
325.37	6.369
325.73	6.732
326.10	7.414
326.46	5.735
326.83	6.903
327.19	6.319
327.56	5.836
327.92	7.437
328.29	6.300
328.65	6.722
329.01	6.318
329.38	5.550
329.74	5.448
330.11	5.938
330.47	6.979
330.84	8.180
331.20	7.013
331.56	6.972
331.93	6.204
332.29	7.098
332.66	7.257
333.02	5.941
333.38	6.594
333.75	6.952
334.11	6.584
334.48	5.679
334.84	6.434
335.20	7.273
335.57	6.800
335.93	5.357
336.29	6.044
336.66	5.771
337.02	5.973
337.38	5.556
337.75	6.417
338.11	6.356
338.47	5.341
338.84	6.324
339.20	5.138
339.56	6.569
339.93	5.909
340.29	5.344
340.65	5.971
341.02	6.370
341.38	6.228
341.74	5.789
342.11	5.502
342.47	5.551
342.83	7.192
343.20	6.407
343.56	6.318
343.92	6.667
344.28	5.527
344.65	6.621
345.01	5.303
345.37	5.146
345.73	5.753
346.10	6.309
346.46	6.102
346.82	6.178
347.19	5.764
347.55	6.076
347.91	5.825
348.27	6.902
348.63	5.686
349.00	5.987
349.36	5.008
349.72	6.576
350.08	5.186
350.45	6.021
350.81	6.418
351.17	6.969
351.53	4.996
351.89	4.785
352.26	6.472
352.62	7.137
352.98	5.511
353.34	6.327
353.70	5.074
354.07	6.774
354.43	5.317
354.79	5.792
355.15	5.028
355.51	6.395
355.87	6.204
356.24	6.678
356.60	5.132
356.96	5.310
357.32	5.315
357.68	6.378
358.04	6.097
358.40	6.888
358.77	5.869
359.13	5.209
359.49	5.490
359.85	4.762
360.21	4.625
360.57	5.759
360.93	4.923
361.29	5.593
361.66	5.108
362.02	5.075
362.38	6.236
362.74	5.580
363.10	4.515
363.46	5.136
363.82	5.215
364.18	5.507
364.54	5.498
364.90	5.737
365.26	5.074
365.62	5.405
365.98	4.383
366.35	4.155
366.71	5.134
367.07	4.224
367.43	4.572
367.79	5.639
368.15	6.753
368.51	4.797
368.87	5.068
369.23	4.462
369.59	4.779
369.95	4.191
370.31	5.769
370.67	5.000
371.03	5.768
371.39	4.446
371.75	5.000
372.11	5.619
372.47	5.645
372.83	5.115
373.19	5.130
373.55	5.100
373.91	5.596
374.27	4.399
374.63	4.800
374.99	6.003
375.35	4.606
375.71	5.141
376.07	5.624
376.42	5.158
376.78	5.368
377.14	5.020
377.50	5.430
377.86	4.255
378.22	5.563
378.58	4.511
378.94	4.148
379.30	4.008
379.66	4.442
380.02	4.607
380.38	4.250
380.74	4.202
381.09	4.523
381.45	4.794
381.81	5.528
382.17	4.395
382.53	4.403
382.89	4.012
383.25	4.503
383.61	4.585
383.97	5.128
384.32	4.991
384.68	4.151
385.04	4.241
385.40	4.830
385.76	4.238
386.12	4.663
386.48	5.035
386.83	4.298
387.19	5.195
387.55	4.515
387.91	4.172
388.27	3.066
388.62	4.856
388.98	3.378
389.34	4.944
389.70	4.476
390.06	4.816
390.42	4.734
390.77	4.835
391.13	4.084
391.49	4.569
391.85	4.137
392.20	4.164
392.56	4.735
392.92	4.944
393.28	3.550
393.64	4.856
393.99	4.887
394.35	3.908
394.71	4.580
395.07	4.860
395.42	4.821
395.78	5.025
396.14	4.966
396.50	4.762
396.85	4.514
397.21	3.761
397.57	4.154
397.92	4.387
398.28	3.756
398.64	4.600
399.00	4.197
399.35	4.061
399.71	3.762
400.07	4.672
400.42	5.215
400.78	4.282
401.14	4.695
401.49	4.716
401.85	3.932
402.21	3.713
402.57	4.010
402.92	4.414
403.28	4.934
403.63	4.332
403.99	4.395
404.35	4.545
404.70	4.197
405.06	3.902
405.42	4.180
405.77	3.657
406.13	4.289
406.49	4.317
406.84	4.548
407.20	3.369
407.55	4.531
407.91	4.067
408.27	3.063
408.62	4.094
408.98	4.350
409.34	3.936
409.69	3.806
410.05	4.213
410.40	3.914
410.76	4.241
411.11	4.584
411.47	4.281
411.83	4.643
412.18	3.834
412.54	4.732
412.89	4.880
413.25	4.486
413.60	4.138
413.96	3.825
414.31	4.253
414.67	4.816
415.03	4.238
415.38	5.541
415.74	4.823
416.09	4.703
416.45	3.815
416.80	4.164
417.16	5.027
417.51	4.512
417.87	3.789
418.22	4.164
418.58	5.165
418.93	4.238
419.29	4.519
419.64	4.408
420.00	4.695
420.35	4.638
420.71	4.842
421.06	4.475
421.42	4.795
421.77	4.260
422.12	3.425
422.48	3.292
422.83	4.252
423.19	4.641
423.54	4.121
423.90	4.290
424.25	4.188
424.61	3.750
424.96	4.023
425.31	4.817
425.67	4.157
426.02	4.057
426.38	5.067
426.73	4.037
427.09	4.620
427.44	4.198
427.79	3.910
428.15	4.464
428.50	4.389
428.85	4.529
429.21	3.755
429.56	3.059
429.92	3.724
430.27	3.724
430.62	3.891
430.98	4.411
431.33	3.866
431.68	4.817
432.04	4.260
432.39	3.826
432.74	4.189
433.10	3.622
433.45	4.315
433.80	3.991
434.16	4.113
434.51	4.053
434.86	3.991
435.22	4.113
435.57	3.830
435.92	4.154
436.28	4.152
436.63	4.857
436.98	3.434
437.34	4.711
437.69	4.434
438.04	4.103
438.39	4.060
438.75	4.358
439.10	4.916
439.45	4.014
439.81	3.867
440.16	4.235
440.51	4.452
440.86	3.995
441.22	3.782
441.57	4.299
441.92	3.941
442.27	4.198
442.63	4.423
442.98	4.845
443.33	4.565
443.68	3.665
444.03	3.856
444.39	3.311
444.74	4.113
445.09	3.881
445.44	4.265
445.79	3.909
446.15	4.870
446.50	4.416
446.85	3.957
447.20	4.284
447.55	4.243
447.91	4.413
448.26	4.118
448.61	4.409
448.96	4.651
449.31	4.837
449.66	4.952
450.02	4.401
450.37	3.401
450.72	3.723
451.07	4.083
451.42	4.559
451.77	4.991
452.12	4.273
452.47	4.789
452.83	4.138
453.18	4.279
453.53	4.762
453.88	3.839
454.23	4.483
454.58	4.846
454.93	4.641
455.28	4.177
455.63	4.490
455.98	4.881
456.34	4.334
456.69	4.822
457.04	4.582
457.39	3.741
457.74	4.237
458.09	4.715
458.44	4.618
458.79	3.850
459.14	4.063
459.49	4.962
459.84	4.543
460.19	4.302
460.54	4.572
460.89	4.334
461.24	4.189
461.59	5.578
461.94	4.254
462.29	5.519
462.64	3.893
462.99	4.750
463.34	5.533
463.69	4.315
464.04	4.522
464.39	4.058
464.74	4.932
465.09	4.463
465.44	4.211
465.79	4.139
466.14	4.324
466.49	4.505
466.84	5.020
467.19	5.190
467.54	4.625
467.89	4.022
468.24	5.294
468.59	4.762
468.94	4.826
469.29	4.627
469.64	5.221
469.99	4.736
470.34	4.491
470.68	5.029
471.03	4.150
471.38	4.726
471.73	5.130
472.08	4.803
472.43	5.025
472.78	4.147
473.13	5.263
473.48	4.494
473.83	5.122
474.17	4.169
474.52	4.342
474.87	4.553
475.22	4.643
475.57	3.923
475.92	3.930
476.27	3.890
476.61	4.302
476.96	4.288
477.31	4.239
477.66	4.540
478.01	4.234
478.36	4.812
478.70	3.375
479.05	3.887
479.40	4.197
479.75	4.016
480.10	3.231
480.45	3.855
480.79	3.392
481.14	3.669
481.49	3.892
481.84	3.704
482.19	3.498
482.53	4.128
482.88	4.002
483.23	4.393
483.58	3.776
483.92	3.983
484.27	3.355
484.62	3.750
484.97	3.193
485.31	3.082
485.66	2.729
486.01	2.248
486.36	2.046
486.70	2.123
487.05	2.188
487.40	2.681
487.75	2.574
488.09	2.912
488.44	2.702
488.79	3.472
489.13	3.552
489.48	3.263
489.83	2.935
490.17	3.858
490.52	3.587
490.87	3.573
491.22	4.002
491.56	2.961
491.91	3.537
492.26	3.445
492.60	3.779
492.95	3.508
493.30	3.879
493.64	3.686
493.99	3.575
494.34	3.839
494.68	4.487
495.03	4.417
495.37	3.583
495.72	3.606
496.07	4.130
496.41	3.407
496.76	3.650
497.11	3.602
497.45	3.493
497.80	4.079
498.14	3.333
498.49	3.366
498.84	4.027
499.18	3.286
499.53	3.561
499.87	3.495
500.22	4.098
500.56	4.223
500.91	3.606
501.26	3.841
501.60	4.271
501.95	3.804
502.29	4.217
502.64	3.305
502.98	3.319
503.33	3.885
503.67	3.944
504.02	3.695
504.36	4.305
504.71	4.104
505.06	4.096
505.40	3.792
505.75	3.664
506.09	3.790
506.44	3.897
506.78	3.897
507.13	4.038
507.47	4.242
507.82	4.357
508.16	3.799
508.51	4.110
508.85	3.426
509.19	3.878
509.54	4.388
509.88	4.225
510.23	4.165
510.57	5.005
510.92	4.298
511.26	4.471
511.61	4.461
511.95	3.862
512.30	3.871
512.64	4.245
512.98	4.502
513.33	5.139
513.67	4.055
514.02	3.842
514.36	4.424
514.70	4.040
515.05	3.904
515.39	4.879
515.74	3.941
516.08	5.254
516.42	4.661
516.77	5.630
517.11	4.495
517.46	4.966
517.80	5.052
518.14	4.227
518.49	4.609
518.83	4.830
519.17	4.157
519.52	4.641
519.86	5.077
520.20	4.971
520.55	4.907
520.89	3.954
521.23	4.946
521.58	4.382
521.92	5.144
522.26	4.210
522.61	4.424
522.95	4.481
523.29	4.808
523.64	4.817
523.98	5.114
524.32	4.825
524.66	5.232
525.01	5.270
525.35	4.213
525.69	4.680
526.04	4.611
526.38	5.125
526.72	4.663
527.06	5.336
527.41	3.713
527.75	5.016
528.09	4.560
528.43	5.672
528.78	5.286
529.12	4.909
529.46	5.511
529.80	5.136
530.15	5.296
530.49	5.108
530.83	4.747
531.17	5.744
531.51	5.837
531.86	5.032
532.20	5.541
532.54	5.445
532.88	5.263
533.22	4.185
533.57	4.691
533.91	4.515
534.25	4.860
534.59	4.637
534.93	5.235
535.27	5.371
535.62	5.128
535.96	5.210
536.30	4.005
536.64	5.795
536.98	5.109
537.32	4.674
537.66	5.000
538.01	5.201
538.35	5.301
538.69	5.616
539.03	4.678
539.37	3.962
539.71	4.148
540.05	4.706
540.39	5.449
540.73	4.851
541.07	5.191
541.42	5.023
541.76	5.742
542.10	5.433
542.44	5.033
542.78	6.851
543.12	4.543
543.46	5.574
543.80	5.010
544.14	5.135
544.48	5.016
544.82	4.747
545.16	5.205
545.50	4.756
545.84	5.175
546.18	5.993
546.52	5.506
546.86	5.017
547.20	5.597
547.54	5.745
547.88	5.612
548.22	5.417
548.56	5.472
548.90	4.930
549.24	4.714
549.58	6.207
549.92	5.426
550.26	5.043
550.60	5.740
550.94	5.775
551.28	4.316
551.62	6.111
551.96	4.772
552.30	5.666
552.64	5.815
552.98	4.610
553.32	5.529
553.66	5.794
554.00	5.216
554.34	5.452
554.68	5.579
555.02	5.642
555.36	5.846
555.69	5.345
556.03	5.384
556.37	5.593
556.71	4.980
557.05	5.882
557.39	5.668
557.73	5.857
558.07	5.946
558.41	4.703
558.75	5.364
559.08	6.189
559.42	5.367
559.76	6.103
560.10	5.282
560.44	5.171
560.78	5.256
561.12	5.079
561.45	5.671
561.79	4.680
562.13	4.963
562.47	5.328
562.81	5.091
563.15	5.351
563.48	5.305
563.82	5.284
564.16	5.036
564.50	4.622
564.84	5.499
565.17	5.470
565.51	4.728
565.85	5.520
566.19	4.571
566.52	5.636
566.86	3.918
567.20	5.366
567.54	4.566
567.88	4.128
568.21	5.185
568.55	4.146
568.89	3.696
569.23	4.189
569.56	4.453
569.90	3.472
570.24	3.122
570.57	3.570
570.91	3.264
571.25	3.397
571.59	3.417
571.92	3.111
572.26	3.322
572.60	3.273
572.93	3.178
573.27	3.520
573.61	3.518
573.95	2.972
574.28	2.714
574.62	2.818
574.96	2.724
575.29	2.910
575.63	2.718
575.97	2.838
576.30	3.080
576.64	2.881
576.98	2.698
577.31	2.911
577.65	2.693
577.98	2.654
578.32	2.661
578.66	3.040
578.99	2.579
579.33	3.050
579.67	2.627
580.00	3.261
580.34	2.729
580.67	2.789
581.01	2.878
581.35	2.618
581.68	2.548
582.02	2.466
582.35	2.568
582.69	2.975
583.02	2.804
583.36	2.974
583.70	2.872
584.03	3.213
584.37	3.347
584.70	2.978
585.04	2.935
585.37	3.122
585.71	3.219
586.04	3.189
586.38	3.083
586.72	3.507
587.05	3.043
587.39	2.797
587.72	3.040
588.06	2.828
588.39	3.292
588.73	3.139
589.06	3.366
589.40	3.401
589.73	3.625
590.07	3.452
590.40	3.215
590.73	3.552
591.07	3.907
591.40	4.049
591.74	4.286
592.07	4.188
592.41	4.217
592.74	4.045
593.08	3.564
593.41	3.575
593.75	3.342
594.08	3.352
594.41	3.782
594.75	3.660
595.08	4.116
595.42	3.433
595.75	3.561
596.09	4.206
596.42	3.733
596.75	3.926
597.09	4.632
597.42	4.005
597.75	3.450
598.09	4.435
598.42	4.253
598.76	3.932
599.09	3.497
599.42	3.530
599.76	3.770
600.09	3.169
600.42	3.725
600.76	3.250
601.09	4.226
601.42	3.691
601.76	3.833
602.09	3.676
602.42	3.702
602.76	4.152
603.09	4.209
603.42	4.451
603.76	3.773
604.09	3.412
604.42	3.547
604.76	4.302
605.09	4.281
605.42	4.147
605.75	4.139
606.09	3.294
606.42	3.719
606.75	4.231
607.09	4.772
607.42	4.365
607.75	3.544
608.08	4.342
608.42	4.393
608.75	4.463
609.08	3.932
609.41	4.664
609.75	3.811
610.08	4.665
610.41	4.050
610.74	3.832
611.07	4.842
611.41	4.318
611.74	4.927
612.07	4.607
612.40	5.037
612.73	4.737
613.07	4.526
613.40	5.108
613.73	3.933
614.06	4.677
614.39	4.667
614.72	4.842
615.06	5.095
615.39	4.087
615.72	4.448
616.05	4.838
616.38	5.114
616.71	4.572
617.05	4.653
617.38	5.111
617.71	4.565
618.04	5.228
618.37	5.500
618.70	5.538
619.03	5.724
619.36	5.703
619.69	5.141
620.03	5.495
620.36	5.080
620.69	6.301
621.02	5.678
621.35	6.030
621.68	5.374
622.01	6.424
622.34	6.430
622.67	5.703
623.00	4.989
623.33	5.004
623.66	5.790
623.99	5.744
624.32	6.419
624.65	6.497
624.99	4.887
625.32	5.358
625.65	6.161
625.98	6.149
626.31	6.765
626.64	6.857
626.97	6.567
627.30	5.819
627.63	6.645
627.96	6.560
628.29	5.862
628.62	7.319
628.95	8.208
629.28	6.934
629.61	8.616
629.94	6.571
630.26	6.864
630.59	7.245
630.92	6.609
631.25	6.910
631.58	7.407
631.91	7.099
632.24	6.013
632.57	7.555
632.90	8.772
633.23	7.942
633.56	8.475
633.89	8.720
634.22	8.059
634.55	9.231
634.88	6.946
635.20	7.885
635.53	8.554
635.86	8.540
636.19	7.647
636.52	8.651
636.85	8.133
637.18	7.719
637.51	9.102
637.83	6.905
638.16	8.951
638.49	8.816
638.82	9.482
639.15	9.000
639.48	9.476
639.81	10.724
640.13	9.245
640.46	9.933
640.79	9.511
641.12	7.840
641.45	8.240
641.77	8.837
642.10	8.480
642.43	8.108
642.76	9.907
643.09	9.969
643.41	9.256
643.74	11.111
644.07	10.213
644.40	10.736
644.73	11.969
645.05	10.618
645.38	9.795
645.71	12.238
646.04	10.133
646.36	11.185
646.69	12.375
647.02	11.565
647.35	12.371
647.67	12.212
648.00	12.358
648.33	9.736
648.66	8.333
648.98	11.844
649.31	8.670
649.64	9.716
649.96	10.283
650.29	10.427
650.62	9.061
650.94	12.156
651.27	12.500
651.60	11.814
651.92	11.821
652.25	11.075
652.58	9.969
652.90	10.900
653.23	10.786
653.56	8.819
653.88	10.460
654.21	11.374
654.54	8.746
654.86	10.903
655.19	8.514
655.52	3.766
655.84	2.153
656.17	2.378
656.49	3.012
656.82	3.064
657.15	2.417
657.47	1.841
657.80	1.637
658.13	1.509
658.45	2.584
658.78	2.811
659.10	3.118
659.43	3.336
659.75	3.841
660.08	4.937
660.41	7.076
660.73	9.911
661.06	10.350
661.38	13.818
661.71	12.692
662.03	13.215
662.36	10.338
662.68	12.048
663.01	12.727
663.33	11.890
663.66	12.815
663.98	12.527
664.31	12.185
664.63	13.968
664.96	10.060
665.28	13.934
665.61	11.501
665.93	11.670
666.26	12.170
666.58	13.180
666.91	12.896
667.23	12.360
667.56	12.311
667.88	13.248
668.21	13.220
668.53	13.232
668.86	13.853
669.18	16.418
669.50	13.478
669.83	16.558
670.15	12.000
670.48	15.033
670.80	14.009
671.13	16.136
671.45	12.766
671.77	14.664
672.10	13.309
672.42	12.191
672.75	10.945
673.07	10.211
673.39	11.573
673.72	9.961
674.04	11.765
674.37	11.456
674.69	11.656
675.01	9.414
675.34	13.963
675.66	15.368
675.98	14.460
676.31	13.445
676.63	14.225
676.95	14.046
677.28	14.486
677.60	14.945
677.92	15.190
678.25	14.579
678.57	10.359
678.89	12.425
679.22	11.591
679.54	12.405
679.86	13.761
680.18	10.555
680.51	11.702
680.83	12.100
681.15	12.075
681.48	13.611
681.80	11.992
682.12	13.218
682.44	11.219
682.77	13.442
683.09	15.021
683.41	16.630
683.73	13.466
684.06	12.810
684.38	11.546
684.70	12.597
685.02	13.133
685.34	11.172
685.67	10.490
685.99	10.137
686.31	10.580
686.63	8.304
686.96	11.786
687.28	11.191
687.60	11.775
687.92	12.614
688.24	11.027
688.56	13.454
688.89	12.863
689.21	13.974
689.53	12.944
689.85	15.299
690.17	11.180
690.49	14.437
690.82	14.252
691.14	10.714
691.46	10.970
691.78	13.253
692.10	10.537
692.42	14.172
692.74	11.618
693.06	14.043
693.39	13.758
693.71	13.974
694.03	14.105
694.35	12.554
694.67	14.645
694.99	14.146
695.31	14.706
695.63	12.919
695.95	14.181
696.27	13.706
696.59	15.026
696.91	15.544
697.23	15.728
697.56	15.352
697.88	9.407
698.20	10.417
698.52	14.194
698.84	12.695
699.16	13.594
699.48	15.439
699.80	14.976
700.12	17.662
700.44	16.976
700.76	16.851
701.08	16.092
701.40	15.363
701.72	17.493
702.04	21.023
702.36	14.164
702.68	15.581
703.00	15.512
703.32	14.628
703.64	17.426
703.96	15.599
704.28	17.442
704.60	18.475
704.91	19.288
705.23	17.009
705.55	20.266
705.87	22.924
706.19	15.901
706.51	19.003
706.83	19.394
707.15	17.647
707.47	16.162
707.79	16.216
708.11	14.155
708.43	13.810
708.74	16.327
709.06	17.662
709.38	17.060
709.70	21.221
710.02	20.178
710.34	15.758
710.66	18.806
710.98	19.602
711.29	18.605
711.61	22.714
711.93	20.513
712.25	18.971
712.57	17.647
712.89	17.993
713.20	20.365
713.52	21.382
713.84	18.987
714.16	20.122
714.48	15.517
714.80	21.581
715.11	17.291
715.43	18.991
715.75	18.261
716.07	17.891
716.39	18.809
716.70	23.588
717.02	21.942
717.34	22.261
717.66	23.507
717.97	27.092
718.29	22.593
718.61	19.708
718.93	19.118
719.24	22.491
719.56	16.949
719.88	20.339
720.20	27.365
720.51	21.254
720.83	25.651
721.15	16.791
721.46	20.213
721.78	21.505
722.10	25.660
722.42	21.053
722.73	25.094
723.05	23.770
723.37	22.672
723.68	23.552
724.00	22.358
724.32	23.790
724.63	23.984
724.95	24.268
725.27	20.648
725.58	25.391
725.90	27.007
726.22	22.264
726.53	24.653
726.85	20.819
727.16	23.132
727.48	20.213
727.80	27.652
728.11	23.913
728.43	21.154
728.74	21.864
729.06	25.182
729.38	25.735
729.69	23.488
730.01	19.795
730.32	18.750
730.64	23.411
730.96	20.462
731.27	20.199
731.59	21.101
731.90	20.408
732.22	21.429
732.53	18.576
732.85	21.474
733.16	20.579
733.48	20.598
733.80	18.182
734.11	21.019
734.43	20.118
734.74	16.000
735.06	16.046
735.37	20.809
735.69	18.790
736.00	19.935
736.32	18.380
736.63	17.891
736.95	21.725
737.26	14.286
737.58	19.355
737.89	23.411
738.21	20.478
738.52	22.857
738.83	20.000
739.15	19.615
739.46	20.803
739.78	22.569
740.09	20.000
740.41	22.903
740.72	17.422
741.04	21.481
741.35	20.833
741.66	27.556
741.98	21.226
742.29	33.014
742.61	31.034
742.92	21.719
743.23	28.205
743.55	25.200
743.86	24.561
744.18	32.301
744.49	31.579
744.80	30.986
745.12	30.455
745.43	24.670
745.74	31.532
746.06	27.064
746.37	29.596
746.68	27.149
747.00	28.241
747.31	27.619
747.62	24.336
747.94	25.110
748.25	23.404
748.56	26.432
748.88	27.228
749.19	36.000
749.50	28.837
749.82	23.171
750.13	21.633
750.44	19.343
750.75	22.105
751.07	25.080
751.38	23.693
751.69	20.578
752.01	20.301
752.32	18.051
752.63	23.404
752.94	22.131
753.26	30.000
753.57	19.919
753.88	23.437
754.19	22.857
754.51	23.611
754.82	18.051
755.13	20.755
755.44	18.797
755.75	25.182
756.07	18.440
756.38	18.978
756.69	19.463
757.00	19.760
757.31	22.255
757.63	19.298
757.94	16.622
758.25	15.441
758.56	13.086
758.87	15.860
759.18	18.485
759.50	19.749
759.81	18.069
760.12	14.062
760.43	18.625
760.74	17.120
761.05	16.949
761.36	17.914
761.67	17.898
761.99	16.770
762.30	20.833
762.61	19.466
762.92	29.297
763.23	23.950
763.54	28.400
763.85	23.047
764.16	26.538
764.47	26.616
764.78	21.201
765.10	19.304
765.41	20.649
765.72	17.964
766.03	15.674
766.34	19.000
766.65	26.383
766.96	27.778
767.27	36.041
767.58	32.812
767.89	33.158
768.20	32.184
768.51	29.949
768.82	31.193
769.13	25.203
769.44	25.911
769.75	28.755
770.06	22.018
770.37	26.697
770.68	28.704
770.99	25.778
771.30	20.492
771.61	23.767
771.92	23.361
772.23	28.571
772.54	30.256
772.85	32.461
773.16	36.170
773.47	35.326
773.78	39.086
774.09	30.357
774.39	32.749
774.70	35.185
775.01	35.507
775.32	47.059
775.63	40.789
775.94	42.446
776.25	51.969
776.56	44.030
776.87	49.180
777.18	46.094
777.48	51.908
777.79	46.212
778.10	51.111
778.41	46.429
778.72	29.927
779.03	37.584
779.34	37.584
779.65	36.486
779.95	30.061
780.26	39.216
780.57	44.828
780.88	55.469
781.19	39.098
781.50	45.946
781.80	35.220
782.11	29.379
782.42	32.911
782.73	32.515
783.04	48.649
783.34	39.437
783.65	51.370
783.96	52.985
784.27	36.364
784.57	38.849
784.88	44.444
785.19	49.206
785.50	41.509
785.81	48.507
786.11	54.098
786.42	44.961
786.73	40.708
787.04	54.717
787.34	58.036
787.65	50.000
787.96	53.153
788.26	45.455
788.57	53.390
788.88	46.281
789.19	44.444
789.49	52.273
789.80	48.855
790.11	62.857
790.41	67.327
790.72	54.217
791.03	68.478
791.33	72.093
791.64	59.794
791.95	61.386
792.25	63.333
792.56	67.532
792.87	76.923
793.17	77.215
793.48	75.862
793.79	64.368
794.09	57.955
794.40	52.101
794.70	50.735
795.01	40.000
795.32	38.849
795.62	40.157
795.93	52.586
796.23	50.442
796.54	55.294
796.85	63.514
797.15	87.324
797.46	75.758
797.76	75.904
798.07	73.418
798.37	81.538
798.68	98.485
798.99	69.014
799.29	81.818
799.60	68.182
799.90	83.562
800.21	83.582
800.51	101.724
800.82	100.000
801.12	90.164
801.43	87.879
801.73	81.081
802.04	88.889
802.34	71.605
802.65	87.500
802.95	100.000
803.26	112.500
803.56	77.143
803.87	69.231
804.17	94.118
804.48	124.074
804.78	89.655
805.09	94.118
805.39	100.000
805.70	94.643
806.00	116.393
806.30	66.667
806.61	84.146
806.91	67.089
807.22	72.368
807.52	74.627
807.83	87.324
808.13	93.750
808.43	98.333
808.74	81.579
809.04	79.710
809.35	92.537
809.65	77.632
809.95	108.065
810.26	100.000
810.56	85.714
810.86	113.636
811.17	116.667
811.47	111.667
811.77	88.889
812.08	120.000
812.38	128.000
812.69	133.333
812.99	147.727
813.29	124.490
813.59	111.905
813.90	91.837
814.20	101.818
814.50	84.615
814.81	88.235
815.11	128.571
815.41	131.148
815.72	142.857
816.02	121.818
816.32	140.476
816.62	125.000
816.93	146.341
817.23	152.381
817.53	120.455
817.84	181.818
818.14	119.565
818.44	146.667
818.74	179.412
819.04	142.500
819.35	162.857
819.65	164.706
819.95	171.429
820.25	195.000
820.56	151.282
820.86	111.364
821.16	148.837
821.46	130.769
821.76	122.000
822.07	162.857
822.37	170.000
822.67	175.758
822.97	127.451
823.27	207.143
823.57	154.054
823.88	175.000
824.18	193.333
824.48	138.095
824.78	204.000
825.08	187.500
825.38	167.568
825.69	131.707
825.99	212.500
826.29	186.207
826.59	144.737
826.89	144.737
827.19	176.471
827.49	180.645
827.79	143.182
828.09	150.000
828.39	100.000
828.70	122.449
829.00	166.667
829.30	187.097
829.60	130.000
829.90	266.667
830.20	189.286
830.50	226.087
830.80	217.391
831.10	203.333
831.40	156.667
831.70	178.261
832.00	246.154
832.30	174.074
832.60	262.500
832.90	223.333
833.20	385.714
833.50	200.000
833.80	186.207
834.10	193.750
834.40	253.846
834.70	327.778
835.00	323.810
835.30	160.000
835.60	369.231
835.90	224.138
836.20	378.571
836.50	200.000
836.80	212.000
837.10	183.333
837.40	271.429
837.70	305.882
838.00	251.852
838.30	223.810
838.60	319.048
838.90	238.462
839.19	260.000
839.49	407.143
839.79	305.000
840.09	280.000
840.39	300.000
840.69	256.522
840.99	322.222
841.29	510.000
841.59	400.000
841.88	375.000
842.18	182.759
842.48	252.381
842.78	233.333
843.08	247.826
843.38	196.875
843.68	950.000
843.97	234.615
844.27	189.655
844.57	309.524
844.87	418.750
845.17	240.741
845.47	2066.667
845.76	522.222
846.06	358.824
846.36	600.000
846.66	428.571
846.96	300.000
847.25	436.364
847.55	418.182
847.85	282.609
848.15	600.000
848.44	385.714
848.74	255.556
849.04	376.471
849.34	640.000
849.63	273.684
849.93	472.727
850.23	1120.000
850.53	485.714
850.82	2600.000
851.12	-5500.000
851.42	5200.000
851.71	295.000
852.01	-1200.000
852.31	229.167
852.61	1700.000
852.90	309.524
853.20	256.000
853.50	347.059
853.79	285.714
854.09	279.167
854.39	406.250
854.68	194.595
854.98	187.097
855.28	186.667
855.57	213.793
855.87	214.815
856.17	278.947
856.46	373.333
856.76	288.235
857.05	210.345
857.35	254.167
857.65	473.333
857.94	247.826
858.24	226.923
858.53	295.000
858.83	290.909
859.13	420.000
859.42	0.000
859.72	677.778
860.01	454.545
860.31	263.636
860.60	326.316
860.90	243.478
861.20	566.667
861.49	550.000
861.79	-4800.000
862.08	837.500
862.38	280.952
862.67	423.077
862.97	347.059
863.26	644.444
863.56	322.222
863.85	483.333
864.15	675.000
864.44	360.000
864.74	1083.333
865.03	712.500
865.33	305.263
865.62	409.091
865.92	446.154
866.21	450.000
866.51	0.000
866.80	481.818
867.10	1120.000
867.39	500.000
867.69	500.000
867.98	331.579
868.27	600.000
868.57	315.789
868.86	-5000.000
869.16	337.500
869.45	2400.000
869.75	-4700.000
870.04	458.333
870.33	700.000
870.63	1125.000
870.92	2600.000
871.22	857.143
871.51	382.353
871.80	276.190
872.10	400.000
>>>>>End Processed Spectral Data<<<<<
