SpectraSuite Data File
++++++++++++++++++++++++++++++++++++
Date: Wed May 13 19:19:16 PDT 2015
User: schluterlab
Dark Spectrum Present: Yes
Reference Spectrum Present: Yes
Number of Sampled Component Spectra: 1
Spectrometers: USB2E3373
Integration Time (usec): 3000 (USB2E3373)
Spectra Averaged: 3 (USB2E3373)
Boxcar Smoothing: 0 (USB2E3373)
Correct for Electrical Dark: No (USB2E3373)
Strobe/Lamp Enabled: No (USB2E3373)
Correct for Detector Non-linearity: No (USB2E3373)
Correct for Stray Light: No (USB2E3373)
Number of Pixels in Processed Spectrum: 2048
>>>>>Begin Processed Spectral Data<<<<<
178.53	0.000
178.91	-1725.000
179.29	-1450.000
179.67	-288.889
180.04	-1700.000
180.42	2900.000
180.80	1280.000
181.18	-1225.000
181.56	814.286
181.94	0.000
182.31	-800.000
182.69	2133.333
183.07	-737.500
183.45	-666.667
183.83	600.000
184.20	-460.000
184.58	2400.000
184.96	5000.000
185.34	-1000.000
185.72	-687.500
186.09	-2450.000
186.47	2900.000
186.85	2500.000
187.23	5600.000
187.61	-2133.333
187.98	1650.000
188.36	572.727
188.74	563.636
189.12	-1080.000
189.49	580.000
189.87	-5300.000
190.25	-1300.000
190.63	464.286
191.00	461.538
191.38	1133.333
191.76	-1225.000
192.14	1750.000
192.51	825.000
192.89	1050.000
193.27	625.000
193.65	-1400.000
194.02	540.000
194.40	1240.000
194.78	570.000
195.15	500.000
195.53	720.000
195.91	-2350.000
196.29	375.000
196.66	342.105
197.04	-400.000
197.42	0.000
197.79	660.000
198.17	-4600.000
198.55	828.571
198.92	800.000
199.30	940.000
199.68	0.000
200.05	355.556
200.43	714.286
200.81	4900.000
201.18	1700.000
201.56	-2000.000
201.94	688.889
202.31	655.556
202.69	575.000
203.07	510.000
203.44	0.000
203.82	1300.000
204.19	785.714
204.57	471.429
204.95	712.500
205.32	1466.667
205.70	518.182
206.08	464.286
206.45	3000.000
206.83	437.500
207.20	983.333
207.58	880.000
207.96	411.111
208.33	812.500
208.71	-983.333
209.08	942.857
209.46	644.444
209.84	590.909
210.21	-1833.333
210.59	1350.000
210.96	-625.000
211.34	3000.000
211.71	590.000
212.09	900.000
212.46	0.000
212.84	1966.667
213.22	1625.000
213.59	-4300.000
213.97	966.667
214.34	900.000
214.72	600.000
215.09	1180.000
215.47	-2550.000
215.84	-3100.000
216.22	1866.667
216.59	414.286
216.97	1550.000
217.34	563.636
217.72	-783.333
218.09	0.000
218.47	-5400.000
218.84	711.111
219.22	914.286
219.59	1900.000
219.97	-800.000
220.34	1120.000
220.72	-2066.667
221.09	414.286
221.47	1425.000
221.84	-883.333
222.22	0.000
222.59	1450.000
222.97	-2950.000
223.34	1300.000
223.72	530.769
224.09	1240.000
224.46	2650.000
224.84	-5200.000
225.21	-1080.000
225.59	-5000.000
225.96	470.000
226.34	320.000
226.71	3100.000
227.08	725.000
227.46	740.000
227.83	-1050.000
228.21	-2750.000
228.58	755.556
228.95	-2650.000
229.33	-2450.000
229.70	2233.333
230.08	885.714
230.45	-1100.000
230.82	425.000
231.20	933.333
231.57	614.286
231.95	533.333
232.32	290.909
232.69	454.545
233.07	700.000
233.44	400.000
233.81	-1766.667
234.19	321.053
234.56	516.667
234.93	408.333
235.31	527.273
235.68	261.538
236.05	400.000
236.43	196.970
236.80	321.053
237.17	4400.000
237.55	257.143
237.92	217.857
238.29	290.476
238.67	170.968
239.04	196.552
239.41	141.667
239.79	113.043
240.16	133.333
240.53	138.636
240.91	103.922
241.28	112.000
241.65	98.000
242.02	95.652
242.40	79.032
242.77	78.333
243.14	81.720
243.51	68.539
243.89	62.353
244.26	54.444
244.63	60.215
245.00	54.255
245.38	55.446
245.75	47.664
246.12	44.037
246.49	51.825
246.87	58.400
247.24	44.615
247.61	43.571
247.98	35.948
248.36	32.432
248.73	36.306
249.10	35.669
249.47	32.768
249.84	32.086
250.22	26.738
250.59	31.361
250.96	27.273
251.33	33.649
251.70	34.158
252.08	26.190
252.45	26.906
252.82	28.261
253.19	27.234
253.56	28.627
253.94	27.801
254.31	24.609
254.68	25.385
255.05	23.616
255.42	19.512
255.79	20.956
256.16	27.076
256.54	21.555
256.91	18.861
257.28	13.669
257.65	20.792
258.02	18.323
258.39	19.558
258.76	19.064
259.14	19.643
259.51	17.933
259.88	17.702
260.25	21.752
260.62	17.341
260.99	15.839
261.36	19.219
261.73	16.905
262.10	15.407
262.47	17.746
262.85	19.777
263.22	14.815
263.59	16.239
263.96	13.462
264.33	15.405
264.70	17.105
265.07	15.345
265.44	13.889
265.81	14.112
266.18	15.075
266.55	13.171
266.92	14.251
267.29	17.130
267.66	13.761
268.03	15.000
268.40	14.720
268.77	10.979
269.14	15.315
269.51	14.898
269.88	13.287
270.25	14.898
270.62	12.360
270.99	15.054
271.36	14.163
271.73	10.514
272.10	11.304
272.47	13.978
272.84	13.636
273.21	14.465
273.58	10.699
273.95	11.111
274.32	11.983
274.69	14.561
275.06	11.024
275.43	13.404
275.80	10.822
276.17	11.609
276.54	12.890
276.91	11.660
277.28	10.352
277.65	13.540
278.02	11.180
278.39	13.672
278.76	12.545
279.13	11.509
279.50	10.987
279.87	11.355
280.23	11.976
280.60	11.605
280.97	12.384
281.34	11.681
281.71	12.182
282.08	9.789
282.45	10.182
282.82	11.545
283.19	8.913
283.56	12.456
283.92	11.168
284.29	9.877
284.66	12.160
285.03	9.765
285.40	8.979
285.77	11.448
286.14	10.017
286.51	10.667
286.87	12.479
287.24	10.749
287.61	9.310
287.98	11.201
288.35	9.350
288.72	10.592
289.08	8.920
289.45	9.226
289.82	9.268
290.19	8.320
290.56	8.882
290.93	7.855
291.29	7.975
291.66	10.472
292.03	11.628
292.40	10.573
292.77	8.728
293.13	9.552
293.50	8.309
293.87	8.889
294.24	10.074
294.60	6.987
294.97	10.174
295.34	9.309
295.71	10.227
296.08	7.835
296.44	8.391
296.81	8.322
297.18	7.859
297.55	6.332
297.91	7.124
298.28	8.166
298.65	9.661
299.02	8.169
299.38	8.234
299.75	6.873
300.12	7.407
300.48	7.125
300.85	7.275
301.22	7.898
301.59	7.197
301.95	7.305
302.32	7.445
302.69	7.766
303.05	6.424
303.42	5.556
303.79	6.002
304.15	5.361
304.52	6.489
304.89	7.201
305.25	6.265
305.62	9.173
305.99	7.674
306.35	6.488
306.72	7.623
307.09	6.659
307.45	6.757
307.82	6.250
308.19	6.733
308.55	6.688
308.92	6.230
309.29	6.230
309.65	5.090
310.02	6.554
310.38	7.204
310.75	6.969
311.12	6.346
311.48	7.001
311.85	6.604
312.22	6.348
312.58	6.341
312.95	7.497
313.31	6.505
313.68	6.133
314.05	7.890
314.41	6.834
314.78	6.344
315.14	6.951
315.51	5.664
315.87	6.436
316.24	7.448
316.61	6.140
316.97	5.969
317.34	5.382
317.70	6.692
318.07	5.486
318.43	5.382
318.80	6.654
319.16	6.497
319.53	5.629
319.89	6.571
320.26	7.100
320.62	6.250
320.99	7.172
321.35	6.667
321.72	6.571
322.08	7.700
322.45	6.866
322.81	6.783
323.18	6.936
323.54	6.030
323.91	6.509
324.27	5.736
324.64	4.101
325.00	6.222
325.37	7.188
325.73	7.181
326.10	6.620
326.46	6.183
326.83	6.903
327.19	6.490
327.56	5.314
327.92	6.124
328.29	7.276
328.65	5.801
329.01	6.318
329.38	5.458
329.74	6.741
330.11	5.655
330.47	6.795
330.84	7.813
331.20	5.829
331.56	6.881
331.93	5.370
332.29	6.744
332.66	7.788
333.02	7.313
333.38	6.594
333.75	6.774
334.11	6.762
334.48	7.010
334.84	6.158
335.20	5.909
335.57	7.253
335.93	5.804
336.29	5.861
336.66	7.484
337.02	6.425
337.38	7.222
337.75	5.080
338.11	6.804
338.47	5.893
338.84	6.416
339.20	5.229
339.56	6.569
339.93	4.000
340.29	6.250
340.65	6.328
341.02	6.195
341.38	7.117
341.74	5.965
342.11	6.812
342.47	5.815
342.83	5.993
343.20	6.234
343.56	6.066
343.92	6.053
344.28	7.228
344.65	6.191
345.01	5.640
345.37	5.489
345.73	5.753
346.10	6.309
346.46	5.932
346.82	5.437
347.19	6.266
347.55	5.337
347.91	5.825
348.27	6.163
348.63	6.522
349.00	6.230
349.36	5.337
349.72	5.774
350.08	6.078
350.45	5.614
350.81	5.605
351.17	6.645
351.53	5.569
351.89	5.116
352.26	6.314
352.62	6.175
352.98	5.429
353.34	5.505
353.70	5.074
354.07	6.129
354.43	5.397
354.79	4.988
355.15	4.629
355.51	6.235
355.87	6.041
356.24	5.863
356.60	5.613
356.96	5.229
357.32	5.397
357.68	5.669
358.04	6.176
358.40	6.492
358.77	5.869
359.13	4.893
359.49	5.961
359.85	4.603
360.21	4.944
360.57	5.603
360.93	5.538
361.29	5.064
361.66	5.418
362.02	5.522
362.38	5.779
362.74	5.283
363.10	4.737
363.46	4.402
363.82	5.291
364.18	5.360
364.54	5.498
364.90	5.737
365.26	5.147
365.62	5.698
365.98	5.040
366.35	4.728
366.71	5.423
367.07	4.370
367.43	5.588
367.79	6.067
368.15	6.106
368.51	5.087
368.87	4.711
369.23	4.828
369.59	4.779
369.95	4.779
370.31	5.342
370.67	5.580
371.03	5.993
371.39	5.102
371.75	5.441
372.11	4.196
372.47	5.865
372.83	5.548
373.19	5.275
373.55	5.248
373.91	5.744
374.27	4.467
374.63	4.655
374.99	5.226
375.35	4.327
375.71	4.935
376.07	5.967
376.42	3.714
376.78	5.235
377.14	5.360
377.50	4.967
377.86	4.455
378.22	5.183
378.58	3.697
378.94	4.211
379.30	3.817
379.66	4.759
380.02	4.791
380.38	4.189
380.74	5.282
381.09	4.707
381.45	5.347
381.81	4.975
382.17	4.522
382.53	4.403
382.89	4.321
383.25	4.628
383.61	5.081
383.97	4.753
384.32	5.490
384.68	4.213
385.04	3.995
385.40	3.591
385.76	4.054
386.12	3.756
386.48	4.468
386.83	4.169
387.19	4.515
387.55	4.700
387.91	4.293
388.27	4.231
388.62	4.487
388.98	3.563
389.34	4.568
389.70	4.537
390.06	5.133
390.42	4.086
390.77	4.771
391.13	4.722
391.49	5.013
391.85	4.456
392.20	2.902
392.56	4.672
392.92	3.590
393.28	3.373
393.64	4.736
393.99	4.704
394.35	4.715
394.71	4.266
395.07	4.112
395.42	3.399
395.78	5.153
396.14	4.966
396.50	4.699
396.85	4.832
397.21	4.747
397.57	4.712
397.92	3.726
398.28	3.587
398.64	5.078
399.00	3.917
399.35	4.005
399.71	3.704
400.07	4.967
400.42	4.663
400.78	5.066
401.14	3.537
401.49	4.000
401.85	4.053
402.21	4.311
402.57	3.640
402.92	4.981
403.28	4.247
403.63	4.517
403.99	2.994
404.35	4.727
404.70	3.477
405.06	4.019
405.42	4.741
405.77	4.286
406.13	4.910
406.49	4.672
406.84	4.194
407.20	3.487
407.55	4.276
407.91	5.400
408.27	4.148
408.62	4.696
408.98	3.922
409.34	4.797
409.69	4.581
410.05	5.081
410.40	3.853
410.76	4.301
411.11	5.006
411.47	4.920
411.83	4.704
412.18	3.711
412.54	4.234
412.89	4.940
413.25	4.191
413.60	4.324
413.96	4.372
414.31	4.982
414.67	4.119
415.03	4.834
415.38	4.253
415.74	4.502
416.09	5.095
416.45	3.748
416.80	4.098
417.16	4.826
417.51	5.043
417.87	4.303
418.22	5.174
418.58	4.842
418.93	4.607
419.29	4.392
419.64	4.786
420.00	4.695
420.35	5.275
420.71	4.961
421.06	4.415
421.42	4.678
421.77	4.372
422.12	3.987
422.48	3.292
422.83	4.310
423.19	4.972
423.54	4.817
423.90	4.870
424.25	4.634
424.61	4.524
424.96	4.490
425.31	4.485
425.67	4.101
426.02	4.457
426.38	4.457
426.73	4.740
427.09	4.985
427.44	4.428
427.79	4.888
428.15	5.298
428.50	4.623
428.85	5.185
429.21	4.086
429.56	4.510
429.92	4.328
430.27	3.873
430.62	3.738
430.98	4.463
431.33	4.794
431.68	4.450
432.04	4.526
432.39	3.598
432.74	4.189
433.10	4.188
433.45	4.490
433.80	3.991
434.16	4.380
434.51	4.105
434.86	4.447
435.22	4.058
435.57	4.863
435.92	4.506
436.28	5.042
436.63	5.353
436.98	3.721
437.34	5.188
437.69	4.667
438.04	3.935
438.39	4.299
438.75	5.113
439.10	4.358
439.45	4.604
439.81	4.653
440.16	4.291
440.51	4.335
440.86	4.806
441.22	4.060
441.57	3.822
441.92	4.504
442.27	4.521
442.63	4.476
442.98	4.507
443.33	4.783
443.68	4.027
444.03	4.295
444.39	3.846
444.74	4.600
445.09	4.528
445.44	4.483
445.79	4.602
446.15	5.241
446.50	4.416
446.85	4.214
447.20	4.488
447.55	4.467
447.91	4.578
448.26	4.396
448.61	4.014
448.96	5.426
449.31	4.949
449.66	4.446
450.02	4.457
450.37	4.365
450.72	5.133
451.07	4.205
451.42	4.802
451.77	5.285
452.12	5.081
452.47	5.348
452.83	4.662
453.18	5.440
453.53	5.318
453.88	4.430
454.23	4.423
454.58	5.451
454.93	6.039
455.28	4.426
455.63	4.915
455.98	4.881
456.34	4.334
456.69	5.072
457.04	5.635
457.39	4.208
457.74	4.295
458.09	4.888
458.44	4.618
458.79	4.284
459.14	4.797
459.49	5.254
459.84	4.044
460.19	4.007
460.54	4.572
460.89	4.663
461.24	4.614
461.59	5.288
461.94	4.994
462.29	5.697
462.64	4.978
462.99	5.140
463.34	6.000
463.69	5.128
464.04	5.275
464.39	5.449
464.74	5.288
465.09	4.765
465.44	4.654
465.79	4.698
466.14	4.433
466.49	4.449
466.84	4.962
467.19	5.250
467.54	5.062
467.89	4.142
468.24	5.294
468.59	5.067
468.94	4.398
469.29	5.720
469.64	5.957
469.99	5.819
470.34	4.888
470.68	5.891
471.03	5.510
471.38	5.907
471.73	5.796
472.08	5.395
472.43	5.528
472.78	4.937
473.13	5.841
473.48	5.556
473.83	4.817
474.17	4.729
474.52	4.653
474.87	5.196
475.22	4.585
475.57	4.460
475.92	4.355
476.27	4.622
476.61	4.799
476.96	4.398
477.31	3.977
477.66	4.322
478.01	4.496
478.36	4.918
478.70	3.842
479.05	4.739
479.40	4.606
479.75	4.474
480.10	3.579
480.45	4.379
480.79	3.822
481.14	3.816
481.49	4.794
481.84	3.749
482.19	4.180
482.53	4.037
482.88	4.188
483.23	4.252
483.58	3.913
483.92	4.217
484.27	3.355
484.62	4.009
484.97	3.745
485.31	3.219
485.66	3.097
486.01	2.524
486.36	2.514
486.70	2.471
487.05	2.842
487.40	2.605
487.75	2.875
488.09	3.336
488.44	3.302
488.79	3.653
489.13	4.087
489.48	3.670
489.83	3.453
490.17	3.814
490.52	3.543
490.87	4.297
491.22	4.275
491.56	3.872
491.91	3.909
492.26	4.180
492.60	4.240
492.95	3.648
493.30	4.065
493.64	3.640
493.99	4.039
494.34	4.487
494.68	4.075
495.03	4.605
495.37	4.421
495.72	3.850
496.07	4.037
496.41	4.204
496.76	3.958
497.11	4.638
497.45	3.959
497.80	3.983
498.14	3.720
498.49	4.146
498.84	4.458
499.18	4.048
499.53	3.704
499.87	3.868
500.22	4.286
500.56	4.369
500.91	3.510
501.26	4.362
501.60	4.699
501.95	3.987
502.29	4.171
502.64	4.004
502.98	4.021
503.33	3.702
503.67	4.176
504.02	4.397
504.36	4.118
504.71	4.055
505.06	4.096
505.40	4.327
505.75	3.954
506.09	4.276
506.44	4.292
506.78	4.286
507.13	4.493
507.47	4.646
507.82	4.357
508.16	4.103
508.51	4.515
508.85	4.320
509.19	4.133
509.54	4.286
509.88	4.379
510.23	4.422
510.57	5.108
510.92	4.816
511.26	4.214
511.61	4.512
511.95	3.862
512.30	4.083
512.64	4.084
512.98	4.930
513.33	4.711
513.67	4.216
514.02	4.329
514.36	5.079
514.70	4.815
515.05	4.685
515.39	4.936
515.74	4.561
516.08	5.254
516.42	4.772
516.77	4.738
517.11	3.718
517.46	5.135
517.80	4.820
518.14	4.806
518.49	5.251
518.83	5.227
519.17	4.908
519.52	4.188
519.86	5.305
520.20	4.855
520.55	4.907
520.89	5.292
521.23	5.308
521.58	5.162
521.92	5.021
522.26	4.759
522.61	4.922
522.95	5.034
523.29	4.321
523.64	5.061
523.98	5.422
524.32	4.885
524.66	5.111
525.01	5.331
525.35	4.957
525.69	5.172
526.04	4.860
526.38	5.064
526.72	4.969
527.06	5.085
527.41	3.899
527.75	5.659
528.09	5.267
528.43	4.716
528.78	4.978
529.12	5.273
529.46	5.144
529.80	5.631
530.15	5.421
530.49	5.477
530.83	5.759
531.17	5.940
531.51	5.707
531.86	4.516
532.20	5.737
532.54	5.189
532.88	5.263
533.22	5.497
533.57	5.309
533.91	5.298
534.25	5.407
534.59	5.247
534.93	5.473
535.27	4.768
535.62	5.250
535.96	5.273
536.30	4.895
536.64	5.988
536.98	5.441
537.32	5.398
537.66	5.667
538.01	6.188
538.35	5.947
538.69	6.765
539.03	5.653
539.37	4.984
539.71	3.953
540.05	5.621
540.39	5.980
540.73	4.851
541.07	6.035
541.42	4.697
541.76	6.452
542.10	5.433
542.44	4.636
542.78	5.534
543.12	5.054
543.46	6.098
543.80	5.400
544.14	5.263
544.48	5.841
544.82	5.516
545.16	5.075
545.50	5.656
545.84	4.772
546.18	5.320
546.52	5.437
546.86	5.567
547.20	6.069
547.54	5.745
547.88	6.059
548.22	6.102
548.56	6.038
548.90	4.673
549.24	5.455
549.58	5.798
549.92	5.701
550.26	5.611
550.60	5.947
550.94	6.408
551.28	4.974
551.62	5.248
551.96	5.754
552.30	6.280
552.64	5.882
552.98	5.627
553.32	5.732
553.66	5.658
554.00	6.177
554.34	6.142
554.68	6.724
555.02	6.276
555.36	6.820
555.69	5.683
556.03	5.922
556.37	6.207
556.71	5.662
557.05	5.882
557.39	6.088
557.73	5.716
558.07	6.019
558.41	5.644
558.75	5.878
559.08	6.339
559.42	6.122
559.76	6.176
560.10	5.996
560.44	5.870
560.78	5.589
561.12	5.475
561.45	6.258
561.79	6.196
562.13	5.366
562.47	5.601
562.81	5.788
563.15	5.953
563.48	6.034
563.82	5.219
564.16	5.821
564.50	5.078
564.84	4.930
565.17	5.084
565.51	5.048
565.85	5.711
566.19	5.385
566.52	5.826
566.86	5.063
567.20	5.307
567.54	5.479
567.88	4.454
568.21	5.450
568.55	4.853
568.89	4.718
569.23	4.234
569.56	4.534
569.90	4.566
570.24	4.055
570.57	3.978
570.91	3.814
571.25	3.830
571.59	4.242
571.92	3.658
572.26	3.466
572.60	4.024
572.93	3.748
573.27	4.052
573.61	3.992
573.95	3.876
574.28	3.844
574.62	3.256
574.96	3.584
575.29	3.274
575.63	3.532
575.97	3.437
576.30	3.744
576.64	3.083
576.98	3.306
577.31	3.142
577.65	3.127
577.98	3.076
578.32	3.078
578.66	3.501
578.99	3.470
579.33	3.776
579.67	3.576
580.00	3.237
580.34	3.322
580.67	3.403
581.01	3.643
581.35	3.170
581.68	3.255
582.02	3.009
582.35	3.255
582.69	3.184
583.02	3.285
583.36	3.274
583.70	3.472
584.03	3.840
584.37	3.979
584.70	3.344
585.04	3.669
585.37	3.705
585.71	3.665
586.04	3.745
586.38	3.683
586.72	3.645
587.05	3.586
587.39	3.483
587.72	3.839
588.06	3.789
588.39	4.060
588.73	3.989
589.06	3.895
589.40	4.242
589.73	4.048
590.07	4.626
590.40	3.982
590.73	4.372
591.07	4.762
591.40	4.133
591.74	5.195
592.07	4.625
592.41	4.919
592.74	4.045
593.08	4.297
593.41	4.081
593.75	4.122
594.08	3.989
594.41	4.631
594.75	4.436
595.08	4.474
595.42	4.694
595.75	4.060
596.09	4.769
596.42	5.108
596.75	4.686
597.09	5.368
597.42	4.384
597.75	4.269
598.09	4.826
598.42	4.167
598.76	4.297
599.09	4.067
599.42	4.221
599.76	4.356
600.09	4.299
600.42	3.871
600.76	4.071
601.09	4.408
601.42	4.756
601.76	4.440
602.09	4.466
602.42	4.936
602.76	5.159
603.09	4.799
603.42	4.803
603.76	4.802
604.09	4.304
604.42	4.607
604.76	5.314
605.09	4.937
605.42	4.746
605.75	4.677
606.09	4.351
606.42	4.414
606.75	4.770
607.09	5.232
607.42	4.450
607.75	4.304
608.08	4.386
608.42	5.065
608.75	4.644
609.08	5.134
609.41	4.807
609.75	4.955
610.08	5.184
610.41	4.655
610.74	4.825
611.07	4.842
611.41	5.545
611.74	5.128
612.07	5.331
612.40	5.509
612.73	5.737
613.07	5.119
613.40	5.582
613.73	5.087
614.06	5.376
614.39	5.821
614.72	6.158
615.06	5.462
615.39	4.352
615.72	5.419
616.05	5.316
616.38	5.725
616.71	5.226
617.05	5.418
617.38	5.773
617.71	5.886
618.04	6.370
618.37	5.855
618.70	5.600
619.03	6.645
619.36	5.906
619.69	5.986
620.03	6.456
620.36	7.353
620.69	6.644
621.02	5.605
621.35	6.108
621.68	5.997
622.01	6.656
622.34	6.808
622.67	6.084
623.00	6.456
623.33	5.718
623.66	6.862
623.99	5.817
624.32	5.706
624.65	6.215
624.99	5.028
625.32	6.155
625.65	6.912
625.98	6.841
626.31	6.921
626.64	7.347
626.97	7.232
627.30	7.232
627.63	7.137
627.96	6.560
628.29	7.524
628.62	8.051
628.95	9.151
629.28	7.847
629.61	8.066
629.94	6.857
630.26	7.054
630.59	8.484
630.92	7.759
631.25	7.009
631.58	8.008
631.91	7.809
632.24	7.911
632.57	8.709
632.90	7.785
633.23	8.501
633.56	8.023
633.89	8.607
634.22	8.286
634.55	8.876
634.88	7.784
635.20	10.394
635.53	10.241
635.86	8.540
636.19	8.588
636.52	9.919
636.85	9.507
637.18	8.641
637.51	8.983
637.83	7.028
638.16	9.463
638.49	9.194
638.82	9.987
639.15	9.000
639.48	8.853
639.81	8.311
640.13	9.896
640.46	8.725
640.79	11.096
641.12	8.666
641.45	9.777
641.77	9.278
642.10	10.234
642.43	9.910
642.76	11.765
643.09	9.509
643.41	10.167
643.74	11.420
644.07	10.823
644.40	13.344
644.73	11.024
645.05	11.410
645.38	10.111
645.71	9.179
646.04	10.963
646.36	13.523
646.69	13.211
647.02	11.735
647.35	11.512
647.67	12.212
648.00	13.496
648.33	9.901
648.66	10.606
648.98	12.744
649.31	10.314
649.64	9.716
649.96	10.134
650.29	11.216
650.62	10.518
650.94	11.994
651.27	13.007
651.60	12.146
651.92	11.661
652.25	9.772
652.58	10.592
652.90	11.374
653.23	10.169
653.56	9.606
653.88	11.094
654.21	12.006
654.54	10.396
654.86	10.748
655.19	10.405
655.52	5.081
655.84	3.069
656.17	3.396
656.49	4.599
656.82	4.702
657.15	3.791
657.47	2.800
657.80	2.239
658.13	2.371
658.45	3.837
658.78	4.151
659.10	4.942
659.43	4.935
659.75	5.270
660.08	6.709
660.41	8.659
660.73	10.165
661.06	10.987
661.38	13.455
661.71	11.731
662.03	15.187
662.36	10.736
662.68	14.659
663.01	15.354
663.33	13.800
663.66	13.025
663.98	13.391
664.31	14.076
664.63	13.360
664.96	10.060
665.28	13.115
665.61	10.331
665.93	13.481
666.26	13.590
666.58	14.226
666.91	14.165
667.23	12.809
667.56	12.311
667.88	14.530
668.21	13.859
668.53	14.751
668.86	13.636
669.18	17.697
669.50	16.087
669.83	17.211
670.15	14.667
670.48	15.468
670.80	14.655
671.13	15.499
671.45	12.128
671.77	12.424
672.10	11.460
672.42	12.014
672.75	11.609
673.07	11.444
673.39	11.754
673.72	10.547
674.04	13.725
674.37	14.757
674.69	10.020
675.01	11.925
675.34	15.195
675.66	16.211
675.98	15.682
676.31	13.655
676.63	15.499
676.95	12.998
677.28	10.981
677.60	15.385
677.92	14.135
678.25	13.552
678.57	15.139
678.89	11.824
679.22	11.788
679.54	13.168
679.86	15.229
680.18	12.343
680.51	11.879
680.83	14.235
681.15	13.962
681.48	14.745
681.80	13.733
682.12	13.410
682.44	10.251
682.77	14.868
683.09	16.309
683.41	14.191
683.73	15.894
684.06	15.083
684.38	14.873
684.70	15.891
685.02	14.634
685.34	13.736
685.67	11.189
685.99	8.763
686.31	11.604
686.63	13.074
686.96	10.536
687.28	12.816
687.60	10.688
687.92	12.797
688.24	12.167
688.56	14.056
688.89	14.315
689.21	15.721
689.53	15.031
689.85	14.412
690.17	12.629
690.49	15.711
690.82	13.785
691.14	15.402
691.46	12.236
691.78	14.056
692.10	14.669
692.42	14.571
692.74	12.448
693.06	14.468
693.39	15.195
693.71	15.284
694.03	12.842
694.35	15.368
694.67	13.501
694.99	16.829
695.31	15.441
695.63	15.550
695.95	14.425
696.27	13.452
696.59	14.508
696.91	15.544
697.23	12.676
697.56	14.286
697.88	11.656
698.20	12.500
698.52	12.903
698.84	13.140
699.16	16.590
699.48	15.202
699.80	14.251
700.12	20.260
700.44	18.568
700.76	15.193
701.08	18.391
701.40	15.922
701.72	19.242
702.04	23.011
702.36	16.147
702.68	16.714
703.00	18.560
703.32	17.021
703.64	17.962
703.96	16.156
704.28	16.860
704.60	22.874
704.91	19.585
705.23	19.062
705.55	19.269
705.87	22.259
706.19	18.021
706.51	16.511
706.83	18.788
707.15	18.487
707.47	15.657
707.79	15.725
708.11	17.580
708.43	14.286
708.74	14.796
709.06	14.805
709.38	16.010
709.70	18.605
710.02	20.178
710.34	20.000
710.66	17.015
710.98	21.875
711.29	19.477
711.61	21.239
711.93	16.346
712.25	21.222
712.57	20.221
712.89	22.837
713.20	22.188
713.52	20.724
713.84	20.886
714.16	15.854
714.48	20.690
714.80	20.061
715.11	19.885
715.43	18.398
715.75	22.899
716.07	20.128
716.39	17.868
716.70	21.595
717.02	22.662
717.34	18.728
717.66	23.134
717.97	21.514
718.29	21.852
718.61	22.628
718.93	23.162
719.24	20.415
719.56	22.034
719.88	24.746
720.20	25.000
720.51	22.648
720.83	21.561
721.15	19.403
721.46	22.340
721.78	22.939
722.10	26.038
722.42	21.053
722.73	23.221
723.05	20.082
723.37	20.243
723.68	28.185
724.00	24.797
724.32	26.210
724.63	28.049
724.95	21.339
725.27	27.935
725.58	23.438
725.90	22.628
726.22	27.547
726.53	23.611
726.85	21.502
727.16	22.776
727.48	19.149
727.80	18.939
728.11	27.174
728.43	20.000
728.74	23.297
729.06	22.993
729.38	25.368
729.69	22.776
730.01	18.089
730.32	20.833
730.64	22.742
730.96	18.812
731.27	22.517
731.59	20.795
731.90	19.534
732.22	17.391
732.53	17.647
732.85	20.833
733.16	21.543
733.48	20.930
733.80	20.455
734.11	21.975
734.43	18.343
734.74	18.286
735.06	16.905
735.37	20.231
735.69	18.471
736.00	21.569
736.32	20.872
736.63	22.045
736.95	21.086
737.26	15.646
737.58	19.355
737.89	20.401
738.21	23.549
738.52	19.643
738.83	23.019
739.15	21.923
739.46	21.898
739.78	20.486
740.09	21.846
740.41	23.871
740.72	24.739
741.04	22.222
741.35	21.250
741.66	29.778
741.98	23.113
742.29	31.100
742.61	31.897
742.92	26.244
743.23	24.359
743.55	26.800
743.86	28.947
744.18	31.858
744.49	25.837
744.80	31.455
745.12	33.182
745.43	25.551
745.74	30.180
746.06	26.606
746.37	25.561
746.68	28.054
747.00	34.259
747.31	30.476
747.62	26.106
747.94	26.432
748.25	25.106
748.56	26.872
748.88	24.752
749.19	35.500
749.50	27.907
749.82	26.016
750.13	25.306
750.44	24.818
750.75	25.614
751.07	26.045
751.38	21.603
751.69	23.105
752.01	22.932
752.32	21.661
752.63	26.241
752.94	23.770
753.26	30.000
753.57	23.577
753.88	27.344
754.19	22.857
754.51	26.389
754.82	20.939
755.13	26.038
755.44	23.684
755.75	20.803
756.07	19.858
756.38	20.803
756.69	22.819
757.00	19.162
757.31	17.804
757.63	19.006
757.94	15.550
758.25	18.137
758.56	17.284
758.87	19.086
759.18	19.091
759.50	19.436
759.81	17.757
760.12	17.812
760.43	20.917
760.74	17.391
761.05	19.774
761.36	17.647
761.67	20.739
761.99	20.807
762.30	23.264
762.61	24.427
762.92	28.906
763.23	24.790
763.54	31.200
763.85	23.438
764.16	27.308
764.47	22.814
764.78	21.555
765.10	17.089
765.41	23.009
765.72	20.060
766.03	20.690
766.34	24.333
766.65	24.255
766.96	28.205
767.27	29.949
767.58	34.896
767.89	34.211
768.20	39.080
768.51	30.964
768.82	29.358
769.13	27.642
769.44	25.101
769.75	22.747
770.06	27.064
770.37	28.507
770.68	27.778
770.99	28.444
771.30	22.541
771.61	27.803
771.92	25.820
772.23	33.613
772.54	25.641
772.85	34.555
773.16	31.915
773.47	28.804
773.78	36.041
774.09	30.952
774.39	38.012
774.70	36.420
775.01	36.957
775.32	41.176
775.63	34.868
775.94	37.410
776.25	43.307
776.56	46.269
776.87	55.738
777.18	48.437
777.48	48.855
777.79	46.970
778.10	46.667
778.41	43.750
778.72	43.796
779.03	44.966
779.34	43.624
779.65	30.405
779.95	39.877
780.26	43.137
780.57	42.069
780.88	44.531
781.19	50.376
781.50	47.297
781.80	39.623
782.11	28.249
782.42	35.443
782.73	35.583
783.04	44.595
783.34	38.028
783.65	42.466
783.96	47.015
784.27	37.762
784.57	33.813
784.88	43.519
785.19	57.143
785.50	46.226
785.81	50.000
786.11	44.262
786.42	54.264
786.73	53.982
787.04	60.377
787.34	47.321
787.65	68.000
787.96	49.550
788.26	50.413
788.57	54.237
788.88	47.934
789.19	49.306
789.49	48.485
789.80	53.435
790.11	63.810
790.41	61.386
790.72	67.470
791.03	68.478
791.33	58.140
791.64	48.454
791.95	69.307
792.25	62.222
792.56	71.429
792.87	88.462
793.17	84.810
793.48	68.966
793.79	73.563
794.09	60.227
794.40	46.218
794.70	49.265
795.01	44.444
795.32	50.360
795.62	43.307
795.93	48.276
796.23	43.363
796.54	52.941
796.85	77.027
797.15	91.549
797.46	78.788
797.76	81.928
798.07	82.278
798.37	76.923
798.68	81.818
798.99	69.014
799.29	72.727
799.60	68.182
799.90	83.562
800.21	89.552
800.51	94.828
800.82	96.491
801.12	98.361
801.43	74.242
801.73	74.324
802.04	101.587
802.34	88.889
802.65	100.000
802.95	106.780
803.26	93.750
803.56	77.143
803.87	69.231
804.17	92.647
804.48	118.519
804.78	82.759
805.09	92.647
805.39	103.846
805.70	101.786
806.00	103.279
806.30	71.212
806.61	78.049
806.91	73.418
807.22	75.000
807.52	73.134
807.83	88.732
808.13	73.438
808.43	80.000
808.74	73.684
809.04	73.913
809.35	77.612
809.65	80.263
809.95	109.677
810.26	81.356
810.56	98.413
810.86	138.636
811.17	157.143
811.47	111.667
811.77	96.296
812.08	100.000
812.38	118.000
812.69	175.000
812.99	172.727
813.29	126.531
813.59	121.429
813.90	142.857
814.20	94.545
814.50	100.000
814.81	94.118
815.11	95.918
815.41	98.361
815.72	166.667
816.02	112.727
816.32	130.952
816.62	135.000
816.93	134.146
817.23	138.095
817.53	152.273
817.84	196.970
818.14	136.957
818.44	142.222
818.74	176.471
819.04	140.000
819.35	148.571
819.65	161.765
819.95	175.000
820.25	210.000
820.56	166.667
820.86	125.000
821.16	141.860
821.46	128.205
821.76	138.000
822.07	180.000
822.37	132.500
822.67	160.606
822.97	107.843
823.27	235.714
823.57	164.865
823.88	157.500
824.18	193.333
824.48	157.143
824.78	220.000
825.08	216.667
825.38	154.054
825.69	126.829
825.99	237.500
826.29	158.621
826.59	189.474
826.89	152.632
827.19	208.824
827.49	180.645
827.79	156.818
828.09	143.182
828.39	104.255
828.70	144.898
829.00	192.593
829.30	161.290
829.60	142.500
829.90	260.000
830.20	214.286
830.50	178.261
830.80	252.174
831.10	213.333
831.40	193.333
831.70	217.391
832.00	257.692
832.30	211.111
832.60	300.000
832.90	250.000
833.20	385.714
833.50	209.677
833.80	200.000
834.10	190.625
834.40	234.615
834.70	383.333
835.00	328.571
835.30	188.571
835.60	292.308
835.90	227.586
836.20	414.286
836.50	206.897
836.80	192.000
837.10	186.111
837.40	242.857
837.70	311.765
838.00	207.407
838.30	238.095
838.60	323.810
838.90	226.923
839.19	310.000
839.49	421.429
839.79	420.000
840.09	285.000
840.39	266.667
840.69	269.565
840.99	300.000
841.29	530.000
841.59	350.000
841.88	318.750
842.18	206.897
842.48	280.952
842.78	206.667
843.08	252.174
843.38	193.750
843.68	966.667
843.97	288.462
844.27	210.345
844.57	314.286
844.87	425.000
845.17	207.407
845.47	1700.000
845.76	555.556
846.06	335.294
846.36	625.000
846.66	400.000
846.96	350.000
847.25	490.909
847.55	454.545
847.85	308.696
848.15	530.000
848.44	400.000
848.74	322.222
849.04	382.353
849.34	570.000
849.63	284.211
849.93	463.636
850.23	1280.000
850.53	435.714
850.82	2550.000
851.12	-4200.000
851.42	4800.000
851.71	280.000
852.01	-1266.667
852.31	275.000
852.61	2033.333
852.90	242.857
853.20	268.000
853.50	317.647
853.79	309.524
854.09	237.500
854.39	312.500
854.68	172.973
854.98	219.355
855.28	193.333
855.57	206.897
855.87	248.148
856.17	252.632
856.46	313.333
856.76	247.059
857.05	186.207
857.35	241.667
857.65	373.333
857.94	221.739
858.24	242.308
858.53	310.000
858.83	263.636
859.13	393.333
859.42	0.000
859.72	588.889
860.01	472.727
860.31	304.545
860.60	284.211
860.90	234.783
861.20	533.333
861.49	525.000
861.79	-5300.000
862.08	612.500
862.38	304.762
862.67	353.846
862.97	317.647
863.26	566.667
863.56	316.667
863.85	416.667
864.15	700.000
864.44	366.667
864.74	850.000
865.03	762.500
865.33	336.842
865.62	536.364
865.92	430.769
866.21	425.000
866.51	0.000
866.80	527.273
867.10	1220.000
867.39	430.769
867.69	445.455
867.98	289.474
868.27	536.364
868.57	294.737
868.86	-4800.000
869.16	356.250
869.45	2550.000
869.75	-4300.000
870.04	500.000
870.33	642.857
870.63	1125.000
870.92	2750.000
871.22	814.286
871.51	388.235
871.80	238.095
872.10	357.143
>>>>>End Processed Spectral Data<<<<<
