SpectraSuite Data File
++++++++++++++++++++++++++++++++++++
Date: Sat May 16 11:26:41 PDT 2015
User: schluterlab
Dark Spectrum Present: Yes
Reference Spectrum Present: Yes
Number of Sampled Component Spectra: 1
Spectrometers: USB2E3373
Integration Time (usec): 3000 (USB2E3373)
Spectra Averaged: 3 (USB2E3373)
Boxcar Smoothing: 0 (USB2E3373)
Correct for Electrical Dark: No (USB2E3373)
Strobe/Lamp Enabled: No (USB2E3373)
Correct for Detector Non-linearity: No (USB2E3373)
Correct for Stray Light: No (USB2E3373)
Number of Pixels in Processed Spectrum: 2048
>>>>>Begin Processed Spectral Data<<<<<
178.53	0.000
178.91	93.333
179.29	600.000
179.67	-1600.000
180.04	-115.385
180.42	500.000
180.80	175.000
181.18	250.000
181.56	-125.000
181.94	1100.000
182.31	275.000
182.69	-53.846
183.07	-933.333
183.45	1650.000
183.83	33.333
184.20	-285.714
184.58	-87.500
184.96	-50.000
185.34	118.750
185.72	-450.000
186.09	150.000
186.47	-87.500
186.85	-187.500
187.23	-187.500
187.61	-450.000
187.98	-75.000
188.36	-237.500
188.74	-162.500
189.12	1600.000
189.49	328.571
189.87	-158.333
190.25	500.000
190.63	-35.714
191.00	-222.222
191.38	260.000
191.76	-6.667
192.14	540.000
192.51	20.000
192.89	-666.667
193.27	0.000
193.65	-155.556
194.02	-171.429
194.40	300.000
194.78	0.000
195.15	-200.000
195.53	-109.091
195.91	-266.667
196.29	300.000
196.66	-400.000
197.04	2300.000
197.42	150.000
197.79	-40.000
198.17	-400.000
198.55	-550.000
198.92	-700.000
199.30	237.500
199.68	-550.000
200.05	-155.556
200.43	-211.111
200.81	-1500.000
201.18	-166.667
201.56	300.000
201.94	-46.667
202.31	13.636
202.69	-60.000
203.07	-100.000
203.44	566.667
203.82	-383.333
204.19	-500.000
204.57	-200.000
204.95	-1900.000
205.32	-12.500
205.70	1300.000
206.08	-2400.000
206.45	22.222
206.83	-1200.000
207.20	-500.000
207.58	-933.333
207.96	-833.333
208.33	-200.000
208.71	-66.667
209.08	180.000
209.46	-114.286
209.84	850.000
210.21	0.000
210.59	50.000
210.96	1300.000
211.34	-316.667
211.71	-166.667
212.09	175.000
212.46	1150.000
212.84	-2700.000
213.22	466.667
213.59	175.000
213.97	-177.778
214.34	180.000
214.72	-90.000
215.09	-333.333
215.47	-166.667
215.84	-60.000
216.22	-180.000
216.59	33.333
216.97	-300.000
217.34	900.000
217.72	-128.571
218.09	-183.333
218.47	-271.429
218.84	271.429
219.22	-71.429
219.59	0.000
219.97	257.143
220.34	625.000
220.72	175.000
221.09	-7.692
221.47	0.000
221.84	400.000
222.22	-800.000
222.59	600.000
222.97	-162.500
223.34	-500.000
223.72	-500.000
224.09	-50.000
224.46	-550.000
224.84	-78.571
225.21	-385.714
225.59	-72.727
225.96	-187.500
226.34	-300.000
226.71	-200.000
227.08	-50.000
227.46	2300.000
227.83	-357.143
228.21	-225.000
228.58	450.000
228.95	31.250
229.33	-1800.000
229.70	-440.000
230.08	-1250.000
230.45	8.333
230.82	-50.000
231.20	-900.000
231.57	-700.000
231.95	1000.000
232.32	-19.048
232.69	-133.333
233.07	-157.143
233.44	-1050.000
233.81	-86.667
234.19	-77.778
234.56	-137.500
234.93	9.375
235.31	-42.857
235.68	-135.714
236.05	0.000
236.43	-50.000
236.80	-25.806
237.17	-29.167
237.55	-4.762
237.92	-81.818
238.29	0.000
238.67	17.647
239.04	30.556
239.41	-3.226
239.79	5.128
240.16	-7.143
240.53	14.545
240.91	48.718
241.28	25.455
241.65	20.000
242.02	8.197
242.40	14.754
242.77	24.242
243.14	16.949
243.51	17.143
243.89	10.127
244.26	22.472
244.63	22.105
245.00	28.421
245.38	31.356
245.75	19.469
246.12	26.400
246.49	32.283
246.87	23.577
247.24	27.966
247.61	24.576
247.98	28.873
248.36	28.671
248.73	23.418
249.10	34.395
249.47	28.655
249.84	29.545
250.22	22.619
250.59	37.853
250.96	34.555
251.33	38.863
251.70	27.885
252.08	31.754
252.45	30.806
252.82	30.000
253.19	29.787
253.56	29.435
253.94	27.004
254.31	28.326
254.68	34.553
255.05	31.048
255.42	35.317
255.79	30.466
256.16	30.980
256.54	34.926
256.91	35.227
257.28	27.839
257.65	29.433
258.02	34.906
258.39	33.110
258.76	27.703
259.14	30.556
259.51	37.377
259.88	28.049
260.25	33.540
260.62	32.154
260.99	29.080
261.36	32.622
261.73	30.058
262.10	36.389
262.47	32.764
262.85	34.857
263.22	34.384
263.59	31.385
263.96	35.652
264.33	33.875
264.70	36.740
265.07	34.341
265.44	34.884
265.81	32.300
266.18	32.658
266.55	36.520
266.92	35.264
267.29	33.414
267.66	33.580
268.03	34.783
268.40	32.629
268.77	33.494
269.14	34.107
269.51	36.782
269.88	30.046
270.25	29.371
270.62	31.579
270.99	31.757
271.36	34.499
271.73	33.184
272.10	34.783
272.47	33.778
272.84	35.556
273.21	34.633
273.58	34.725
273.95	33.553
274.32	34.615
274.69	37.637
275.06	36.196
275.43	35.268
275.80	36.456
276.17	33.264
276.54	31.976
276.91	35.597
277.28	34.888
277.65	33.884
278.02	33.194
278.39	33.595
278.76	35.060
279.13	35.375
279.50	33.002
279.87	30.655
280.23	31.781
280.60	30.417
280.97	33.786
281.34	33.269
281.71	32.692
282.08	34.274
282.45	32.790
282.82	33.333
283.19	33.091
283.56	34.799
283.92	34.452
284.29	33.086
284.66	32.014
285.03	30.838
285.40	34.871
285.77	32.456
286.14	32.130
286.51	31.972
286.87	33.394
287.24	32.253
287.61	32.397
287.98	32.062
288.35	29.091
288.72	30.560
289.08	29.153
289.45	28.451
289.82	29.239
290.19	28.243
290.56	26.612
290.93	28.140
291.29	29.984
291.66	30.113
292.03	28.885
292.40	29.217
292.77	28.106
293.13	30.244
293.50	28.678
293.87	28.374
294.24	28.507
294.60	25.758
294.97	27.314
295.34	27.111
295.71	27.530
296.08	26.267
296.44	25.608
296.81	26.211
297.18	25.775
297.55	28.249
297.91	26.499
298.28	26.301
298.65	25.802
299.02	25.668
299.38	24.599
299.75	24.864
300.12	24.615
300.48	24.936
300.85	23.329
301.22	25.744
301.59	23.407
301.95	26.196
302.32	22.947
302.69	25.214
303.05	22.711
303.42	24.000
303.79	22.847
304.15	24.171
304.52	23.921
304.89	24.793
305.25	23.321
305.62	23.619
305.99	25.324
306.35	24.306
306.72	22.779
307.09	24.404
307.45	21.566
307.82	21.564
308.19	22.819
308.55	22.549
308.92	22.986
309.29	22.919
309.65	21.315
310.02	22.894
310.38	21.405
310.75	22.951
311.12	21.901
311.48	22.338
311.85	21.215
312.22	22.760
312.58	21.668
312.95	20.285
313.31	23.277
313.68	22.915
314.05	23.046
314.41	21.932
314.78	21.179
315.14	22.113
315.51	22.492
315.87	22.362
316.24	21.380
316.61	22.649
316.97	21.891
317.34	21.484
317.70	20.779
318.07	21.642
318.43	21.067
318.80	22.441
319.16	20.356
319.53	21.711
319.89	20.508
320.26	22.157
320.62	19.808
320.99	20.697
321.35	20.493
321.72	21.290
322.08	21.563
322.45	19.901
322.81	20.077
323.18	21.230
323.54	21.165
323.91	21.038
324.27	20.627
324.64	20.384
325.00	21.204
325.37	22.353
325.73	22.222
326.10	19.841
326.46	20.490
326.83	21.277
327.19	20.517
327.56	21.210
327.92	21.410
328.29	21.385
328.65	19.182
329.01	20.936
329.38	19.982
329.74	21.062
330.11	20.127
330.47	19.891
330.84	22.090
331.20	21.119
331.56	19.325
331.93	20.337
332.29	18.995
332.66	19.842
333.02	19.367
333.38	19.892
333.75	20.748
334.11	19.467
334.48	20.124
334.84	20.560
335.20	20.124
335.57	20.036
335.93	20.591
336.29	20.726
336.66	18.943
337.02	19.820
337.38	19.340
337.75	19.754
338.11	19.499
338.47	18.149
338.84	20.508
339.20	20.035
339.56	20.499
339.93	19.400
340.29	19.486
340.65	18.619
341.02	18.718
341.38	17.692
341.74	19.052
342.11	17.918
342.47	18.970
342.83	18.556
343.20	20.154
343.56	18.531
343.92	20.284
344.28	19.092
344.65	18.977
345.01	17.899
345.37	19.934
345.73	17.840
346.10	18.479
346.46	19.253
346.82	18.845
347.19	18.652
347.55	17.817
347.91	18.898
348.27	18.298
348.63	20.032
349.00	19.650
349.36	17.955
349.72	19.427
350.08	17.642
350.45	19.149
350.81	17.197
351.17	18.650
351.53	17.979
351.89	19.483
352.26	16.667
352.62	18.664
352.98	18.987
353.34	18.625
353.70	18.224
354.07	18.804
354.43	19.368
354.79	17.591
355.15	18.371
355.51	17.344
355.87	18.735
356.24	17.156
356.60	18.453
356.96	19.015
357.32	17.973
357.68	18.008
358.04	18.168
358.40	17.324
358.77	17.311
359.13	18.822
359.49	18.216
359.85	18.216
360.21	18.417
360.57	19.127
360.93	18.519
361.29	19.283
361.66	18.140
362.02	17.382
362.38	18.048
362.74	17.802
363.10	18.436
363.46	18.590
363.82	18.149
364.18	18.017
364.54	18.513
364.90	18.169
365.26	17.832
365.62	19.102
365.98	18.777
366.35	17.958
366.71	17.548
367.07	18.137
367.43	18.119
367.79	18.900
368.15	18.208
368.51	18.392
368.87	18.132
369.23	18.386
369.59	18.125
369.95	18.887
370.31	19.198
370.67	17.354
371.03	18.294
371.39	18.741
371.75	19.671
372.11	18.364
372.47	18.366
372.83	17.942
373.19	18.643
373.55	18.086
373.91	18.492
374.27	17.591
374.63	17.598
374.99	19.750
375.35	18.035
375.71	19.311
376.07	18.138
376.42	17.152
376.78	18.039
377.14	18.169
377.50	18.762
377.86	18.075
378.22	18.907
378.58	17.727
378.94	17.448
379.30	18.708
379.66	18.336
380.02	18.241
380.38	17.825
380.74	18.171
381.09	18.278
381.45	18.198
381.81	17.786
382.17	17.607
382.53	17.751
382.89	18.541
383.25	18.423
383.61	18.986
383.97	18.187
384.32	17.897
384.68	18.924
385.04	17.452
385.40	18.442
385.76	18.232
386.12	18.488
386.48	18.564
386.83	19.264
387.19	17.932
387.55	18.413
387.91	17.605
388.27	17.491
388.62	18.089
388.98	18.110
389.34	18.788
389.70	18.270
390.06	18.521
390.42	19.038
390.77	18.044
391.13	17.764
391.49	18.465
391.85	18.454
392.20	17.415
392.56	18.204
392.92	18.939
393.28	18.829
393.64	17.559
393.99	18.400
394.35	19.039
394.71	17.851
395.07	18.581
395.42	17.938
395.78	18.165
396.14	19.377
396.50	18.471
396.85	18.569
397.21	19.077
397.57	18.784
397.92	18.326
398.28	18.111
398.64	18.322
399.00	18.933
399.35	18.658
399.71	19.164
400.07	18.866
400.42	18.796
400.78	17.531
401.14	17.904
401.49	18.927
401.85	19.402
402.21	18.236
402.57	18.871
402.92	19.257
403.28	18.199
403.63	18.574
403.99	18.894
404.35	18.357
404.70	18.315
405.06	18.339
405.42	18.020
405.77	18.156
406.13	18.342
406.49	18.574
406.84	18.176
407.20	19.258
407.55	18.113
407.91	17.940
408.27	18.934
408.62	18.701
408.98	18.921
409.34	18.586
409.69	18.589
410.05	18.739
410.40	18.455
410.76	18.317
411.11	18.267
411.47	17.967
411.83	19.010
412.18	19.369
412.54	17.511
412.89	18.530
413.25	17.591
413.60	18.104
413.96	18.053
414.31	18.349
414.67	17.905
415.03	18.241
415.38	18.998
415.74	18.428
416.09	18.286
416.45	17.593
416.80	18.010
417.16	17.741
417.51	18.582
417.87	17.864
418.22	18.900
418.58	18.678
418.93	18.332
419.29	18.256
419.64	17.023
420.00	18.591
420.35	18.332
420.71	18.427
421.06	18.047
421.42	17.916
421.77	19.207
422.12	18.579
422.48	18.332
422.83	18.052
423.19	18.207
423.54	17.752
423.90	17.409
424.25	17.930
424.61	19.180
424.96	19.075
425.31	18.670
425.67	18.223
426.02	17.728
426.38	18.330
426.73	18.586
427.09	17.953
427.44	18.523
427.79	18.605
428.15	18.073
428.50	18.475
428.85	17.806
429.21	18.428
429.56	18.438
429.92	18.637
430.27	17.996
430.62	18.130
430.98	18.035
431.33	18.410
431.68	18.177
432.04	18.635
432.39	18.462
432.74	17.806
433.10	18.796
433.45	16.753
433.80	18.085
434.16	18.861
434.51	18.904
434.86	19.566
435.22	18.486
435.57	18.054
435.92	17.937
436.28	18.338
436.63	17.807
436.98	17.468
437.34	18.547
437.69	17.911
438.04	18.264
438.39	18.231
438.75	18.452
439.10	18.268
439.45	19.010
439.81	18.434
440.16	17.490
440.51	18.882
440.86	18.913
441.22	16.915
441.57	17.947
441.92	18.056
442.27	17.911
442.63	18.240
442.98	17.607
443.33	17.738
443.68	18.551
444.03	18.517
444.39	18.111
444.74	18.337
445.09	16.941
445.44	18.289
445.79	18.154
446.15	18.237
446.50	17.420
446.85	17.958
447.20	18.335
447.55	18.564
447.91	18.136
448.26	17.430
448.61	17.827
448.96	18.207
449.31	17.249
449.66	17.401
450.02	18.061
450.37	17.681
450.72	18.079
451.07	18.479
451.42	17.596
451.77	18.133
452.12	18.355
452.47	17.695
452.83	17.647
453.18	17.837
453.53	18.221
453.88	18.900
454.23	17.533
454.58	17.713
454.93	17.569
455.28	17.591
455.63	18.243
455.98	18.313
456.34	17.154
456.69	17.886
457.04	18.500
457.39	18.361
457.74	17.602
458.09	18.213
458.44	18.303
458.79	17.545
459.14	17.627
459.49	18.532
459.84	17.650
460.19	18.138
460.54	17.665
460.89	17.433
461.24	17.851
461.59	18.523
461.94	18.905
462.29	18.225
462.64	17.325
462.99	17.938
463.34	17.421
463.69	16.858
464.04	18.043
464.39	17.622
464.74	17.730
465.09	18.400
465.44	18.443
465.79	18.556
466.14	18.124
466.49	18.595
466.84	17.827
467.19	18.454
467.54	17.468
467.89	17.509
468.24	17.518
468.59	18.301
468.94	17.106
469.29	17.609
469.64	16.981
469.99	17.691
470.34	17.635
470.68	17.442
471.03	19.064
471.38	16.597
471.73	18.601
472.08	17.470
472.43	17.825
472.78	17.467
473.13	16.832
473.48	17.613
473.83	17.990
474.17	17.325
474.52	18.031
474.87	18.415
475.22	16.932
475.57	17.389
475.92	18.143
476.27	17.657
476.61	17.634
476.96	18.390
477.31	18.299
477.66	17.377
478.01	17.666
478.36	17.339
478.70	17.619
479.05	18.388
479.40	17.617
479.75	17.329
480.10	17.808
480.45	17.021
480.79	18.164
481.14	17.461
481.49	17.570
481.84	17.614
482.19	18.090
482.53	17.992
482.88	17.798
483.23	17.559
483.58	18.131
483.92	18.251
484.27	17.457
484.62	18.056
484.97	17.732
485.31	17.312
485.66	18.203
486.01	17.776
486.36	18.521
486.70	19.043
487.05	17.563
487.40	18.296
487.75	17.799
488.09	17.727
488.44	18.031
488.79	17.580
489.13	17.916
489.48	17.822
489.83	17.948
490.17	17.632
490.52	18.116
490.87	17.829
491.22	17.795
491.56	17.824
491.91	18.034
492.26	17.972
492.60	17.269
492.95	18.087
493.30	17.723
493.64	17.113
493.99	16.922
494.34	17.762
494.68	17.978
495.03	17.925
495.37	17.699
495.72	18.075
496.07	17.973
496.41	18.851
496.76	17.900
497.11	17.899
497.45	17.912
497.80	17.159
498.14	17.583
498.49	17.730
498.84	17.573
499.18	18.080
499.53	17.584
499.87	17.230
500.22	17.255
500.56	17.809
500.91	17.143
501.26	17.904
501.60	18.199
501.95	17.923
502.29	16.769
502.64	18.482
502.98	17.585
503.33	17.293
503.67	18.582
504.02	17.431
504.36	18.137
504.71	17.680
505.06	17.274
505.40	17.764
505.75	17.480
506.09	17.543
506.44	18.145
506.78	17.863
507.13	17.405
507.47	18.623
507.82	17.656
508.16	17.617
508.51	17.105
508.85	17.598
509.19	17.949
509.54	18.182
509.88	18.670
510.23	18.553
510.57	17.619
510.92	18.367
511.26	17.597
511.61	17.603
511.95	17.619
512.30	17.647
512.64	16.416
512.98	17.382
513.33	18.396
513.67	17.309
514.02	17.338
514.36	17.950
514.70	18.053
515.05	18.125
515.39	17.416
515.74	18.906
516.08	17.983
516.42	18.414
516.77	17.620
517.11	17.963
517.46	18.660
517.80	17.569
518.14	17.995
518.49	18.051
518.83	16.973
519.17	18.709
519.52	17.698
519.86	17.264
520.20	18.215
520.55	17.538
520.89	16.969
521.23	17.399
521.58	17.304
521.92	18.366
522.26	18.286
522.61	16.984
522.95	16.401
523.29	18.558
523.64	16.802
523.98	18.269
524.32	17.976
524.66	17.764
525.01	16.827
525.35	17.397
525.69	17.502
526.04	17.950
526.38	18.141
526.72	16.858
527.06	16.732
527.41	17.492
527.75	17.294
528.09	17.273
528.43	16.918
528.78	18.279
529.12	17.798
529.46	17.268
529.80	17.495
530.15	18.416
530.49	18.305
530.83	18.140
531.17	17.643
531.51	17.950
531.86	18.104
532.20	17.679
532.54	18.048
532.88	18.379
533.22	16.912
533.57	18.734
533.91	17.478
534.25	18.353
534.59	17.801
534.93	17.362
535.27	17.873
535.62	19.246
535.96	18.358
536.30	17.670
536.64	17.663
536.98	18.362
537.32	17.484
537.66	18.126
538.01	18.557
538.35	18.784
538.69	18.249
539.03	18.619
539.37	18.430
539.71	17.211
540.05	17.409
540.39	18.006
540.73	18.106
541.07	18.033
541.42	16.678
541.76	17.874
542.10	17.893
542.44	17.388
542.78	18.318
543.12	18.058
543.46	16.849
543.80	18.662
544.14	17.730
544.48	18.307
544.82	17.388
545.16	18.377
545.50	17.833
545.84	18.150
546.18	17.961
546.52	17.496
546.86	18.661
547.20	18.003
547.54	17.700
547.88	18.447
548.22	17.628
548.56	18.036
548.90	17.251
549.24	17.449
549.58	17.643
549.92	19.011
550.26	19.725
550.60	18.563
550.94	17.372
551.28	18.886
551.62	17.578
551.96	18.090
552.30	18.049
552.64	17.945
552.98	18.150
553.32	16.306
553.66	17.808
554.00	18.266
554.34	17.690
554.68	17.982
555.02	18.741
555.36	17.110
555.69	16.762
556.03	17.754
556.37	17.212
556.71	18.182
557.05	18.699
557.39	17.595
557.73	18.016
558.07	17.558
558.41	17.726
558.75	17.338
559.08	16.265
559.42	18.147
559.76	18.098
560.10	17.673
560.44	17.558
560.78	17.606
561.12	17.736
561.45	17.945
561.79	18.606
562.13	17.532
562.47	18.557
562.81	18.175
563.15	17.845
563.48	18.314
563.82	17.985
564.16	17.377
564.50	18.078
564.84	17.791
565.17	18.302
565.51	18.579
565.85	18.729
566.19	19.038
566.52	18.330
566.86	17.826
567.20	18.947
567.54	18.842
567.88	18.593
568.21	17.562
568.55	18.452
568.89	18.091
569.23	18.279
569.56	18.201
569.90	19.040
570.24	18.940
570.57	17.504
570.91	18.497
571.25	18.936
571.59	19.232
571.92	18.571
572.26	18.694
572.60	18.492
572.93	18.365
573.27	17.622
573.61	18.469
573.95	19.053
574.28	18.799
574.62	19.166
574.96	18.295
575.29	18.547
575.63	18.370
575.97	18.501
576.30	18.553
576.64	18.538
576.98	18.736
577.31	18.260
577.65	18.900
577.98	18.622
578.32	18.733
578.66	18.572
578.99	18.844
579.33	19.040
579.67	18.590
580.00	18.378
580.34	18.444
580.67	18.632
581.01	18.122
581.35	18.536
581.68	18.779
582.02	18.891
582.35	18.659
582.69	18.797
583.02	19.032
583.36	18.637
583.70	18.484
584.03	19.046
584.37	18.430
584.70	18.900
585.04	18.329
585.37	18.067
585.71	18.384
586.04	18.845
586.38	17.990
586.72	18.546
587.05	18.522
587.39	17.919
587.72	18.503
588.06	18.569
588.39	18.741
588.73	19.101
589.06	19.277
589.40	19.100
589.73	18.626
590.07	17.990
590.40	18.229
590.73	18.113
591.07	18.402
591.40	18.501
591.74	17.724
592.07	18.153
592.41	17.834
592.74	18.563
593.08	18.675
593.41	18.454
593.75	18.398
594.08	18.296
594.41	18.447
594.75	18.837
595.08	18.647
595.42	19.075
595.75	17.898
596.09	18.161
596.42	18.781
596.75	17.809
597.09	18.744
597.42	17.765
597.75	18.158
598.09	17.714
598.42	18.648
598.76	17.899
599.09	17.403
599.42	18.070
599.76	18.120
600.09	18.588
600.42	18.762
600.76	18.380
601.09	18.458
601.42	18.283
601.76	18.419
602.09	18.528
602.42	18.395
602.76	17.906
603.09	18.589
603.42	18.533
603.76	18.468
604.09	18.823
604.42	18.360
604.76	17.924
605.09	18.219
605.42	19.371
605.75	18.370
606.09	18.348
606.42	17.721
606.75	18.592
607.09	18.350
607.42	18.354
607.75	19.205
608.08	18.843
608.42	17.692
608.75	17.196
609.08	18.363
609.41	17.738
609.75	17.601
610.08	18.284
610.41	17.735
610.74	19.101
611.07	19.320
611.41	18.457
611.74	18.406
612.07	18.475
612.40	18.177
612.73	18.686
613.07	17.777
613.40	18.172
613.73	17.929
614.06	18.506
614.39	17.869
614.72	17.709
615.06	18.315
615.39	17.960
615.72	17.979
616.05	17.780
616.38	17.876
616.71	18.438
617.05	18.094
617.38	18.514
617.71	17.752
618.04	17.950
618.37	17.484
618.70	17.862
619.03	17.129
619.36	17.195
619.69	18.593
620.03	18.044
620.36	16.948
620.69	17.732
621.02	17.352
621.35	17.581
621.68	17.377
622.01	17.718
622.34	18.245
622.67	16.406
623.00	18.516
623.33	17.612
623.66	17.504
623.99	17.218
624.32	16.890
624.65	18.764
624.99	17.326
625.32	17.814
625.65	17.249
625.98	17.136
626.31	17.210
626.64	17.238
626.97	17.808
627.30	18.383
627.63	16.839
627.96	16.449
628.29	17.463
628.62	16.810
628.95	17.520
629.28	17.105
629.61	16.290
629.94	17.202
630.26	16.501
630.59	19.497
630.92	17.017
631.25	16.835
631.58	15.979
631.91	15.532
632.24	16.667
632.57	17.000
632.90	17.701
633.23	15.771
633.56	15.673
633.89	17.099
634.22	16.293
634.55	16.947
634.88	17.291
635.20	15.231
635.53	15.776
635.86	15.995
636.19	15.140
636.52	16.487
636.85	15.283
637.18	16.250
637.51	17.720
637.83	16.245
638.16	15.658
638.49	16.414
638.82	16.088
639.15	17.769
639.48	15.824
639.81	17.151
640.13	14.865
640.46	16.382
640.79	16.667
641.12	16.784
641.45	16.786
641.77	14.970
642.10	15.710
642.43	15.326
642.76	15.433
643.09	15.714
643.41	17.143
643.74	18.442
644.07	15.601
644.40	15.073
644.73	16.172
645.05	15.025
645.38	16.722
645.71	16.151
646.04	15.798
646.36	18.325
646.69	13.322
647.02	14.982
647.35	16.426
647.67	13.686
648.00	15.817
648.33	17.201
648.66	13.710
648.98	15.924
649.31	16.923
649.64	16.094
649.96	17.268
650.29	15.082
650.62	16.523
650.94	16.695
651.27	14.211
651.60	15.052
651.92	17.637
652.25	14.023
652.58	13.969
652.90	15.570
653.23	16.774
653.56	15.886
653.88	16.066
654.21	17.617
654.54	15.781
654.86	15.088
655.19	15.616
655.52	17.611
655.84	18.945
656.17	21.359
656.49	28.930
656.82	29.944
657.15	21.735
657.47	16.095
657.80	12.236
658.13	13.953
658.45	18.634
658.78	17.661
659.10	17.260
659.43	16.779
659.75	16.758
660.08	15.937
660.41	15.121
660.73	13.861
661.06	14.058
661.38	15.536
661.71	14.340
662.03	15.121
662.36	14.286
662.68	13.502
663.01	15.499
663.33	15.873
663.66	16.953
663.98	14.063
664.31	14.765
664.63	15.929
664.96	14.100
665.28	13.666
665.61	13.531
665.93	18.519
666.26	17.611
666.58	16.840
666.91	14.254
667.23	15.351
667.56	12.698
667.88	15.837
668.21	12.673
668.53	14.486
668.86	17.321
669.18	16.438
669.50	12.383
669.83	14.842
670.15	13.229
670.48	11.916
670.80	12.528
671.13	12.415
671.45	13.063
671.77	14.561
672.10	15.187
672.42	13.838
672.75	15.818
673.07	13.333
673.39	13.843
673.72	14.764
674.04	14.862
674.37	10.515
674.69	15.779
675.01	13.404
675.34	13.449
675.66	15.551
675.98	13.436
676.31	16.290
676.63	14.253
676.95	13.717
677.28	12.761
677.60	15.385
677.92	15.198
678.25	13.786
678.57	15.226
678.89	14.256
679.22	14.256
679.54	15.779
679.86	14.400
680.18	14.449
680.51	13.780
680.83	13.333
681.15	14.258
681.48	15.213
681.80	14.919
682.12	15.493
682.44	12.967
682.77	14.502
683.09	17.191
683.41	14.159
683.73	11.416
684.06	16.774
684.38	16.109
684.70	12.963
685.02	15.157
685.34	15.205
685.67	14.394
685.99	15.123
686.31	16.158
686.63	15.071
686.96	14.233
687.28	13.680
687.60	16.211
687.92	11.089
688.24	14.961
688.56	14.830
688.89	16.026
689.21	14.442
689.53	16.322
689.85	15.145
690.17	15.695
690.49	18.245
690.82	12.771
691.14	12.500
691.46	16.408
691.78	12.996
692.10	14.619
692.42	14.222
692.74	14.163
693.06	14.157
693.39	13.199
693.71	12.867
694.03	15.983
694.35	15.801
694.67	12.530
694.99	13.811
695.31	14.031
695.63	14.286
695.95	15.633
696.27	14.214
696.59	13.369
696.91	15.449
697.23	11.979
697.56	12.981
697.88	12.838
698.20	15.632
698.52	13.677
698.84	17.476
699.16	16.429
699.48	12.250
699.80	17.293
700.12	16.121
700.44	17.039
700.76	13.411
701.08	12.209
701.40	12.085
701.72	12.963
702.04	16.346
702.36	15.964
702.68	12.575
703.00	13.913
703.32	12.894
703.64	12.941
703.96	13.081
704.28	16.568
704.60	11.392
704.91	8.889
705.23	8.414
705.55	10.135
705.87	13.993
706.19	10.417
706.51	12.500
706.83	17.049
707.15	12.420
707.47	19.559
707.79	14.175
708.11	10.941
708.43	16.708
708.74	11.688
709.06	13.092
709.38	11.494
709.70	10.000
710.02	17.485
710.34	13.201
710.66	9.206
710.98	15.457
711.29	10.645
711.61	11.502
711.93	12.131
712.25	13.289
712.57	12.195
712.89	14.748
713.20	16.151
713.52	10.075
713.84	15.302
714.16	13.115
714.48	11.111
714.80	11.692
715.11	15.850
715.43	16.265
715.75	14.953
716.07	10.492
716.39	11.371
716.70	15.331
717.02	13.704
717.34	15.267
717.66	14.523
717.97	13.115
718.29	11.765
718.61	10.714
718.93	15.412
719.24	6.250
719.56	12.075
719.88	12.000
720.20	9.738
720.51	13.158
720.83	8.835
721.15	13.525
721.46	12.941
721.78	13.410
722.10	15.200
722.42	9.917
722.73	9.960
723.05	9.237
723.37	12.941
723.68	9.717
724.00	11.789
724.32	13.992
724.63	8.714
724.95	17.769
725.27	14.912
725.58	6.034
725.90	9.524
726.22	17.712
726.53	13.308
726.85	7.843
727.16	17.669
727.48	13.077
727.80	9.016
728.11	13.866
728.43	16.116
728.74	10.938
729.06	15.909
729.38	7.782
729.69	9.449
730.01	15.354
730.32	7.570
730.64	12.821
730.96	13.433
731.27	10.000
731.59	14.148
731.90	11.350
732.22	14.417
732.53	17.219
732.85	13.758
733.16	13.043
733.48	8.014
733.80	9.609
734.11	12.759
734.43	12.925
734.74	16.024
735.06	14.734
735.37	16.208
735.69	13.226
736.00	13.468
736.32	14.570
736.63	7.241
736.95	17.029
737.26	11.589
737.58	13.309
737.89	14.337
738.21	11.654
738.52	11.923
738.83	15.625
739.15	14.103
739.46	10.887
739.78	11.888
740.09	10.140
740.41	12.238
740.72	10.949
741.04	11.508
741.35	4.762
741.66	13.889
741.98	17.619
742.29	11.268
742.61	15.508
742.92	14.953
743.23	9.211
743.55	8.108
743.86	14.667
744.18	8.571
744.49	14.778
744.80	13.198
745.12	17.010
745.43	15.075
745.74	16.019
746.06	10.244
746.37	14.537
746.68	8.458
747.00	10.471
747.31	8.654
747.62	7.834
747.94	13.100
748.25	13.023
748.56	12.381
748.88	2.174
749.19	15.493
749.50	15.196
749.82	15.556
750.13	11.894
750.44	16.260
750.75	9.600
751.07	11.071
751.38	9.225
751.69	6.870
752.01	12.692
752.32	9.728
752.63	10.000
752.94	12.698
753.26	12.174
753.57	12.500
753.88	10.776
754.19	8.299
754.51	8.203
754.82	14.625
755.13	13.580
755.44	9.504
755.75	11.934
756.07	10.040
756.38	9.766
756.69	13.357
757.00	11.150
757.31	12.752
757.63	12.461
757.94	14.162
758.25	11.628
758.56	15.364
758.87	12.500
759.18	11.667
759.50	13.523
759.81	9.489
760.12	10.135
760.43	15.210
760.74	15.000
761.05	14.888
761.36	13.772
761.67	15.976
761.99	11.613
762.30	15.217
762.61	12.075
762.92	14.798
763.23	6.161
763.54	8.889
763.85	14.768
764.16	12.245
764.47	15.254
764.78	14.232
765.10	17.986
765.41	12.258
765.72	16.352
766.03	5.654
766.34	15.789
766.65	10.931
766.96	8.500
767.27	13.021
767.58	6.395
767.89	9.032
768.20	9.816
768.51	4.372
768.82	14.054
769.13	8.500
769.44	15.789
769.75	10.823
770.06	9.633
770.37	8.451
770.68	9.896
770.99	13.366
771.30	9.709
771.61	11.574
771.92	9.957
772.23	12.617
772.54	10.638
772.85	5.325
773.16	10.976
773.47	11.446
773.78	17.582
774.09	3.333
774.39	9.877
774.70	6.711
775.01	10.870
775.32	4.478
775.63	-9.091
775.94	8.271
776.25	10.714
776.56	6.557
776.87	13.274
777.18	8.850
777.48	2.727
777.79	0.870
778.10	8.257
778.41	12.712
778.72	9.917
779.03	1.493
779.34	15.038
779.65	13.072
779.95	10.145
780.26	1.361
780.57	4.310
780.88	9.259
781.19	1.010
781.50	9.600
781.80	13.072
782.11	12.821
782.42	13.253
782.73	1.460
783.04	6.757
783.34	13.636
783.65	5.426
783.96	11.382
784.27	5.983
784.57	2.439
784.88	3.252
785.19	4.386
785.50	-1.031
785.81	4.762
786.11	-5.882
786.42	4.545
786.73	1.802
787.04	13.861
787.34	6.667
787.65	6.667
787.96	-6.863
788.26	6.306
788.57	13.710
788.88	6.250
789.19	5.128
789.49	4.202
789.80	4.274
790.11	8.850
790.41	3.030
790.72	13.208
791.03	-18.056
791.33	-2.632
791.64	3.226
791.95	4.000
792.25	-11.429
792.56	13.415
792.87	10.204
793.17	-1.316
793.48	-12.162
793.79	-8.451
794.09	-6.329
794.40	0.000
794.70	-3.738
795.01	-9.649
795.32	1.818
795.62	3.571
795.93	10.309
796.23	-8.791
796.54	-2.105
796.85	0.000
797.15	-15.278
797.46	-4.110
797.76	-7.042
798.07	1.250
798.37	13.235
798.68	2.857
798.99	1.429
799.29	-3.947
799.60	18.333
799.90	-22.222
800.21	-14.063
800.51	-1.587
800.82	-4.918
801.12	1.754
801.43	-4.225
801.73	-13.559
802.04	26.230
802.34	-5.455
802.65	-5.769
802.95	-18.519
803.26	-30.000
803.56	-5.769
803.87	-26.316
804.17	-3.226
804.48	3.077
804.78	-12.821
805.09	-20.930
805.39	-40.625
805.70	-5.660
806.00	5.263
806.30	17.568
806.61	1.471
806.91	7.407
807.22	4.000
807.52	-8.955
807.83	9.677
808.13	-12.698
808.43	-23.636
808.74	0.000
809.04	-28.302
809.35	8.219
809.65	12.281
809.95	2.941
810.26	7.843
810.56	-14.000
810.86	2.041
811.17	-20.000
811.47	-30.769
811.77	-29.032
812.08	-47.368
812.38	-16.667
812.69	-26.087
812.99	0.000
813.29	-2.381
813.59	-88.889
813.90	-23.404
814.20	-9.302
814.50	-16.667
814.81	-8.333
815.11	-21.951
815.41	-56.667
815.72	-8.571
816.02	-47.222
816.32	-2.564
816.62	-5.405
816.93	-41.176
817.23	-10.870
817.53	-29.412
817.84	0.000
818.14	-50.000
818.44	-27.586
818.74	-16.129
819.04	-66.667
819.35	-16.667
819.65	-48.000
819.95	-6.667
820.25	-28.000
820.56	-15.789
820.86	-32.500
821.16	-23.404
821.46	-1.724
821.76	-7.692
822.07	-42.500
822.37	-34.884
822.67	-40.000
822.97	-29.730
823.27	-21.622
823.57	0.000
823.88	-32.432
824.18	-90.476
824.48	3.846
824.78	-123.077
825.08	-26.087
825.38	4.167
825.69	-41.667
825.99	-45.000
826.29	-56.757
826.59	-76.471
826.89	8.000
827.19	-34.286
827.49	13.158
827.79	-25.000
828.09	-43.333
828.39	-4.348
828.70	-41.379
829.00	-37.931
829.30	-22.222
829.60	3.125
829.90	-88.889
830.20	-15.385
830.50	-71.429
830.80	-53.571
831.10	-2.564
831.40	-114.286
831.70	-26.471
832.00	-25.000
832.30	-42.105
832.60	-31.250
832.90	-133.333
833.20	-105.882
833.50	-166.667
833.80	-86.667
834.10	-25.000
834.40	-33.333
834.70	0.000
835.00	-30.769
835.30	-70.833
835.60	-20.690
835.90	-77.778
836.20	-181.818
836.50	-166.667
836.80	2.857
837.10	11.429
837.40	-41.176
837.70	-200.000
838.00	-50.000
838.30	-18.750
838.60	-52.381
838.90	-20.000
839.19	-60.870
839.49	4.348
839.79	-72.222
840.09	-47.826
840.39	-59.091
840.69	-125.000
840.99	-31.579
841.29	-125.000
841.59	-78.571
841.88	-105.556
842.18	4.167
842.48	-58.824
842.78	-24.138
843.08	-100.000
843.38	-38.462
843.68	-300.000
843.97	-84.615
844.27	-145.455
844.57	-300.000
844.87	-48.000
845.17	-280.000
845.47	-92.857
845.76	-177.778
846.06	0.000
846.36	-400.000
846.66	-90.000
846.96	-36.842
847.25	-12.500
847.55	-50.000
847.85	-66.667
848.15	-60.000
848.44	42.308
848.74	-5.263
849.04	700.000
849.34	-166.667
849.63	-63.158
849.93	0.000
850.23	-120.000
850.53	-42.857
850.82	-28.000
851.12	-52.632
851.42	-850.000
851.71	-14.286
852.01	-50.000
852.31	-82.353
852.61	-60.000
852.90	-42.857
853.20	-350.000
853.50	-55.556
853.79	-47.368
854.09	-60.000
854.39	-35.714
854.68	-52.174
854.98	-216.667
855.28	-34.483
855.57	-100.000
855.87	-50.000
856.17	-86.667
856.46	10.345
856.76	-66.667
857.05	-117.647
857.35	-246.154
857.65	-145.455
857.94	-7.407
858.24	-92.857
858.53	-114.286
858.83	-108.333
859.13	-188.889
859.42	-14.286
859.72	-225.000
860.01	-533.333
860.31	50.000
860.60	-540.000
860.90	-144.444
861.20	-125.000
861.49	-128.571
861.79	-17.647
862.08	-800.000
862.38	-125.000
862.67	-69.231
862.97	-64.706
863.26	-35.000
863.56	-76.471
863.85	533.333
864.15	-80.000
864.44	-123.077
864.74	-35.000
865.03	-200.000
865.33	-333.333
865.62	-76.471
865.92	-600.000
866.21	-100.000
866.51	-150.000
866.80	-700.000
867.10	-633.333
867.39	-41.176
867.69	-8.696
867.98	-200.000
868.27	-240.000
868.57	-56.250
868.86	-190.909
869.16	-58.824
869.45	-133.333
869.75	-128.571
870.04	1600.000
870.33	-25.000
870.63	-240.000
870.92	-166.667
871.22	-150.000
871.51	-145.455
871.80	0.000
872.10	-120.000
>>>>>End Processed Spectral Data<<<<<
