SpectraSuite Data File
++++++++++++++++++++++++++++++++++++
Date: Sat May 16 11:45:44 PDT 2015
User: schluterlab
Dark Spectrum Present: Yes
Reference Spectrum Present: Yes
Number of Sampled Component Spectra: 1
Spectrometers: USB2E3373
Integration Time (usec): 3000 (USB2E3373)
Spectra Averaged: 3 (USB2E3373)
Boxcar Smoothing: 0 (USB2E3373)
Correct for Electrical Dark: No (USB2E3373)
Strobe/Lamp Enabled: No (USB2E3373)
Correct for Detector Non-linearity: No (USB2E3373)
Correct for Stray Light: No (USB2E3373)
Number of Pixels in Processed Spectrum: 2048
>>>>>Begin Processed Spectral Data<<<<<
178.53	0.000
178.91	166.667
179.29	566.667
179.67	-1700.000
180.04	-69.231
180.42	-200.000
180.80	425.000
181.18	600.000
181.56	-137.500
181.94	2200.000
182.31	375.000
182.69	-53.846
183.07	-500.000
183.45	900.000
183.83	466.667
184.20	-285.714
184.58	-262.500
184.96	-500.000
185.34	137.500
185.72	-550.000
186.09	366.667
186.47	-275.000
186.85	-187.500
187.23	-100.000
187.61	-200.000
187.98	-225.000
188.36	-187.500
188.74	-87.500
189.12	1700.000
189.49	228.571
189.87	-16.667
190.25	450.000
190.63	-21.429
191.00	-211.111
191.38	360.000
191.76	-46.667
192.14	480.000
192.51	-180.000
192.89	-500.000
193.27	0.000
193.65	-177.778
194.02	-257.143
194.40	600.000
194.78	-40.000
195.15	-1600.000
195.53	-118.182
195.91	-416.667
196.29	220.000
196.66	-600.000
197.04	1400.000
197.42	-75.000
197.79	-13.333
198.17	-233.333
198.55	-250.000
198.92	-600.000
199.30	162.500
199.68	-750.000
200.05	-133.333
200.43	-133.333
200.81	-500.000
201.18	-191.667
201.56	300.000
201.94	-6.667
202.31	-4.545
202.69	-70.000
203.07	-10.000
203.44	500.000
203.82	-433.333
204.19	-150.000
204.57	-350.000
204.95	-1400.000
205.32	6.250
205.70	2400.000
206.08	-2600.000
206.45	-55.556
206.83	-800.000
207.20	-150.000
207.58	-733.333
207.96	-566.667
208.33	-237.500
208.71	-166.667
209.08	130.000
209.46	-271.429
209.84	850.000
210.21	0.000
210.59	5.000
210.96	1300.000
211.34	-316.667
211.71	-100.000
212.09	375.000
212.46	1250.000
212.84	-1900.000
213.22	900.000
213.59	75.000
213.97	-88.889
214.34	90.000
214.72	-70.000
215.09	-166.667
215.47	-216.667
215.84	-200.000
216.22	-100.000
216.59	-20.000
216.97	-525.000
217.34	1450.000
217.72	-100.000
218.09	-250.000
218.47	-128.571
218.84	271.429
219.22	-100.000
219.59	0.000
219.97	314.286
220.34	650.000
220.72	162.500
221.09	-84.615
221.47	0.000
221.84	166.667
222.22	-400.000
222.59	2000.000
222.97	-175.000
223.34	-300.000
223.72	-533.333
224.09	-78.571
224.46	-325.000
224.84	-142.857
225.21	-185.714
225.59	-72.727
225.96	-125.000
226.34	-128.571
226.71	-244.444
227.08	40.000
227.46	2200.000
227.83	-142.857
228.21	-112.500
228.58	450.000
228.95	-87.500
229.33	-500.000
229.70	-120.000
230.08	-750.000
230.45	16.667
230.82	-100.000
231.20	-1200.000
231.57	-600.000
231.95	2200.000
232.32	23.810
232.69	-211.111
233.07	-314.286
233.44	-1500.000
233.81	-80.000
234.19	-66.667
234.56	-150.000
234.93	-21.875
235.31	-328.571
235.68	-171.429
236.05	-52.941
236.43	-72.727
236.80	-58.065
237.17	-75.000
237.55	-33.333
237.92	-81.818
238.29	-42.857
238.67	8.824
239.04	-13.889
239.41	-41.935
239.79	-46.154
240.16	-16.667
240.53	-5.455
240.91	-17.949
241.28	-16.364
241.65	21.538
242.02	6.557
242.40	-11.475
242.77	12.121
243.14	-20.339
243.51	-4.286
243.89	-18.987
244.26	-6.742
244.63	11.579
245.00	4.211
245.38	4.237
245.75	7.080
246.12	4.000
246.49	4.724
246.87	4.065
247.24	0.000
247.61	6.780
247.98	9.155
248.36	4.895
248.73	5.063
249.10	1.274
249.47	7.018
249.84	7.386
250.22	5.357
250.59	10.169
250.96	3.665
251.33	8.531
251.70	7.212
252.08	7.109
252.45	1.422
252.82	5.238
253.19	8.085
253.56	11.290
253.94	6.751
254.31	7.296
254.68	8.943
255.05	8.468
255.42	11.111
255.79	7.168
256.16	7.059
256.54	8.456
256.91	14.015
257.28	6.227
257.65	6.028
258.02	13.522
258.39	11.037
258.76	7.095
259.14	7.407
259.51	8.197
259.88	12.195
260.25	11.801
260.62	8.039
260.99	5.045
261.36	8.232
261.73	8.092
262.10	9.722
262.47	9.687
262.85	12.857
263.22	8.023
263.59	8.615
263.96	9.855
264.33	10.298
264.70	9.945
265.07	8.791
265.44	9.302
265.81	7.494
266.18	7.595
266.55	10.049
266.92	12.594
267.29	10.412
267.66	9.383
268.03	10.628
268.40	11.502
268.77	9.880
269.14	8.817
269.51	9.655
269.88	8.716
270.25	10.490
270.62	9.153
270.99	9.459
271.36	9.790
271.73	12.332
272.10	8.696
272.47	10.444
272.84	10.667
273.21	11.239
273.58	10.769
273.95	8.772
274.32	8.371
274.69	12.254
275.06	10.838
275.43	8.929
275.80	14.868
276.17	9.833
276.54	10.591
276.91	9.053
277.28	10.142
277.65	8.678
278.02	9.603
278.39	9.823
278.76	10.359
279.13	10.277
279.50	8.748
279.87	9.091
280.23	9.109
280.60	7.753
280.97	8.932
281.34	8.897
281.71	10.385
282.08	9.476
282.45	6.517
282.82	9.302
283.19	9.455
283.56	13.736
283.92	9.541
284.29	10.967
284.66	8.813
285.03	11.230
285.40	11.439
285.77	10.000
286.14	10.108
286.51	10.302
286.87	10.163
287.24	10.580
287.61	10.909
287.98	8.666
288.35	9.752
288.72	8.659
289.08	9.322
289.45	9.596
289.82	9.343
290.19	10.837
290.56	7.273
290.93	8.267
291.29	9.238
291.66	8.696
292.03	9.105
292.40	8.283
292.77	9.783
293.13	9.106
293.50	11.293
293.87	9.663
294.24	7.843
294.60	8.030
294.97	8.498
295.34	9.926
295.71	9.524
296.08	6.452
296.44	9.299
296.81	8.405
297.18	8.169
297.55	8.898
297.91	9.763
298.28	8.082
298.65	6.974
299.02	8.957
299.38	7.219
299.75	8.152
300.12	8.718
300.48	8.184
300.85	6.422
301.22	9.444
301.59	6.112
301.95	9.446
302.32	7.040
302.69	7.222
303.05	7.570
303.42	7.750
303.79	8.014
304.15	7.227
304.52	7.351
304.89	7.556
305.25	7.570
305.62	6.228
305.99	8.598
306.35	9.212
306.72	6.378
307.09	7.264
307.45	8.059
307.82	7.039
308.19	7.830
308.55	6.972
308.92	6.552
309.29	6.703
309.65	7.741
310.02	6.263
310.38	6.811
310.75	7.889
311.12	7.335
311.48	6.681
311.85	7.724
312.22	8.239
312.58	7.833
312.95	7.136
313.31	8.392
313.68	9.045
314.05	7.616
314.41	6.942
314.78	5.994
315.14	8.095
315.51	7.903
315.87	7.744
316.24	7.483
316.61	8.253
316.97	8.756
317.34	7.900
317.70	7.236
318.07	8.489
318.43	7.491
318.80	8.545
319.16	7.692
319.53	7.613
319.89	7.150
320.26	8.137
320.62	6.731
320.99	7.960
321.35	6.601
321.72	6.653
322.08	8.210
322.45	7.624
322.81	8.646
323.18	7.973
323.54	7.209
323.91	8.990
324.27	8.175
324.64	6.764
325.00	7.679
325.37	7.240
325.73	7.612
326.10	6.377
326.46	7.531
326.83	6.979
327.19	7.923
327.56	8.348
327.92	7.816
328.29	8.225
328.65	7.636
329.01	7.244
329.38	7.404
329.74	8.059
330.11	6.981
330.47	7.448
330.84	8.066
331.20	8.032
331.56	7.384
331.93	7.194
332.29	7.489
332.66	8.867
333.02	5.611
333.38	8.423
333.75	7.569
334.11	8.000
334.48	6.531
334.84	8.486
335.20	7.447
335.57	6.859
335.93	7.073
336.29	6.732
336.66	7.137
337.02	7.928
337.38	6.863
337.75	6.848
338.11	7.692
338.47	6.495
338.84	8.167
339.20	6.942
339.56	7.665
339.93	6.790
340.29	7.086
340.65	6.818
341.02	7.083
341.38	7.666
341.74	7.959
342.11	7.082
342.47	6.352
342.83	7.557
343.20	6.832
343.56	6.449
343.92	7.429
344.28	8.074
344.65	7.673
345.01	6.134
345.37	7.143
345.73	6.956
346.10	6.460
346.46	6.824
346.82	6.255
347.19	6.656
347.55	6.822
347.91	7.717
348.27	7.080
348.63	7.189
349.00	6.842
349.36	5.855
349.72	8.280
350.08	6.656
350.45	6.541
350.81	7.166
351.17	6.833
351.53	5.967
351.89	7.195
352.26	6.977
352.62	7.757
352.98	7.753
353.34	7.034
353.70	6.873
354.07	7.396
354.43	7.352
354.79	6.339
355.15	7.188
355.51	6.250
355.87	6.798
356.24	6.593
356.60	7.172
356.96	6.543
357.32	6.255
357.68	7.356
358.04	7.082
358.40	6.265
358.77	5.873
359.13	6.503
359.49	6.274
359.85	6.326
360.21	6.164
360.57	7.907
360.93	6.815
361.29	7.549
361.66	6.555
362.02	6.731
362.38	6.897
362.74	6.740
363.10	6.600
363.46	7.123
363.82	6.633
364.18	7.308
364.54	7.505
364.90	6.709
365.26	6.205
365.62	6.842
365.98	7.397
366.35	5.704
366.71	6.202
367.07	6.775
367.43	7.893
367.79	6.598
368.15	6.330
368.51	7.203
368.87	8.173
369.23	7.509
369.59	7.292
369.95	7.400
370.31	6.681
370.67	6.291
371.03	6.341
371.39	6.648
371.75	7.582
372.11	6.169
372.47	7.158
372.83	7.371
373.19	7.286
373.55	8.093
373.91	6.828
374.27	6.639
374.63	6.487
374.99	6.537
375.35	7.066
375.71	6.820
376.07	6.776
376.42	6.358
376.78	7.059
377.14	7.051
377.50	6.512
377.86	6.827
378.22	7.035
378.58	6.671
378.94	6.473
379.30	7.374
379.66	6.800
380.02	6.417
380.38	6.405
380.74	6.975
381.09	7.088
381.45	8.294
381.81	7.078
382.17	6.642
382.53	6.930
382.89	6.938
383.25	7.164
383.61	6.899
383.97	6.920
384.32	7.447
384.68	7.557
385.04	6.341
385.40	6.573
385.76	6.829
386.12	6.496
386.48	7.364
386.83	6.564
387.19	6.874
387.55	7.208
387.91	7.469
388.27	5.971
388.62	7.452
388.98	6.784
389.34	6.487
389.70	7.125
390.06	6.837
390.42	6.731
390.77	7.319
391.13	7.578
391.49	6.800
391.85	7.544
392.20	6.189
392.56	6.231
392.92	6.617
393.28	6.487
393.64	6.434
393.99	6.892
394.35	6.813
394.71	6.918
395.07	7.910
395.42	6.257
395.78	6.348
396.14	6.729
396.50	7.034
396.85	7.218
397.21	6.197
397.57	7.356
397.92	7.201
398.28	7.056
398.64	7.079
399.00	7.022
399.35	6.764
399.71	7.491
400.07	7.403
400.42	7.543
400.78	6.917
401.14	6.407
401.49	7.960
401.85	7.016
402.21	7.688
402.57	7.767
402.92	7.615
403.28	7.966
403.63	6.471
403.99	7.085
404.35	7.246
404.70	6.671
405.06	6.863
405.42	6.273
405.77	7.353
406.13	6.871
406.49	6.830
406.84	6.359
407.20	7.715
407.55	6.396
407.91	5.829
408.27	7.598
408.62	7.998
408.98	7.216
409.34	6.947
409.69	7.246
410.05	6.792
410.40	7.112
410.76	7.469
411.11	6.983
411.47	7.097
411.83	7.641
412.18	6.931
412.54	6.528
412.89	6.683
413.25	6.612
413.60	6.136
413.96	6.531
414.31	7.034
414.67	6.349
415.03	6.727
415.38	7.547
415.74	6.701
416.09	7.225
416.45	6.746
416.80	7.282
417.16	6.312
417.51	7.551
417.87	6.990
418.22	6.827
418.58	6.675
418.93	7.357
419.29	7.026
419.64	6.407
420.00	7.837
420.35	7.510
420.71	6.423
421.06	7.160
421.42	6.967
421.77	7.705
422.12	7.555
422.48	6.895
422.83	7.460
423.19	7.238
423.54	7.205
423.90	7.287
424.25	7.466
424.61	7.600
424.96	7.022
425.31	7.546
425.67	7.564
426.02	6.483
426.38	7.441
426.73	7.539
427.09	7.782
427.44	7.841
427.79	6.570
428.15	7.840
428.50	7.390
428.85	7.434
429.21	6.973
429.56	7.760
429.92	7.064
430.27	7.328
430.62	7.210
430.98	7.841
431.33	7.364
431.68	7.453
432.04	7.107
432.39	6.952
432.74	6.954
433.10	7.653
433.45	6.966
433.80	6.831
434.16	7.469
434.51	7.397
434.86	7.030
435.22	7.294
435.57	7.038
435.92	7.796
436.28	7.774
436.63	7.575
436.98	7.617
437.34	7.029
437.69	7.001
438.04	7.033
438.39	7.521
438.75	7.043
439.10	7.718
439.45	6.578
439.81	7.590
440.16	7.666
440.51	8.118
440.86	6.998
441.22	7.242
441.57	7.895
441.92	7.775
442.27	7.792
442.63	6.813
442.98	7.506
443.33	7.249
443.68	7.556
444.03	7.220
444.39	7.244
444.74	7.599
445.09	7.346
445.44	7.935
445.79	6.731
446.15	7.722
446.50	7.131
446.85	7.594
447.20	7.610
447.55	7.072
447.91	7.524
448.26	6.927
448.61	7.131
448.96	7.787
449.31	6.877
449.66	7.728
450.02	7.313
450.37	7.304
450.72	7.232
451.07	7.480
451.42	7.187
451.77	7.540
452.12	7.688
452.47	7.494
452.83	7.688
453.18	7.717
453.53	7.338
453.88	7.715
454.23	7.013
454.58	8.328
454.93	7.620
455.28	6.947
455.63	7.801
455.98	8.012
456.34	6.925
456.69	8.318
457.04	7.621
457.39	7.177
457.74	7.088
458.09	8.121
458.44	7.506
458.79	7.567
459.14	8.500
459.49	8.052
459.84	8.094
460.19	7.041
460.54	7.562
460.89	7.343
461.24	7.772
461.59	7.679
461.94	7.766
462.29	7.385
462.64	8.366
462.99	8.099
463.34	6.887
463.69	7.824
464.04	7.440
464.39	7.527
464.74	7.861
465.09	7.697
465.44	8.291
465.79	7.840
466.14	7.825
466.49	7.311
466.84	8.043
467.19	8.541
467.54	7.975
467.89	8.076
468.24	7.838
468.59	7.558
468.94	7.717
469.29	7.407
469.64	8.693
469.99	8.575
470.34	7.415
470.68	7.776
471.03	8.947
471.38	7.708
471.73	7.622
472.08	6.827
472.43	8.237
472.78	8.533
473.13	6.627
473.48	8.551
473.83	7.816
474.17	7.389
474.52	8.632
474.87	8.916
475.22	7.847
475.57	7.500
475.92	7.775
476.27	7.771
476.61	7.887
476.96	8.217
477.31	7.104
477.66	7.969
478.01	8.536
478.36	8.696
478.70	8.009
479.05	8.761
479.40	8.031
479.75	7.849
480.10	8.036
480.45	7.350
480.79	8.243
481.14	8.430
481.49	8.083
481.84	7.859
482.19	8.451
482.53	8.759
482.88	8.021
483.23	8.075
483.58	9.112
483.92	8.600
484.27	7.266
484.62	8.078
484.97	7.638
485.31	7.776
485.66	7.634
486.01	7.500
486.36	7.967
486.70	8.217
487.05	7.930
487.40	7.826
487.75	7.664
488.09	7.258
488.44	8.085
488.79	8.454
489.13	8.292
489.48	8.442
489.83	8.428
490.17	8.228
490.52	8.197
490.87	7.945
491.22	8.501
491.56	8.241
491.91	9.113
492.26	8.160
492.60	8.230
492.95	9.091
493.30	8.766
493.64	8.322
493.99	8.556
494.34	8.619
494.68	8.661
495.03	8.843
495.37	8.161
495.72	8.546
496.07	8.400
496.41	9.078
496.76	8.995
497.11	8.855
497.45	8.477
497.80	7.954
498.14	8.743
498.49	7.634
498.84	8.883
499.18	9.016
499.53	8.962
499.87	8.253
500.22	8.627
500.56	8.504
500.91	8.768
501.26	9.947
501.60	8.185
501.95	8.889
502.29	8.455
502.64	9.241
502.98	8.433
503.33	8.882
503.67	8.285
504.02	8.885
504.36	8.676
504.71	7.953
505.06	7.289
505.40	9.232
505.75	8.943
506.09	8.645
506.44	9.223
506.78	8.781
507.13	8.805
507.47	9.077
507.82	8.467
508.16	9.430
508.51	8.037
508.85	8.489
509.19	7.902
509.54	9.144
509.88	8.830
510.23	9.277
510.57	8.942
510.92	9.398
511.26	8.559
511.61	8.747
511.95	9.159
512.30	8.576
512.64	8.570
512.98	9.461
513.33	9.061
513.67	9.045
514.02	8.725
514.36	9.695
514.70	8.659
515.05	8.862
515.39	8.304
515.74	10.006
516.08	8.818
516.42	8.952
516.77	9.359
517.11	8.295
517.46	9.091
517.80	9.868
518.14	8.877
518.49	9.683
518.83	9.139
519.17	9.236
519.52	8.560
519.86	9.677
520.20	8.863
520.55	9.292
520.89	8.328
521.23	10.256
521.58	8.966
521.92	10.070
522.26	9.778
522.61	9.379
522.95	9.381
523.29	9.592
523.64	8.869
523.98	9.293
524.32	9.617
524.66	9.379
525.01	8.735
525.35	9.665
525.69	9.954
526.04	9.922
526.38	9.803
526.72	8.812
527.06	10.156
527.41	9.175
527.75	8.251
528.09	9.662
528.43	9.967
528.78	9.925
529.12	9.475
529.46	9.407
529.80	8.844
530.15	10.496
530.49	9.120
530.83	10.216
531.17	9.966
531.51	8.841
531.86	9.480
532.20	8.974
532.54	9.693
532.88	9.420
533.22	9.693
533.57	9.138
533.91	9.301
534.25	8.422
534.59	9.119
534.93	8.899
535.27	10.006
535.62	9.719
535.96	9.890
536.30	8.639
536.64	9.960
536.98	9.534
537.32	9.330
537.66	9.980
538.01	8.866
538.35	10.270
538.69	9.291
539.03	9.479
539.37	9.381
539.71	9.540
540.05	9.664
540.39	10.042
540.73	9.537
541.07	10.383
541.42	9.115
541.76	8.372
542.10	9.656
542.44	9.660
542.78	9.973
543.12	9.504
543.46	8.767
543.80	9.766
544.14	9.805
544.48	9.514
544.82	8.999
545.16	10.530
545.50	9.017
545.84	10.709
546.18	10.125
546.52	9.673
546.86	9.900
547.20	9.494
547.54	8.609
547.88	8.626
548.22	8.847
548.56	9.285
548.90	9.636
549.24	9.040
549.58	10.162
549.92	9.823
550.26	9.538
550.60	9.459
550.94	10.073
551.28	9.180
551.62	9.453
551.96	9.117
552.30	9.965
552.64	9.993
552.98	10.652
553.32	9.307
553.66	9.589
554.00	9.879
554.34	8.953
554.68	9.430
555.02	10.564
555.36	9.418
555.69	9.742
556.03	9.544
556.37	9.744
556.71	9.878
557.05	9.756
557.39	10.319
557.73	10.795
558.07	9.646
558.41	9.723
558.75	10.570
559.08	8.482
559.42	10.107
559.76	10.123
560.10	10.515
560.44	11.344
560.78	9.534
561.12	10.352
561.45	9.658
561.79	8.920
562.13	8.976
562.47	9.384
562.81	9.477
563.15	9.937
563.48	9.952
563.82	9.872
564.16	9.533
564.50	9.677
564.84	9.656
565.17	9.682
565.51	9.844
565.85	10.615
566.19	10.606
566.52	9.067
566.86	9.924
567.20	10.230
567.54	9.746
567.88	9.659
568.21	9.340
568.55	8.537
568.89	8.598
569.23	8.607
569.56	9.164
569.90	9.363
570.24	9.132
570.57	8.893
570.91	8.739
571.25	8.722
571.59	8.742
571.92	8.571
572.26	8.658
572.60	9.091
572.93	8.393
573.27	8.506
573.61	8.087
573.95	9.074
574.28	8.234
574.62	8.465
574.96	8.126
575.29	7.825
575.63	8.442
575.97	8.225
576.30	8.030
576.64	8.381
576.98	8.037
577.31	8.224
577.65	8.164
577.98	7.951
578.32	7.956
578.66	8.247
578.99	8.192
579.33	8.088
579.67	8.166
580.00	8.234
580.34	8.072
580.67	8.433
581.01	7.861
581.35	7.848
581.68	8.321
582.02	8.151
582.35	8.102
582.69	8.372
583.02	8.267
583.36	8.556
583.70	8.116
584.03	8.378
584.37	8.471
584.70	8.459
585.04	8.152
585.37	7.995
585.71	8.152
586.04	8.207
586.38	8.153
586.72	8.230
587.05	8.241
587.39	8.058
587.72	8.521
588.06	8.528
588.39	8.203
588.73	8.841
589.06	8.728
589.40	9.172
589.73	8.853
590.07	8.485
590.40	9.004
590.73	8.317
591.07	8.566
591.40	9.142
591.74	8.732
592.07	8.559
592.41	8.535
592.74	8.878
593.08	8.479
593.41	8.125
593.75	8.078
594.08	8.411
594.41	8.946
594.75	8.607
595.08	8.383
595.42	8.887
595.75	7.975
596.09	8.304
596.42	8.879
596.75	8.366
597.09	9.083
597.42	8.686
597.75	8.725
598.09	9.173
598.42	8.794
598.76	8.679
599.09	8.366
599.42	8.420
599.76	8.418
600.09	8.550
600.42	9.077
600.76	8.927
601.09	8.507
601.42	8.271
601.76	9.424
602.09	8.630
602.42	8.601
602.76	8.351
603.09	8.669
603.42	8.904
603.76	8.855
604.09	9.091
604.42	8.077
604.76	8.461
605.09	8.770
605.42	9.707
605.75	8.452
606.09	8.593
606.42	8.630
606.75	9.274
607.09	8.866
607.42	8.847
607.75	8.653
608.08	8.902
608.42	8.467
608.75	8.738
609.08	8.962
609.41	9.168
609.75	8.874
610.08	9.608
610.41	8.241
610.74	9.961
611.07	9.483
611.41	8.976
611.74	9.152
612.07	9.237
612.40	8.475
612.73	9.316
613.07	8.476
613.40	10.345
613.73	9.319
614.06	8.841
614.39	9.132
614.72	8.436
615.06	9.022
615.39	8.573
615.72	9.234
616.05	8.614
616.38	9.286
616.71	8.829
617.05	9.349
617.38	9.659
617.71	8.600
618.04	9.006
618.37	9.560
618.70	9.648
619.03	9.749
619.36	9.937
619.69	9.978
620.03	10.193
620.36	9.212
620.69	9.476
621.02	9.513
621.35	10.403
621.68	9.590
622.01	10.922
622.34	9.938
622.67	9.141
623.00	10.406
623.33	9.851
623.66	8.936
623.99	9.850
624.32	9.152
624.65	10.522
624.99	9.410
625.32	9.731
625.65	11.033
625.98	9.703
626.31	10.685
626.64	9.791
626.97	10.188
627.30	10.638
627.63	9.240
627.96	10.966
628.29	9.467
628.62	9.838
628.95	9.350
629.28	10.996
629.61	8.636
629.94	10.113
630.26	9.742
630.59	11.055
630.92	10.911
631.25	11.391
631.58	11.217
631.91	8.085
632.24	10.778
632.57	11.111
632.90	10.690
633.23	10.514
633.56	8.655
633.89	10.259
634.22	9.445
634.55	11.659
634.88	9.674
635.20	10.237
635.53	11.069
635.86	10.957
636.19	11.600
636.52	8.961
636.85	9.386
637.18	10.750
637.51	11.276
637.83	10.386
638.16	11.579
638.49	10.483
638.82	10.682
639.15	12.581
639.48	9.468
639.81	11.618
640.13	11.486
640.46	10.826
640.79	11.485
641.12	11.707
641.45	12.339
641.77	11.826
642.10	10.876
642.43	12.898
642.76	11.339
643.09	12.381
643.41	12.381
643.74	11.924
644.07	11.076
644.40	10.535
644.73	14.026
645.05	11.185
645.38	13.576
645.71	13.746
646.04	11.261
646.36	11.693
646.69	12.803
647.02	11.552
647.35	10.108
647.67	10.401
648.00	12.127
648.33	12.648
648.66	8.387
648.98	11.943
649.31	12.154
649.64	12.656
649.96	10.989
650.29	11.967
650.62	11.876
650.94	9.106
651.27	12.825
651.60	11.592
651.92	10.959
652.25	11.686
652.58	8.007
652.90	10.433
653.23	11.290
653.56	9.699
653.88	10.656
654.21	11.409
654.54	13.123
654.86	10.112
655.19	11.318
655.52	8.163
655.84	7.804
656.17	8.310
656.49	11.635
656.82	12.087
657.15	9.195
657.47	6.763
657.80	5.103
658.13	5.867
658.45	7.790
658.78	7.659
659.10	8.120
659.43	7.930
659.75	7.986
660.08	8.021
660.41	8.912
660.73	7.481
661.06	12.319
661.38	10.357
661.71	11.855
662.03	12.097
662.36	11.727
662.68	10.549
663.01	12.314
663.33	10.658
663.66	12.232
663.98	9.598
664.31	10.067
664.63	13.053
664.96	10.629
665.28	10.412
665.61	10.994
665.93	10.700
666.26	13.765
666.58	11.642
666.91	11.136
667.23	13.377
667.56	11.791
667.88	12.217
668.21	11.751
668.53	11.215
668.86	10.162
669.18	12.100
669.50	9.813
669.83	8.759
670.15	11.211
670.48	8.879
670.80	11.162
671.13	8.352
671.45	10.586
671.77	9.850
672.10	12.821
672.42	12.177
672.75	12.364
673.07	8.288
673.39	11.293
673.72	10.433
674.04	9.766
674.37	9.278
674.69	12.910
675.01	9.149
675.34	13.666
675.66	13.823
675.98	11.013
676.31	14.480
676.63	11.494
676.95	10.619
677.28	8.817
677.60	11.991
677.92	13.877
678.25	13.348
678.57	11.523
678.89	9.224
679.22	9.853
679.54	12.821
679.86	8.000
680.18	9.506
680.51	11.732
680.83	11.619
681.15	12.139
681.48	11.359
681.80	9.677
682.12	10.664
682.44	9.430
682.77	9.957
683.09	10.901
683.41	12.611
683.73	11.416
684.06	9.892
684.38	9.833
684.70	9.053
685.02	10.433
685.34	10.916
685.67	7.955
685.99	10.586
686.31	9.874
686.63	11.702
686.96	8.133
687.28	8.671
687.60	11.328
687.92	9.728
688.24	12.205
688.56	9.820
688.89	10.043
689.21	10.066
689.53	11.264
689.85	11.581
690.17	10.987
690.49	12.702
690.82	8.675
691.14	11.321
691.46	12.417
691.78	11.894
692.10	12.712
692.42	7.111
692.74	9.657
693.06	11.011
693.39	10.291
693.71	10.609
694.03	11.231
694.35	9.932
694.67	13.239
694.99	8.440
695.31	11.224
695.63	8.418
695.95	13.400
696.27	10.973
696.59	11.765
696.91	9.270
697.23	9.115
697.56	7.692
697.88	8.559
698.20	10.493
698.52	8.969
698.84	10.194
699.16	8.571
699.48	8.750
699.80	10.276
700.12	13.098
700.44	9.497
700.76	10.204
701.08	7.849
701.40	8.459
701.72	10.494
702.04	10.897
702.36	9.036
702.68	10.180
703.00	7.826
703.32	6.590
703.64	13.824
703.96	11.628
704.28	11.243
704.60	6.013
704.91	7.619
705.23	11.974
705.55	12.162
705.87	9.898
706.19	7.292
706.51	9.375
706.83	14.098
707.15	10.828
707.47	11.295
707.79	9.794
708.11	8.651
708.43	7.980
708.74	7.532
709.06	10.306
709.38	10.057
709.70	11.562
710.02	12.883
710.34	6.601
710.66	6.032
710.98	6.625
711.29	4.839
711.61	9.265
711.93	7.213
712.25	8.970
712.57	8.711
712.89	11.871
713.20	11.684
713.52	7.836
713.84	8.897
714.16	7.213
714.48	10.159
714.80	9.538
715.11	12.680
715.43	13.855
715.75	9.034
716.07	6.557
716.39	6.689
716.70	10.105
717.02	10.741
717.34	11.069
717.66	12.033
717.97	6.967
718.29	8.824
718.61	15.476
718.93	13.620
719.24	3.676
719.56	4.528
719.88	9.455
720.20	7.865
720.51	9.774
720.83	10.843
721.15	7.787
721.46	7.843
721.78	6.897
722.10	7.600
722.42	8.678
722.73	7.968
723.05	8.434
723.37	10.196
723.68	6.478
724.00	16.260
724.32	11.523
724.63	7.054
724.95	14.050
725.27	7.018
725.58	3.017
725.90	6.349
726.22	8.856
726.53	9.886
726.85	1.961
727.16	13.158
727.48	5.000
727.80	9.426
728.11	7.983
728.43	9.504
728.74	14.062
729.06	7.955
729.38	4.669
729.69	2.362
730.01	9.843
730.32	6.375
730.64	6.960
730.96	7.090
731.27	10.000
731.59	6.431
731.90	7.055
732.22	7.669
732.53	12.252
732.85	8.725
733.16	9.420
733.48	6.620
733.80	1.068
734.11	9.655
734.43	9.864
734.74	11.276
735.06	4.075
735.37	7.645
735.69	6.129
736.00	5.724
736.32	7.616
736.63	4.483
736.95	7.246
737.26	9.272
737.58	7.194
737.89	7.885
738.21	1.504
738.52	7.692
738.83	10.156
739.15	8.974
739.46	8.871
739.78	9.790
740.09	8.741
740.41	8.392
740.72	10.949
741.04	3.571
741.35	9.524
741.66	9.722
741.98	9.048
742.29	6.573
742.61	7.487
742.92	14.019
743.23	8.333
743.55	11.261
743.86	11.556
744.18	8.571
744.49	14.778
744.80	7.107
745.12	11.340
745.43	10.050
745.74	5.825
746.06	5.854
746.37	13.656
746.68	12.438
747.00	7.853
747.31	5.288
747.62	3.687
747.94	6.987
748.25	7.442
748.56	11.429
748.88	1.087
749.19	10.329
749.50	11.765
749.82	14.667
750.13	10.132
750.44	4.065
750.75	5.200
751.07	12.143
751.38	7.380
751.69	4.198
752.01	9.615
752.32	7.393
752.63	3.462
752.94	5.159
753.26	11.304
753.57	3.125
753.88	3.448
754.19	8.299
754.51	7.031
754.82	3.162
755.13	6.173
755.44	7.851
755.75	9.465
756.07	4.016
756.38	8.984
756.69	7.942
757.00	7.666
757.31	6.711
757.63	9.034
757.94	9.249
758.25	5.814
758.56	10.782
758.87	6.250
759.18	4.000
759.50	6.050
759.81	6.204
760.12	4.730
760.43	12.298
760.74	9.062
761.05	10.112
761.36	11.078
761.67	5.325
761.99	6.774
762.30	10.145
762.61	7.170
762.92	3.587
763.23	3.791
763.54	8.889
763.85	7.173
764.16	7.347
764.47	12.288
764.78	9.363
765.10	8.273
765.41	8.387
765.72	6.289
766.03	2.827
766.34	11.654
766.65	2.429
766.96	5.000
767.27	8.333
767.58	9.884
767.89	5.806
768.20	12.883
768.51	5.464
768.82	12.973
769.13	10.000
769.44	9.649
769.75	5.628
770.06	8.257
770.37	4.225
770.68	8.854
770.99	9.406
771.30	4.854
771.61	4.167
771.92	5.628
772.23	7.477
772.54	6.383
772.85	3.550
773.16	3.049
773.47	13.253
773.78	13.736
774.09	8.000
774.39	5.556
774.70	6.040
775.01	10.870
775.32	1.493
775.63	-3.306
775.94	9.774
776.25	8.571
776.56	10.656
776.87	10.619
777.18	11.504
777.48	-1.818
777.79	6.087
778.10	0.000
778.41	-2.542
778.72	2.479
779.03	5.970
779.34	7.519
779.65	4.575
779.95	12.319
780.26	4.082
780.57	-2.586
780.88	5.556
781.19	-10.101
781.50	-12.000
781.80	5.882
782.11	0.641
782.42	3.012
782.73	-1.460
783.04	0.000
783.34	5.303
783.65	4.651
783.96	0.813
784.27	0.000
784.57	-5.691
784.88	0.000
785.19	2.632
785.50	-19.588
785.81	-0.952
786.11	-9.804
786.42	0.000
786.73	-0.901
787.04	10.891
787.34	7.619
787.65	-8.571
787.96	2.941
788.26	7.207
788.57	6.452
788.88	-0.781
789.19	2.564
789.49	0.000
789.80	6.838
790.11	9.735
790.41	1.010
790.72	14.151
791.03	-13.889
791.33	-3.947
791.64	4.301
791.95	-6.667
792.25	-10.000
792.56	-6.098
792.87	13.265
793.17	-21.053
793.48	-2.703
793.79	-18.310
794.09	5.063
794.40	8.511
794.70	-3.738
795.01	-3.509
795.32	-1.818
795.62	7.143
795.93	5.155
796.23	-6.593
796.54	6.316
796.85	0.000
797.15	-5.556
797.46	-1.370
797.76	8.451
798.07	11.250
798.37	-8.824
798.68	4.286
798.99	0.000
799.29	0.000
799.60	10.000
799.90	-29.167
800.21	-7.813
800.51	-1.587
800.82	-31.148
801.12	-19.298
801.43	-7.042
801.73	-10.169
802.04	-1.639
802.34	-12.727
802.65	-19.231
802.95	-20.370
803.26	-27.500
803.56	-25.000
803.87	-31.579
804.17	-3.226
804.48	-6.154
804.78	-20.513
805.09	-13.953
805.39	-34.375
805.70	-30.189
806.00	3.509
806.30	-1.351
806.61	-5.882
806.91	3.704
807.22	-4.000
807.52	-7.463
807.83	-24.194
808.13	-9.524
808.43	-10.909
808.74	9.091
809.04	-16.981
809.35	-4.110
809.65	3.509
809.95	0.000
810.26	-3.922
810.56	-10.000
810.86	-8.163
811.17	-28.571
811.47	-17.308
811.77	-48.387
812.08	-42.105
812.38	0.000
812.69	-23.913
812.99	-12.903
813.29	-26.190
813.59	-137.037
813.90	-25.532
814.20	-34.884
814.50	-18.750
814.81	-16.667
815.11	-2.439
815.41	-26.667
815.72	-2.857
816.02	-16.667
816.32	-28.205
816.62	-37.838
816.93	-50.000
817.23	-19.565
817.53	5.882
817.84	-38.235
818.14	-65.625
818.44	-24.138
818.74	-35.484
819.04	-55.556
819.35	-36.667
819.65	-48.000
819.95	-30.000
820.25	-52.000
820.56	-39.474
820.86	-22.500
821.16	-14.894
821.46	-20.690
821.76	-25.641
822.07	-27.500
822.37	-2.326
822.67	-23.333
822.97	-21.622
823.27	-10.811
823.57	-4.000
823.88	8.108
824.18	-76.190
824.48	-19.231
824.78	-161.538
825.08	-39.130
825.38	-41.667
825.69	-16.667
825.99	-85.000
826.29	-35.135
826.59	-44.118
826.89	-32.000
827.19	-34.286
827.49	2.632
827.79	-53.125
828.09	-43.333
828.39	-21.739
828.70	-48.276
829.00	-27.586
829.30	-16.667
829.60	-31.250
829.90	-5.556
830.20	-57.692
830.50	-100.000
830.80	-46.429
831.10	-7.692
831.40	-47.619
831.70	-29.412
832.00	-12.500
832.30	-73.684
832.60	-62.500
832.90	-133.333
833.20	-141.176
833.50	-106.667
833.80	-60.000
834.10	-35.000
834.40	-45.833
834.70	-44.444
835.00	-50.000
835.30	-45.833
835.60	-20.690
835.90	-88.889
836.20	-163.636
836.50	-183.333
836.80	0.000
837.10	20.000
837.40	-41.176
837.70	-90.909
838.00	-16.667
838.30	-50.000
838.60	-38.095
838.90	-65.000
839.19	-13.043
839.49	-78.261
839.79	-100.000
840.09	-78.261
840.39	-95.455
840.69	-93.750
840.99	-52.632
841.29	-81.250
841.59	-14.286
841.88	-66.667
842.18	-62.500
842.48	-94.118
842.78	13.793
843.08	-71.429
843.38	-15.385
843.68	-155.556
843.97	-92.308
844.27	-154.545
844.57	-420.000
844.87	8.000
845.17	-400.000
845.47	-100.000
845.76	-144.444
846.06	0.000
846.36	-500.000
846.66	-150.000
846.96	-15.789
847.25	-41.667
847.55	-66.667
847.85	0.000
848.15	-190.000
848.44	11.538
848.74	-57.895
849.04	766.667
849.34	-188.889
849.63	-42.105
849.93	0.000
850.23	-80.000
850.53	-23.810
850.82	-48.000
851.12	-89.474
851.42	-1200.000
851.71	-35.714
852.01	-125.000
852.31	-70.588
852.61	-53.333
852.90	-66.667
853.20	-283.333
853.50	-44.444
853.79	-26.316
854.09	-40.000
854.39	-39.286
854.68	-34.783
854.98	-200.000
855.28	-27.586
855.57	-100.000
855.87	-60.000
856.17	-100.000
856.46	3.448
856.76	-60.000
857.05	-94.118
857.35	-161.538
857.65	-90.909
857.94	3.704
858.24	-92.857
858.53	-78.571
858.83	-116.667
859.13	-188.889
859.42	0.000
859.72	-137.500
860.01	-600.000
860.31	-200.000
860.60	-420.000
860.90	-211.111
861.20	-187.500
861.49	-342.857
861.79	-41.176
862.08	-1250.000
862.38	-166.667
862.67	-153.846
862.97	0.000
863.26	10.000
863.56	-52.941
863.85	633.333
864.15	-260.000
864.44	-38.462
864.74	-5.000
865.03	-237.500
865.33	-266.667
865.62	-58.824
865.92	-700.000
866.21	-135.714
866.51	-150.000
866.80	-2300.000
867.10	-200.000
867.39	-47.059
867.69	-30.435
867.98	-128.571
868.27	-540.000
868.57	-56.250
868.86	-145.455
869.16	5.882
869.45	-266.667
869.75	-171.429
870.04	2100.000
870.33	-141.667
870.63	-240.000
870.92	-77.778
871.22	-116.667
871.51	-100.000
871.80	-91.667
872.10	-100.000
>>>>>End Processed Spectral Data<<<<<
