SpectraSuite Data File
++++++++++++++++++++++++++++++++++++
Date: Sat May 16 11:07:24 PDT 2015
User: schluterlab
Dark Spectrum Present: Yes
Reference Spectrum Present: Yes
Number of Sampled Component Spectra: 1
Spectrometers: USB2E3373
Integration Time (usec): 3000 (USB2E3373)
Spectra Averaged: 3 (USB2E3373)
Boxcar Smoothing: 0 (USB2E3373)
Correct for Electrical Dark: No (USB2E3373)
Strobe/Lamp Enabled: No (USB2E3373)
Correct for Detector Non-linearity: No (USB2E3373)
Correct for Stray Light: No (USB2E3373)
Number of Pixels in Processed Spectrum: 2048
>>>>>Begin Processed Spectral Data<<<<<
178.53	0.000
178.91	-40.000
179.29	-133.333
179.67	200.000
180.04	-15.385
180.42	-500.000
180.80	-75.000
181.18	50.000
181.56	-37.500
181.94	200.000
182.31	50.000
182.69	92.308
183.07	-366.667
183.45	600.000
183.83	133.333
184.20	128.571
184.58	50.000
184.96	-25.000
185.34	56.250
185.72	-275.000
186.09	16.667
186.47	-50.000
186.85	-87.500
187.23	112.500
187.61	25.000
187.98	-125.000
188.36	-112.500
188.74	75.000
189.12	-200.000
189.49	142.857
189.87	50.000
190.25	50.000
190.63	71.429
191.00	77.778
191.38	220.000
191.76	33.333
192.14	580.000
192.51	0.000
192.89	100.000
193.27	0.000
193.65	11.111
194.02	42.857
194.40	-0.000
194.78	10.000
195.15	700.000
195.53	-72.727
195.91	-33.333
196.29	-0.000
196.66	100.000
197.04	-100.000
197.42	125.000
197.79	133.333
198.17	33.333
198.55	-450.000
198.92	400.000
199.30	50.000
199.68	350.000
200.05	-44.444
200.43	-33.333
200.81	100.000
201.18	25.000
201.56	100.000
201.94	86.667
202.31	86.364
202.69	150.000
203.07	80.000
203.44	100.000
203.82	-116.667
204.19	250.000
204.57	75.000
204.95	-300.000
205.32	131.250
205.70	500.000
206.08	-600.000
206.45	55.556
206.83	-300.000
207.20	400.000
207.58	-166.667
207.96	-233.333
208.33	-50.000
208.71	-11.111
209.08	100.000
209.46	-57.143
209.84	-200.000
210.21	0.000
210.59	80.000
210.96	-900.000
211.34	-100.000
211.71	-33.333
212.09	-200.000
212.46	200.000
212.84	-700.000
213.22	-133.333
213.59	116.667
213.97	122.222
214.34	50.000
214.72	-30.000
215.09	-233.333
215.47	116.667
215.84	-90.000
216.22	-10.000
216.59	33.333
216.97	-50.000
217.34	100.000
217.72	142.857
218.09	33.333
218.47	71.429
218.84	-85.714
219.22	14.286
219.59	0.000
219.97	114.286
220.34	150.000
220.72	137.500
221.09	76.923
221.47	0.000
221.84	33.333
222.22	-50.000
222.59	-300.000
222.97	-162.500
223.34	250.000
223.72	-233.333
224.09	-50.000
224.46	75.000
224.84	71.429
225.21	-28.571
225.59	9.091
225.96	0.000
226.34	0.000
226.71	11.111
227.08	35.000
227.46	600.000
227.83	100.000
228.21	-150.000
228.58	-0.000
228.95	75.000
229.33	-800.000
229.70	-100.000
230.08	0.000
230.45	83.333
230.82	50.000
231.20	-1400.000
231.57	-150.000
231.95	1000.000
232.32	42.857
232.69	11.111
233.07	-128.571
233.44	-100.000
233.81	40.000
234.19	44.444
234.56	18.750
234.93	12.500
235.31	-71.429
235.68	7.143
236.05	17.647
236.43	-40.909
236.80	9.677
237.17	29.167
237.55	-4.762
237.92	-54.545
238.29	22.857
238.67	26.471
239.04	19.444
239.41	12.903
239.79	-10.256
240.16	-7.143
240.53	-10.909
240.91	-2.564
241.28	3.636
241.65	9.231
242.02	11.475
242.40	6.557
242.77	15.152
243.14	5.085
243.51	-5.714
243.89	-3.797
244.26	-14.607
244.63	20.000
245.00	4.211
245.38	13.559
245.75	7.965
246.12	4.000
246.49	3.150
246.87	2.439
247.24	5.085
247.61	-8.475
247.98	0.704
248.36	5.594
248.73	3.165
249.10	0.637
249.47	2.924
249.84	4.545
250.22	-10.714
250.59	2.260
250.96	6.806
251.33	8.057
251.70	1.923
252.08	6.161
252.45	1.896
252.82	0.476
253.19	7.660
253.56	2.016
253.94	4.219
254.31	1.717
254.68	6.504
255.05	0.000
255.42	6.349
255.79	1.434
256.16	0.392
256.54	4.412
256.91	6.061
257.28	4.029
257.65	1.064
258.02	10.377
258.39	2.341
258.76	1.351
259.14	2.160
259.51	6.557
259.88	3.354
260.25	8.075
260.62	5.788
260.99	1.780
261.36	5.488
261.73	5.780
262.10	3.333
262.47	1.140
262.85	6.571
263.22	4.011
263.59	1.846
263.96	5.797
264.33	3.252
264.70	1.657
265.07	3.022
265.44	4.651
265.81	5.943
266.18	2.785
266.55	2.451
266.92	5.038
267.29	5.085
267.66	1.728
268.03	7.729
268.40	7.746
268.77	2.651
269.14	1.392
269.51	6.897
269.88	3.211
270.25	2.564
270.62	5.492
270.99	2.703
271.36	4.662
271.73	2.242
272.10	3.890
272.47	4.222
272.84	7.778
273.21	4.358
273.58	4.615
273.95	4.605
274.32	4.977
274.69	5.689
275.06	5.930
275.43	2.009
275.80	4.684
276.17	5.649
276.54	6.517
276.91	5.350
277.28	4.057
277.65	4.132
278.02	4.802
278.39	4.715
278.76	4.980
279.13	3.953
279.50	5.765
279.87	2.537
280.23	5.061
280.60	4.175
280.97	4.660
281.34	4.255
281.71	5.385
282.08	6.653
282.45	-0.611
282.82	3.101
283.19	5.455
283.56	7.326
283.92	6.360
284.29	5.019
284.66	5.396
285.03	3.922
285.40	3.875
285.77	4.912
286.14	5.235
286.51	5.151
286.87	4.537
287.24	4.437
287.61	5.455
287.98	3.640
288.35	3.140
288.72	3.735
289.08	2.542
289.45	4.209
289.82	3.287
290.19	5.747
290.56	4.132
290.93	3.657
291.29	1.459
291.66	3.060
292.03	5.338
292.40	4.217
292.77	3.416
293.13	3.740
293.50	3.715
293.87	2.914
294.24	4.072
294.60	2.121
294.97	5.463
295.34	3.259
295.71	2.679
296.08	1.075
296.44	2.289
296.81	4.701
297.18	2.535
297.55	4.237
297.91	4.045
298.28	1.507
298.65	2.929
299.02	5.214
299.38	3.743
299.75	3.533
300.12	3.077
300.48	4.604
300.85	2.097
301.22	4.010
301.59	2.731
301.95	5.793
302.32	1.173
302.69	3.060
303.05	3.053
303.42	1.125
303.79	4.545
304.15	3.318
304.52	3.151
304.89	4.014
305.25	2.808
305.62	2.585
305.99	3.769
306.35	4.329
306.72	1.822
307.09	4.427
307.45	2.838
307.82	1.564
308.19	3.132
308.55	3.486
308.92	2.900
309.29	2.162
309.65	3.712
310.02	3.240
310.38	1.514
310.75	3.689
311.12	3.719
311.48	3.340
311.85	3.502
312.22	2.472
312.58	4.578
312.95	2.141
313.31	3.497
313.68	4.422
314.05	3.660
314.41	2.213
314.78	3.197
315.14	3.554
315.51	3.546
315.87	4.356
316.24	4.276
316.61	3.935
316.97	3.980
317.34	3.757
317.70	2.226
318.07	4.664
318.43	2.715
318.80	5.728
319.16	3.002
319.53	4.323
319.89	3.198
320.26	3.333
320.62	2.596
320.99	4.179
321.35	2.266
321.72	3.275
322.08	4.946
322.45	4.059
322.81	5.379
323.18	5.379
323.54	5.453
323.91	4.819
324.27	4.658
324.64	5.667
325.00	5.934
325.37	6.154
325.73	7.437
326.10	6.112
326.46	6.567
326.83	6.468
327.19	8.257
327.56	7.922
327.92	8.241
328.29	8.139
328.65	7.273
329.01	9.452
329.38	9.188
329.74	10.256
330.11	8.704
330.47	10.082
330.84	11.732
331.20	10.108
331.56	10.483
331.93	11.456
332.29	13.425
332.66	11.853
333.02	12.579
333.38	12.097
333.75	12.378
334.11	12.089
334.48	12.445
334.84	14.086
335.20	13.564
335.57	13.357
335.93	15.040
336.29	13.463
336.66	13.128
337.02	13.514
337.38	14.706
337.75	14.311
338.11	14.311
338.47	13.345
338.84	14.156
339.20	14.763
339.56	15.241
339.93	13.492
340.29	12.578
340.65	14.510
341.02	15.514
341.38	14.490
341.74	14.903
342.11	14.334
342.47	14.335
342.83	15.617
343.20	14.432
343.56	13.878
343.92	15.359
344.28	15.223
344.65	15.429
345.01	14.538
345.37	15.615
345.73	14.403
346.10	14.064
346.46	14.947
346.82	14.354
347.19	13.476
347.55	15.169
347.91	15.039
348.27	13.365
348.63	16.236
349.00	16.150
349.36	13.817
349.72	15.207
350.08	15.638
350.45	14.736
350.81	16.003
351.17	14.148
351.53	14.479
351.89	15.198
352.26	15.736
352.62	16.283
352.98	15.190
353.34	16.147
353.70	15.212
354.07	16.208
354.43	15.257
354.79	15.293
355.15	15.415
355.51	15.078
355.87	14.783
356.24	15.568
356.60	15.955
356.96	15.935
357.32	15.677
357.68	15.172
358.04	16.397
358.40	15.855
358.77	14.683
359.13	14.996
359.49	15.117
359.85	15.015
360.21	15.373
360.57	15.964
360.93	16.519
361.29	16.143
361.66	14.939
362.02	16.124
362.38	16.875
362.74	16.703
363.10	15.782
363.46	16.168
363.82	15.452
364.18	15.847
364.54	17.441
364.90	16.352
365.26	15.906
365.62	15.823
365.98	16.785
366.35	16.549
366.71	16.631
367.07	16.231
367.43	16.884
367.79	16.151
368.15	16.003
368.51	16.014
368.87	16.827
369.23	17.123
369.59	15.833
369.95	17.125
370.31	16.667
370.67	16.414
371.03	16.399
371.39	16.337
371.75	17.167
372.11	17.145
372.47	15.907
372.83	16.759
373.19	17.429
373.55	17.101
373.91	17.141
374.27	17.180
374.63	16.701
374.99	17.803
375.35	16.555
375.71	18.163
376.07	16.427
376.42	15.960
376.78	17.451
377.14	16.068
377.50	17.086
377.86	17.035
378.22	17.714
378.58	17.727
378.94	17.879
379.30	17.550
379.66	18.094
380.02	16.399
380.38	18.308
380.74	17.351
381.09	18.102
381.45	18.198
381.81	17.362
382.17	17.607
382.53	18.237
382.89	18.122
383.25	18.242
383.61	17.453
383.97	17.942
384.32	18.273
384.68	18.622
385.04	17.029
385.40	17.225
385.76	18.293
386.12	18.488
386.48	19.369
386.83	18.405
387.19	18.231
387.55	18.655
387.91	18.198
388.27	17.672
388.62	17.548
388.98	17.989
389.34	19.094
389.70	18.088
390.06	18.086
390.42	17.821
390.77	18.233
391.13	19.068
391.49	18.403
391.85	18.267
392.20	18.507
392.56	18.509
392.92	18.311
393.28	18.829
393.64	18.641
393.99	18.400
394.35	18.005
394.71	18.098
395.07	18.205
395.42	17.878
395.78	18.542
396.14	19.190
396.50	18.104
396.85	18.137
397.21	18.712
397.57	19.210
397.92	18.443
398.28	18.500
398.64	17.906
399.00	18.989
399.35	18.658
399.71	18.525
400.07	18.806
400.42	18.674
400.78	18.008
401.14	18.503
401.49	17.630
401.85	17.816
402.21	19.011
402.57	18.811
402.92	19.257
403.28	18.321
403.63	18.155
403.99	18.148
404.35	17.210
404.70	18.373
405.06	18.166
405.42	17.651
405.77	17.873
406.13	17.320
406.49	17.855
406.84	17.457
407.20	18.080
407.55	17.669
407.91	17.746
408.27	18.811
408.62	18.220
408.98	17.647
409.34	16.819
409.69	18.147
410.05	17.526
410.40	17.413
410.76	17.664
411.11	18.329
411.47	17.839
411.83	18.399
412.18	17.636
412.54	16.901
412.89	18.287
413.25	17.355
413.60	16.950
413.96	17.252
414.31	17.187
414.67	17.778
415.03	17.917
415.38	17.827
415.74	18.235
416.09	17.455
416.45	17.791
416.80	18.140
417.16	16.213
417.51	17.859
417.87	17.540
418.22	17.573
418.58	17.972
418.93	18.210
419.29	18.130
419.64	17.274
420.00	18.165
420.35	18.155
420.71	17.827
421.06	19.112
421.42	17.857
421.77	18.425
422.12	17.683
422.48	17.638
422.83	18.109
423.19	18.263
423.54	17.810
423.90	17.293
424.25	17.421
424.61	18.697
424.96	18.958
425.31	17.887
425.67	17.650
426.02	16.638
426.38	17.846
426.73	17.884
427.09	18.444
427.44	18.125
427.79	17.791
428.15	18.372
428.50	18.944
428.85	18.106
429.21	17.432
429.56	17.969
429.92	18.637
430.27	18.096
430.62	18.182
430.98	17.773
431.33	18.250
431.68	18.231
432.04	18.635
432.39	19.145
432.74	19.125
433.10	17.614
433.45	18.250
433.80	18.365
434.16	17.947
434.51	18.192
434.86	19.684
435.22	18.820
435.57	18.911
435.92	17.761
436.28	18.932
436.63	18.428
436.98	18.213
437.34	19.374
437.69	18.028
438.04	18.945
438.39	18.833
438.75	19.092
439.10	18.712
439.45	18.226
439.81	19.036
440.16	18.512
440.51	18.824
440.86	18.508
441.22	17.855
441.57	18.842
441.92	18.465
442.27	18.398
442.63	19.367
442.98	18.228
443.33	18.781
443.68	18.395
444.03	19.253
444.39	19.285
444.74	20.154
445.09	19.463
445.44	19.415
445.79	19.072
446.15	19.934
446.50	18.617
446.85	18.881
447.20	18.641
447.55	19.061
447.91	19.147
448.26	18.603
448.61	18.732
448.96	19.328
449.31	18.884
449.66	19.347
450.02	18.781
450.37	18.609
450.72	18.757
451.07	19.359
451.42	18.092
451.77	19.808
452.12	18.832
452.47	18.451
452.83	18.462
453.18	19.798
453.53	19.030
453.88	19.737
454.23	18.440
454.58	19.391
454.93	20.025
455.28	19.822
455.63	19.779
455.98	19.699
456.34	18.424
456.69	19.575
457.04	19.975
457.39	18.600
457.74	18.960
458.09	19.954
458.44	19.746
458.79	18.554
459.14	19.395
459.49	19.775
459.84	19.224
460.19	18.974
460.54	18.693
460.89	18.946
461.24	19.551
461.59	19.402
461.94	19.032
462.29	19.416
462.64	20.026
462.99	19.813
463.34	19.649
463.69	18.893
464.04	18.746
464.39	18.877
464.74	19.385
465.09	19.242
465.44	18.669
465.79	19.064
466.14	19.793
466.49	18.595
466.84	19.748
467.19	19.389
467.54	19.747
467.89	19.359
468.24	19.656
468.59	19.113
468.94	19.678
469.29	18.778
469.64	19.407
469.99	19.514
470.34	19.906
470.68	20.058
471.03	19.959
471.38	18.889
471.73	19.650
472.08	19.076
472.43	18.662
472.78	20.200
473.13	18.887
473.48	19.272
473.83	18.797
474.17	19.172
474.52	20.205
474.87	19.872
475.22	18.879
475.57	18.556
475.92	18.790
476.27	19.486
476.61	18.873
476.96	19.229
477.31	19.537
477.66	18.816
478.01	19.341
478.36	18.334
478.70	19.274
479.05	19.254
479.40	20.104
479.75	19.521
480.10	19.296
480.45	18.133
480.79	19.645
481.14	19.368
481.49	19.071
481.84	18.863
482.19	19.415
482.53	19.460
482.88	18.842
483.23	18.028
483.58	19.889
483.92	19.350
484.27	18.432
484.62	18.445
484.97	19.096
485.31	18.336
485.66	18.409
486.01	18.125
486.36	18.278
486.70	18.365
487.05	18.292
487.40	18.216
487.75	18.360
488.09	18.777
488.44	18.877
488.79	18.889
489.13	18.828
489.48	19.943
489.83	19.170
490.17	19.025
490.52	19.248
490.87	18.753
491.22	19.010
491.56	19.676
491.91	19.800
492.26	19.104
492.60	18.601
492.95	19.277
493.30	19.247
493.64	19.088
493.99	19.455
494.34	19.095
494.68	18.867
495.03	18.451
495.37	19.223
495.72	19.106
496.07	19.521
496.41	18.990
496.76	18.950
497.11	19.265
497.45	19.253
497.80	19.610
498.14	19.155
498.49	19.287
498.84	19.029
499.18	20.029
499.53	19.045
499.87	18.533
500.22	19.461
500.56	19.060
500.91	19.261
501.26	19.360
501.60	18.729
501.95	19.324
502.29	19.320
502.64	19.613
502.98	19.502
503.33	19.408
503.67	18.918
504.02	18.880
504.36	19.167
504.71	18.693
505.06	19.221
505.40	19.760
505.75	19.207
506.09	18.908
506.44	19.549
506.78	18.916
507.13	19.207
507.47	19.040
507.82	19.773
508.16	19.741
508.51	19.835
508.85	18.944
509.19	19.414
509.54	19.239
509.88	20.638
510.23	19.235
510.57	18.942
510.92	20.354
511.26	19.458
511.61	18.251
511.95	18.804
512.30	18.966
512.64	18.642
512.98	19.197
513.33	19.550
513.67	19.542
514.02	18.624
514.36	19.612
514.70	19.298
515.05	19.554
515.39	19.666
515.74	20.361
516.08	19.597
516.42	19.377
516.77	19.988
517.11	19.165
517.46	19.976
517.80	19.314
518.14	18.418
518.49	19.785
518.83	19.763
519.17	19.893
519.52	19.202
519.86	18.996
520.20	18.949
520.55	19.446
520.89	19.599
521.23	19.963
521.58	19.373
521.92	19.949
522.26	19.873
522.61	19.011
522.95	18.762
523.29	19.436
523.64	19.363
523.98	20.433
524.32	18.793
524.66	18.758
525.01	19.332
525.35	19.523
525.69	19.714
526.04	19.517
526.38	20.687
526.72	19.285
527.06	19.010
527.41	19.670
527.75	19.670
528.09	19.391
528.43	19.541
528.78	19.724
529.12	19.910
529.46	19.652
529.80	18.722
530.15	19.639
530.49	19.146
530.83	20.432
531.17	18.788
531.51	18.486
531.86	19.487
532.20	18.893
532.54	20.120
532.88	20.092
533.22	19.786
533.57	19.648
533.91	18.976
534.25	19.045
534.59	19.363
534.93	18.482
535.27	19.698
535.62	19.757
535.96	19.651
536.30	19.437
536.64	19.389
536.98	19.703
537.32	19.903
537.66	19.212
538.01	19.450
538.35	19.257
538.69	18.783
539.03	19.634
539.37	18.430
539.71	19.480
540.05	18.574
540.39	19.806
540.73	19.696
541.07	19.740
541.42	18.771
541.76	17.874
542.10	19.581
542.44	19.320
542.78	19.335
543.12	19.620
543.46	18.288
543.80	19.465
544.14	19.476
544.48	19.291
544.82	18.809
545.16	19.249
545.50	17.968
545.84	19.054
546.18	19.695
546.52	19.061
546.86	18.020
547.20	19.198
547.54	18.939
547.88	20.305
548.22	18.021
548.56	18.637
548.90	19.205
549.24	18.851
549.58	19.337
549.92	18.021
550.26	19.942
550.60	19.203
550.94	19.270
551.28	19.865
551.62	19.793
551.96	19.175
552.30	19.721
552.64	18.227
552.98	19.481
553.32	17.965
553.66	18.962
554.00	19.616
554.34	18.989
554.68	19.006
555.02	19.465
555.36	19.554
555.69	17.622
556.03	18.456
556.37	18.990
556.71	20.186
557.05	19.512
557.39	18.486
557.73	20.642
558.07	19.141
558.41	18.549
558.75	18.935
559.08	17.821
559.42	19.219
559.76	19.248
560.10	18.717
560.44	19.292
560.78	19.276
561.12	18.703
561.45	20.137
561.79	18.676
562.13	18.794
562.47	18.627
562.81	19.024
563.15	19.104
563.48	18.314
563.82	19.473
564.16	18.458
564.50	18.548
564.84	18.651
565.17	18.435
565.51	19.035
565.85	19.337
566.19	18.643
566.52	19.374
566.86	18.584
567.20	20.157
567.54	19.197
567.88	17.923
568.21	17.729
568.55	17.762
568.89	17.694
569.23	17.446
569.56	17.402
569.90	17.821
570.24	17.926
570.57	16.942
570.91	17.885
571.25	17.445
571.59	17.640
571.92	17.589
572.26	17.525
572.60	17.406
572.93	17.529
573.27	16.921
573.61	17.379
573.95	17.536
574.28	17.090
574.62	16.929
574.96	16.775
575.29	17.327
575.63	17.016
575.97	17.098
576.30	17.566
576.64	17.363
576.98	16.820
577.31	17.330
577.65	17.177
577.98	16.649
578.32	17.112
578.66	16.759
578.99	17.124
579.33	17.307
579.67	16.967
580.00	16.890
580.34	17.246
580.67	17.161
581.01	17.093
581.35	17.147
581.68	16.718
582.02	16.743
582.35	16.525
582.69	17.247
583.02	17.241
583.36	17.088
583.70	16.795
584.03	17.538
584.37	16.942
584.70	17.552
585.04	17.316
585.37	16.874
585.71	17.150
586.04	17.325
586.38	17.322
586.72	17.813
587.05	17.445
587.39	17.263
587.72	17.043
588.06	17.662
588.39	16.890
588.73	17.743
589.06	17.839
589.40	17.314
589.73	17.210
590.07	17.261
590.40	17.860
590.73	17.513
591.07	17.213
591.40	18.241
591.74	18.549
592.07	17.838
592.41	18.174
592.74	17.794
593.08	17.611
593.41	17.171
593.75	17.013
594.08	17.721
594.41	17.523
594.75	17.403
595.08	17.368
595.42	17.341
595.75	17.420
596.09	17.229
596.42	18.249
596.75	17.723
597.09	18.121
597.42	17.983
597.75	17.803
598.09	18.391
598.42	17.720
598.76	16.860
599.09	17.285
599.42	17.109
599.76	16.874
600.09	17.748
600.42	17.509
600.76	17.175
601.09	17.585
601.42	17.056
601.76	17.679
602.09	17.669
602.42	17.860
602.76	17.283
603.09	17.137
603.42	17.647
603.76	18.069
604.09	17.060
604.42	17.610
604.76	17.444
605.09	18.083
605.42	17.775
605.75	17.076
606.09	17.227
606.42	17.176
606.75	17.046
607.09	18.130
607.42	17.386
607.75	17.395
608.08	18.527
608.42	17.313
608.75	17.103
609.08	18.266
609.41	17.987
609.75	17.650
610.08	18.088
610.41	18.120
610.74	17.698
611.07	17.444
611.41	17.247
611.74	18.098
612.07	18.099
612.40	17.804
612.73	18.201
613.07	17.611
613.40	18.336
613.73	17.929
614.06	17.847
614.39	17.982
614.72	17.263
615.06	17.717
615.39	17.743
615.72	17.871
616.05	17.173
616.38	18.514
616.71	17.538
617.05	18.637
617.38	18.947
617.71	17.813
618.04	18.261
618.37	17.673
618.70	18.449
619.03	18.416
619.36	18.605
619.69	19.024
620.03	17.631
620.36	18.495
620.69	18.306
621.02	19.026
621.35	17.419
621.68	18.443
622.01	19.013
622.34	19.876
622.67	18.594
623.00	18.516
623.33	19.179
623.66	17.578
623.99	18.797
624.32	18.527
624.65	18.028
624.99	17.326
625.32	17.665
625.65	18.415
625.98	17.371
626.31	19.331
626.64	18.745
626.97	18.151
627.30	18.213
627.63	17.703
627.96	18.364
628.29	18.658
628.62	18.529
628.95	19.094
629.28	18.421
629.61	19.136
629.94	18.904
630.26	19.881
630.59	19.497
630.92	19.720
631.25	20.363
631.58	19.259
631.91	17.872
632.24	18.889
632.57	20.556
632.90	20.345
633.23	18.224
633.56	17.427
633.89	19.929
634.22	19.481
634.55	18.750
634.88	20.073
635.20	19.101
635.53	18.575
635.86	17.884
636.19	19.414
636.52	19.833
636.85	17.810
637.18	17.000
637.51	19.455
637.83	19.174
638.16	19.737
638.49	17.931
638.82	19.048
639.15	19.455
639.48	17.250
639.81	19.364
640.13	19.865
640.46	19.373
640.79	20.168
641.12	20.733
641.45	18.364
641.77	20.210
642.10	17.976
642.43	20.182
642.76	19.055
643.09	19.206
643.41	19.683
643.74	21.304
644.07	21.217
644.40	19.611
644.73	21.452
645.05	19.032
645.38	20.033
645.71	20.962
646.04	23.025
646.36	18.674
646.69	20.415
647.02	23.105
647.35	18.773
647.67	18.978
648.00	23.374
648.33	20.405
648.66	18.387
648.98	22.452
649.31	20.000
649.64	20.000
649.96	20.722
650.29	18.852
650.62	20.654
650.94	19.393
651.27	20.797
651.60	19.377
651.92	20.377
652.25	18.197
652.58	18.739
652.90	19.422
653.23	18.710
653.56	20.736
653.88	19.836
654.21	22.987
654.54	21.595
654.86	18.941
655.19	19.484
655.52	17.234
655.84	14.924
656.17	16.038
656.49	22.209
656.82	23.412
657.15	17.911
657.47	13.312
657.80	10.138
658.13	11.958
658.45	16.541
658.78	17.075
659.10	17.136
659.43	17.759
659.75	18.686
660.08	18.437
660.41	18.700
660.73	18.592
661.06	22.029
661.38	22.143
661.71	19.885
662.03	21.169
662.36	19.403
662.68	20.675
663.01	23.567
663.33	19.274
663.66	22.532
663.98	19.866
664.31	18.345
664.63	20.796
664.96	20.174
665.28	21.475
665.61	19.027
665.93	20.782
666.26	19.838
666.58	20.582
666.91	20.713
667.23	20.833
667.56	19.501
667.88	21.719
668.21	21.198
668.53	17.757
668.86	20.554
669.18	21.233
669.50	24.065
669.83	17.762
670.15	17.937
670.48	20.093
670.80	20.501
671.13	18.736
671.45	20.946
671.77	19.272
672.10	18.146
672.42	21.033
672.75	16.000
673.07	16.396
673.39	17.668
673.72	21.063
674.04	19.533
674.37	18.144
674.69	19.877
675.01	18.723
675.34	16.703
675.66	20.302
675.98	19.824
676.31	20.814
676.63	20.460
676.95	17.257
677.28	20.882
677.60	21.946
677.92	20.264
678.25	19.694
678.57	20.782
678.89	17.610
679.22	18.449
679.54	20.118
679.86	16.400
680.18	19.962
680.51	18.436
680.83	17.333
681.15	20.039
681.48	19.067
681.80	19.355
682.12	18.310
682.44	16.503
682.77	16.450
683.09	18.658
683.41	22.788
683.73	18.037
684.06	19.355
684.38	20.293
684.70	18.107
685.02	18.898
685.34	18.129
685.67	15.909
685.99	16.257
686.31	19.749
686.63	17.908
686.96	17.375
687.28	18.112
687.60	17.969
687.92	16.148
688.24	17.520
688.56	18.637
688.89	17.521
689.21	18.381
689.53	20.230
689.85	19.822
690.17	15.919
690.49	14.781
690.82	18.554
691.14	18.632
691.46	18.182
691.78	18.282
692.10	19.068
692.42	18.000
692.74	18.670
693.06	20.000
693.39	19.016
693.71	18.284
694.03	19.006
694.35	13.995
694.67	18.676
694.99	17.903
695.31	19.133
695.63	17.602
695.95	21.588
696.27	18.454
696.59	19.519
696.91	18.539
697.23	19.010
697.56	16.827
697.88	17.568
698.20	15.418
698.52	16.143
698.84	18.932
699.16	20.000
699.48	16.250
699.80	18.797
700.12	22.418
700.44	18.715
700.76	17.784
701.08	22.093
701.40	19.335
701.72	20.370
702.04	18.269
702.36	16.566
702.68	18.563
703.00	22.899
703.32	16.905
703.64	20.882
703.96	20.640
704.28	18.935
704.60	17.089
704.91	16.508
705.23	19.741
705.55	17.568
705.87	16.724
706.19	18.056
706.51	20.139
706.83	19.016
707.15	19.108
707.47	19.008
707.79	16.753
708.11	13.740
708.43	19.950
708.74	14.805
709.06	14.763
709.38	17.529
709.70	18.437
710.02	22.699
710.34	20.792
710.66	17.460
710.98	18.927
711.29	17.419
711.61	14.058
711.93	19.016
712.25	18.937
712.57	21.254
712.89	20.863
713.20	19.244
713.52	14.552
713.84	22.776
714.16	15.082
714.48	16.190
714.80	19.385
715.11	19.020
715.43	23.494
715.75	21.184
716.07	17.705
716.39	17.391
716.70	16.028
717.02	18.148
717.34	16.412
717.66	19.087
717.97	14.754
718.29	16.387
718.61	20.238
718.93	18.638
719.24	18.382
719.56	12.830
719.88	20.364
720.20	15.356
720.51	19.925
720.83	21.285
721.15	15.984
721.46	20.000
721.78	19.923
722.10	22.400
722.42	12.810
722.73	16.733
723.05	20.482
723.37	21.176
723.68	18.219
724.00	19.512
724.32	20.165
724.63	12.448
724.95	21.488
725.27	12.281
725.58	18.534
725.90	11.508
726.22	21.771
726.53	18.251
726.85	13.725
727.16	18.045
727.48	14.231
727.80	15.164
728.11	11.765
728.43	18.595
728.74	19.141
729.06	15.152
729.38	17.510
729.69	14.567
730.01	12.992
730.32	15.936
730.64	15.018
730.96	17.164
731.27	12.857
731.59	16.077
731.90	16.564
732.22	17.485
732.53	20.861
732.85	14.094
733.16	14.855
733.48	14.634
733.80	14.235
734.11	18.276
734.43	17.347
734.74	20.178
735.06	14.734
735.37	13.761
735.69	14.516
736.00	16.162
736.32	17.881
736.63	14.138
736.95	14.855
737.26	16.556
737.58	16.547
737.89	16.129
738.21	14.286
738.52	19.615
738.83	17.969
739.15	16.239
739.46	16.129
739.78	16.084
740.09	18.531
740.41	12.937
740.72	20.803
741.04	12.698
741.35	15.584
741.66	18.981
741.98	14.286
742.29	14.085
742.61	20.856
742.92	25.701
743.23	18.421
743.55	18.468
743.86	17.333
744.18	15.714
744.49	19.704
744.80	19.289
745.12	19.588
745.43	13.065
745.74	16.505
746.06	14.634
746.37	16.740
746.68	21.891
747.00	17.801
747.31	9.135
747.62	19.355
747.94	10.480
748.25	21.395
748.56	16.667
748.88	8.152
749.19	18.310
749.50	18.627
749.82	21.778
750.13	22.467
750.44	19.106
750.75	14.000
751.07	17.143
751.38	12.177
751.69	15.649
752.01	19.615
752.32	14.397
752.63	15.000
752.94	16.270
753.26	18.696
753.57	17.411
753.88	21.121
754.19	11.618
754.51	14.453
754.82	15.415
755.13	14.403
755.44	13.223
755.75	15.638
756.07	12.450
756.38	12.891
756.69	19.495
757.00	12.892
757.31	16.779
757.63	18.692
757.94	12.139
758.25	15.698
758.56	19.407
758.87	17.898
759.18	12.667
759.50	17.794
759.81	10.949
760.12	15.203
760.43	16.505
760.74	16.875
761.05	15.449
761.36	17.066
761.67	14.201
761.99	12.581
762.30	14.493
762.61	20.000
762.92	17.489
763.23	17.062
763.54	11.111
763.85	19.409
764.16	15.102
764.47	17.797
764.78	17.228
765.10	15.827
765.41	14.839
765.72	13.836
766.03	12.367
766.34	11.654
766.65	15.385
766.96	16.000
767.27	18.229
767.58	16.279
767.89	17.419
768.20	11.656
768.51	20.219
768.82	18.919
769.13	9.500
769.44	10.965
769.75	12.121
770.06	13.761
770.37	17.371
770.68	18.750
770.99	15.347
771.30	12.621
771.61	16.667
771.92	16.017
772.23	15.888
772.54	19.149
772.85	19.527
773.16	19.512
773.47	16.867
773.78	23.626
774.09	22.000
774.39	18.519
774.70	18.792
775.01	8.696
775.32	15.672
775.63	8.264
775.94	26.316
776.25	15.714
776.56	18.033
776.87	23.009
777.18	20.354
777.48	12.727
777.79	13.043
778.10	14.679
778.41	9.322
778.72	17.355
779.03	19.403
779.34	21.805
779.65	15.686
779.95	21.739
780.26	17.007
780.57	1.724
780.88	16.667
781.19	2.020
781.50	11.200
781.80	12.418
782.11	12.179
782.42	14.458
782.73	5.109
783.04	18.243
783.34	12.121
783.65	17.054
783.96	15.447
784.27	15.385
784.57	19.512
784.88	12.195
785.19	22.807
785.50	6.186
785.81	20.000
786.11	4.902
786.42	16.364
786.73	26.126
787.04	6.931
787.34	11.429
787.65	12.381
787.96	11.765
788.26	15.315
788.57	16.935
788.88	10.937
789.19	11.966
789.49	10.924
789.80	18.803
790.11	23.009
790.41	4.040
790.72	33.019
791.03	6.944
791.33	14.474
791.64	27.957
791.95	20.000
792.25	-2.857
792.56	10.976
792.87	31.633
793.17	3.947
793.48	8.108
793.79	5.634
794.09	25.316
794.40	11.702
794.70	8.411
795.01	13.158
795.32	6.364
795.62	10.714
795.93	14.433
796.23	4.396
796.54	16.842
796.85	9.589
797.15	8.333
797.46	17.808
797.76	18.310
798.07	27.500
798.37	17.647
798.68	12.857
798.99	17.143
799.29	23.684
799.60	20.000
799.90	4.167
800.21	15.625
800.51	7.937
800.82	19.672
801.12	26.316
801.43	1.408
801.73	16.949
802.04	27.869
802.34	21.818
802.65	19.231
802.95	24.074
803.26	-10.000
803.56	15.385
803.87	18.421
804.17	22.581
804.48	15.385
804.78	12.821
805.09	4.651
805.39	18.750
805.70	11.321
806.00	15.789
806.30	20.270
806.61	14.706
806.91	8.642
807.22	6.667
807.52	11.940
807.83	8.065
808.13	11.111
808.43	3.636
808.74	24.242
809.04	9.434
809.35	24.658
809.65	29.825
809.95	32.353
810.26	-1.961
810.56	6.000
810.86	14.286
811.17	5.714
811.47	28.846
811.77	19.355
812.08	-34.211
812.38	0.000
812.69	6.522
812.99	3.226
813.29	0.000
813.59	0.000
813.90	10.638
814.20	-44.186
814.50	-4.167
814.81	16.667
815.11	21.951
815.41	0.000
815.72	14.286
816.02	27.778
816.32	43.590
816.62	21.622
816.93	29.412
817.23	17.391
817.53	8.824
817.84	0.000
818.14	-21.875
818.44	13.793
818.74	-16.129
819.04	-3.704
819.35	-13.333
819.65	8.000
819.95	20.000
820.25	-16.000
820.56	-5.263
820.86	5.000
821.16	8.511
821.46	31.034
821.76	20.513
822.07	-17.500
822.37	18.605
822.67	-3.333
822.97	18.919
823.27	35.135
823.57	56.000
823.88	35.135
824.18	-9.524
824.48	30.769
824.78	-15.385
825.08	26.087
825.38	37.500
825.69	20.833
825.99	-15.000
826.29	21.622
826.59	-2.941
826.89	12.000
827.19	31.429
827.49	21.053
827.79	6.250
828.09	6.667
828.39	39.130
828.70	-24.138
829.00	37.931
829.30	2.778
829.60	59.375
829.90	44.444
830.20	-26.923
830.50	-19.048
830.80	17.857
831.10	12.821
831.40	-9.524
831.70	8.824
832.00	12.500
832.30	47.368
832.60	18.750
832.90	-50.000
833.20	-52.941
833.50	-13.333
833.80	-53.333
834.10	35.000
834.40	29.167
834.70	27.778
835.00	0.000
835.30	0.000
835.60	55.172
835.90	-27.778
836.20	-18.182
836.50	-16.667
836.80	31.429
837.10	40.000
837.40	52.941
837.70	-81.818
838.00	33.333
838.30	31.250
838.60	23.810
838.90	35.000
839.19	-43.478
839.49	-8.696
839.79	5.556
840.09	-13.043
840.39	-27.273
840.69	43.750
840.99	42.105
841.29	-43.750
841.59	42.857
841.88	-27.778
842.18	33.333
842.48	-41.176
842.78	6.897
843.08	71.429
843.38	53.846
843.68	-66.667
843.97	23.077
844.27	-9.091
844.57	100.000
844.87	56.000
845.17	160.000
845.47	64.286
845.76	-11.111
846.06	0.000
846.36	25.000
846.66	-70.000
846.96	5.263
847.25	-8.333
847.55	25.000
847.85	100.000
848.15	60.000
848.44	69.231
848.74	47.368
849.04	433.333
849.34	155.556
849.63	-15.789
849.93	0.000
850.23	-25.000
850.53	33.333
850.82	24.000
851.12	68.421
851.42	-650.000
851.71	57.143
852.01	75.000
852.31	47.059
852.61	26.667
852.90	9.524
853.20	-33.333
853.50	38.889
853.79	-21.053
854.09	26.667
854.39	14.286
854.68	30.435
854.98	-58.333
855.28	37.931
855.57	12.500
855.87	-10.000
856.17	33.333
856.46	-6.897
856.76	-33.333
857.05	-5.882
857.35	-123.077
857.65	27.273
857.94	29.630
858.24	-14.286
858.53	35.714
858.83	50.000
859.13	-122.222
859.42	57.143
859.72	50.000
860.01	-333.333
860.31	-75.000
860.60	-400.000
860.90	-44.444
861.20	-25.000
861.49	-28.571
861.79	64.706
862.08	-550.000
862.38	-50.000
862.67	15.385
862.97	29.412
863.26	35.000
863.56	52.941
863.85	-66.667
864.15	20.000
864.44	-15.385
864.74	25.000
865.03	-100.000
865.33	-166.667
865.62	5.882
865.92	-250.000
866.21	-7.143
866.51	33.333
866.80	600.000
867.10	-300.000
867.39	41.176
867.69	82.609
867.98	14.286
868.27	-340.000
868.57	-81.250
868.86	-81.818
869.16	76.471
869.45	-50.000
869.75	28.571
870.04	-300.000
870.33	50.000
870.63	0.000
870.92	-133.333
871.22	66.667
871.51	9.091
871.80	66.667
872.10	100.000
>>>>>End Processed Spectral Data<<<<<
