SpectraSuite Data File
++++++++++++++++++++++++++++++++++++
Date: Sat May 16 11:22:03 PDT 2015
User: schluterlab
Dark Spectrum Present: Yes
Reference Spectrum Present: Yes
Number of Sampled Component Spectra: 1
Spectrometers: USB2E3373
Integration Time (usec): 3000 (USB2E3373)
Spectra Averaged: 3 (USB2E3373)
Boxcar Smoothing: 0 (USB2E3373)
Correct for Electrical Dark: No (USB2E3373)
Strobe/Lamp Enabled: No (USB2E3373)
Correct for Detector Non-linearity: No (USB2E3373)
Correct for Stray Light: No (USB2E3373)
Number of Pixels in Processed Spectrum: 2048
>>>>>Begin Processed Spectral Data<<<<<
178.53	0.000
178.91	140.000
179.29	566.667
179.67	-600.000
180.04	-123.077
180.42	500.000
180.80	475.000
181.18	450.000
181.56	-112.500
181.94	1200.000
182.31	500.000
182.69	-30.769
183.07	-833.333
183.45	1200.000
183.83	500.000
184.20	-142.857
184.58	0.000
184.96	-300.000
185.34	112.500
185.72	-450.000
186.09	283.333
186.47	-212.500
186.85	-87.500
187.23	-87.500
187.61	-350.000
187.98	-300.000
188.36	-75.000
188.74	-225.000
189.12	1800.000
189.49	428.571
189.87	-16.667
190.25	350.000
190.63	-85.714
191.00	-211.111
191.38	420.000
191.76	-20.000
192.14	480.000
192.51	-260.000
192.89	-400.000
193.27	0.000
193.65	-100.000
194.02	-185.714
194.40	433.333
194.78	-60.000
195.15	-500.000
195.53	-154.545
195.91	-233.333
196.29	60.000
196.66	-266.667
197.04	1900.000
197.42	-175.000
197.79	66.667
198.17	-233.333
198.55	-900.000
198.92	-500.000
199.30	350.000
199.68	-900.000
200.05	-188.889
200.43	-211.111
200.81	-1100.000
201.18	-83.333
201.56	200.000
201.94	-6.667
202.31	-31.818
202.69	100.000
203.07	-90.000
203.44	733.333
203.82	-266.667
204.19	-350.000
204.57	-250.000
204.95	-2000.000
205.32	31.250
205.70	1300.000
206.08	-1100.000
206.45	-22.222
206.83	-1000.000
207.20	-450.000
207.58	-833.333
207.96	-333.333
208.33	-137.500
208.71	-166.667
209.08	150.000
209.46	-185.714
209.84	1100.000
210.21	0.000
210.59	-5.000
210.96	1700.000
211.34	-183.333
211.71	-400.000
212.09	350.000
212.46	300.000
212.84	-2700.000
213.22	633.333
213.59	166.667
213.97	-22.222
214.34	120.000
214.72	-80.000
215.09	-533.333
215.47	-216.667
215.84	-130.000
216.22	-80.000
216.59	26.667
216.97	-375.000
217.34	950.000
217.72	-185.714
218.09	-200.000
218.47	-242.857
218.84	314.286
219.22	-57.143
219.59	0.000
219.97	114.286
220.34	250.000
220.72	212.500
221.09	-46.154
221.47	0.000
221.84	333.333
222.22	-300.000
222.59	300.000
222.97	-275.000
223.34	-1050.000
223.72	-533.333
224.09	-57.143
224.46	-100.000
224.84	-78.571
225.21	-200.000
225.59	-45.455
225.96	-137.500
226.34	-100.000
226.71	-188.889
227.08	-45.000
227.46	2300.000
227.83	-171.429
228.21	-200.000
228.58	450.000
228.95	-12.500
229.33	-1900.000
229.70	-220.000
230.08	-900.000
230.45	-66.667
230.82	-200.000
231.20	-500.000
231.57	-750.000
231.95	1900.000
232.32	4.762
232.69	11.111
233.07	-257.143
233.44	-1350.000
233.81	-113.333
234.19	-166.667
234.56	-18.750
234.93	-15.625
235.31	-228.571
235.68	-121.429
236.05	5.882
236.43	-31.818
236.80	-16.129
237.17	-45.833
237.55	-95.238
237.92	-90.909
238.29	-22.857
238.67	-26.471
239.04	-38.889
239.41	-70.968
239.79	-46.154
240.16	-9.524
240.53	-38.182
240.91	-15.385
241.28	5.455
241.65	4.615
242.02	-13.115
242.40	-26.230
242.77	-16.667
243.14	-45.763
243.51	-30.000
243.89	-25.316
244.26	-4.494
244.63	-5.263
245.00	3.158
245.38	-5.085
245.75	-4.425
246.12	-8.800
246.49	-7.874
246.87	-11.382
247.24	-8.475
247.61	-11.017
247.98	-8.451
248.36	-9.091
248.73	-6.962
249.10	-14.013
249.47	-3.509
249.84	-0.568
250.22	-11.905
250.59	0.000
250.96	-2.094
251.33	0.474
251.70	-1.923
252.08	-1.422
252.45	-6.635
252.82	-8.095
253.19	-2.979
253.56	-10.081
253.94	-4.219
254.31	-9.013
254.68	-3.252
255.05	-2.016
255.42	-1.190
255.79	-5.376
256.16	-0.784
256.54	-1.471
256.91	-4.167
257.28	-8.791
257.65	-3.546
258.02	1.887
258.39	-0.334
258.76	-7.770
259.14	-0.617
259.51	-1.639
259.88	-0.610
260.25	3.727
260.62	-3.859
260.99	-3.561
261.36	1.524
261.73	0.578
262.10	3.056
262.47	-4.274
262.85	1.429
263.22	-3.725
263.59	-1.538
263.96	-3.188
264.33	0.813
264.70	-1.934
265.07	-0.549
265.44	-2.842
265.81	-1.809
266.18	-5.570
266.55	-3.186
266.92	0.756
267.29	-1.937
267.66	0.247
268.03	2.174
268.40	1.174
268.77	-0.723
269.14	-0.928
269.51	0.920
269.88	-3.211
270.25	-0.932
270.62	-1.373
270.99	-0.450
271.36	-0.466
271.73	0.673
272.10	-0.458
272.47	-1.778
272.84	1.111
273.21	-1.147
273.58	0.000
273.95	1.096
274.32	-1.584
274.69	0.219
275.06	-0.409
275.43	-2.902
275.80	0.407
276.17	0.628
276.54	0.000
276.91	0.412
277.28	0.203
277.65	-1.860
278.02	0.835
278.39	0.196
278.76	-0.797
279.13	0.593
279.50	0.398
279.87	-0.211
280.23	0.405
280.60	-0.199
280.97	-1.942
281.34	-0.580
281.71	0.000
282.08	-1.008
282.45	-4.684
282.82	0.388
283.19	-1.455
283.56	1.465
283.92	1.590
284.29	-2.974
284.66	0.000
285.03	1.783
285.40	-1.107
285.77	0.175
286.14	0.181
286.51	-0.533
286.87	0.181
287.24	0.512
287.61	0.496
287.98	-0.347
288.35	0.000
288.72	0.340
289.08	-1.525
289.45	0.505
289.82	-1.903
290.19	0.821
290.56	-1.157
290.93	-0.954
291.29	-0.810
291.66	-1.127
292.03	0.942
292.40	0.301
292.77	0.000
293.13	1.138
293.50	-0.594
293.87	0.460
294.24	0.603
294.60	-0.758
294.97	1.366
295.34	-1.037
295.71	0.893
296.08	-1.997
296.44	-2.003
296.81	1.567
297.18	-0.141
297.55	0.424
297.91	2.510
298.28	-0.137
298.65	-0.837
299.02	1.337
299.38	0.401
299.75	0.543
300.12	0.385
300.48	0.767
300.85	-0.917
301.22	0.129
301.59	0.910
301.95	0.756
302.32	-1.825
302.69	0.245
303.05	0.366
303.42	-0.500
303.79	-0.478
304.15	1.185
304.52	1.050
304.89	0.118
305.25	0.122
305.62	-0.235
305.99	2.709
306.35	0.222
306.72	-0.342
307.09	0.908
307.45	0.681
307.82	-0.670
308.19	0.671
308.55	0.980
308.92	-0.752
309.29	0.973
309.65	0.000
310.02	0.864
310.38	-0.973
310.75	0.615
311.12	0.207
311.48	0.104
311.85	0.000
312.22	1.030
312.58	1.729
312.95	0.714
313.31	0.799
313.68	1.608
314.05	2.077
314.41	-0.604
314.78	0.899
315.14	2.270
315.51	0.912
315.87	1.839
316.24	1.069
316.61	1.823
316.97	1.791
317.34	0.289
317.70	1.299
318.07	2.425
318.43	1.873
318.80	2.441
319.16	0.375
319.53	1.692
319.89	1.223
320.26	2.059
320.62	-0.096
320.99	2.886
321.35	0.591
321.72	1.433
322.08	2.770
322.45	0.396
322.81	2.209
323.18	2.402
323.54	3.142
323.91	3.707
324.27	2.567
324.64	3.565
325.00	3.229
325.37	2.986
325.73	5.687
326.10	3.543
326.46	4.116
326.83	4.766
327.19	5.338
327.56	5.792
327.92	6.457
328.29	6.580
328.65	4.818
329.01	5.565
329.38	6.601
329.74	7.601
330.11	7.434
330.47	7.902
330.84	9.533
331.20	7.852
331.56	9.480
331.93	8.259
332.29	10.137
332.66	9.921
333.02	8.416
333.38	10.125
333.75	11.131
334.11	9.778
334.48	9.797
334.84	11.374
335.20	10.993
335.57	10.740
335.93	11.638
336.29	10.275
336.66	11.013
337.02	11.892
337.38	11.497
337.75	11.062
338.11	12.433
338.47	10.854
338.84	10.980
339.20	11.951
339.56	12.299
339.93	12.169
340.29	11.869
340.65	12.325
341.02	11.383
341.38	12.721
341.74	12.532
342.11	12.031
342.47	11.330
342.83	11.671
343.20	13.151
343.56	10.694
343.92	12.104
344.28	12.868
344.65	12.046
345.01	12.101
345.37	12.957
345.73	11.620
346.10	11.774
346.46	11.373
346.82	12.510
347.19	10.600
347.55	11.477
347.91	11.654
348.27	11.456
348.63	13.166
349.00	12.729
349.36	10.226
349.72	12.420
350.08	12.029
350.45	10.875
350.81	13.296
351.17	11.817
351.53	10.819
351.89	11.560
352.26	11.628
352.62	12.826
352.98	12.816
353.34	11.910
353.70	12.046
354.07	12.667
354.43	11.779
354.79	12.044
355.15	11.342
355.51	11.562
355.87	11.621
356.24	11.279
356.60	12.490
356.96	12.471
357.32	11.481
357.68	12.337
358.04	12.471
358.40	10.982
358.77	12.056
359.13	10.712
359.49	12.472
359.85	11.204
360.21	12.861
360.57	12.801
360.93	13.704
361.29	11.659
361.66	10.823
362.02	11.908
362.38	12.399
362.74	12.821
363.10	11.693
363.46	12.892
363.82	11.880
364.18	12.663
364.54	13.581
364.90	12.089
365.26	12.340
365.62	12.188
365.98	12.802
366.35	12.394
366.71	12.403
367.07	13.056
367.43	13.315
367.79	12.577
368.15	10.882
368.51	12.517
368.87	13.668
369.23	12.632
369.59	11.806
369.95	12.896
370.31	14.135
370.67	12.509
371.03	12.828
371.39	12.235
371.75	13.448
372.11	12.554
372.47	12.943
372.83	12.726
373.19	13.000
373.55	12.667
373.91	12.091
374.27	13.552
374.63	13.527
374.99	13.491
375.35	12.786
375.71	13.167
376.07	13.073
376.42	11.788
376.78	13.399
377.14	13.085
377.50	13.669
377.86	12.809
378.22	13.191
378.58	13.156
378.94	13.132
379.30	13.711
379.66	13.783
380.02	13.488
380.38	13.414
380.74	13.951
381.09	13.298
381.45	14.141
381.81	13.914
382.17	13.784
382.53	12.888
382.89	13.995
383.25	14.088
383.61	13.384
383.97	14.574
384.32	12.954
384.68	13.664
385.04	13.043
385.40	13.877
385.76	13.902
386.12	13.304
386.48	14.728
386.83	13.313
387.19	14.166
387.55	14.416
387.91	14.286
388.27	13.510
388.62	13.522
388.98	12.962
389.34	13.525
389.70	13.825
390.06	14.481
390.42	13.397
390.77	13.249
391.13	14.783
391.49	14.099
391.85	14.027
392.20	14.199
392.56	13.745
392.92	13.463
393.28	14.237
393.64	13.951
393.99	14.338
394.35	13.686
394.71	14.145
395.07	14.250
395.42	13.468
395.78	13.451
396.14	14.455
396.50	14.067
396.85	12.708
397.21	13.001
397.57	13.799
397.92	13.876
398.28	13.722
398.64	13.623
399.00	14.831
399.35	13.923
399.71	13.995
400.07	13.433
400.42	13.686
400.78	13.655
401.14	13.473
401.49	13.149
401.85	13.728
402.21	13.707
402.57	14.017
402.92	14.034
403.28	12.990
403.63	13.421
403.99	13.797
404.35	12.742
404.70	13.458
405.06	14.360
405.42	12.485
405.77	13.405
406.13	12.890
406.49	13.361
406.84	12.837
407.20	12.839
407.55	12.920
407.91	13.083
408.27	13.419
408.62	13.349
408.98	13.281
409.34	11.822
409.69	13.296
410.05	13.220
410.40	13.427
410.76	13.041
411.11	13.404
411.47	13.235
411.83	13.081
412.18	12.314
412.54	12.142
412.89	13.062
413.25	12.279
413.60	11.968
413.96	11.399
414.31	13.150
414.67	12.127
415.03	12.937
415.38	12.362
415.74	13.080
416.09	12.788
416.45	12.302
416.80	12.094
417.16	12.890
417.51	14.051
417.87	12.816
418.22	13.211
418.58	12.965
418.93	13.366
419.29	13.551
419.64	12.500
420.00	15.067
420.35	13.187
420.71	13.806
421.06	13.609
421.42	12.998
421.77	13.009
422.12	13.766
422.48	13.629
422.83	13.610
423.19	13.307
423.54	12.795
423.90	13.997
424.25	13.857
424.61	14.234
424.96	14.277
425.31	13.807
425.67	13.811
426.02	12.909
426.38	14.882
426.73	14.378
427.09	13.909
427.44	13.295
427.79	13.256
428.15	14.782
428.50	15.367
428.85	14.029
429.21	13.835
429.56	14.479
429.92	14.830
430.27	14.407
430.62	15.204
430.98	14.846
431.33	14.995
431.68	15.496
432.04	15.277
432.39	14.815
432.74	15.288
433.10	14.800
433.45	14.853
433.80	15.622
434.16	15.261
434.51	16.219
434.86	15.231
435.22	14.755
435.57	16.218
435.92	15.475
436.28	14.955
436.63	15.150
436.98	15.349
437.34	15.416
437.69	15.636
438.04	15.598
438.39	15.945
438.75	15.949
439.10	15.825
439.45	15.389
439.81	15.843
440.16	16.809
440.51	16.471
440.86	16.021
441.22	15.755
441.57	16.263
441.92	16.215
442.27	16.071
442.63	16.524
442.98	15.745
443.33	16.529
443.68	16.519
444.03	16.945
444.39	16.838
444.74	17.181
445.09	16.338
445.44	16.826
445.79	16.369
446.15	17.470
446.50	16.766
446.85	17.547
447.20	17.160
447.55	17.403
447.91	17.125
448.26	17.263
448.61	17.035
448.96	17.143
449.31	17.982
449.66	17.172
450.02	17.008
450.37	16.812
450.72	17.514
451.07	17.410
451.42	16.729
451.77	17.115
452.12	17.104
452.47	17.191
452.83	17.880
453.18	18.153
453.53	17.662
453.88	18.002
454.23	16.868
454.58	18.583
454.93	18.703
455.28	17.527
455.63	17.936
455.98	17.470
456.34	17.090
456.69	18.824
457.04	17.763
457.39	17.344
457.74	17.720
458.09	17.923
458.44	18.360
458.79	19.058
459.14	18.768
459.49	18.472
459.84	18.494
460.19	18.735
460.54	17.907
460.89	18.105
461.24	18.822
461.59	18.523
461.94	18.014
462.29	18.880
462.64	18.182
462.99	18.474
463.34	17.893
463.69	18.257
464.04	16.989
464.39	18.041
464.74	18.381
465.09	18.100
465.44	18.613
465.79	18.895
466.14	18.642
466.49	19.286
466.84	18.307
467.19	19.015
467.54	17.785
467.89	18.927
468.24	19.359
468.59	18.738
468.94	18.521
469.29	18.519
469.64	18.935
469.99	18.704
470.34	18.704
470.68	19.767
471.03	19.339
471.38	18.194
471.73	18.601
472.08	18.809
472.43	19.369
472.78	19.467
473.13	18.224
473.48	18.762
473.83	18.797
474.17	19.236
474.52	20.205
474.87	18.939
475.22	18.053
475.57	18.778
475.92	19.708
476.27	19.771
476.61	19.437
476.96	19.340
477.31	19.376
477.66	19.867
478.01	19.179
478.36	19.434
478.70	19.221
479.05	19.578
479.40	19.689
479.75	19.623
480.10	19.296
480.45	18.714
480.79	20.089
481.14	19.167
481.49	19.748
481.84	19.602
482.19	19.598
482.53	20.360
482.88	19.601
483.23	19.906
483.58	20.398
483.92	19.876
484.27	19.451
484.62	20.000
484.97	19.447
485.31	19.040
485.66	18.294
486.01	18.621
486.36	18.955
486.70	19.782
487.05	19.168
487.40	19.284
487.75	19.034
488.09	19.271
488.44	20.095
488.79	19.950
489.13	19.741
489.48	20.269
489.83	19.563
490.17	20.157
490.52	20.788
490.87	20.370
491.22	19.944
491.56	20.602
491.91	20.038
492.26	20.849
492.60	20.885
492.95	20.324
493.30	20.677
493.64	20.498
493.99	20.363
494.34	21.857
494.68	20.927
495.03	19.837
495.37	20.600
495.72	20.285
496.07	20.835
496.41	20.889
496.76	20.457
497.11	20.914
497.45	21.073
497.80	20.610
498.14	21.316
498.49	20.442
498.84	20.680
499.18	21.589
499.53	20.214
499.87	20.125
500.22	20.784
500.56	21.011
500.91	20.788
501.26	21.009
501.60	20.703
501.95	21.932
502.29	20.123
502.64	21.782
502.98	21.227
503.33	21.335
503.67	20.594
504.02	21.053
504.36	20.686
504.71	20.871
505.06	20.519
505.40	21.657
505.75	20.630
506.09	21.587
506.44	20.652
506.78	21.274
507.13	21.473
507.47	22.170
507.82	20.909
508.16	21.503
508.51	21.278
508.85	20.911
509.19	21.664
509.54	21.617
509.88	21.915
510.23	21.436
510.57	22.804
510.92	21.590
511.26	21.265
511.61	21.112
511.95	21.175
512.30	21.605
512.64	21.202
512.98	22.662
513.33	21.691
513.67	21.496
514.02	21.644
514.36	22.604
514.70	21.449
515.05	21.326
515.39	21.569
515.74	22.978
516.08	22.305
516.42	22.720
516.77	23.224
517.11	22.311
517.46	23.026
517.80	22.142
518.14	22.222
518.49	22.176
518.83	21.602
519.17	21.906
519.52	22.499
519.86	22.461
520.20	22.372
520.55	21.600
520.89	22.041
521.23	22.589
521.58	21.567
521.92	22.483
522.26	22.222
522.61	22.243
522.95	21.698
523.29	23.511
523.64	22.049
523.98	23.106
524.32	22.062
524.66	22.236
525.01	21.708
525.35	22.552
525.69	22.902
526.04	22.128
526.38	23.361
526.72	22.542
527.06	22.656
527.41	22.112
527.75	21.782
528.09	22.899
528.43	23.607
528.78	22.864
529.12	22.535
529.46	22.552
529.80	22.595
530.15	22.666
530.49	22.316
530.83	22.659
531.17	22.963
531.51	22.438
531.86	22.581
532.20	22.402
532.54	22.259
532.88	22.332
533.22	22.259
533.57	22.454
533.91	20.911
534.25	21.496
534.59	22.236
534.93	21.655
535.27	22.215
535.62	23.338
535.96	22.237
536.30	21.793
536.64	22.510
536.98	22.528
537.32	21.769
537.66	21.317
538.01	21.649
538.35	21.757
538.69	22.527
539.03	23.087
539.37	22.023
539.71	21.948
540.05	21.453
540.39	22.368
540.73	22.668
541.07	21.721
541.42	21.540
541.76	21.728
542.10	23.295
542.44	22.585
542.78	22.931
543.12	23.354
543.46	21.507
543.80	21.605
544.14	21.357
544.48	22.310
544.82	22.530
545.16	22.803
545.50	20.458
545.84	22.392
546.18	21.775
546.52	22.404
546.86	21.866
547.20	22.574
547.54	21.350
547.88	22.296
548.22	20.970
548.56	21.710
548.90	22.978
549.24	21.233
549.58	22.653
549.92	22.968
550.26	22.760
550.60	22.262
550.94	22.701
551.28	22.122
551.62	22.157
551.96	22.721
552.30	22.439
552.64	22.730
552.98	22.565
553.32	22.078
553.66	22.567
554.00	21.962
554.34	22.599
554.68	23.026
555.02	22.431
555.36	22.502
555.69	21.777
556.03	22.526
556.37	23.471
556.71	22.262
557.05	22.690
557.39	22.569
557.73	23.341
558.07	23.436
558.41	22.737
558.75	22.966
559.08	21.323
559.42	23.354
559.76	23.466
560.10	22.819
560.44	23.772
560.78	22.199
561.12	21.601
561.45	22.397
561.79	23.136
562.13	22.581
562.47	23.179
562.81	21.994
563.15	22.253
563.48	22.737
563.82	22.245
564.16	21.704
564.50	22.379
564.84	21.429
565.17	22.281
565.51	22.034
565.85	23.124
566.19	22.991
566.52	22.309
566.86	22.440
567.20	23.245
567.54	21.796
567.88	21.441
568.21	21.141
568.55	21.686
568.89	20.726
569.23	20.685
569.56	20.471
569.90	21.007
570.24	20.819
570.57	19.789
570.91	20.299
571.25	20.071
571.59	20.200
571.92	20.506
572.26	19.802
572.60	20.292
572.93	19.604
573.27	19.543
573.61	19.358
573.95	19.691
574.28	18.669
574.62	19.954
574.96	18.843
575.29	19.868
575.63	19.591
575.97	18.689
576.30	19.183
576.64	19.321
576.98	19.557
577.31	19.023
577.65	19.280
577.98	18.788
578.32	18.901
578.66	19.169
578.99	18.772
579.33	19.267
579.67	19.097
580.00	19.469
580.34	19.496
580.67	18.730
581.01	18.807
581.35	19.146
581.68	18.645
582.02	19.148
582.35	18.829
582.69	19.119
583.02	19.540
583.36	19.233
583.70	19.048
584.03	19.477
584.37	19.838
584.70	19.191
585.04	19.013
585.37	18.807
585.71	19.400
586.04	19.504
586.38	19.032
586.72	19.560
587.05	19.938
587.39	19.557
587.72	19.512
588.06	19.395
588.39	19.225
588.73	19.644
589.06	20.173
589.40	20.234
589.73	20.078
590.07	18.937
590.40	20.369
590.73	20.232
591.07	19.385
591.40	20.017
591.74	20.113
592.07	19.820
592.41	20.212
592.74	19.754
593.08	20.220
593.41	19.441
593.75	19.585
594.08	19.339
594.41	20.591
594.75	20.347
595.08	20.075
595.42	19.581
595.75	19.258
596.09	19.596
596.42	20.417
596.75	20.095
597.09	20.169
597.42	19.686
597.75	20.106
598.09	20.018
598.42	20.106
598.76	19.892
599.09	19.613
599.42	20.185
599.76	20.159
600.09	20.649
600.42	19.332
600.76	19.510
601.09	19.445
601.42	19.153
601.76	20.093
602.09	19.427
602.42	19.877
602.76	19.360
603.09	19.677
603.42	19.702
603.76	19.705
604.09	19.223
604.42	19.650
604.76	19.538
605.09	19.665
605.42	20.080
605.75	19.491
606.09	19.718
606.42	19.271
606.75	20.223
607.09	19.718
607.42	19.278
607.75	19.691
608.08	20.380
608.42	20.151
608.75	19.346
609.08	20.068
609.41	19.980
609.75	19.893
610.08	20.735
610.41	19.663
610.74	20.309
611.07	19.574
611.41	19.617
611.74	21.388
612.07	21.053
612.40	19.829
612.73	19.871
613.07	20.363
613.40	20.854
613.73	20.381
614.06	20.154
614.39	20.293
614.72	19.609
615.06	19.891
615.39	19.533
615.72	20.424
616.05	19.658
616.38	19.965
616.71	20.420
617.05	20.929
617.38	20.433
617.71	20.332
618.04	20.683
618.37	20.063
618.70	21.121
619.03	19.838
619.36	21.212
619.69	21.752
620.03	20.730
620.36	21.097
620.69	21.967
621.02	20.396
621.35	21.048
621.68	21.311
622.01	21.036
622.34	21.429
622.67	20.547
623.00	20.964
623.33	20.821
623.66	19.793
623.99	21.880
624.32	20.536
624.65	21.486
624.99	19.492
625.32	20.808
625.65	21.057
625.98	20.501
626.31	21.860
626.64	22.176
626.97	20.805
627.30	22.043
627.63	20.121
627.96	20.888
628.29	22.151
628.62	22.445
628.95	22.343
629.28	22.650
629.61	22.964
629.94	22.212
630.26	22.465
630.59	23.618
630.92	21.622
631.25	22.077
631.58	23.915
631.91	19.787
632.24	23.111
632.57	22.444
632.90	23.218
633.23	21.846
633.56	22.573
633.89	23.231
634.22	21.842
634.55	22.236
634.88	23.458
635.20	21.723
635.53	24.682
635.86	22.166
636.19	22.466
636.52	22.342
636.85	22.623
637.18	19.375
637.51	24.659
637.83	23.036
638.16	21.974
638.49	22.483
638.82	23.938
639.15	22.438
639.48	21.271
639.81	22.545
640.13	23.649
640.46	21.937
640.79	23.529
641.12	22.708
641.45	21.377
641.77	24.102
642.10	22.205
642.43	21.700
642.76	22.835
643.09	22.222
643.41	23.651
643.74	23.847
644.07	24.961
644.40	23.987
644.73	25.083
645.05	23.372
645.38	23.510
645.71	26.632
646.04	24.538
646.36	22.862
646.69	24.394
647.02	25.993
647.35	23.105
647.67	23.905
648.00	24.780
648.33	25.126
648.66	21.613
648.98	23.408
649.31	21.231
649.64	22.031
649.96	22.920
650.29	22.459
650.62	22.719
650.94	24.283
651.27	23.224
651.60	23.529
651.92	24.315
652.25	21.202
652.58	22.317
652.90	22.311
653.23	20.968
653.56	21.739
653.88	22.295
654.21	23.154
654.54	21.927
654.86	22.793
655.19	20.057
655.52	19.652
655.84	16.338
656.17	18.035
656.49	24.358
656.82	25.261
657.15	18.758
657.47	13.903
657.80	10.849
658.13	12.348
658.45	16.654
658.78	16.251
659.10	16.513
659.43	16.350
659.75	16.562
660.08	16.719
660.41	17.458
660.73	18.702
661.06	21.449
661.38	23.750
661.71	22.562
662.03	23.387
662.36	25.586
662.68	24.262
663.01	23.779
663.33	22.902
663.66	25.751
663.98	22.321
664.31	23.937
664.63	25.885
664.96	21.909
665.28	21.258
665.61	22.410
665.93	21.193
666.26	23.684
666.58	23.285
666.91	22.494
667.23	23.465
667.56	23.356
667.88	22.398
668.21	20.968
668.53	22.430
668.86	21.478
669.18	22.831
669.50	23.832
669.83	21.655
670.15	21.300
670.48	22.664
670.80	18.451
671.13	22.122
671.45	22.748
671.77	21.199
672.10	20.316
672.42	21.771
672.75	18.364
673.07	16.577
673.39	20.583
673.72	24.803
674.04	20.807
674.37	20.412
674.69	24.590
675.01	19.574
675.34	19.740
675.66	21.598
675.98	21.366
676.31	20.588
676.63	22.069
676.95	21.018
677.28	21.578
677.60	23.077
677.92	24.229
678.25	21.225
678.57	21.811
678.89	22.432
679.22	20.335
679.54	21.499
679.86	19.000
680.18	20.913
680.51	17.132
680.83	20.952
681.15	21.195
681.48	19.270
681.80	19.758
682.12	19.115
682.44	20.236
682.77	17.749
683.09	22.432
683.41	21.239
683.73	18.493
684.06	19.785
684.38	18.619
684.70	18.930
685.02	19.685
685.34	20.273
685.67	18.182
685.99	18.336
686.31	20.646
686.63	17.908
686.96	17.560
687.28	19.461
687.60	19.727
687.92	17.510
688.24	21.457
688.56	20.842
688.89	20.940
689.21	21.444
689.53	22.069
689.85	19.599
690.17	18.386
690.49	20.092
690.82	19.518
691.14	16.745
691.46	19.069
691.78	20.044
692.10	19.915
692.42	18.222
692.74	16.738
693.06	18.202
693.39	18.121
693.71	18.962
694.03	19.870
694.35	17.381
694.67	18.913
694.99	18.414
695.31	19.643
695.63	18.622
695.95	19.603
696.27	17.706
696.59	20.588
696.91	21.067
697.23	21.615
697.56	17.548
697.88	18.919
698.20	16.488
698.52	15.247
698.84	19.417
699.16	17.619
699.48	16.500
699.80	20.050
700.12	20.907
700.44	18.994
700.76	19.242
701.08	21.221
701.40	14.502
701.72	16.358
702.04	18.910
702.36	18.675
702.68	17.066
703.00	19.420
703.32	14.327
703.64	20.882
703.96	21.221
704.28	18.639
704.60	19.304
704.91	17.143
705.23	20.388
705.55	17.230
705.87	21.502
706.19	19.444
706.51	18.750
706.83	21.311
707.15	17.834
707.47	20.661
707.79	18.814
708.11	13.995
708.43	20.200
708.74	17.922
709.06	16.992
709.38	15.805
709.70	17.500
710.02	18.405
710.34	16.172
710.66	14.921
710.98	20.820
711.29	16.452
711.61	17.252
711.93	18.689
712.25	17.940
712.57	16.028
712.89	23.022
713.20	20.619
713.52	16.791
713.84	16.014
714.16	19.344
714.48	13.651
714.80	16.923
715.11	15.274
715.43	18.373
715.75	16.199
716.07	18.689
716.39	20.401
716.70	20.209
717.02	17.407
717.34	19.847
717.66	17.427
717.97	16.393
718.29	18.908
718.61	17.857
718.93	17.921
719.24	14.706
719.56	11.321
719.88	20.364
720.20	14.232
720.51	20.301
720.83	16.867
721.15	15.984
721.46	17.647
721.78	13.410
722.10	16.800
722.42	16.942
722.73	19.124
723.05	15.261
723.37	17.647
723.68	16.599
724.00	21.138
724.32	16.872
724.63	9.544
724.95	22.727
725.27	12.719
725.58	20.259
725.90	12.698
726.22	18.819
726.53	22.433
726.85	9.412
727.16	15.789
727.48	13.846
727.80	12.705
728.11	14.706
728.43	14.876
728.74	15.625
729.06	15.909
729.38	16.342
729.69	15.748
730.01	15.748
730.32	12.749
730.64	16.850
730.96	13.806
731.27	15.357
731.59	12.540
731.90	15.951
732.22	16.258
732.53	15.232
732.85	12.081
733.16	15.942
733.48	11.498
733.80	12.811
734.11	16.897
734.43	15.306
734.74	17.804
735.06	14.734
735.37	16.208
735.69	11.935
736.00	11.448
736.32	16.556
736.63	11.724
736.95	12.681
737.26	18.543
737.58	14.748
737.89	13.620
738.21	9.023
738.52	11.538
738.83	10.156
739.15	15.812
739.46	17.742
739.78	13.636
740.09	15.385
740.41	13.287
740.72	10.584
741.04	9.921
741.35	7.792
741.66	22.222
741.98	10.952
742.29	15.493
742.61	13.904
742.92	14.953
743.23	12.281
743.55	17.117
743.86	20.444
744.18	15.714
744.49	11.823
744.80	10.152
745.12	17.010
745.43	12.060
745.74	18.932
746.06	9.756
746.37	16.740
746.68	11.940
747.00	19.372
747.31	11.538
747.62	15.668
747.94	12.227
748.25	15.349
748.56	18.571
748.88	10.870
749.19	17.840
749.50	16.667
749.82	15.556
750.13	16.300
750.44	14.634
750.75	12.400
751.07	16.786
751.38	11.808
751.69	12.214
752.01	12.308
752.32	9.728
752.63	8.846
752.94	13.492
753.26	12.174
753.57	16.518
753.88	13.362
754.19	12.033
754.51	15.625
754.82	13.439
755.13	11.934
755.44	7.025
755.75	13.580
756.07	11.647
756.38	5.859
756.69	14.440
757.00	10.453
757.31	13.087
757.63	16.822
757.94	13.584
758.25	10.756
758.56	15.903
758.87	9.943
759.18	10.000
759.50	12.811
759.81	12.774
760.12	11.824
760.43	13.916
760.74	12.187
761.05	11.517
761.36	14.671
761.67	17.160
761.99	11.290
762.30	11.232
762.61	15.094
762.92	16.592
763.23	12.796
763.54	10.667
763.85	11.392
764.16	11.429
764.47	11.864
764.78	14.232
765.10	14.388
765.41	11.935
765.72	13.522
766.03	8.127
766.34	6.391
766.65	14.575
766.96	2.500
767.27	12.500
767.58	15.116
767.89	10.968
768.20	13.497
768.51	16.940
768.82	5.946
769.13	10.000
769.44	9.211
769.75	9.957
770.06	11.009
770.37	13.146
770.68	6.771
770.99	11.386
771.30	7.282
771.61	9.259
771.92	9.091
772.23	7.944
772.54	9.574
772.85	8.876
773.16	7.927
773.47	12.048
773.78	9.890
774.09	10.667
774.39	7.407
774.70	5.369
775.01	6.522
775.32	5.970
775.63	-4.959
775.94	12.782
776.25	11.429
776.56	15.574
776.87	15.044
777.18	10.619
777.48	5.455
777.79	2.609
778.10	13.761
778.41	4.237
778.72	19.008
779.03	11.940
779.34	7.519
779.65	5.882
779.95	12.319
780.26	6.803
780.57	-5.172
780.88	11.111
781.19	4.040
781.50	3.200
781.80	12.418
782.11	3.205
782.42	4.819
782.73	0.730
783.04	14.865
783.34	10.606
783.65	6.977
783.96	4.065
784.27	5.128
784.57	7.317
784.88	4.065
785.19	14.912
785.50	-23.711
785.81	2.857
786.11	-4.902
786.42	6.364
786.73	3.604
787.04	10.891
787.34	5.714
787.65	0.000
787.96	0.980
788.26	9.009
788.57	12.097
788.88	3.906
789.19	8.547
789.49	-6.723
789.80	3.419
790.11	1.770
790.41	8.081
790.72	16.981
791.03	-19.444
791.33	2.632
791.64	0.000
791.95	-2.667
792.25	4.286
792.56	-3.659
792.87	12.245
793.17	-6.579
793.48	-2.703
793.79	-16.901
794.09	5.063
794.40	10.638
794.70	5.607
795.01	-1.754
795.32	-2.727
795.62	8.036
795.93	0.000
796.23	-8.791
796.54	21.053
796.85	-15.068
797.15	-9.722
797.46	1.370
797.76	22.535
798.07	-6.250
798.37	0.000
798.68	-2.857
798.99	11.429
799.29	6.579
799.60	0.000
799.90	-5.556
800.21	1.562
800.51	1.587
800.82	-6.557
801.12	10.526
801.43	2.817
801.73	0.000
802.04	-8.197
802.34	-5.455
802.65	-28.846
802.95	0.000
803.26	-37.500
803.56	7.692
803.87	-5.263
804.17	8.065
804.48	15.385
804.78	-12.821
805.09	-13.953
805.39	-34.375
805.70	-35.849
806.00	5.263
806.30	20.270
806.61	4.412
806.91	1.235
807.22	4.000
807.52	-7.463
807.83	-16.129
808.13	-9.524
808.43	-18.182
808.74	-6.061
809.04	-3.774
809.35	8.219
809.65	-3.509
809.95	8.824
810.26	0.000
810.56	-32.000
810.86	6.122
811.17	-34.286
811.47	-5.769
811.77	-16.129
812.08	-57.895
812.38	11.905
812.69	-19.565
812.99	0.000
813.29	-23.810
813.59	-81.481
813.90	-27.660
814.20	-20.930
814.50	-18.750
814.81	-11.667
815.11	-17.073
815.41	-30.000
815.72	-14.286
816.02	-19.444
816.32	-7.692
816.62	-10.811
816.93	-61.765
817.23	-8.696
817.53	-41.176
817.84	0.000
818.14	-34.375
818.44	-82.759
818.74	-41.935
819.04	3.704
819.35	-36.667
819.65	-60.000
819.95	3.333
820.25	-40.000
820.56	0.000
820.86	-15.000
821.16	-2.128
821.46	-3.448
821.76	-23.077
822.07	-15.000
822.37	-13.953
822.67	-56.667
822.97	-27.027
823.27	-18.919
823.57	24.000
823.88	-16.216
824.18	-104.762
824.48	-46.154
824.78	-153.846
825.08	-30.435
825.38	-25.000
825.69	-37.500
825.99	-70.000
826.29	-37.838
826.59	-26.471
826.89	-4.000
827.19	-25.714
827.49	5.263
827.79	-43.750
828.09	-36.667
828.39	-43.478
828.70	-58.621
829.00	10.345
829.30	8.333
829.60	18.750
829.90	-61.111
830.20	-34.615
830.50	-71.429
830.80	-50.000
831.10	10.256
831.40	-38.095
831.70	-38.235
832.00	-33.333
832.30	-68.421
832.60	-50.000
832.90	-125.000
833.20	-88.235
833.50	-53.333
833.80	-60.000
834.10	-60.000
834.40	-83.333
834.70	-27.778
835.00	-7.692
835.30	-50.000
835.60	-13.793
835.90	-50.000
836.20	-90.909
836.50	-216.667
836.80	-8.571
837.10	20.000
837.40	-88.235
837.70	-100.000
838.00	-12.500
838.30	-62.500
838.60	-9.524
838.90	-25.000
839.19	-60.870
839.49	-4.348
839.79	-83.333
840.09	-60.870
840.39	-63.636
840.69	-12.500
840.99	-78.947
841.29	-118.750
841.59	14.286
841.88	-44.444
842.18	-41.667
842.48	-82.353
842.78	-37.931
843.08	-64.286
843.38	-53.846
843.68	-122.222
843.97	-184.615
844.27	-109.091
844.57	-180.000
844.87	4.000
845.17	-100.000
845.47	-100.000
845.76	-155.556
846.06	0.000
846.36	-700.000
846.66	-120.000
846.96	-26.316
847.25	-4.167
847.55	-166.667
847.85	-26.667
848.15	-210.000
848.44	23.077
848.74	-21.053
849.04	600.000
849.34	-133.333
849.63	-110.526
849.93	0.000
850.23	-55.000
850.53	-47.619
850.82	-28.000
851.12	-105.263
851.42	-1050.000
851.71	-21.429
852.01	-175.000
852.31	-35.294
852.61	-93.333
852.90	0.000
853.20	-166.667
853.50	5.556
853.79	-100.000
854.09	-80.000
854.39	-50.000
854.68	-34.783
854.98	-200.000
855.28	-17.241
855.57	-68.750
855.87	-15.000
856.17	-86.667
856.46	3.448
856.76	-100.000
857.05	-58.824
857.35	-38.462
857.65	-45.455
857.94	-51.852
858.24	-107.143
858.53	-114.286
858.83	-166.667
859.13	-133.333
859.42	14.286
859.72	-150.000
860.01	-566.667
860.31	-100.000
860.60	-300.000
860.90	-222.222
861.20	-175.000
861.49	-157.143
861.79	-41.176
862.08	-900.000
862.38	-100.000
862.67	-15.385
862.97	-52.941
863.26	10.000
863.56	-70.588
863.85	333.333
864.15	-150.000
864.44	-115.385
864.74	-90.000
865.03	-200.000
865.33	-166.667
865.62	-70.588
865.92	-450.000
866.21	-142.857
866.51	-75.000
866.80	-900.000
867.10	266.667
867.39	-47.059
867.69	4.348
867.98	-100.000
868.27	-340.000
868.57	-81.250
868.86	-163.636
869.16	-17.647
869.45	-133.333
869.75	-157.143
870.04	1300.000
870.33	-83.333
870.63	-140.000
870.92	-77.778
871.22	-66.667
871.51	-63.636
871.80	-100.000
872.10	-40.000
>>>>>End Processed Spectral Data<<<<<
