SpectraSuite Data File
++++++++++++++++++++++++++++++++++++
Date: Sat May 16 11:31:41 PDT 2015
User: schluterlab
Dark Spectrum Present: Yes
Reference Spectrum Present: Yes
Number of Sampled Component Spectra: 1
Spectrometers: USB2E3373
Integration Time (usec): 3000 (USB2E3373)
Spectra Averaged: 3 (USB2E3373)
Boxcar Smoothing: 0 (USB2E3373)
Correct for Electrical Dark: No (USB2E3373)
Strobe/Lamp Enabled: No (USB2E3373)
Correct for Detector Non-linearity: No (USB2E3373)
Correct for Stray Light: No (USB2E3373)
Number of Pixels in Processed Spectrum: 2048
>>>>>Begin Processed Spectral Data<<<<<
178.53	0.000
178.91	100.000
179.29	633.333
179.67	-1000.000
180.04	-61.538
180.42	-400.000
180.80	300.000
181.18	250.000
181.56	-50.000
181.94	1300.000
182.31	575.000
182.69	7.692
183.07	-633.333
183.45	1150.000
183.83	500.000
184.20	-100.000
184.58	-150.000
184.96	-350.000
185.34	150.000
185.72	-475.000
186.09	316.667
186.47	-312.500
186.85	-212.500
187.23	-150.000
187.61	-275.000
187.98	-262.500
188.36	-87.500
188.74	-250.000
189.12	1400.000
189.49	242.857
189.87	-166.667
190.25	225.000
190.63	-100.000
191.00	-266.667
191.38	260.000
191.76	26.667
192.14	520.000
192.51	-220.000
192.89	-200.000
193.27	0.000
193.65	-55.556
194.02	-200.000
194.40	200.000
194.78	-50.000
195.15	-600.000
195.53	-136.364
195.91	-566.667
196.29	300.000
196.66	-400.000
197.04	1700.000
197.42	-150.000
197.79	66.667
198.17	-633.333
198.55	-600.000
198.92	-2000.000
199.30	275.000
199.68	-800.000
200.05	-22.222
200.43	-166.667
200.81	-600.000
201.18	-125.000
201.56	128.571
201.94	-86.667
202.31	-18.182
202.69	0.000
203.07	-90.000
203.44	733.333
203.82	-200.000
204.19	-325.000
204.57	-250.000
204.95	-1300.000
205.32	-81.250
205.70	500.000
206.08	-1400.000
206.45	-61.111
206.83	-650.000
207.20	0.000
207.58	-500.000
207.96	-366.667
208.33	-275.000
208.71	-100.000
209.08	180.000
209.46	-200.000
209.84	800.000
210.21	0.000
210.59	-5.000
210.96	800.000
211.34	-300.000
211.71	-300.000
212.09	225.000
212.46	1500.000
212.84	-2200.000
213.22	600.000
213.59	133.333
213.97	-166.667
214.34	120.000
214.72	-160.000
215.09	-566.667
215.47	-50.000
215.84	-60.000
216.22	-10.000
216.59	-60.000
216.97	-575.000
217.34	1050.000
217.72	-257.143
218.09	-250.000
218.47	-214.286
218.84	271.429
219.22	-114.286
219.59	0.000
219.97	185.714
220.34	300.000
220.72	125.000
221.09	-130.769
221.47	0.000
221.84	333.333
222.22	-350.000
222.59	1500.000
222.97	-175.000
223.34	-900.000
223.72	-333.333
224.09	-78.571
224.46	-475.000
224.84	-71.429
225.21	-257.143
225.59	-63.636
225.96	-37.500
226.34	-42.857
226.71	-44.444
227.08	-25.000
227.46	1400.000
227.83	-257.143
228.21	-325.000
228.58	-50.000
228.95	12.500
229.33	-1200.000
229.70	-440.000
230.08	-500.000
230.45	-83.333
230.82	-116.667
231.20	-1200.000
231.57	-750.000
231.95	1500.000
232.32	9.524
232.69	-100.000
233.07	-142.857
233.44	-750.000
233.81	-33.333
234.19	-22.222
234.56	-62.500
234.93	15.625
235.31	-342.857
235.68	-142.857
236.05	17.647
236.43	-36.364
236.80	3.226
237.17	29.167
237.55	-19.048
237.92	0.000
238.29	22.857
238.67	2.941
239.04	13.889
239.41	32.258
239.79	0.000
240.16	30.952
240.53	14.545
240.91	-10.256
241.28	21.818
241.65	40.000
242.02	29.508
242.40	19.672
242.77	39.394
243.14	38.983
243.51	20.000
243.89	37.975
244.26	25.843
244.63	51.579
245.00	42.105
245.38	33.898
245.75	38.053
246.12	36.000
246.49	33.858
246.87	30.894
247.24	32.203
247.61	33.898
247.98	33.803
248.36	37.063
248.73	36.709
249.10	29.299
249.47	37.427
249.84	45.455
250.22	29.167
250.59	38.983
250.96	39.267
251.33	44.076
251.70	35.096
252.08	37.915
252.45	39.336
252.82	37.619
253.19	38.298
253.56	39.113
253.94	44.304
254.31	34.764
254.68	43.902
255.05	44.758
255.42	40.079
255.79	37.634
256.16	43.529
256.54	43.015
256.91	45.076
257.28	40.659
257.65	41.135
258.02	43.082
258.39	46.488
258.76	38.514
259.14	39.506
259.51	45.246
259.88	41.159
260.25	40.373
260.62	44.051
260.99	42.730
261.36	40.549
261.73	44.220
262.10	46.389
262.47	42.165
262.85	44.286
263.22	40.401
263.59	41.231
263.96	42.029
264.33	42.547
264.70	44.751
265.07	40.385
265.44	39.793
265.81	41.085
266.18	42.025
266.55	42.892
266.92	44.332
267.29	42.615
267.66	42.963
268.03	44.928
268.40	43.192
268.77	42.410
269.14	39.907
269.51	41.839
269.88	41.055
270.25	39.860
270.62	42.105
270.99	41.667
271.36	40.093
271.73	40.807
272.10	46.224
272.47	40.444
272.84	41.111
273.21	40.138
273.58	41.538
273.95	41.228
274.32	41.176
274.69	43.982
275.06	42.331
275.43	42.411
275.80	45.621
276.17	41.423
276.54	43.381
276.91	40.947
277.28	40.771
277.65	40.909
278.02	40.919
278.39	42.043
278.76	39.044
279.13	41.304
279.50	44.135
279.87	40.169
280.23	41.700
280.60	43.141
280.97	41.748
281.34	41.393
281.71	42.692
282.08	42.742
282.45	40.326
282.82	43.605
283.19	38.182
283.56	42.125
283.92	40.459
284.29	41.078
284.66	38.849
285.03	40.463
285.40	42.804
285.77	43.333
286.14	41.877
286.51	41.208
286.87	37.387
287.24	41.126
287.61	40.165
287.98	38.821
288.35	37.851
288.72	38.540
289.08	37.119
289.45	37.542
289.82	37.197
290.19	40.066
290.56	36.860
290.93	35.453
291.29	37.115
291.66	37.359
292.03	38.305
292.40	35.843
292.77	37.267
293.13	36.911
293.50	34.621
293.87	35.123
294.24	35.143
294.60	32.727
294.97	35.964
295.34	33.778
295.71	33.929
296.08	32.565
296.44	34.192
296.81	34.615
297.18	33.239
297.55	33.898
297.91	35.425
298.28	32.192
298.65	31.939
299.02	32.620
299.38	32.086
299.75	32.201
300.12	31.026
300.48	32.992
300.85	30.931
301.22	31.307
301.59	30.819
301.95	31.486
302.32	31.291
302.69	29.865
303.05	29.548
303.42	29.000
303.79	31.579
304.15	28.791
304.52	30.338
304.89	30.697
305.25	29.426
305.62	30.082
305.99	30.389
306.35	27.303
306.72	28.018
307.09	28.831
307.45	28.604
307.82	26.927
308.19	29.195
308.55	29.412
308.92	28.034
309.29	28.432
309.65	28.526
310.02	29.698
310.38	27.027
310.75	28.689
311.12	28.616
311.48	29.019
311.85	28.012
312.22	27.497
312.58	27.467
312.95	27.013
313.31	28.472
313.68	28.543
314.05	28.783
314.41	27.264
314.78	27.473
315.14	27.937
315.51	26.849
315.87	28.170
316.24	28.086
316.61	28.311
316.97	29.851
317.34	26.782
317.70	27.365
318.07	28.078
318.43	27.247
318.80	27.793
319.16	26.642
319.53	26.410
319.89	26.435
320.26	26.176
320.62	26.346
320.99	26.070
321.35	24.828
321.72	26.510
322.08	27.794
322.45	26.931
322.81	26.609
323.18	27.474
323.54	26.155
323.91	27.433
324.27	27.567
324.64	26.234
325.00	25.829
325.37	26.787
325.73	27.909
326.10	25.775
326.46	25.832
326.83	26.213
327.19	25.771
327.56	27.087
327.92	26.338
328.29	27.100
328.65	25.455
329.01	26.413
329.38	25.245
329.74	26.648
330.11	26.564
330.47	26.975
330.84	27.498
331.20	26.083
331.56	25.615
331.93	26.288
332.29	26.484
332.66	26.953
333.02	25.068
333.38	25.896
333.75	26.269
334.11	25.067
334.48	23.919
334.84	26.509
335.20	26.507
335.57	26.083
335.93	26.052
336.29	24.535
336.66	25.639
337.02	25.045
337.38	24.777
337.75	24.934
338.11	25.939
338.47	26.068
338.84	25.771
339.20	25.132
339.56	25.312
339.93	25.044
340.29	24.978
340.65	24.301
341.02	25.970
341.38	24.768
341.74	24.555
342.11	24.147
342.47	25.322
342.83	24.349
343.20	25.192
343.56	23.673
343.92	25.876
344.28	26.577
344.65	24.340
345.01	23.445
345.37	25.166
345.73	24.141
346.10	22.322
346.46	24.452
346.82	23.416
347.19	23.254
347.55	23.435
347.91	24.646
348.27	23.866
348.63	25.687
349.00	23.707
349.36	23.731
349.72	24.841
350.08	25.341
350.45	23.247
350.81	24.204
351.17	23.714
351.53	22.673
351.89	22.959
352.26	23.953
352.62	24.040
352.98	23.734
353.34	23.741
353.70	23.784
354.07	23.131
354.43	24.427
354.79	24.326
355.15	23.882
355.51	22.891
355.87	23.953
356.24	22.716
356.60	24.255
356.96	24.711
357.32	23.990
357.68	23.142
358.04	23.865
358.40	22.815
358.77	23.416
359.13	22.724
359.49	24.339
359.85	23.171
360.21	22.527
360.57	24.849
360.93	24.296
361.29	23.393
361.66	22.713
362.02	23.077
362.38	23.331
362.74	23.590
363.10	22.597
363.46	23.504
363.82	22.959
364.18	22.069
364.54	23.302
364.90	22.572
365.26	23.181
365.62	22.951
365.98	23.542
366.35	23.451
366.71	22.410
367.07	21.948
367.43	24.091
367.79	23.299
368.15	22.404
368.51	23.427
368.87	23.352
369.23	22.526
369.59	22.014
369.95	22.692
370.31	23.980
370.67	22.560
371.03	23.032
371.39	22.772
371.75	23.534
372.11	23.458
372.47	22.921
372.83	23.435
373.19	22.643
373.55	22.942
373.91	22.973
374.27	22.177
374.63	22.360
374.99	23.296
375.35	22.611
375.71	23.835
376.07	22.724
376.42	22.053
376.78	22.876
377.14	22.983
377.50	22.502
377.86	23.342
378.22	23.492
378.58	22.792
378.94	22.072
379.30	22.182
379.66	23.194
380.02	22.519
380.38	22.477
380.74	22.333
381.09	23.199
381.45	23.747
381.81	22.686
382.17	23.810
382.53	22.675
382.89	22.787
383.25	23.781
383.61	22.406
383.97	23.515
384.32	23.279
384.68	23.579
385.04	22.585
385.40	21.911
385.76	23.354
386.12	23.673
386.48	23.453
386.83	23.313
387.19	23.790
387.55	22.774
387.91	23.592
388.27	22.497
388.62	22.596
388.98	22.895
389.34	23.256
389.70	23.508
390.06	22.933
390.42	23.397
390.77	22.713
391.13	24.348
391.49	23.331
391.85	23.254
392.20	22.512
392.56	23.030
392.92	23.446
393.28	23.192
393.64	22.850
393.99	23.815
394.35	23.540
394.71	23.410
395.07	24.043
395.42	22.467
395.78	23.067
396.14	23.178
396.50	23.242
396.85	22.949
397.21	22.783
397.57	23.647
397.92	22.775
398.28	23.222
398.64	23.022
399.00	22.809
399.35	23.393
399.71	23.171
400.07	22.209
400.42	24.209
400.78	23.494
401.14	22.515
401.49	22.877
401.85	22.636
402.21	23.480
402.57	23.422
402.92	24.292
403.28	23.100
403.63	23.008
403.99	23.182
404.35	23.188
404.70	23.054
405.06	22.953
405.42	21.894
405.77	22.172
406.13	22.998
406.49	23.307
406.84	23.275
407.20	23.734
407.55	23.433
407.91	23.446
408.27	23.223
408.62	22.610
408.98	22.620
409.34	22.852
409.69	22.684
410.05	23.044
410.40	22.624
410.76	23.533
411.11	23.379
411.47	23.146
411.83	24.083
412.18	23.020
412.54	21.965
412.89	23.390
413.25	22.314
413.60	22.722
413.96	21.935
414.31	22.630
414.67	22.095
415.03	23.027
415.38	23.162
415.74	22.294
416.09	23.210
416.45	22.354
416.80	22.562
417.16	23.588
417.51	24.228
417.87	22.265
418.22	22.946
418.58	23.235
418.93	23.053
419.29	23.149
419.64	22.236
420.00	23.512
420.35	22.413
420.71	22.689
421.06	22.544
421.42	21.956
421.77	22.836
422.12	22.888
422.48	22.555
422.83	22.323
423.19	23.163
423.54	22.824
423.90	22.903
424.25	22.229
424.61	23.462
424.96	23.932
425.31	23.141
425.67	23.840
426.02	22.662
426.38	22.868
426.73	23.203
427.09	22.610
427.44	22.841
427.79	22.326
428.15	22.980
428.50	22.933
428.85	22.722
429.21	23.464
429.56	22.969
429.92	22.846
430.27	22.832
430.62	23.511
430.98	22.948
431.33	23.159
431.68	23.164
432.04	23.839
432.39	23.476
432.74	23.201
433.10	22.622
433.45	23.028
433.80	23.460
434.16	23.912
434.51	23.452
434.86	24.077
435.22	23.163
435.57	23.195
435.92	23.212
436.28	23.501
436.63	22.838
436.98	22.279
437.34	23.509
437.69	23.512
438.04	22.008
438.39	24.128
438.75	23.923
439.10	23.098
439.45	22.631
439.81	23.193
440.16	23.225
440.51	23.941
440.86	23.597
441.22	22.056
441.57	23.263
441.92	22.609
442.27	23.160
442.63	23.122
442.98	22.348
443.33	23.504
443.68	23.398
444.03	23.428
444.39	22.663
444.74	23.183
445.09	22.807
445.44	23.467
445.79	23.355
446.15	23.001
446.50	22.265
446.85	23.345
447.20	22.574
447.55	23.646
447.91	23.077
448.26	23.017
448.61	22.524
448.96	23.417
449.31	23.281
449.66	23.240
450.02	23.102
450.37	22.435
450.72	22.825
451.07	22.816
451.42	22.615
451.77	22.980
452.12	22.586
452.47	22.733
452.83	22.481
453.18	23.150
453.53	22.823
453.88	23.206
454.23	22.491
454.58	23.493
454.93	22.922
455.28	23.582
455.63	22.359
455.98	23.253
456.34	22.173
456.69	23.202
457.04	22.680
457.39	21.531
457.74	22.209
458.09	22.970
458.44	22.921
458.79	22.309
459.14	22.818
459.49	23.091
459.84	22.934
460.19	22.792
460.54	22.626
460.89	22.141
461.24	22.890
461.59	21.805
461.94	22.533
462.29	22.692
462.64	23.123
462.99	22.959
463.34	22.755
463.69	23.219
464.04	22.496
464.39	21.983
464.74	22.045
465.09	21.046
465.44	22.222
465.79	22.899
466.14	22.037
466.49	22.395
466.84	22.629
467.19	21.945
467.54	22.468
467.89	22.935
468.24	22.328
468.59	21.674
468.94	22.315
469.29	21.702
469.64	22.305
469.99	22.620
470.34	21.910
470.68	22.965
471.03	22.643
471.38	21.806
471.73	23.357
472.08	21.754
472.43	21.622
472.78	22.600
473.13	21.339
473.48	22.272
473.83	22.581
474.17	21.019
474.52	22.890
474.87	22.203
475.22	22.065
475.57	22.056
475.92	22.300
476.27	22.229
476.61	22.197
476.96	21.632
477.31	21.744
477.66	21.915
478.01	21.934
478.36	22.472
478.70	22.424
479.05	22.066
479.40	22.332
479.75	21.509
480.10	22.321
480.45	21.228
480.79	22.211
481.14	22.880
481.49	21.491
481.84	21.960
482.19	22.248
482.53	22.206
482.88	21.737
483.23	21.831
483.58	22.618
483.92	22.408
484.27	21.489
484.62	21.598
484.97	22.525
485.31	21.664
485.66	22.054
486.01	22.500
486.36	23.642
486.70	24.240
487.05	23.011
487.40	22.810
487.75	22.263
488.09	22.174
488.44	22.564
488.79	23.134
489.13	21.909
489.48	22.635
489.83	22.664
490.17	22.072
490.52	22.373
490.87	20.739
491.22	21.579
491.56	21.852
491.91	21.517
492.26	21.698
492.60	20.885
492.95	21.894
493.30	21.582
493.64	21.768
493.99	21.080
494.34	21.524
494.68	22.378
495.03	21.654
495.37	21.436
495.72	22.151
496.07	22.149
496.41	22.464
496.76	21.005
497.11	21.667
497.45	22.222
497.80	21.461
498.14	21.464
498.49	21.346
498.84	21.311
499.18	21.686
499.53	21.627
499.87	21.622
500.22	22.255
500.56	22.211
500.91	21.232
501.26	21.640
501.60	22.340
501.95	22.126
502.29	22.012
502.64	21.735
502.98	22.472
503.33	21.617
503.67	21.695
504.02	21.004
504.36	21.961
504.71	21.733
505.06	20.969
505.40	22.405
505.75	21.443
506.09	21.335
506.44	21.805
506.78	21.576
507.13	20.958
507.47	21.648
507.82	21.683
508.16	21.658
508.51	21.432
508.85	20.652
509.19	21.455
509.54	21.776
509.88	21.330
510.23	21.646
510.57	21.640
510.92	21.697
511.26	20.255
511.61	20.950
511.95	21.659
512.30	21.165
512.64	20.590
512.98	21.452
513.33	20.977
513.67	21.441
514.02	21.365
514.36	21.053
514.70	21.505
515.05	22.470
515.39	21.223
515.74	22.280
516.08	21.729
516.42	20.737
516.77	21.953
517.11	21.682
517.46	21.232
517.80	20.638
518.14	21.075
518.49	20.622
518.83	21.306
519.17	21.078
519.52	21.110
519.86	21.027
520.20	21.455
520.55	21.108
520.89	20.413
521.23	21.184
521.58	20.878
521.92	21.849
522.26	21.270
522.61	20.976
522.95	19.400
523.29	21.567
523.64	20.050
523.98	20.560
524.32	20.993
524.66	21.180
525.01	21.452
525.35	21.327
525.69	20.885
526.04	21.671
526.38	21.515
526.72	20.562
527.06	20.768
527.41	21.056
527.75	20.198
528.09	20.649
528.43	19.869
528.78	21.106
529.12	22.663
529.46	21.521
529.80	21.433
530.15	21.507
530.49	22.251
530.83	21.611
531.17	20.673
531.51	20.697
531.86	21.725
532.20	21.727
532.54	22.126
532.88	21.080
533.22	22.126
533.57	21.802
533.91	21.411
534.25	21.936
534.59	21.049
534.93	20.597
535.27	20.831
535.62	21.228
535.96	21.526
536.30	21.073
536.64	21.780
536.98	21.751
537.32	21.355
537.66	21.249
538.01	21.168
538.35	22.027
538.69	20.922
539.03	21.395
539.37	21.025
539.71	22.015
540.05	21.727
540.39	21.053
540.73	21.078
541.07	21.516
541.42	20.459
541.76	20.997
542.10	22.620
542.44	22.252
542.78	21.303
543.12	22.539
543.46	20.753
543.80	22.207
544.14	20.215
544.48	22.113
544.82	20.974
545.16	21.865
545.50	20.929
545.84	21.280
546.18	21.914
546.52	21.479
546.86	21.368
547.20	21.660
547.54	20.661
547.88	21.500
548.22	20.446
548.56	20.975
548.90	21.765
549.24	21.374
549.58	22.018
549.92	21.555
550.26	21.243
550.60	20.626
550.94	21.095
551.28	21.068
551.62	20.532
551.96	21.563
552.30	21.951
552.64	21.605
552.98	22.214
553.32	21.284
553.66	22.206
554.00	21.748
554.34	21.227
554.68	20.906
555.02	22.287
555.36	21.423
555.69	21.203
556.03	21.404
556.37	20.839
556.71	21.188
557.05	22.025
557.39	21.604
557.73	22.174
558.07	21.326
558.41	20.718
558.75	20.913
559.08	21.323
559.42	21.057
559.76	20.859
560.10	22.148
560.44	21.604
560.78	22.129
561.12	22.084
561.45	21.575
561.79	21.812
562.13	21.809
562.47	21.639
562.81	21.429
563.15	22.113
563.48	21.355
563.82	21.433
564.16	21.163
564.50	22.110
564.84	21.892
565.17	21.817
565.51	21.121
565.85	21.704
566.19	22.003
566.52	22.440
566.86	21.429
567.20	23.002
567.54	22.741
567.88	22.334
568.21	22.204
568.55	22.375
568.89	21.620
569.23	22.490
569.56	23.035
569.90	23.839
570.24	24.239
570.57	23.023
570.91	23.087
571.25	23.217
571.59	23.166
571.92	23.452
572.26	23.517
572.60	23.301
572.93	23.103
573.27	22.530
573.61	22.828
573.95	23.443
574.28	23.408
574.62	23.615
574.96	23.355
575.29	23.069
575.63	23.414
575.97	23.220
576.30	23.075
576.64	23.316
576.98	23.488
577.31	23.576
577.65	23.708
577.98	23.479
578.32	23.090
578.66	23.392
578.99	23.597
579.33	23.286
579.67	23.383
580.00	23.884
580.34	24.070
580.67	23.584
581.01	23.332
581.35	24.027
581.68	23.626
582.02	23.609
582.35	23.796
582.69	24.150
583.02	23.784
583.36	23.856
583.70	23.349
584.03	23.438
584.37	23.383
584.70	23.791
585.04	23.139
585.37	23.174
585.71	23.706
586.04	23.480
586.38	23.470
586.72	23.224
587.05	23.449
587.39	23.491
587.72	23.945
588.06	23.879
588.39	23.412
588.73	23.144
589.06	23.817
589.40	23.634
589.73	23.407
590.07	23.816
590.40	23.801
590.73	22.591
591.07	23.279
591.40	23.830
591.74	22.763
592.07	22.027
592.41	23.652
592.74	23.789
593.08	23.824
593.41	22.993
593.75	22.519
594.08	24.047
594.41	23.697
594.75	23.065
595.08	23.383
595.42	23.555
595.75	23.006
596.09	23.166
596.42	24.100
596.75	23.329
597.09	23.820
597.42	23.134
597.75	22.852
598.09	23.452
598.42	22.139
598.76	22.799
599.09	23.323
599.42	22.914
599.76	23.141
600.09	23.282
600.42	23.851
600.76	23.390
601.09	23.130
601.42	23.269
601.76	23.715
602.09	23.517
602.42	24.074
602.76	22.642
603.09	23.468
603.42	23.529
603.76	23.016
604.09	23.148
604.42	22.856
604.76	22.809
605.09	23.327
605.42	23.271
605.75	23.157
606.09	23.329
606.42	23.502
606.75	23.358
607.09	23.423
607.42	22.975
607.75	22.826
608.08	23.498
608.42	23.179
608.75	22.710
609.08	22.698
609.41	23.069
609.75	22.574
610.08	23.235
610.41	22.651
610.74	23.888
611.07	23.479
611.41	22.794
611.74	23.650
612.07	24.221
612.40	22.388
612.73	23.533
613.07	23.005
613.40	23.700
613.73	23.052
614.06	23.174
614.39	22.210
614.72	22.514
615.06	22.120
615.39	22.409
615.72	23.194
616.05	22.584
616.38	23.099
616.71	22.643
617.05	22.738
617.38	23.406
617.71	22.236
618.04	23.727
618.37	23.019
618.70	24.055
619.03	22.749
619.36	22.622
619.69	23.187
620.03	22.865
620.36	23.277
620.69	22.972
621.02	22.755
621.35	21.935
621.68	21.311
622.01	21.764
622.34	23.602
622.67	22.500
623.00	23.336
623.33	22.612
623.66	21.492
623.99	22.556
624.32	22.991
624.65	23.473
624.99	22.106
625.32	21.931
625.65	22.922
625.98	21.127
626.31	22.757
626.64	21.590
626.97	22.003
627.30	22.383
627.63	20.121
627.96	21.323
628.29	21.691
628.62	21.108
628.95	23.327
629.28	21.523
629.61	21.982
629.94	21.928
630.26	22.266
630.59	21.709
630.92	21.622
631.25	21.875
631.58	21.799
631.91	20.532
632.24	20.778
632.57	21.778
632.90	21.724
633.23	21.846
633.56	21.287
633.89	22.170
634.22	22.196
634.55	21.635
634.88	21.403
635.20	20.599
635.53	19.338
635.86	19.899
636.19	20.635
636.52	20.908
636.85	20.698
637.18	18.625
637.51	21.809
637.83	20.373
638.16	19.211
638.49	20.000
638.82	19.949
639.15	22.309
639.48	20.493
639.81	22.545
640.13	20.811
640.46	20.798
640.79	20.308
641.12	18.336
641.45	21.951
641.77	19.162
642.10	19.637
642.43	19.575
642.76	19.528
643.09	19.048
643.41	19.683
643.74	21.145
644.07	20.749
644.40	20.583
644.73	20.957
645.05	19.032
645.38	19.536
645.71	22.680
646.04	19.664
646.36	19.023
646.69	20.069
647.02	21.300
647.35	18.592
647.67	18.431
648.00	20.035
648.33	21.585
648.66	19.516
648.98	18.153
649.31	21.538
649.64	21.250
649.96	19.466
650.29	20.820
650.62	22.375
650.94	21.922
651.27	21.144
651.60	21.799
651.92	19.521
652.25	21.035
652.58	17.888
652.90	19.904
653.23	20.806
653.56	21.405
653.88	21.148
654.21	21.309
654.54	21.927
654.86	22.632
655.19	20.917
655.52	22.827
655.84	24.539
656.17	27.168
656.49	37.372
656.82	38.957
657.15	29.501
657.47	21.402
657.80	16.209
658.13	18.664
658.45	24.934
658.78	24.647
659.10	24.334
659.43	23.791
659.75	23.958
660.08	23.490
660.41	21.841
660.73	21.232
661.06	22.899
661.38	19.821
661.71	21.224
662.03	18.952
662.36	17.910
662.68	19.831
663.01	18.047
663.33	17.234
663.66	20.601
663.98	16.741
664.31	15.660
664.63	20.354
664.96	19.740
665.28	21.258
665.61	17.125
665.93	19.547
666.26	20.648
666.58	22.453
666.91	20.935
667.23	20.614
667.56	17.914
667.88	19.457
668.21	18.894
668.53	16.589
668.86	19.861
669.18	20.320
669.50	21.262
669.83	18.491
670.15	17.489
670.48	18.458
670.80	18.451
671.13	18.736
671.45	17.793
671.77	19.914
672.10	19.527
672.42	21.771
672.75	19.273
673.07	19.820
673.39	19.490
673.72	20.472
674.04	19.745
674.37	20.000
674.69	20.082
675.01	17.872
675.34	20.174
675.66	22.246
675.98	20.264
676.31	19.683
676.63	22.069
676.95	17.920
677.28	19.954
677.60	21.493
677.92	20.044
678.25	21.007
678.57	20.370
678.89	16.771
679.22	20.126
679.54	21.893
679.86	18.600
680.18	19.962
680.51	21.229
680.83	20.762
681.15	21.965
681.48	20.284
681.80	20.161
682.12	18.913
682.44	21.022
682.77	16.234
683.09	20.755
683.41	20.354
683.73	16.667
684.06	20.645
684.38	20.921
684.70	21.193
685.02	21.260
685.34	19.688
685.67	19.886
685.99	18.336
686.31	22.980
686.63	22.695
686.96	19.963
687.28	20.424
687.60	21.094
687.92	16.926
688.24	18.504
688.56	18.036
688.89	18.803
689.21	18.162
689.53	18.851
689.85	20.267
690.17	21.749
690.49	21.478
690.82	20.964
691.14	18.160
691.46	20.177
691.78	23.789
692.10	19.703
692.42	18.667
692.74	19.528
693.06	17.079
693.39	20.134
693.71	20.090
694.03	22.894
694.35	16.930
694.67	17.967
694.99	16.880
695.31	19.643
695.63	18.622
695.95	19.603
696.27	20.449
696.59	18.984
696.91	20.787
697.23	18.490
697.56	18.990
697.88	20.045
698.20	20.128
698.52	18.834
698.84	19.903
699.16	19.524
699.48	17.750
699.80	18.797
700.12	20.907
700.44	20.391
700.76	16.035
701.08	21.221
701.40	16.314
701.72	19.444
702.04	21.474
702.36	17.470
702.68	15.569
703.00	16.522
703.32	18.625
703.64	20.882
703.96	20.640
704.28	19.822
704.60	15.506
704.91	16.825
705.23	17.152
705.55	16.216
705.87	17.065
706.19	15.278
706.51	18.056
706.83	19.672
707.15	19.427
707.47	22.039
707.79	20.876
708.11	16.794
708.43	19.701
708.74	18.961
709.06	15.599
709.38	18.103
709.70	16.875
710.02	21.472
710.34	16.172
710.66	13.968
710.98	21.451
711.29	16.452
711.61	21.086
711.93	20.656
712.25	15.947
712.57	19.164
712.89	20.504
713.20	18.557
713.52	14.552
713.84	19.573
714.16	20.000
714.48	17.778
714.80	18.462
715.11	17.579
715.43	22.892
715.75	20.561
716.07	17.049
716.39	19.398
716.70	18.118
717.02	17.037
717.34	15.267
717.66	19.917
717.97	15.984
718.29	17.647
718.61	19.841
718.93	17.921
719.24	18.015
719.56	16.226
719.88	17.091
720.20	17.978
720.51	24.436
720.83	15.261
721.15	16.803
721.46	18.431
721.78	16.858
722.10	22.400
722.42	14.876
722.73	19.124
723.05	18.072
723.37	15.686
723.68	12.551
724.00	22.764
724.32	17.284
724.63	17.842
724.95	18.182
725.27	15.351
725.58	16.810
725.90	15.079
726.22	23.616
726.53	22.814
726.85	15.294
727.16	13.534
727.48	18.462
727.80	15.574
728.11	21.008
728.43	22.314
728.74	24.609
729.06	17.424
729.38	16.342
729.69	16.929
730.01	16.929
730.32	19.124
730.64	16.484
730.96	23.134
731.27	15.357
731.59	21.543
731.90	20.552
732.22	20.859
732.53	24.172
732.85	16.779
733.16	17.754
733.48	17.073
733.80	13.167
734.11	17.586
734.43	19.728
734.74	20.475
735.06	20.376
735.37	19.572
735.69	17.742
736.00	19.865
736.32	16.225
736.63	15.517
736.95	16.304
737.26	18.874
737.58	19.784
737.89	23.297
738.21	16.917
738.52	19.615
738.83	20.703
739.15	15.385
739.46	20.968
739.78	18.182
740.09	17.483
740.41	17.832
740.72	17.518
741.04	15.873
741.35	15.152
741.66	19.907
741.98	8.095
742.29	16.901
742.61	22.995
742.92	19.159
743.23	15.789
743.55	13.964
743.86	20.000
744.18	17.619
744.49	20.197
744.80	16.751
745.12	22.165
745.43	15.075
745.74	17.476
746.06	15.610
746.37	18.943
746.68	22.886
747.00	12.042
747.31	18.269
747.62	15.668
747.94	17.467
748.25	19.535
748.56	10.476
748.88	11.957
749.19	20.657
749.50	17.647
749.82	22.667
750.13	19.383
750.44	16.667
750.75	18.400
751.07	22.500
751.38	22.509
751.69	18.321
752.01	18.462
752.32	15.175
752.63	17.692
752.94	16.270
753.26	19.130
753.57	18.750
753.88	15.948
754.19	19.502
754.51	17.187
754.82	18.577
755.13	19.342
755.44	14.463
755.75	23.457
756.07	12.048
756.38	17.187
756.69	22.383
757.00	17.422
757.31	17.114
757.63	20.249
757.94	17.919
758.25	18.314
758.56	22.372
758.87	20.170
759.18	19.000
759.50	20.285
759.81	16.423
760.12	20.270
760.43	23.301
760.74	25.000
761.05	20.225
761.36	22.156
761.67	19.527
761.99	15.806
762.30	20.290
762.61	20.000
762.92	18.834
763.23	14.218
763.54	21.333
763.85	22.363
764.16	20.000
764.47	21.186
764.78	15.356
765.10	22.302
765.41	18.387
765.72	20.755
766.03	14.488
766.34	18.045
766.65	16.599
766.96	16.500
767.27	16.146
767.58	18.605
767.89	15.484
768.20	15.951
768.51	19.126
768.82	16.757
769.13	16.000
769.44	17.105
769.75	16.883
770.06	22.477
770.37	16.432
770.68	20.833
770.99	16.337
771.30	18.447
771.61	16.667
771.92	18.615
772.23	18.692
772.54	13.830
772.85	12.426
773.16	14.024
773.47	15.663
773.78	25.275
774.09	12.000
774.39	9.877
774.70	12.081
775.01	5.797
775.32	4.478
775.63	4.132
775.94	11.278
776.25	20.714
776.56	16.393
776.87	14.159
777.18	17.699
777.48	13.636
777.79	10.435
778.10	11.927
778.41	6.780
778.72	16.529
779.03	14.925
779.34	12.782
779.65	18.954
779.95	20.290
780.26	5.442
780.57	6.897
780.88	13.889
781.19	1.010
781.50	8.000
781.80	13.072
782.11	15.385
782.42	17.470
782.73	5.109
783.04	16.892
783.34	11.364
783.65	10.853
783.96	16.260
784.27	9.402
784.57	11.382
784.88	5.691
785.19	15.789
785.50	-6.186
785.81	7.619
786.11	10.784
786.42	13.636
786.73	9.910
787.04	17.822
787.34	8.571
787.65	10.476
787.96	5.882
788.26	10.811
788.57	14.516
788.88	7.031
789.19	20.513
789.49	8.403
789.80	0.000
790.11	11.504
790.41	14.141
790.72	24.528
791.03	9.722
791.33	-1.316
791.64	15.054
791.95	4.000
792.25	5.714
792.56	0.000
792.87	10.204
793.17	11.842
793.48	-4.054
793.79	11.268
794.09	18.987
794.40	11.702
794.70	4.673
795.01	3.509
795.32	0.909
795.62	1.786
795.93	7.216
796.23	4.396
796.54	16.842
796.85	19.178
797.15	-5.556
797.46	13.699
797.76	7.042
798.07	7.500
798.37	1.471
798.68	1.429
798.99	15.714
799.29	18.421
799.60	18.333
799.90	6.944
800.21	-20.313
800.51	-6.349
800.82	-9.836
801.12	-17.544
801.43	4.225
801.73	-20.339
802.04	11.475
802.34	-5.455
802.65	3.846
802.95	11.111
803.26	-12.500
803.56	3.846
803.87	-26.316
804.17	-6.452
804.48	18.462
804.78	-33.333
805.09	-11.628
805.39	-15.625
805.70	-16.981
806.00	10.526
806.30	10.811
806.61	0.000
806.91	13.580
807.22	10.667
807.52	-2.985
807.83	8.065
808.13	-1.587
808.43	-14.545
808.74	0.000
809.04	-3.774
809.35	-4.110
809.65	15.789
809.95	14.706
810.26	-21.569
810.56	-18.000
810.86	-18.367
811.17	-40.000
811.47	1.923
811.77	-16.129
812.08	-71.053
812.38	-2.381
812.69	-15.217
812.99	-19.355
813.29	-19.048
813.59	-81.481
813.90	-21.277
814.20	-27.907
814.50	-20.833
814.81	5.000
815.11	-31.707
815.41	-10.000
815.72	5.714
816.02	16.667
816.32	12.821
816.62	-16.216
816.93	-26.471
817.23	-15.217
817.53	-5.882
817.84	14.706
818.14	-37.500
818.44	-34.483
818.74	-9.677
819.04	-48.148
819.35	-53.333
819.65	-24.000
819.95	-33.333
820.25	-68.000
820.56	-15.789
820.86	-30.000
821.16	-4.255
821.46	-8.621
821.76	0.000
822.07	-25.000
822.37	-4.651
822.67	-76.667
822.97	-10.811
823.27	-13.514
823.57	-20.000
823.88	-21.622
824.18	-61.905
824.48	-23.077
824.78	-153.846
825.08	-21.739
825.38	-4.167
825.69	-20.833
825.99	-70.000
826.29	-29.730
826.59	-38.235
826.89	-36.000
827.19	-17.143
827.49	2.632
827.79	-21.875
828.09	-6.667
828.39	-4.348
828.70	-20.690
829.00	6.897
829.30	2.778
829.60	43.750
829.90	-94.444
830.20	-34.615
830.50	-57.143
830.80	-35.714
831.10	5.128
831.40	-52.381
831.70	-17.647
832.00	-4.167
832.30	-52.632
832.60	-12.500
832.90	-158.333
833.20	-135.294
833.50	-153.333
833.80	-113.333
834.10	-85.000
834.40	-41.667
834.70	44.444
835.00	30.769
835.30	-45.833
835.60	-41.379
835.90	-88.889
836.20	-127.273
836.50	-100.000
836.80	-14.286
837.10	31.429
837.40	-29.412
837.70	-127.273
838.00	0.000
838.30	-93.750
838.60	-23.810
838.90	-30.000
839.19	-8.696
839.49	-34.783
839.79	-16.667
840.09	-52.174
840.39	-100.000
840.69	-75.000
840.99	-47.368
841.29	-112.500
841.59	-42.857
841.88	-72.222
842.18	-45.833
842.48	-76.471
842.78	-27.586
843.08	-50.000
843.38	-69.231
843.68	-166.667
843.97	-92.308
844.27	-72.727
844.57	-300.000
844.87	8.000
845.17	-240.000
845.47	-100.000
845.76	-244.444
846.06	0.000
846.36	-225.000
846.66	-160.000
846.96	0.000
847.25	-20.833
847.55	-200.000
847.85	-26.667
848.15	-170.000
848.44	30.769
848.74	-10.526
849.04	466.667
849.34	-88.889
849.63	-100.000
849.93	0.000
850.23	-95.000
850.53	-38.095
850.82	20.000
851.12	5.263
851.42	-900.000
851.71	-14.286
852.01	-58.333
852.31	-35.294
852.61	-20.000
852.90	-33.333
853.20	-283.333
853.50	-38.889
853.79	-21.053
854.09	-60.000
854.39	-3.571
854.68	-13.043
854.98	-150.000
855.28	17.241
855.57	-62.500
855.87	-15.000
856.17	-60.000
856.46	-27.586
856.76	-6.667
857.05	-117.647
857.35	-161.538
857.65	36.364
857.94	-18.519
858.24	-107.143
858.53	-28.571
858.83	-208.333
859.13	-222.222
859.42	0.000
859.72	-212.500
860.01	-566.667
860.31	-87.500
860.60	-360.000
860.90	-200.000
861.20	-137.500
861.49	-185.714
861.79	-17.647
862.08	-700.000
862.38	-191.667
862.67	-107.692
862.97	-58.824
863.26	5.000
863.56	-111.765
863.85	666.667
864.15	-220.000
864.44	-153.846
864.74	-5.000
865.03	-225.000
865.33	-150.000
865.62	-47.059
865.92	-575.000
866.21	-142.857
866.51	-166.667
866.80	-1900.000
867.10	-233.333
867.39	-41.176
867.69	-17.391
867.98	-185.714
868.27	-180.000
868.57	-93.750
868.86	-200.000
869.16	-11.765
869.45	-100.000
869.75	-142.857
870.04	500.000
870.33	-66.667
870.63	-100.000
870.92	-211.111
871.22	-100.000
871.51	-45.455
871.80	-50.000
872.10	-10.000
>>>>>End Processed Spectral Data<<<<<
