SpectraSuite Data File
++++++++++++++++++++++++++++++++++++
Date: Sat May 16 11:30:54 PDT 2015
User: schluterlab
Dark Spectrum Present: Yes
Reference Spectrum Present: Yes
Number of Sampled Component Spectra: 1
Spectrometers: USB2E3373
Integration Time (usec): 3000 (USB2E3373)
Spectra Averaged: 3 (USB2E3373)
Boxcar Smoothing: 0 (USB2E3373)
Correct for Electrical Dark: No (USB2E3373)
Strobe/Lamp Enabled: No (USB2E3373)
Correct for Detector Non-linearity: No (USB2E3373)
Correct for Stray Light: No (USB2E3373)
Number of Pixels in Processed Spectrum: 2048
>>>>>Begin Processed Spectral Data<<<<<
178.53	0.000
178.91	93.333
179.29	633.333
179.67	-600.000
180.04	-138.462
180.42	800.000
180.80	475.000
181.18	375.000
181.56	-162.500
181.94	700.000
182.31	400.000
182.69	-53.846
183.07	-566.667
183.45	1300.000
183.83	733.333
184.20	-171.429
184.58	-150.000
184.96	-325.000
185.34	112.500
185.72	-200.000
186.09	300.000
186.47	-175.000
186.85	-225.000
187.23	-25.000
187.61	-200.000
187.98	-212.500
188.36	-112.500
188.74	-87.500
189.12	1600.000
189.49	314.286
189.87	-50.000
190.25	475.000
190.63	-71.429
191.00	-155.556
191.38	300.000
191.76	6.667
192.14	500.000
192.51	-160.000
192.89	-400.000
193.27	0.000
193.65	-166.667
194.02	-271.429
194.40	300.000
194.78	-40.000
195.15	-1000.000
195.53	-118.182
195.91	-450.000
196.29	380.000
196.66	-500.000
197.04	2000.000
197.42	50.000
197.79	86.667
198.17	-266.667
198.55	-750.000
198.92	-1500.000
199.30	262.500
199.68	-600.000
200.05	-166.667
200.43	-155.556
200.81	-1000.000
201.18	-100.000
201.56	214.286
201.94	-46.667
202.31	-22.727
202.69	-50.000
203.07	-100.000
203.44	900.000
203.82	-150.000
204.19	-325.000
204.57	0.000
204.95	300.000
205.32	-37.500
205.70	1100.000
206.08	-1900.000
206.45	-22.222
206.83	-1150.000
207.20	-350.000
207.58	-400.000
207.96	-400.000
208.33	-112.500
208.71	-200.000
209.08	150.000
209.46	-242.857
209.84	700.000
210.21	0.000
210.59	55.000
210.96	1400.000
211.34	-400.000
211.71	0.000
212.09	175.000
212.46	1500.000
212.84	-1700.000
213.22	533.333
213.59	158.333
213.97	-111.111
214.34	180.000
214.72	-70.000
215.09	-400.000
215.47	-166.667
215.84	-160.000
216.22	-60.000
216.59	13.333
216.97	-575.000
217.34	900.000
217.72	-100.000
218.09	-433.333
218.47	-185.714
218.84	214.286
219.22	-85.714
219.59	0.000
219.97	128.571
220.34	550.000
220.72	287.500
221.09	-69.231
221.47	0.000
221.84	433.333
222.22	-450.000
222.59	200.000
222.97	-112.500
223.34	-850.000
223.72	-466.667
224.09	-92.857
224.46	-500.000
224.84	-21.429
225.21	-271.429
225.59	-36.364
225.96	-150.000
226.34	-142.857
226.71	-111.111
227.08	-5.000
227.46	1800.000
227.83	-114.286
228.21	-287.500
228.58	700.000
228.95	-75.000
229.33	-2000.000
229.70	-260.000
230.08	-800.000
230.45	-91.667
230.82	-116.667
231.20	-1700.000
231.57	-900.000
231.95	700.000
232.32	9.524
232.69	-111.111
233.07	-185.714
233.44	-1150.000
233.81	-106.667
234.19	-144.444
234.56	-37.500
234.93	28.125
235.31	-371.429
235.68	-214.286
236.05	11.765
236.43	-81.818
236.80	-25.806
237.17	-29.167
237.55	-66.667
237.92	-109.091
238.29	-25.714
238.67	-23.529
239.04	-22.222
239.41	-70.968
239.79	-71.795
240.16	-54.762
240.53	-30.909
240.91	0.000
241.28	-14.545
241.65	3.077
242.02	-19.672
242.40	-19.672
242.77	-4.545
243.14	-8.475
243.51	-24.286
243.89	-11.392
244.26	-12.360
244.63	-4.211
245.00	-16.842
245.38	1.695
245.75	-2.655
246.12	-7.200
246.49	3.150
246.87	-19.512
247.24	-15.254
247.61	-16.949
247.98	-11.972
248.36	-13.986
248.73	-0.633
249.10	-8.917
249.47	-10.526
249.84	-6.250
250.22	-8.333
250.59	-3.390
250.96	-8.901
251.33	0.948
251.70	-6.731
252.08	-4.739
252.45	-10.900
252.82	-11.429
253.19	-4.681
253.56	-6.452
253.94	-3.797
254.31	-5.150
254.68	-2.439
255.05	-7.661
255.42	-3.175
255.79	-5.735
256.16	-3.137
256.54	-4.412
256.91	-4.167
257.28	-5.861
257.65	-0.709
258.02	0.000
258.39	0.000
258.76	-7.770
259.14	-3.704
259.51	-2.295
259.88	-1.524
260.25	0.621
260.62	-6.431
260.99	-5.045
261.36	-0.915
261.73	-2.601
262.10	1.111
262.47	-2.849
262.85	-1.143
263.22	-5.158
263.59	-7.077
263.96	-2.899
264.33	-1.355
264.70	-1.657
265.07	-1.648
265.44	-2.842
265.81	-2.842
266.18	-4.557
266.55	-1.716
266.92	-2.519
267.29	-1.937
267.66	-3.951
268.03	-1.691
268.40	-3.991
268.77	-2.651
269.14	-3.480
269.51	0.000
269.88	-3.670
270.25	-1.399
270.62	-4.577
270.99	-1.577
271.36	-3.030
271.73	-1.570
272.10	-4.805
272.47	-3.111
272.84	1.333
273.21	-2.294
273.58	-3.297
273.95	-4.167
274.32	-1.810
274.69	-0.875
275.06	0.204
275.43	-2.009
275.80	-1.629
276.17	-1.674
276.54	1.018
276.91	-1.852
277.28	0.203
277.65	0.000
278.02	-1.253
278.39	-1.965
278.76	-0.598
279.13	-1.976
279.50	-1.392
279.87	-2.748
280.23	-0.810
280.60	-2.584
280.97	0.194
281.34	-1.354
281.71	0.577
282.08	0.000
282.45	-4.277
282.82	-1.938
283.19	-1.091
283.56	0.183
283.92	0.707
284.29	-4.275
284.66	-1.619
285.03	0.713
285.40	-0.185
285.77	-1.579
286.14	-2.708
286.51	-1.066
286.87	1.452
287.24	-0.683
287.61	-2.149
287.98	-2.253
288.35	-2.479
288.72	-1.188
289.08	-2.542
289.45	-0.505
289.82	-2.768
290.19	-0.493
290.56	-3.636
290.93	-1.113
291.29	-3.566
291.66	-3.382
292.03	-0.942
292.40	-1.506
292.77	-1.242
293.13	-1.463
293.50	-1.040
293.87	-0.613
294.24	0.603
294.60	-2.727
294.97	0.152
295.34	-2.370
295.71	-1.488
296.08	-3.994
296.44	-1.574
296.81	-1.282
297.18	0.000
297.55	-1.554
297.91	-0.418
298.28	-1.644
298.65	-0.837
299.02	0.134
299.38	0.267
299.75	-1.359
300.12	0.000
300.48	0.384
300.85	-1.311
301.22	0.647
301.59	-1.170
301.95	0.378
302.32	-1.956
302.69	0.490
303.05	-1.221
303.42	-2.000
303.79	0.359
304.15	0.474
304.52	-1.167
304.89	-0.118
305.25	-0.244
305.62	-0.353
305.99	0.236
306.35	0.777
306.72	-1.253
307.09	0.795
307.45	0.000
307.82	-0.447
308.19	0.336
308.55	0.109
308.92	-0.430
309.29	-0.216
309.65	1.591
310.02	2.484
310.38	-0.865
310.75	1.639
311.12	0.620
311.48	1.357
311.85	1.442
312.22	1.236
312.58	2.136
312.95	2.141
313.31	2.098
313.68	2.513
314.05	2.671
314.41	1.308
314.78	1.199
315.14	2.468
315.51	2.128
315.87	3.485
316.24	2.624
316.61	2.015
316.97	4.179
317.34	2.697
317.70	2.876
318.07	3.078
318.43	3.652
318.80	4.319
319.16	3.565
319.53	4.981
319.89	4.798
320.26	5.686
320.62	3.558
320.99	6.070
321.35	3.153
321.72	3.787
322.08	5.638
322.45	5.842
322.81	7.109
323.18	7.109
323.54	7.394
323.91	7.414
324.27	7.985
324.64	8.044
325.00	8.813
325.37	10.226
325.73	11.111
326.10	9.655
326.46	11.996
326.83	11.234
327.19	12.177
327.56	13.714
327.92	13.169
328.29	14.286
328.65	12.273
329.01	14.399
329.38	13.827
329.74	15.476
330.11	15.866
330.47	15.259
330.84	16.774
331.20	16.516
331.56	16.135
331.93	17.673
332.29	17.717
332.66	18.349
333.02	18.733
333.38	18.728
333.75	17.988
334.11	18.044
334.48	18.800
334.84	19.773
335.20	18.972
335.57	18.773
335.93	20.859
336.29	19.398
336.66	18.767
337.02	19.640
337.38	20.499
337.75	20.193
338.11	20.662
338.47	20.374
338.84	19.873
339.20	19.596
339.56	20.677
339.93	20.282
340.29	20.726
340.65	20.192
341.02	20.573
341.38	19.714
341.74	20.830
342.11	20.051
342.47	19.657
342.83	19.815
343.20	19.385
343.56	18.857
343.92	20.618
344.28	21.531
344.65	19.472
345.01	20.168
345.37	21.262
345.73	19.313
346.10	19.379
346.46	19.253
346.82	20.289
347.19	18.735
347.55	19.021
347.91	19.685
348.27	19.730
348.63	20.840
349.00	20.605
349.36	19.282
349.72	20.382
350.08	19.487
350.45	20.173
350.81	20.621
351.17	20.016
351.53	18.536
351.89	20.210
352.26	20.853
352.62	20.968
352.98	19.541
353.34	21.023
353.70	18.764
354.07	20.299
354.43	19.209
354.79	20.365
355.15	19.409
355.51	19.844
355.87	19.605
356.24	20.175
356.60	20.064
356.96	20.015
357.32	19.952
357.68	20.000
358.04	19.938
358.40	20.263
358.77	20.015
359.13	19.740
359.49	19.955
359.85	19.817
360.21	20.244
360.57	20.633
360.93	21.111
361.29	20.105
361.66	20.960
362.02	19.083
362.38	20.396
362.74	20.366
363.10	19.010
363.46	20.726
363.82	20.408
364.18	21.201
364.54	22.087
364.90	20.335
365.26	19.544
365.62	22.309
365.98	21.550
366.35	20.634
366.71	20.578
367.07	20.466
367.43	21.071
367.79	22.131
368.15	20.341
368.51	21.818
368.87	22.184
369.23	21.263
369.59	21.389
369.95	21.142
370.31	22.363
370.67	21.114
371.03	21.501
371.39	21.146
371.75	20.887
372.11	22.166
372.47	22.921
372.83	22.601
373.19	22.143
373.55	23.223
373.91	22.760
374.27	22.040
374.63	23.050
374.99	23.505
375.35	23.149
375.71	23.768
376.07	22.861
376.42	22.715
376.78	23.203
377.14	23.864
377.50	23.533
377.86	23.212
378.22	23.492
378.58	23.780
378.94	23.859
379.30	24.314
379.66	24.408
380.02	23.292
380.38	23.444
380.74	23.857
381.09	24.429
381.45	24.582
381.81	24.682
382.17	24.185
382.53	24.498
382.89	24.761
383.25	25.587
383.61	25.118
383.97	25.046
384.32	25.469
384.68	25.453
385.04	26.630
385.40	24.711
385.76	27.195
386.12	26.109
386.48	26.423
386.83	26.564
387.19	25.643
387.55	25.742
387.91	26.260
388.27	25.694
388.62	25.361
388.98	25.439
389.34	25.337
389.70	26.675
390.06	26.725
390.42	27.436
390.77	26.309
391.13	27.516
391.49	27.199
391.85	27.307
392.20	27.184
392.56	26.084
392.92	27.210
393.28	27.727
393.64	27.480
393.99	27.754
394.35	27.190
394.71	25.757
395.07	27.181
395.42	26.758
395.78	26.901
396.14	28.349
396.50	26.972
396.85	27.699
397.21	26.974
397.57	26.748
397.92	27.576
398.28	27.667
398.64	27.781
399.00	28.876
399.35	26.550
399.71	27.120
400.07	27.164
400.42	27.311
400.78	26.058
401.14	27.066
401.49	26.297
401.85	27.212
402.21	27.712
402.57	27.063
402.92	27.816
403.28	27.512
403.63	27.741
403.99	26.911
404.35	26.691
404.70	26.448
405.06	26.355
405.42	26.691
405.77	27.319
406.13	26.746
406.49	26.603
406.84	27.115
407.20	26.855
407.55	26.726
407.91	26.425
408.27	28.186
408.62	26.879
408.98	27.289
409.34	26.386
409.69	26.339
410.05	26.683
410.40	26.793
410.76	27.742
411.11	28.055
411.47	27.046
411.83	27.262
412.18	26.733
412.54	26.113
412.89	26.367
413.25	27.391
413.60	25.516
413.96	26.186
414.31	26.667
414.67	26.667
415.03	27.878
415.38	27.066
415.74	28.028
416.09	26.854
416.45	26.124
416.80	27.568
417.16	27.176
417.51	27.511
417.87	27.508
418.22	27.560
418.58	27.535
418.93	28.081
419.29	28.168
419.64	27.198
420.00	28.190
420.35	27.321
420.71	28.031
421.06	28.107
421.42	28.162
421.77	27.582
422.12	27.868
422.48	28.006
422.83	27.733
423.19	27.840
423.54	28.991
423.90	28.398
424.25	28.394
424.61	28.951
424.96	29.081
425.31	28.619
425.67	28.711
426.02	27.367
426.38	28.796
426.73	29.340
427.09	28.493
427.44	29.545
427.79	28.721
428.15	29.563
428.50	29.208
428.85	29.257
429.21	28.998
429.56	29.740
429.92	29.459
430.27	29.511
430.62	29.885
430.98	28.542
431.33	30.309
431.68	29.920
432.04	30.610
432.39	30.085
432.74	30.396
433.10	29.938
433.45	29.534
433.80	29.899
434.16	30.844
434.51	31.068
434.86	31.166
435.22	31.904
435.57	29.743
435.92	31.712
436.28	31.098
436.63	30.639
436.98	30.183
437.34	31.305
437.69	30.863
438.04	31.027
438.39	31.829
438.75	31.490
439.10	32.093
439.45	30.296
439.81	31.084
440.16	31.005
440.51	32.118
440.86	31.058
441.22	31.177
441.57	30.842
441.92	31.714
442.27	30.844
442.63	32.082
442.98	31.208
443.33	31.686
443.68	32.256
444.03	31.483
444.39	31.278
444.74	32.104
445.09	31.743
445.44	32.020
445.79	31.668
446.15	32.202
446.50	31.247
446.85	31.195
447.20	31.665
447.55	32.210
447.91	30.882
448.26	32.514
448.61	31.126
448.96	32.773
449.31	31.454
449.66	32.169
450.02	31.080
450.37	31.420
450.72	31.638
451.07	31.741
451.42	31.475
451.77	32.436
452.12	32.122
452.47	32.494
452.83	32.266
453.18	33.333
453.53	33.396
453.88	31.878
454.23	31.439
454.58	33.872
454.93	33.312
455.28	33.652
455.63	32.985
455.98	32.892
456.34	32.020
456.69	33.521
457.04	32.514
457.39	32.297
457.74	31.305
458.09	32.077
458.44	32.679
458.79	32.567
459.14	32.744
459.49	32.800
459.84	33.390
460.19	33.771
460.54	33.091
460.89	31.895
461.24	32.423
461.59	33.470
461.94	33.227
462.29	32.936
462.64	33.794
462.99	34.203
463.34	32.073
463.69	33.270
464.04	32.513
464.39	32.736
464.74	31.147
465.09	32.832
465.44	32.826
465.79	32.939
466.14	32.911
466.49	33.506
466.84	33.553
467.19	33.042
467.54	31.139
467.89	32.861
468.24	33.195
468.59	33.042
468.94	33.762
469.29	32.294
469.64	34.434
469.99	33.693
470.34	33.601
470.68	34.230
471.03	33.035
471.38	32.222
471.73	34.685
472.08	33.534
472.43	32.690
472.78	34.133
473.13	33.532
473.48	34.333
473.83	33.002
474.17	33.567
474.52	34.335
474.87	34.441
475.22	31.799
475.57	33.500
475.92	33.639
476.27	33.657
476.61	34.028
476.96	33.538
477.31	33.692
477.66	33.315
478.01	33.712
478.36	32.687
478.70	34.170
479.05	33.964
479.40	32.953
479.75	33.231
480.10	34.028
480.45	33.027
480.79	33.959
481.14	33.618
481.49	33.930
481.84	33.287
482.19	34.125
482.53	34.138
482.88	33.697
483.23	33.944
483.58	33.950
483.92	33.731
484.27	32.565
484.62	32.829
484.97	33.398
485.31	31.616
485.66	31.476
486.01	31.397
486.36	32.529
486.70	33.463
487.05	32.766
487.40	33.200
487.75	32.369
488.09	32.736
488.44	33.491
488.79	33.003
489.13	33.701
489.48	33.279
489.83	33.406
490.17	34.044
490.52	33.832
490.87	33.764
491.22	33.723
491.56	34.352
491.91	33.922
492.26	33.585
492.60	33.730
492.95	34.412
493.30	32.920
493.64	34.462
493.99	33.604
494.34	34.190
494.68	34.972
495.03	32.887
495.37	34.022
495.72	34.528
496.07	34.538
496.41	33.395
496.76	34.338
497.11	33.773
497.45	34.483
497.80	34.517
498.14	34.578
498.49	33.953
498.84	33.883
499.18	34.552
499.53	34.048
499.87	33.446
500.22	34.069
500.56	34.317
500.91	34.187
501.26	35.080
501.60	34.088
501.95	34.251
502.29	34.624
502.64	33.946
502.98	34.020
503.33	33.788
503.67	33.525
504.02	34.621
504.36	34.755
504.71	34.296
505.06	33.400
505.40	34.281
505.75	34.858
506.09	34.884
506.44	33.835
506.78	34.370
507.13	34.758
507.47	35.159
507.82	35.209
508.16	35.026
508.51	34.415
508.85	34.265
509.19	33.909
509.54	34.144
509.88	35.106
510.23	34.382
510.57	35.397
510.92	35.392
511.26	34.397
511.61	33.801
511.95	34.860
512.30	34.964
512.64	34.502
512.98	34.378
513.33	33.992
513.67	34.171
514.02	34.843
514.36	34.072
514.70	35.314
515.05	34.877
515.39	35.006
515.74	35.951
516.08	35.620
516.42	34.504
516.77	35.298
517.11	34.611
517.46	35.108
517.80	35.319
518.14	35.205
518.49	35.744
518.83	34.599
519.17	35.406
519.52	34.586
519.86	34.588
520.20	36.064
520.55	35.938
520.89	34.690
521.23	35.104
521.58	35.799
521.92	36.162
522.26	35.937
522.61	34.791
522.95	35.035
523.29	36.238
523.64	35.415
523.98	35.773
524.32	34.947
524.66	34.472
525.01	34.232
525.35	36.147
525.69	35.459
526.04	36.097
526.38	36.028
526.72	34.227
527.06	35.612
527.41	35.182
527.75	34.455
528.09	34.811
528.43	35.082
528.78	35.113
529.12	35.339
529.46	35.245
529.80	35.571
530.15	34.385
530.49	35.123
530.83	35.036
531.17	35.152
531.51	34.896
531.86	35.089
532.20	35.425
532.54	35.963
532.88	34.124
533.22	35.361
533.57	34.530
533.91	33.958
534.25	33.564
534.59	34.166
534.93	34.599
535.27	35.368
535.62	34.655
535.96	34.260
536.30	34.424
536.64	34.197
536.98	35.523
537.32	35.798
537.66	34.216
538.01	34.708
538.35	34.459
538.69	34.559
539.03	34.191
539.37	34.132
539.71	34.823
540.05	35.024
540.39	34.765
540.73	34.831
541.07	34.973
541.42	34.369
541.76	33.821
542.10	35.989
542.44	33.977
542.78	35.075
543.12	34.759
543.46	34.589
543.80	33.378
544.14	33.781
544.48	35.039
544.82	34.168
545.16	34.004
545.50	33.244
545.84	34.771
546.18	33.911
546.52	35.846
546.86	34.829
547.20	34.107
547.54	33.953
547.88	34.041
548.22	33.814
548.56	33.467
548.90	34.434
549.24	34.128
549.58	35.215
549.92	34.982
550.26	36.055
550.60	32.859
550.94	33.869
551.28	34.537
551.62	33.604
551.96	34.877
552.30	34.355
552.64	34.975
552.98	33.917
553.32	33.911
553.66	35.689
554.00	34.897
554.34	34.585
554.68	34.649
555.02	35.022
555.36	34.076
555.69	33.453
556.03	34.386
556.37	36.202
556.71	33.787
557.05	35.477
557.39	32.888
557.73	35.594
558.07	35.946
558.41	35.453
558.75	35.665
559.08	33.230
559.42	35.069
559.76	32.745
560.10	35.570
560.44	35.116
560.78	34.377
561.12	34.300
561.45	34.041
561.79	34.146
562.13	34.432
562.47	33.333
562.81	33.593
563.15	33.310
563.48	33.863
563.82	33.401
564.16	33.469
564.50	34.409
564.84	33.598
565.17	33.289
565.51	33.246
565.85	34.348
566.19	34.256
566.52	34.442
566.86	33.439
567.20	34.564
567.54	34.790
567.88	33.222
568.21	32.383
568.55	33.192
568.89	31.859
569.23	31.745
569.56	31.358
569.90	32.219
570.24	31.492
570.57	30.826
570.91	31.078
571.25	30.674
571.59	30.503
571.92	30.595
572.26	30.467
572.60	30.748
572.93	30.350
573.27	29.970
573.61	30.026
573.95	29.963
574.28	29.596
574.62	29.944
574.96	29.786
575.29	29.345
575.63	29.520
575.97	29.639
576.30	29.570
576.64	30.000
576.98	29.460
577.31	29.607
577.65	29.591
577.98	29.728
578.32	29.467
578.66	29.383
578.99	29.615
579.33	29.390
579.67	29.800
580.00	29.142
580.34	29.941
580.67	28.904
581.01	28.908
581.35	29.455
581.68	28.664
582.02	29.282
582.35	28.593
582.69	29.865
583.02	30.084
583.36	29.862
583.70	30.108
584.03	30.361
584.37	29.824
584.70	29.685
585.04	29.544
585.37	29.069
585.71	29.003
586.04	29.509
586.38	29.484
586.72	30.017
587.05	30.076
587.39	29.637
587.72	29.705
588.06	29.766
588.39	29.878
588.73	30.356
589.06	30.595
589.40	30.711
589.73	30.489
590.07	29.898
590.40	30.996
590.73	30.668
591.07	30.820
591.40	31.976
591.74	30.712
592.07	30.045
592.41	30.955
592.74	29.977
593.08	30.072
593.41	29.967
593.75	28.882
594.08	30.410
594.41	30.869
594.75	30.880
595.08	30.451
595.42	29.805
595.75	30.981
596.09	31.199
596.42	30.851
596.75	30.789
597.09	31.167
597.42	30.467
597.75	30.602
598.09	30.863
598.42	31.198
598.76	30.191
599.09	30.900
599.42	30.027
599.76	30.804
600.09	30.382
600.42	30.156
600.76	30.697
601.09	29.320
601.42	29.561
601.76	30.880
602.09	30.716
602.42	31.440
602.76	30.661
603.09	30.121
603.42	30.580
603.76	30.515
604.09	30.276
604.42	30.183
604.76	30.179
605.09	31.193
605.42	31.339
605.75	29.711
606.09	31.092
606.42	30.540
606.75	29.927
607.09	30.172
607.42	30.722
607.75	30.331
608.08	30.999
608.42	30.889
608.75	30.093
609.08	30.979
609.41	30.294
609.75	30.619
610.08	30.980
610.41	30.892
610.74	30.899
611.07	31.947
611.41	30.560
611.74	31.260
612.07	32.492
612.40	30.490
612.73	30.964
613.07	29.939
613.40	32.239
613.73	31.226
614.06	31.851
614.39	31.172
614.72	30.838
615.06	31.087
615.39	31.145
615.72	30.907
616.05	31.088
616.38	30.818
616.71	30.691
617.05	31.604
617.38	30.093
617.71	31.265
618.04	30.807
618.37	31.132
618.70	32.595
619.03	31.618
619.36	32.276
619.69	32.304
620.03	30.785
620.36	31.224
620.69	32.807
621.02	33.029
621.35	32.339
621.68	31.967
622.01	31.958
622.34	32.453
622.67	32.109
623.00	31.599
623.33	31.791
623.66	31.388
623.99	32.256
624.32	31.250
624.65	30.758
624.99	31.516
625.32	32.335
625.65	33.178
625.98	31.612
626.31	33.116
626.64	33.473
626.97	33.562
627.30	33.362
627.63	32.556
627.96	33.072
628.29	32.721
628.62	32.951
628.95	34.154
629.28	32.237
629.61	34.446
629.94	32.798
630.26	32.704
630.59	33.668
630.92	32.432
631.25	33.770
631.58	34.392
631.91	32.766
632.24	34.222
632.57	33.778
632.90	33.333
633.23	35.047
633.56	33.333
633.89	34.906
634.22	33.294
634.55	34.976
634.88	35.067
635.20	34.582
635.53	35.115
635.86	33.753
636.19	33.333
636.52	33.692
636.85	33.694
637.18	35.375
637.51	33.829
637.83	34.354
638.16	33.816
638.49	33.793
638.82	34.492
639.15	35.538
639.48	33.333
639.81	34.855
640.13	34.189
640.46	36.895
640.79	32.493
641.12	34.697
641.45	33.429
641.77	35.329
642.10	33.988
642.43	35.812
642.76	34.488
643.09	32.222
643.41	33.810
643.74	35.135
644.07	34.165
644.40	35.494
644.73	35.314
645.05	35.225
645.38	35.265
645.71	36.082
646.04	34.454
646.36	35.951
646.69	35.121
647.02	35.560
647.35	37.545
647.67	36.131
648.00	36.731
648.33	39.123
648.66	32.742
648.98	35.191
649.31	34.000
649.64	34.219
649.96	33.909
650.29	34.262
650.62	35.456
650.94	34.907
651.27	36.568
651.60	36.159
651.92	34.589
652.25	34.558
652.58	31.857
652.90	31.300
653.23	34.194
653.56	32.776
653.88	33.934
654.21	36.074
654.54	35.216
654.86	32.424
655.19	32.521
655.52	29.932
655.84	26.494
656.17	28.478
656.49	38.125
656.82	39.514
657.15	30.374
657.47	22.609
657.80	17.501
658.13	20.163
658.45	26.933
658.78	27.294
659.10	27.597
659.43	27.373
659.75	27.931
660.08	28.073
660.41	29.145
660.73	30.253
661.06	33.768
661.38	35.714
661.71	32.122
662.03	36.492
662.36	34.968
662.68	32.278
663.01	35.669
663.33	36.054
663.66	34.549
663.98	33.036
664.31	33.333
664.63	39.381
664.96	35.141
665.28	36.226
665.61	36.575
665.93	35.597
666.26	36.437
666.58	34.927
666.91	34.744
667.23	36.404
667.56	33.333
667.88	37.783
668.21	35.253
668.53	36.215
668.86	35.335
669.18	35.388
669.50	37.150
669.83	36.740
670.15	34.529
670.48	33.645
670.80	36.446
671.13	33.634
671.45	33.333
671.77	34.047
672.10	35.108
672.42	33.579
672.75	30.727
673.07	32.252
673.39	33.880
673.72	31.693
674.04	32.909
674.37	32.577
674.69	33.811
675.01	31.915
675.34	32.104
675.66	37.581
675.98	33.700
676.31	34.842
676.63	34.713
676.95	32.743
677.28	34.339
677.60	34.615
677.92	36.123
678.25	33.260
678.57	33.539
678.89	29.350
679.22	31.447
679.54	35.700
679.86	31.000
680.18	32.319
680.51	32.588
680.83	32.190
681.15	31.985
681.48	34.077
681.80	30.040
682.12	33.199
682.44	31.631
682.77	31.602
683.09	35.849
683.41	30.973
683.73	33.105
684.06	33.763
684.38	34.100
684.70	31.893
685.02	32.480
685.34	31.579
685.67	27.841
685.99	30.435
686.31	30.880
686.63	32.447
686.96	30.869
687.28	29.287
687.60	31.055
687.92	27.821
688.24	30.512
688.56	31.263
688.89	30.342
689.21	31.510
689.53	32.874
689.85	33.408
690.17	30.269
690.49	32.333
690.82	32.048
691.14	27.594
691.46	34.368
691.78	30.837
692.10	32.415
692.42	31.778
692.74	31.974
693.06	32.360
693.39	29.530
693.71	30.474
694.03	31.749
694.35	32.957
694.67	29.314
694.99	31.202
695.31	33.929
695.63	28.061
695.95	30.521
696.27	31.671
696.59	31.551
696.91	31.180
697.23	30.469
697.56	28.846
697.88	30.631
698.20	28.480
698.52	28.475
698.84	32.767
699.16	28.333
699.48	29.250
699.80	30.827
700.12	31.738
700.44	29.330
700.76	30.904
701.08	29.070
701.40	29.003
701.72	34.259
702.04	32.051
702.36	34.337
702.68	28.144
703.00	28.406
703.32	27.794
703.64	34.118
703.96	33.430
704.28	28.402
704.60	28.797
704.91	28.889
705.23	31.392
705.55	29.730
705.87	37.201
706.19	33.681
706.51	27.431
706.83	32.787
707.15	35.032
707.47	29.477
707.79	27.835
708.11	28.753
708.43	30.175
708.74	29.610
709.06	29.248
709.38	30.747
709.70	29.687
710.02	35.890
710.34	27.063
710.66	28.889
710.98	28.076
711.29	28.065
711.61	24.920
711.93	30.820
712.25	33.555
712.57	27.178
712.89	36.691
713.20	30.928
713.52	28.358
713.84	29.537
714.16	28.525
714.48	29.206
714.80	26.769
715.11	29.395
715.43	31.627
715.75	31.776
716.07	26.885
716.39	28.428
716.70	29.268
717.02	32.222
717.34	30.534
717.66	34.855
717.97	29.098
718.29	25.630
718.61	32.937
718.93	27.957
719.24	25.000
719.56	26.038
719.88	28.727
720.20	32.959
720.51	31.579
720.83	31.325
721.15	24.590
721.46	31.765
721.78	30.268
722.10	28.400
722.42	26.033
722.73	27.888
723.05	34.137
723.37	29.412
723.68	28.745
724.00	31.707
724.32	30.041
724.63	25.311
724.95	34.711
725.27	21.053
725.58	30.172
725.90	27.381
726.22	28.782
726.53	26.236
726.85	18.039
727.16	30.075
727.48	26.154
727.80	25.000
728.11	21.008
728.43	28.512
728.74	26.953
729.06	28.788
729.38	24.125
729.69	24.803
730.01	29.921
730.32	26.295
730.64	28.571
730.96	31.716
731.27	25.714
731.59	27.653
731.90	23.926
732.22	25.153
732.53	27.152
732.85	25.168
733.16	26.087
733.48	27.526
733.80	21.708
734.11	25.862
734.43	25.510
734.74	27.596
735.06	27.273
735.37	25.688
735.69	20.645
736.00	26.599
736.32	25.828
736.63	22.414
736.95	22.101
737.26	26.490
737.58	21.223
737.89	30.108
738.21	27.444
738.52	28.077
738.83	23.828
739.15	27.350
739.46	29.032
739.78	23.776
740.09	27.972
740.41	26.923
740.72	25.547
741.04	25.397
741.35	19.913
741.66	26.852
741.98	19.048
742.29	27.700
742.61	25.668
742.92	31.776
743.23	32.456
743.55	21.171
743.86	29.333
744.18	22.381
744.49	30.049
744.80	24.365
745.12	25.773
745.43	32.161
745.74	22.330
746.06	27.317
746.37	26.432
746.68	29.851
747.00	24.607
747.31	26.923
747.62	33.641
747.94	26.201
748.25	26.977
748.56	23.810
748.88	20.652
749.19	25.822
749.50	29.412
749.82	26.222
750.13	27.753
750.44	24.390
750.75	30.000
751.07	26.429
751.38	22.140
751.69	23.664
752.01	23.462
752.32	20.233
752.63	24.231
752.94	22.619
753.26	23.043
753.57	25.000
753.88	21.552
754.19	26.971
754.51	22.266
754.82	22.134
755.13	22.222
755.44	23.967
755.75	27.160
756.07	18.876
756.38	24.219
756.69	25.271
757.00	21.603
757.31	22.148
757.63	26.168
757.94	21.387
758.25	24.709
758.56	23.450
758.87	24.148
759.18	20.667
759.50	24.911
759.81	19.343
760.12	17.230
760.43	26.861
760.74	27.500
761.05	26.124
761.36	23.054
761.67	22.781
761.99	22.258
762.30	24.638
762.61	23.774
762.92	21.973
763.23	20.379
763.54	24.000
763.85	27.848
764.16	19.592
764.47	25.847
764.78	26.592
765.10	23.381
765.41	22.258
765.72	23.270
766.03	19.435
766.34	21.429
766.65	21.053
766.96	24.000
767.27	27.604
767.58	25.000
767.89	19.355
768.20	23.926
768.51	25.683
768.82	23.784
769.13	20.000
769.44	21.930
769.75	23.377
770.06	23.853
770.37	23.005
770.68	20.312
770.99	26.238
771.30	20.388
771.61	18.519
771.92	12.987
772.23	23.832
772.54	17.021
772.85	20.118
773.16	25.610
773.47	19.277
773.78	19.780
774.09	18.000
774.39	16.667
774.70	17.450
775.01	11.594
775.32	21.642
775.63	19.008
775.94	21.053
776.25	19.286
776.56	22.951
776.87	24.779
777.18	29.204
777.48	10.909
777.79	15.652
778.10	13.761
778.41	17.797
778.72	28.926
779.03	22.388
779.34	18.797
779.65	23.529
779.95	19.565
780.26	20.408
780.57	11.207
780.88	12.037
781.19	14.141
781.50	8.800
781.80	15.686
782.11	17.308
782.42	22.289
782.73	13.139
783.04	17.568
783.34	18.182
783.65	13.178
783.96	24.390
784.27	12.821
784.57	16.260
784.88	16.260
785.19	22.807
785.50	-1.031
785.81	21.905
786.11	15.686
786.42	16.364
786.73	23.423
787.04	25.743
787.34	6.667
787.65	15.238
787.96	12.745
788.26	16.216
788.57	20.161
788.88	10.156
789.19	15.385
789.49	15.126
789.80	13.675
790.11	18.584
790.41	12.121
790.72	20.755
791.03	2.778
791.33	2.632
791.64	18.280
791.95	6.667
792.25	11.429
792.56	7.317
792.87	21.429
793.17	-1.316
793.48	2.703
793.79	7.042
794.09	6.329
794.40	22.340
794.70	13.084
795.01	5.263
795.32	7.273
795.62	16.071
795.93	8.247
796.23	5.495
796.54	22.105
796.85	20.548
797.15	-2.778
797.46	13.699
797.76	18.310
798.07	25.000
798.37	25.000
798.68	1.429
798.99	8.571
799.29	18.421
799.60	5.000
799.90	5.556
800.21	6.250
800.51	11.111
800.82	-3.279
801.12	36.842
801.43	4.225
801.73	3.390
802.04	18.033
802.34	12.727
802.65	-3.846
802.95	31.481
803.26	-25.000
803.56	19.231
803.87	-5.263
804.17	1.613
804.48	7.692
804.78	20.513
805.09	-11.628
805.39	-3.125
805.70	-16.981
806.00	33.333
806.30	33.784
806.61	-2.941
806.91	8.642
807.22	12.000
807.52	28.358
807.83	8.065
808.13	-22.222
808.43	-10.909
808.74	7.576
809.04	-7.547
809.35	8.219
809.65	5.263
809.95	22.059
810.26	7.843
810.56	-10.000
810.86	-12.245
811.17	-5.714
811.47	-26.923
811.77	16.129
812.08	-34.211
812.38	4.762
812.69	-32.609
812.99	-9.677
813.29	-28.571
813.59	-44.444
813.90	10.638
814.20	-9.302
814.50	10.417
814.81	8.333
815.11	14.634
815.41	-60.000
815.72	11.429
816.02	-44.444
816.32	-12.821
816.62	2.703
816.93	-61.765
817.23	-10.870
817.53	-35.294
817.84	-17.647
818.14	-71.875
818.44	-27.586
818.74	-32.258
819.04	-25.926
819.35	6.667
819.65	-8.000
819.95	3.333
820.25	-20.000
820.56	-23.684
820.86	0.000
821.16	6.383
821.46	1.724
821.76	-2.564
822.07	-12.500
822.37	-20.930
822.67	-20.000
822.97	-13.514
823.27	-8.108
823.57	32.000
823.88	-35.135
824.18	-71.429
824.48	-23.077
824.78	-115.385
825.08	-17.391
825.38	-37.500
825.69	-8.333
825.99	-65.000
826.29	-8.108
826.59	-32.353
826.89	56.000
827.19	-2.857
827.49	31.579
827.79	15.625
828.09	-23.333
828.39	56.522
828.70	-55.172
829.00	-34.483
829.30	5.556
829.60	25.000
829.90	-22.222
830.20	-23.077
830.50	-104.762
830.80	-53.571
831.10	-2.564
831.40	-57.143
831.70	-2.941
832.00	-37.500
832.30	-89.474
832.60	-100.000
832.90	-75.000
833.20	-41.176
833.50	-93.333
833.80	-73.333
834.10	-15.000
834.40	-16.667
834.70	-61.111
835.00	-19.231
835.30	-20.833
835.60	-17.241
835.90	-72.222
836.20	-145.455
836.50	-100.000
836.80	-5.714
837.10	5.714
837.40	-82.353
837.70	-72.727
838.00	-29.167
838.30	-62.500
838.60	4.762
838.90	-15.000
839.19	-52.174
839.49	-30.435
839.79	-77.778
840.09	-56.522
840.39	-45.455
840.69	-75.000
840.99	-26.316
841.29	-56.250
841.59	-85.714
841.88	-83.333
842.18	-45.833
842.48	-70.588
842.78	-13.793
843.08	-14.286
843.38	-100.000
843.68	-133.333
843.97	-69.231
844.27	-100.000
844.57	-260.000
844.87	24.000
845.17	-240.000
845.47	-92.857
845.76	-77.778
846.06	0.000
846.36	-250.000
846.66	-40.000
846.96	-52.632
847.25	-50.000
847.55	-91.667
847.85	-40.000
848.15	-230.000
848.44	53.846
848.74	-10.526
849.04	700.000
849.34	-77.778
849.63	-26.316
849.93	0.000
850.23	-25.000
850.53	-14.286
850.82	-4.000
851.12	-26.316
851.42	-550.000
851.71	-71.429
852.01	-41.667
852.31	-5.882
852.61	-73.333
852.90	-52.381
853.20	-333.333
853.50	-44.444
853.79	-42.105
854.09	-80.000
854.39	-32.143
854.68	-47.826
854.98	-225.000
855.28	-6.897
855.57	-50.000
855.87	-20.000
856.17	-133.333
856.46	-10.345
856.76	-33.333
857.05	-100.000
857.35	-107.692
857.65	-54.545
857.94	-48.148
858.24	-135.714
858.53	-150.000
858.83	-133.333
859.13	-88.889
859.42	14.286
859.72	-237.500
860.01	-533.333
860.31	-87.500
860.60	-460.000
860.90	-188.889
861.20	-175.000
861.49	-185.714
861.79	41.176
862.08	-1150.000
862.38	-75.000
862.67	-61.538
862.97	17.647
863.26	-20.000
863.56	-47.059
863.85	366.667
864.15	-190.000
864.44	-30.769
864.74	-15.000
865.03	-62.500
865.33	-233.333
865.62	-47.059
865.92	-425.000
866.21	-100.000
866.51	-75.000
866.80	-900.000
867.10	-266.667
867.39	-70.588
867.69	-8.696
867.98	-157.143
868.27	-260.000
868.57	-106.250
868.86	-227.273
869.16	-58.824
869.45	-200.000
869.75	-214.286
870.04	1900.000
870.33	-58.333
870.63	-160.000
870.92	-155.556
871.22	-141.667
871.51	-127.273
871.80	-125.000
872.10	30.000
>>>>>End Processed Spectral Data<<<<<
