SpectraSuite Data File
++++++++++++++++++++++++++++++++++++
Date: Sat May 16 11:12:02 PDT 2015
User: schluterlab
Dark Spectrum Present: Yes
Reference Spectrum Present: Yes
Number of Sampled Component Spectra: 1
Spectrometers: USB2E3373
Integration Time (usec): 3000 (USB2E3373)
Spectra Averaged: 3 (USB2E3373)
Boxcar Smoothing: 0 (USB2E3373)
Correct for Electrical Dark: No (USB2E3373)
Strobe/Lamp Enabled: No (USB2E3373)
Correct for Detector Non-linearity: No (USB2E3373)
Correct for Stray Light: No (USB2E3373)
Number of Pixels in Processed Spectrum: 2048
>>>>>Begin Processed Spectral Data<<<<<
178.53	0.000
178.91	140.000
179.29	233.333
179.67	100.000
180.04	-38.462
180.42	300.000
180.80	50.000
181.18	150.000
181.56	112.500
181.94	400.000
182.31	200.000
182.69	76.923
183.07	-300.000
183.45	1200.000
183.83	-0.000
184.20	-114.286
184.58	37.500
184.96	-250.000
185.34	93.750
185.72	-175.000
186.09	166.667
186.47	-137.500
186.85	-150.000
187.23	62.500
187.61	75.000
187.98	-100.000
188.36	-50.000
188.74	-62.500
189.12	700.000
189.49	185.714
189.87	-58.333
190.25	50.000
190.63	50.000
191.00	-144.444
191.38	420.000
191.76	-46.667
192.14	440.000
192.51	-280.000
192.89	-200.000
193.27	0.000
193.65	44.444
194.02	-14.286
194.40	266.667
194.78	10.000
195.15	-500.000
195.53	9.091
195.91	-233.333
196.29	160.000
196.66	-333.333
197.04	1400.000
197.42	-75.000
197.79	40.000
198.17	-166.667
198.55	-250.000
198.92	0.000
199.30	125.000
199.68	-200.000
200.05	-22.222
200.43	-44.444
200.81	-500.000
201.18	-25.000
201.56	100.000
201.94	0.000
202.31	22.727
202.69	20.000
203.07	10.000
203.44	600.000
203.82	-133.333
204.19	-175.000
204.57	-25.000
204.95	-1100.000
205.32	93.750
205.70	700.000
206.08	-1300.000
206.45	55.556
206.83	-350.000
207.20	100.000
207.58	-500.000
207.96	-33.333
208.33	-12.500
208.71	22.222
209.08	150.000
209.46	-42.857
209.84	250.000
210.21	0.000
210.59	10.000
210.96	200.000
211.34	0.000
211.71	100.000
212.09	300.000
212.46	600.000
212.84	-500.000
213.22	633.333
213.59	108.333
213.97	-44.444
214.34	50.000
214.72	-50.000
215.09	-333.333
215.47	33.333
215.84	-10.000
216.22	10.000
216.59	46.667
216.97	-225.000
217.34	500.000
217.72	-100.000
218.09	83.333
218.47	-200.000
218.84	28.571
219.22	71.429
219.59	0.000
219.97	100.000
220.34	225.000
220.72	212.500
221.09	-38.462
221.47	0.000
221.84	233.333
222.22	-350.000
222.59	900.000
222.97	-150.000
223.34	-500.000
223.72	-133.333
224.09	-42.857
224.46	-400.000
224.84	-57.143
225.21	-200.000
225.59	-81.818
225.96	-150.000
226.34	-14.286
226.71	-33.333
227.08	-5.000
227.46	600.000
227.83	-214.286
228.21	-100.000
228.58	150.000
228.95	6.250
229.33	0.000
229.70	-240.000
230.08	-550.000
230.45	25.000
230.82	-50.000
231.20	-1000.000
231.57	-300.000
231.95	300.000
232.32	42.857
232.69	-44.444
233.07	-128.571
233.44	-650.000
233.81	-46.667
234.19	-111.111
234.56	25.000
234.93	-18.750
235.31	-100.000
235.68	-157.143
236.05	-47.059
236.43	-31.818
236.80	-16.129
237.17	-12.500
237.55	-4.762
237.92	-27.273
238.29	11.429
238.67	23.529
239.04	-5.556
239.41	-12.903
239.79	-17.949
240.16	-11.905
240.53	-23.636
240.91	2.564
241.28	12.727
241.65	0.000
242.02	3.279
242.40	-16.393
242.77	0.000
243.14	-20.339
243.51	-24.286
243.89	-16.456
244.26	-2.247
244.63	1.053
245.00	-1.053
245.38	0.847
245.75	6.195
246.12	-7.200
246.49	-0.787
246.87	-10.569
247.24	-5.932
247.61	-3.390
247.98	-4.225
248.36	-1.399
248.73	5.696
249.10	-1.911
249.47	-0.585
249.84	0.000
250.22	-2.381
250.59	-0.565
250.96	-2.094
251.33	2.370
251.70	1.442
252.08	1.896
252.45	-2.844
252.82	-0.952
253.19	2.553
253.56	-4.435
253.94	-3.376
254.31	-0.429
254.68	-2.033
255.05	-1.613
255.42	1.587
255.79	-1.075
256.16	-2.353
256.54	-1.471
256.91	0.758
257.28	-2.564
257.65	-2.837
258.02	2.830
258.39	-1.003
258.76	-3.378
259.14	-2.469
259.51	0.656
259.88	-0.915
260.25	1.242
260.62	-4.823
260.99	-2.967
261.36	-1.524
261.73	0.867
262.10	3.889
262.47	1.140
262.85	2.857
263.22	-0.860
263.59	-3.077
263.96	-0.580
264.33	0.542
264.70	0.552
265.07	-1.099
265.44	-1.292
265.81	0.775
266.18	0.253
266.55	3.186
266.92	0.252
267.29	1.211
267.66	-0.494
268.03	0.483
268.40	0.939
268.77	1.205
269.14	0.232
269.51	-0.690
269.88	-0.459
270.25	-0.932
270.62	0.000
270.99	-0.676
271.36	0.000
271.73	-0.448
272.10	0.229
272.47	-2.667
272.84	1.333
273.21	-0.229
273.58	2.637
273.95	2.851
274.32	0.679
274.69	2.626
275.06	2.045
275.43	0.000
275.80	1.629
276.17	0.628
276.54	2.037
276.91	-1.029
277.28	1.826
277.65	-0.620
278.02	0.418
278.39	1.768
278.76	3.386
279.13	0.791
279.50	0.795
279.87	1.480
280.23	2.834
280.60	-0.795
280.97	-2.330
281.34	-1.934
281.71	2.692
282.08	0.202
282.45	-3.870
282.82	0.000
283.19	1.636
283.56	2.564
283.92	0.707
284.29	0.000
284.66	0.540
285.03	1.961
285.40	1.845
285.77	1.228
286.14	1.083
286.51	-1.599
286.87	0.363
287.24	1.365
287.61	1.653
287.98	-0.693
288.35	-0.331
288.72	-0.679
289.08	0.000
289.45	1.852
289.82	-0.865
290.19	2.299
290.56	-0.661
290.93	-0.954
291.29	-0.486
291.66	-0.483
292.03	0.471
292.40	1.657
292.77	1.398
293.13	1.626
293.50	1.189
293.87	0.153
294.24	1.056
294.60	0.909
294.97	1.669
295.34	0.296
295.71	0.446
296.08	0.154
296.44	-0.858
296.81	0.142
297.18	0.423
297.55	0.424
297.91	1.953
298.28	0.411
298.65	0.697
299.02	2.139
299.38	0.535
299.75	0.951
300.12	0.513
300.48	0.384
300.85	0.131
301.22	0.776
301.59	0.910
301.95	2.897
302.32	0.000
302.69	1.346
303.05	0.855
303.42	1.375
303.79	-0.120
304.15	1.422
304.52	1.400
304.89	1.063
305.25	0.733
305.62	0.000
305.99	2.356
306.35	2.109
306.72	0.000
307.09	1.589
307.45	1.249
307.82	0.223
308.19	2.573
308.55	1.961
308.92	0.430
309.29	0.432
309.65	1.379
310.02	1.620
310.38	0.757
310.75	1.742
311.12	1.136
311.48	1.775
311.85	1.751
312.22	1.854
312.58	2.035
312.95	2.141
313.31	1.898
313.68	2.010
314.05	2.967
314.41	0.805
314.78	0.200
315.14	1.481
315.51	1.621
315.87	2.711
316.24	2.041
316.61	2.207
316.97	1.692
317.34	1.252
317.70	2.041
318.07	1.959
318.43	1.311
318.80	3.850
319.16	1.970
319.53	3.008
319.89	2.070
320.26	2.255
320.62	1.635
320.99	3.085
321.35	2.069
321.72	2.559
322.08	3.363
322.45	2.475
322.81	3.362
323.18	4.131
323.54	3.882
323.91	3.614
324.27	4.183
324.64	3.931
325.00	5.148
325.37	4.253
325.73	6.824
326.10	4.163
326.46	5.954
326.83	6.809
327.19	5.922
327.56	7.070
327.92	7.816
328.29	7.619
328.65	7.364
329.01	8.922
329.38	8.207
329.74	9.799
330.11	9.882
330.47	10.445
330.84	11.824
331.20	10.379
331.56	11.577
331.93	13.055
332.29	12.511
332.66	12.555
333.02	13.756
333.38	14.427
333.75	14.159
334.11	13.778
334.48	14.298
334.84	15.048
335.20	15.071
335.57	14.621
335.93	15.936
336.29	15.500
336.66	15.947
337.02	16.486
337.38	16.221
337.75	16.330
338.11	15.832
338.47	15.214
338.84	17.514
339.20	17.135
339.56	18.182
339.93	17.284
340.29	16.829
340.65	17.745
341.02	17.116
341.38	17.607
341.74	16.511
342.11	17.235
342.47	16.567
342.83	16.877
343.20	16.311
343.56	15.918
343.92	17.696
344.28	18.671
344.65	17.327
345.01	16.975
345.37	17.442
345.73	16.121
346.10	15.944
346.46	17.465
346.82	17.161
347.19	16.927
347.55	17.496
347.91	17.165
348.27	18.138
348.63	18.255
349.00	17.104
349.36	15.535
349.72	18.710
350.08	17.402
350.45	16.706
350.81	17.914
351.17	16.640
351.53	16.150
351.89	17.542
352.26	17.132
352.62	18.049
352.98	16.930
353.34	17.666
353.70	16.602
354.07	16.916
354.43	18.103
354.79	18.938
355.15	16.294
355.51	16.562
355.87	17.708
356.24	16.759
356.60	18.614
356.96	17.475
357.32	16.469
357.68	17.548
358.04	17.706
358.40	17.479
358.77	16.692
359.13	17.827
359.49	18.670
359.85	17.378
360.21	18.037
360.57	18.449
360.93	17.778
361.29	17.190
361.66	16.159
362.02	17.899
362.38	17.608
362.74	17.875
363.10	18.077
363.46	18.875
363.82	18.732
364.18	18.813
364.54	19.800
364.90	18.658
365.26	18.117
365.62	19.031
365.98	18.706
366.35	19.437
366.71	19.027
367.07	18.631
367.43	18.600
367.79	18.763
368.15	17.710
368.51	19.371
368.87	19.643
369.23	19.298
369.59	18.333
369.95	18.675
370.31	20.394
370.67	18.727
371.03	19.534
371.39	19.802
371.75	19.671
372.11	20.014
372.47	19.884
372.83	19.402
373.19	19.857
373.55	20.197
373.91	20.199
374.27	20.534
374.63	19.945
374.99	20.862
375.35	19.650
375.71	20.729
376.07	19.781
376.42	20.000
376.78	20.327
377.14	20.271
377.50	20.696
377.86	20.546
378.22	21.168
378.58	19.456
378.94	20.777
379.30	21.024
379.66	21.554
380.02	20.143
380.38	21.269
380.74	21.043
381.09	21.793
381.45	21.539
381.81	21.597
382.17	21.303
382.53	21.520
382.89	21.890
383.25	21.674
383.61	21.403
383.97	21.555
384.32	22.028
384.68	22.551
385.04	22.343
385.40	21.302
385.76	22.561
386.12	22.049
386.48	23.329
386.83	22.454
387.19	22.833
387.55	21.926
387.91	22.525
388.27	21.653
388.62	21.815
388.98	21.563
389.34	21.848
389.70	22.229
390.06	21.131
390.42	22.051
390.77	21.830
391.13	22.174
391.49	23.206
391.85	22.880
392.20	22.694
392.56	22.480
392.92	22.590
393.28	23.134
393.64	23.211
393.99	23.077
394.35	22.384
394.71	22.359
395.07	23.540
395.42	21.931
395.78	22.439
396.14	22.492
396.50	22.508
396.85	23.627
397.21	22.539
397.57	23.100
397.92	21.956
398.28	23.167
398.64	23.200
399.00	23.315
399.35	22.773
399.71	22.880
400.07	23.522
400.42	22.871
400.78	21.705
401.14	22.994
401.49	22.642
401.85	22.514
402.21	23.361
402.57	22.087
402.92	23.222
403.28	23.162
403.63	21.929
403.99	22.250
404.35	22.162
404.70	22.235
405.06	22.895
405.42	21.833
405.77	22.002
406.13	22.942
406.49	21.390
406.84	23.275
407.20	22.438
407.55	22.926
407.91	21.632
408.27	22.488
408.62	22.670
408.98	21.831
409.34	23.400
409.69	22.621
410.05	21.892
410.40	22.011
410.76	21.873
411.11	22.943
411.47	22.251
411.83	22.433
412.18	22.030
412.54	21.477
412.89	22.357
413.25	22.078
413.60	22.114
413.96	21.811
414.31	23.364
414.67	21.841
415.03	22.704
415.38	22.121
415.74	22.680
416.09	21.675
416.45	22.156
416.80	22.432
417.16	22.392
417.51	22.915
417.87	22.460
418.22	22.756
418.58	22.272
418.93	22.869
419.29	22.083
419.64	21.671
420.00	23.451
420.35	22.827
420.71	22.149
421.06	22.959
421.42	22.190
421.77	22.948
422.12	24.007
422.48	22.555
422.83	23.519
423.19	22.940
423.54	24.265
423.90	23.193
424.25	23.077
424.61	24.246
424.96	23.991
425.31	23.812
425.67	23.840
426.02	23.236
426.38	24.077
426.73	23.670
427.09	24.142
427.44	23.523
427.79	23.721
428.15	23.758
428.50	24.692
428.85	24.700
429.21	24.128
429.56	24.792
429.92	24.299
430.27	24.576
430.62	24.922
430.98	24.516
431.33	24.280
431.68	24.987
432.04	24.622
432.39	24.501
432.74	24.101
433.10	25.155
433.45	23.777
433.80	24.244
434.16	25.094
434.51	25.479
434.86	25.952
435.22	25.501
435.57	24.357
435.92	25.381
436.28	25.282
436.63	25.325
436.98	25.029
437.34	25.281
437.69	25.029
438.04	25.695
438.39	26.173
438.75	25.029
439.10	25.375
439.45	26.373
439.81	25.843
440.16	24.986
440.51	26.765
440.86	25.101
441.22	25.815
441.57	25.842
441.92	27.059
442.27	26.786
442.63	26.448
442.98	25.734
443.33	26.030
443.68	26.003
444.03	26.916
444.39	27.215
444.74	26.542
445.09	26.206
445.44	27.237
445.79	25.140
446.15	27.054
446.50	26.021
446.85	26.167
447.20	26.302
447.55	26.409
447.91	27.513
448.26	26.760
448.61	26.882
448.96	26.499
449.31	26.381
449.66	26.388
450.02	25.928
450.37	26.029
450.72	26.667
451.07	27.467
451.42	26.890
451.77	28.007
452.12	26.937
452.47	26.952
452.83	27.665
453.18	28.020
453.53	26.430
453.88	27.153
454.23	27.388
454.58	27.035
454.93	28.212
455.28	27.661
455.63	28.256
455.98	27.169
456.34	27.192
456.69	28.268
457.04	28.273
457.39	27.392
457.74	27.939
458.09	28.016
458.44	28.233
458.79	28.027
459.14	28.294
459.49	28.597
459.84	27.656
460.19	27.208
460.54	27.768
460.89	28.083
461.24	26.958
461.59	27.902
461.94	28.008
462.29	28.350
462.64	27.931
462.99	27.175
463.34	27.481
463.69	28.053
464.04	27.944
464.39	28.256
464.74	27.482
465.09	26.819
465.44	27.580
465.79	27.975
466.14	27.791
466.49	28.555
466.84	28.091
467.19	28.304
467.54	27.658
467.89	27.497
468.24	28.029
468.59	28.045
468.94	27.781
469.29	26.966
469.64	28.706
469.99	28.899
470.34	28.056
470.68	29.433
471.03	28.699
471.38	27.292
471.73	29.930
472.08	28.046
472.43	29.022
472.78	28.533
473.13	27.435
473.48	28.015
473.83	27.916
474.17	28.535
474.52	28.453
474.87	29.021
475.22	28.378
475.57	27.778
475.92	28.024
476.27	27.371
476.61	27.775
476.96	28.060
477.31	28.579
477.66	27.781
478.01	28.201
478.36	28.339
478.70	28.564
479.05	29.259
479.40	28.083
479.75	27.931
480.10	27.579
480.45	27.805
480.79	28.973
481.14	28.048
481.49	28.703
481.84	28.756
482.19	28.369
482.53	28.267
482.88	28.287
483.23	28.592
483.58	29.140
483.92	28.237
484.27	28.533
484.62	27.948
484.97	27.592
485.31	27.840
485.66	27.121
486.01	26.967
486.36	27.426
486.70	28.122
487.05	27.609
487.40	28.152
487.75	28.018
488.09	28.382
488.44	28.214
488.79	28.334
489.13	28.072
489.48	28.793
489.83	29.301
490.17	28.733
490.52	28.759
490.87	27.852
491.22	28.538
491.56	29.167
491.91	28.435
492.26	28.302
492.60	28.639
492.95	28.653
493.30	28.919
493.64	28.773
493.99	28.059
494.34	29.095
494.68	28.933
495.03	28.011
495.37	28.220
495.72	28.880
496.07	29.423
496.41	29.319
496.76	28.995
497.11	29.016
497.45	29.646
497.80	28.864
498.14	29.126
498.49	29.131
498.84	28.738
499.18	29.240
499.53	29.079
499.87	28.668
500.22	28.578
500.56	28.714
500.91	29.064
501.26	28.869
501.60	28.166
501.95	29.855
502.29	28.200
502.64	29.279
502.98	29.851
503.33	29.041
503.67	28.736
504.02	28.199
504.36	29.314
504.71	28.825
505.06	28.058
505.40	28.743
505.75	28.760
506.09	29.323
506.44	29.023
506.78	28.650
507.13	28.785
507.47	29.264
507.82	29.427
508.16	29.067
508.51	29.109
508.85	28.986
509.19	29.566
509.54	29.915
509.88	30.426
510.23	28.931
510.57	29.312
510.92	29.431
511.26	28.761
511.61	28.402
511.95	29.095
512.30	29.522
512.64	28.492
512.98	29.483
513.33	29.654
513.67	29.425
514.02	29.139
514.36	30.416
514.70	28.862
515.05	29.388
515.39	29.296
515.74	29.785
516.08	29.510
516.42	29.292
516.77	29.636
517.11	29.519
517.46	28.947
517.80	30.385
518.14	29.650
518.49	29.886
518.83	28.843
519.17	30.077
519.52	28.571
519.86	29.092
520.20	29.279
520.55	29.046
520.89	28.929
521.23	30.037
521.58	29.154
521.92	30.779
522.26	29.841
522.61	29.594
522.95	29.292
523.29	29.404
523.64	30.044
523.98	30.363
524.32	28.410
524.66	28.571
525.01	29.480
525.35	29.253
525.69	29.733
526.04	30.157
526.38	31.636
526.72	29.502
527.06	29.557
527.41	30.033
527.75	29.373
528.09	30.046
528.43	29.246
528.78	29.334
529.12	30.858
529.46	29.446
529.80	29.309
530.15	29.749
530.49	29.431
530.83	29.993
531.17	28.754
531.51	29.069
531.86	28.769
532.20	29.015
532.54	30.348
532.88	29.908
533.22	28.944
533.57	29.047
533.91	28.527
534.25	28.347
534.59	28.732
534.93	28.127
535.27	29.830
535.62	28.900
535.96	28.313
536.30	28.076
536.64	29.947
536.98	30.438
537.32	28.680
537.66	29.056
538.01	30.378
538.35	29.932
538.69	29.144
539.03	29.045
539.37	29.341
539.71	29.753
540.05	29.335
540.39	29.917
540.73	29.855
541.07	28.962
541.42	29.710
541.76	26.844
542.10	30.182
542.44	29.380
542.78	28.969
543.12	29.464
543.46	27.877
543.80	28.094
544.14	28.878
544.48	28.871
544.82	29.161
545.16	30.181
545.50	28.331
545.84	29.138
546.18	29.612
546.52	29.232
546.86	28.063
547.20	30.098
547.54	28.719
547.88	29.529
548.22	28.375
548.56	29.459
548.90	28.908
549.24	29.152
549.58	29.570
549.92	28.551
550.26	29.263
550.60	28.450
550.94	27.956
551.28	29.571
551.62	29.985
551.96	29.667
552.30	29.129
552.64	29.275
552.98	29.853
553.32	28.139
553.66	29.560
554.00	28.856
554.34	27.148
554.68	28.143
555.02	29.812
555.36	28.397
555.69	29.370
556.03	29.193
556.37	29.232
556.71	28.704
557.05	29.933
557.39	28.879
557.73	29.905
558.07	30.143
558.41	29.394
558.75	29.354
559.08	28.327
559.42	28.943
559.76	29.755
560.10	30.723
560.44	29.480
560.78	29.088
561.12	28.986
561.45	29.315
561.79	28.711
562.13	29.102
562.47	29.202
562.81	28.784
563.15	27.992
563.48	30.131
563.82	28.803
564.16	28.736
564.50	28.965
564.84	29.431
565.17	29.509
565.51	28.227
565.85	28.938
566.19	29.183
566.52	28.441
566.86	28.445
567.20	29.540
567.54	29.061
567.88	28.252
568.21	28.188
568.55	27.359
568.89	28.280
569.23	27.580
569.56	27.070
569.90	26.987
570.24	27.283
570.57	26.678
570.91	27.508
571.25	26.913
571.59	26.787
571.92	26.518
572.26	26.962
572.60	26.807
572.93	26.541
573.27	26.646
573.61	26.269
573.95	27.222
574.28	26.515
574.62	26.309
574.96	25.573
575.29	26.423
575.63	26.546
575.97	25.647
576.30	26.226
576.64	26.240
576.98	26.375
577.31	26.246
577.65	26.325
577.98	26.157
578.32	25.826
578.66	25.779
578.99	26.391
579.33	26.652
579.67	26.300
580.00	26.116
580.34	26.052
580.67	26.256
581.01	25.823
581.35	26.131
581.68	25.324
582.02	25.427
582.35	26.062
582.69	26.263
583.02	26.194
583.36	26.358
583.70	25.986
584.03	26.643
584.37	25.819
584.70	26.011
585.04	25.899
585.37	25.800
585.71	25.883
586.04	26.013
586.38	26.276
586.72	26.409
587.05	26.933
587.39	26.332
587.72	26.520
588.06	26.162
588.39	26.631
588.73	26.916
589.06	26.822
589.40	27.310
589.73	26.523
590.07	27.130
590.40	27.232
590.73	27.469
591.07	26.721
591.40	27.210
591.74	27.628
592.07	27.658
592.41	27.176
592.74	26.826
593.08	27.154
593.41	26.283
593.75	26.245
594.08	26.995
594.41	26.543
594.75	27.105
595.08	27.556
595.42	27.421
595.75	26.718
596.09	26.542
596.42	27.291
596.75	27.900
597.09	27.872
597.42	26.844
597.75	27.414
598.09	27.700
598.42	26.381
598.76	26.744
599.09	26.835
599.42	26.144
599.76	26.425
600.09	27.176
600.42	26.396
600.76	26.968
601.09	26.852
601.42	25.485
601.76	26.713
602.09	27.117
602.42	26.626
602.76	26.007
603.09	26.452
603.42	26.914
603.76	27.443
604.09	26.472
604.42	26.478
604.76	26.864
605.09	27.441
605.42	27.793
605.75	26.908
606.09	25.986
606.42	25.723
606.75	26.406
607.09	26.775
607.42	26.276
607.75	26.667
608.08	28.242
608.42	26.632
608.75	26.729
609.08	26.595
609.41	26.607
609.75	25.987
610.08	26.275
610.41	27.470
610.74	27.611
611.07	27.181
611.41	25.466
611.74	27.506
612.07	27.121
612.40	27.292
612.73	26.279
613.07	27.573
613.40	27.313
613.73	26.975
614.06	26.689
614.39	27.227
614.72	25.531
615.06	26.522
615.39	26.207
615.72	27.159
616.05	26.781
616.38	27.046
616.71	27.207
617.05	28.589
617.38	28.050
617.71	26.658
618.04	26.522
618.37	27.296
618.70	28.162
619.03	26.947
619.36	27.343
619.69	27.566
620.03	26.928
620.36	27.496
620.69	27.638
621.02	28.691
621.35	26.290
621.68	27.213
622.01	26.780
622.34	27.717
622.67	26.953
623.00	28.386
623.33	27.537
623.66	28.065
623.99	27.218
624.32	27.381
624.65	26.932
624.99	27.707
625.32	27.246
625.65	28.283
625.98	27.230
626.31	27.896
626.64	27.197
626.97	28.510
627.30	28.511
627.63	26.857
627.96	28.198
628.29	27.849
628.62	28.080
628.95	27.953
629.28	27.726
629.61	28.557
629.94	27.127
630.26	29.622
630.59	29.950
630.92	28.428
631.25	28.327
631.58	28.466
631.91	27.021
632.24	29.778
632.57	28.778
632.90	28.736
633.23	28.855
633.56	27.836
633.89	29.363
634.22	29.398
634.55	27.644
634.88	28.900
635.20	27.091
635.53	29.135
635.86	29.723
636.19	28.327
636.52	26.762
636.85	28.279
637.18	25.750
637.51	28.748
637.83	28.628
638.16	28.026
638.49	29.379
638.82	29.344
639.15	29.702
639.48	27.626
639.81	30.152
640.13	29.189
640.46	29.630
640.79	30.672
641.12	30.465
641.45	29.842
641.77	29.940
642.10	30.211
642.43	30.197
642.76	28.504
643.09	29.683
643.41	29.365
643.74	31.479
644.07	30.109
644.40	29.984
644.73	29.373
645.05	27.713
645.38	28.642
645.71	33.505
646.04	29.412
646.36	28.272
646.69	30.277
647.02	29.783
647.35	30.866
647.67	31.387
648.00	32.162
648.33	31.366
648.66	27.581
648.98	27.229
649.31	28.154
649.64	31.875
649.96	27.943
650.29	27.705
650.62	31.325
650.94	27.825
651.27	28.943
651.60	27.509
651.92	30.137
652.25	28.214
652.58	27.257
652.90	29.535
653.23	28.226
653.56	28.261
653.88	28.197
654.21	30.369
654.54	29.402
654.86	27.287
655.19	28.940
655.52	26.531
655.84	23.999
656.17	25.728
656.49	34.880
656.82	36.449
657.15	27.474
657.47	20.272
657.80	15.378
658.13	17.955
658.45	24.085
658.78	24.170
659.10	24.060
659.43	24.342
659.75	25.767
660.08	24.844
660.41	26.370
660.73	26.403
661.06	27.971
661.38	31.607
661.71	26.386
662.03	29.839
662.36	32.409
662.68	27.426
663.01	28.875
663.33	28.571
663.66	30.901
663.98	30.357
664.31	27.069
664.63	32.965
664.96	29.718
665.28	27.983
665.61	27.061
665.93	31.481
666.26	28.340
666.58	32.017
666.91	30.067
667.23	30.044
667.56	29.478
667.88	29.186
668.21	28.571
668.53	29.206
668.86	31.409
669.18	26.712
669.50	29.673
669.83	28.467
670.15	28.475
670.48	28.037
670.80	28.702
671.13	27.540
671.45	28.153
671.77	27.409
672.10	27.219
672.42	27.306
672.75	25.818
673.07	25.405
673.39	27.322
673.72	27.165
674.04	28.875
674.37	23.505
674.69	28.074
675.01	28.936
675.34	30.152
675.66	27.646
675.98	28.634
676.31	28.507
676.63	27.126
676.95	27.876
677.28	26.914
677.60	32.127
677.92	29.956
678.25	28.446
678.57	27.572
678.89	28.092
679.22	28.931
679.54	29.783
679.86	25.400
680.18	27.567
680.51	23.464
680.83	26.667
681.15	26.590
681.48	28.600
681.80	28.226
682.12	26.761
682.44	24.361
682.77	28.139
683.09	27.673
683.41	29.425
683.73	24.429
684.06	28.387
684.38	25.941
684.70	26.955
685.02	26.969
685.34	27.875
685.67	26.136
685.99	24.008
686.31	27.110
686.63	25.887
686.96	23.845
687.28	26.204
687.60	27.344
687.92	23.541
688.24	26.969
688.56	26.052
688.89	26.282
689.21	25.383
689.53	30.805
689.85	27.840
690.17	26.682
690.49	28.176
690.82	25.783
691.14	26.415
691.46	26.164
691.78	29.075
692.10	28.390
692.42	24.222
692.74	27.253
693.06	26.517
693.39	25.727
693.71	25.734
694.03	28.510
694.35	26.862
694.67	25.059
694.99	29.156
695.31	25.000
695.63	27.551
695.95	28.288
696.27	28.928
696.59	27.273
696.91	27.247
697.23	28.906
697.56	25.962
697.88	23.649
698.20	25.910
698.52	25.112
698.84	25.000
699.16	26.905
699.48	26.500
699.80	27.318
700.12	29.975
700.44	26.816
700.76	24.198
701.08	27.907
701.40	24.471
701.72	28.395
702.04	32.372
702.36	27.711
702.68	23.653
703.00	28.406
703.32	22.350
703.64	26.176
703.96	26.453
704.28	23.373
704.60	23.418
704.91	24.762
705.23	23.948
705.55	24.662
705.87	30.034
706.19	24.653
706.51	29.167
706.83	25.246
707.15	24.204
707.47	28.375
707.79	22.680
708.11	22.392
708.43	25.935
708.74	21.558
709.06	25.348
709.38	25.287
709.70	27.188
710.02	28.834
710.34	24.422
710.66	25.714
710.98	26.814
711.29	20.000
711.61	25.559
711.93	19.344
712.25	25.914
712.57	24.390
712.89	26.259
713.20	29.553
713.52	25.373
713.84	23.843
714.16	27.541
714.48	21.905
714.80	24.923
715.11	22.190
715.43	29.518
715.75	27.414
716.07	25.246
716.39	29.431
716.70	29.268
717.02	25.556
717.34	25.954
717.66	28.216
717.97	21.311
718.29	26.471
718.61	30.159
718.93	26.165
719.24	22.794
719.56	22.642
719.88	24.364
720.20	22.846
720.51	26.316
720.83	25.301
721.15	22.131
721.46	23.137
721.78	21.839
722.10	25.600
722.42	25.207
722.73	30.279
723.05	27.711
723.37	22.353
723.68	23.482
724.00	29.268
724.32	25.514
724.63	21.162
724.95	28.926
725.27	24.123
725.58	26.293
725.90	24.603
726.22	25.461
726.53	25.095
726.85	20.392
727.16	27.068
727.48	23.462
727.80	21.311
728.11	22.689
728.43	24.380
728.74	25.781
729.06	23.106
729.38	23.346
729.69	20.079
730.01	24.016
730.32	19.920
730.64	24.176
730.96	25.373
731.27	22.500
731.59	22.508
731.90	19.632
732.22	25.153
732.53	25.497
732.85	21.141
733.16	21.377
733.48	27.526
733.80	17.794
734.11	24.483
734.43	21.088
734.74	24.036
735.06	24.138
735.37	24.159
735.69	20.000
736.00	20.539
736.32	23.841
736.63	17.241
736.95	23.188
737.26	23.510
737.58	23.381
737.89	24.731
738.21	20.301
738.52	25.385
738.83	25.000
739.15	25.641
739.46	22.581
739.78	24.825
740.09	17.483
740.41	24.476
740.72	25.912
741.04	23.413
741.35	16.883
741.66	21.296
741.98	21.429
742.29	26.761
742.61	26.738
742.92	26.168
743.23	22.807
743.55	25.676
743.86	32.000
744.18	23.333
744.49	29.557
744.80	26.904
745.12	26.289
745.43	26.131
745.74	22.816
746.06	21.463
746.37	29.075
746.68	25.871
747.00	22.513
747.31	19.712
747.62	22.120
747.94	22.707
748.25	26.977
748.56	17.143
748.88	23.370
749.19	26.291
749.50	28.431
749.82	25.333
750.13	25.551
750.44	23.171
750.75	24.000
751.07	28.571
751.38	22.509
751.69	16.031
752.01	20.769
752.32	19.844
752.63	20.385
752.94	18.651
753.26	24.783
753.57	30.357
753.88	25.000
754.19	20.747
754.51	22.266
754.82	20.158
755.13	22.222
755.44	19.835
755.75	21.399
756.07	16.867
756.38	20.703
756.69	21.661
757.00	21.951
757.31	23.490
757.63	23.988
757.94	20.231
758.25	20.640
758.56	22.372
758.87	20.170
759.18	19.000
759.50	25.979
759.81	18.248
760.12	16.554
760.43	21.036
760.74	21.250
761.05	21.629
761.36	20.060
761.67	21.302
761.99	19.355
762.30	24.638
762.61	21.509
762.92	22.870
763.23	19.431
763.54	19.111
763.85	20.253
764.16	17.143
764.47	21.610
764.78	21.348
765.10	26.259
765.41	19.355
765.72	21.698
766.03	14.134
766.34	21.805
766.65	21.053
766.96	18.500
767.27	20.833
767.58	25.000
767.89	19.355
768.20	26.380
768.51	24.044
768.82	20.000
769.13	24.000
769.44	18.421
769.75	19.913
770.06	23.853
770.37	16.432
770.68	20.312
770.99	24.257
771.30	19.903
771.61	18.519
771.92	18.182
772.23	18.692
772.54	18.617
772.85	14.793
773.16	35.976
773.47	27.711
773.78	27.473
774.09	20.000
774.39	23.457
774.70	14.094
775.01	15.217
775.32	16.418
775.63	12.397
775.94	23.308
776.25	23.571
776.56	11.475
776.87	19.469
777.18	24.779
777.48	22.727
777.79	6.957
778.10	19.266
778.41	10.169
778.72	25.620
779.03	24.627
779.34	19.549
779.65	28.758
779.95	18.841
780.26	16.327
780.57	6.897
780.88	13.889
781.19	15.152
781.50	11.200
781.80	22.222
782.11	22.436
782.42	18.675
782.73	23.358
783.04	19.595
783.34	19.697
783.65	19.380
783.96	18.699
784.27	24.786
784.57	18.699
784.88	15.447
785.19	25.439
785.50	7.216
785.81	19.048
786.11	21.569
786.42	6.364
786.73	33.333
787.04	19.802
787.34	17.143
787.65	19.048
787.96	21.569
788.26	19.820
788.57	30.645
788.88	8.594
789.19	15.385
789.49	13.445
789.80	11.966
790.11	16.814
790.41	23.232
790.72	28.302
791.03	16.667
791.33	10.526
791.64	19.355
791.95	33.333
792.25	18.571
792.56	20.732
792.87	22.449
793.17	2.632
793.48	9.459
793.79	0.000
794.09	10.127
794.40	21.277
794.70	16.822
795.01	12.281
795.32	9.091
795.62	8.929
795.93	23.711
796.23	5.495
796.54	12.632
796.85	30.137
797.15	-4.167
797.46	16.438
797.76	25.352
798.07	21.250
798.37	7.353
798.68	28.571
798.99	10.000
799.29	18.421
799.60	13.333
799.90	15.278
800.21	15.625
800.51	9.524
800.82	21.311
801.12	7.018
801.43	9.859
801.73	8.475
802.04	19.672
802.34	18.182
802.65	7.692
802.95	27.778
803.26	-7.500
803.56	13.462
803.87	2.632
804.17	17.742
804.48	16.923
804.78	-10.256
805.09	11.628
805.39	-43.750
805.70	-1.887
806.00	29.825
806.30	36.486
806.61	44.118
806.91	14.815
807.22	6.667
807.52	14.925
807.83	12.903
808.13	6.349
808.43	12.727
808.74	10.606
809.04	18.868
809.35	10.959
809.65	26.316
809.95	17.647
810.26	29.412
810.56	6.000
810.86	-4.082
811.17	8.571
811.47	0.000
811.77	35.484
812.08	-18.421
812.38	9.524
812.69	-2.174
812.99	61.290
813.29	14.286
813.59	-48.148
813.90	4.255
814.20	-13.953
814.50	22.917
814.81	10.000
815.11	4.878
815.41	-20.000
815.72	31.429
816.02	19.444
816.32	7.692
816.62	-5.405
816.93	-5.882
817.23	26.087
817.53	11.765
817.84	0.000
818.14	-6.250
818.44	-24.138
818.74	-16.129
819.04	-22.222
819.35	-33.333
819.65	-40.000
819.95	-3.333
820.25	12.000
820.56	-10.526
820.86	0.000
821.16	12.766
821.46	27.586
821.76	-12.821
822.07	-15.000
822.37	23.256
822.67	-13.333
822.97	27.027
823.27	-8.108
823.57	32.000
823.88	40.541
824.18	-47.619
824.48	-11.538
824.78	-15.385
825.08	-39.130
825.38	-12.500
825.69	8.333
825.99	-90.000
826.29	-2.703
826.59	0.000
826.89	12.000
827.19	17.143
827.49	31.579
827.79	-3.125
828.09	-6.667
828.39	30.435
828.70	-34.483
829.00	13.793
829.30	8.333
829.60	43.750
829.90	-22.222
830.20	-15.385
830.50	-28.571
830.80	-14.286
831.10	28.205
831.40	-57.143
831.70	0.000
832.00	20.833
832.30	-5.263
832.60	-37.500
832.90	-100.000
833.20	-23.529
833.50	-86.667
833.80	-40.000
834.10	-45.000
834.40	16.667
834.70	11.111
835.00	30.769
835.30	8.333
835.60	3.448
835.90	-22.222
836.20	-154.545
836.50	-25.000
836.80	-8.571
837.10	34.286
837.40	-29.412
837.70	-45.455
838.00	-8.333
838.30	-31.250
838.60	4.762
838.90	25.000
839.19	0.000
839.49	-21.739
839.79	-33.333
840.09	-4.348
840.39	27.273
840.69	-68.750
840.99	-15.789
841.29	6.250
841.59	-7.143
841.88	5.556
842.18	16.667
842.48	0.000
842.78	31.034
843.08	57.143
843.38	0.000
843.68	-100.000
843.97	-53.846
844.27	-9.091
844.57	-180.000
844.87	-16.000
845.17	-260.000
845.47	0.000
845.76	-66.667
846.06	0.000
846.36	100.000
846.66	-100.000
846.96	36.842
847.25	-29.167
847.55	-100.000
847.85	6.667
848.15	-20.000
848.44	50.000
848.74	26.316
849.04	466.667
849.34	22.222
849.63	-47.368
849.93	0.000
850.23	-20.000
850.53	57.143
850.82	20.000
851.12	26.316
851.42	-550.000
851.71	21.429
852.01	-8.333
852.31	58.824
852.61	-13.333
852.90	4.762
853.20	-83.333
853.50	5.556
853.79	-26.316
854.09	-46.667
854.39	-17.857
854.68	8.696
854.98	-91.667
855.28	13.793
855.57	-25.000
855.87	-15.000
856.17	-73.333
856.46	10.345
856.76	-13.333
857.05	-41.176
857.35	-76.923
857.65	-36.364
857.94	3.704
858.24	-28.571
858.53	-28.571
858.83	-75.000
859.13	-55.556
859.42	38.095
859.72	0.000
860.01	-233.333
860.31	-12.500
860.60	-140.000
860.90	-33.333
861.20	-25.000
861.49	-142.857
861.79	-17.647
862.08	-100.000
862.38	-33.333
862.67	-38.462
862.97	11.765
863.26	50.000
863.56	0.000
863.85	300.000
864.15	-50.000
864.44	15.385
864.74	10.000
865.03	-237.500
865.33	-116.667
865.62	41.176
865.92	-325.000
866.21	-57.143
866.51	-91.667
866.80	200.000
867.10	-300.000
867.39	-35.294
867.69	52.174
867.98	-14.286
868.27	-160.000
868.57	-50.000
868.86	-172.727
869.16	23.529
869.45	-16.667
869.75	14.286
870.04	1000.000
870.33	-25.000
870.63	-20.000
870.92	-111.111
871.22	0.000
871.51	72.727
871.80	50.000
872.10	-40.000
>>>>>End Processed Spectral Data<<<<<
