SpectraSuite Data File
++++++++++++++++++++++++++++++++++++
Date: Sat May 16 11:13:50 PDT 2015
User: schluterlab
Dark Spectrum Present: Yes
Reference Spectrum Present: Yes
Number of Sampled Component Spectra: 1
Spectrometers: USB2E3373
Integration Time (usec): 3000 (USB2E3373)
Spectra Averaged: 3 (USB2E3373)
Boxcar Smoothing: 0 (USB2E3373)
Correct for Electrical Dark: No (USB2E3373)
Strobe/Lamp Enabled: No (USB2E3373)
Correct for Detector Non-linearity: No (USB2E3373)
Correct for Stray Light: No (USB2E3373)
Number of Pixels in Processed Spectrum: 2048
>>>>>Begin Processed Spectral Data<<<<<
178.53	0.000
178.91	40.000
179.29	233.333
179.67	400.000
180.04	-15.385
180.42	-100.000
180.80	125.000
181.18	350.000
181.56	75.000
181.94	-100.000
182.31	75.000
182.69	-38.462
183.07	-333.333
183.45	1250.000
183.83	66.667
184.20	-71.429
184.58	-50.000
184.96	-75.000
185.34	87.500
185.72	-350.000
186.09	100.000
186.47	-75.000
186.85	-150.000
187.23	-12.500
187.61	-400.000
187.98	-200.000
188.36	-150.000
188.74	-37.500
189.12	100.000
189.49	214.286
189.87	16.667
190.25	175.000
190.63	-35.714
191.00	-133.333
191.38	340.000
191.76	40.000
192.14	440.000
192.51	-60.000
192.89	-33.333
193.27	0.000
193.65	-44.444
194.02	-171.429
194.40	200.000
194.78	-90.000
195.15	-600.000
195.53	-136.364
195.91	-416.667
196.29	-100.000
196.66	-533.333
197.04	2600.000
197.42	25.000
197.79	40.000
198.17	-400.000
198.55	-550.000
198.92	-1000.000
199.30	150.000
199.68	-600.000
200.05	-44.444
200.43	-166.667
200.81	-700.000
201.18	-25.000
201.56	128.571
201.94	-6.667
202.31	50.000
202.69	150.000
203.07	100.000
203.44	466.667
203.82	-350.000
204.19	-275.000
204.57	-250.000
204.95	100.000
205.32	-18.750
205.70	800.000
206.08	-1200.000
206.45	16.667
206.83	-200.000
207.20	200.000
207.58	-666.667
207.96	-133.333
208.33	100.000
208.71	-122.222
209.08	230.000
209.46	-57.143
209.84	250.000
210.21	0.000
210.59	65.000
210.96	-600.000
211.34	-150.000
211.71	-300.000
212.09	200.000
212.46	650.000
212.84	-1300.000
213.22	466.667
213.59	141.667
213.97	33.333
214.34	200.000
214.72	-70.000
215.09	-200.000
215.47	-116.667
215.84	-130.000
216.22	-110.000
216.59	-13.333
216.97	-225.000
217.34	450.000
217.72	-57.143
218.09	-233.333
218.47	-214.286
218.84	157.143
219.22	271.429
219.59	0.000
219.97	71.429
220.34	400.000
220.72	187.500
221.09	-7.692
221.47	0.000
221.84	333.333
222.22	-250.000
222.59	1100.000
222.97	-50.000
223.34	-200.000
223.72	-200.000
224.09	35.714
224.46	-25.000
224.84	-50.000
225.21	-100.000
225.59	-36.364
225.96	-50.000
226.34	-100.000
226.71	-111.111
227.08	5.000
227.46	300.000
227.83	-257.143
228.21	-137.500
228.58	-100.000
228.95	-12.500
229.33	-1400.000
229.70	-20.000
230.08	-700.000
230.45	83.333
230.82	50.000
231.20	-900.000
231.57	-150.000
231.95	1000.000
232.32	38.095
232.69	-122.222
233.07	-128.571
233.44	-850.000
233.81	-46.667
234.19	-77.778
234.56	-43.750
234.93	34.375
235.31	-142.857
235.68	-50.000
236.05	-70.588
236.43	-45.455
236.80	-19.355
237.17	-20.833
237.55	-33.333
237.92	-77.273
238.29	2.857
238.67	5.882
239.04	-8.333
239.41	-54.839
239.79	-38.462
240.16	26.190
240.53	-12.727
240.91	-7.692
241.28	-25.455
241.65	0.000
242.02	-6.557
242.40	0.000
242.77	1.515
243.14	-15.254
243.51	-24.286
243.89	-6.329
244.26	-10.112
244.63	9.474
245.00	9.474
245.38	3.390
245.75	5.310
246.12	-7.200
246.49	-2.362
246.87	-13.821
247.24	-5.085
247.61	-11.017
247.98	-4.225
248.36	-5.594
248.73	-0.633
249.10	-3.185
249.47	1.754
249.84	-3.409
250.22	-7.738
250.59	1.130
250.96	-0.524
251.33	4.739
251.70	-1.923
252.08	0.948
252.45	-0.948
252.82	-8.095
253.19	2.128
253.56	2.016
253.94	1.688
254.31	-1.288
254.68	-1.220
255.05	-1.613
255.42	0.397
255.79	-2.151
256.16	-1.176
256.54	-2.206
256.91	-1.136
257.28	-3.663
257.65	-0.355
258.02	2.830
258.39	1.003
258.76	-3.716
259.14	-0.617
259.51	0.656
259.88	-3.659
260.25	0.621
260.62	-2.251
260.99	-2.671
261.36	-0.915
261.73	-0.867
262.10	2.222
262.47	0.000
262.85	3.143
263.22	-2.579
263.59	-3.385
263.96	0.290
264.33	1.084
264.70	-1.105
265.07	-3.297
265.44	-0.258
265.81	0.000
266.18	-0.759
266.55	2.941
266.92	-0.252
267.29	1.453
267.66	0.000
268.03	2.657
268.40	0.469
268.77	-1.928
269.14	-0.464
269.51	1.149
269.88	-0.229
270.25	-1.632
270.62	-1.602
270.99	1.126
271.36	0.000
271.73	-1.121
272.10	0.458
272.47	-1.778
272.84	1.111
273.21	-1.376
273.58	-0.220
273.95	-0.658
274.32	-1.810
274.69	1.532
275.06	3.272
275.43	-2.232
275.80	0.815
276.17	-1.046
276.54	2.648
276.91	1.029
277.28	1.826
277.65	-0.826
278.02	1.879
278.39	0.393
278.76	1.394
279.13	1.779
279.50	0.994
279.87	-1.057
280.23	-0.405
280.60	1.193
280.97	-2.136
281.34	1.741
281.71	0.385
282.08	-0.403
282.45	0.611
282.82	-1.357
283.19	-0.909
283.56	4.762
283.92	1.413
284.29	-1.115
284.66	-0.899
285.03	2.317
285.40	-0.185
285.77	2.632
286.14	-0.722
286.51	-1.066
286.87	1.452
287.24	1.195
287.61	1.157
287.98	-0.867
288.35	-0.331
288.72	-1.358
289.08	-0.508
289.45	0.337
289.82	0.000
290.19	0.821
290.56	-1.983
290.93	-0.159
291.29	-0.486
291.66	-1.288
292.03	0.942
292.40	2.108
292.77	0.621
293.13	0.000
293.50	-0.743
293.87	0.153
294.24	0.905
294.60	-0.758
294.97	0.759
295.34	0.741
295.71	2.232
296.08	-0.768
296.44	-0.286
296.81	1.282
297.18	0.282
297.55	3.390
297.91	0.697
298.28	-0.274
298.65	-0.279
299.02	3.342
299.38	0.401
299.75	0.543
300.12	1.410
300.48	0.767
300.85	0.262
301.22	1.035
301.59	0.910
301.95	2.771
302.32	-1.956
302.69	1.958
303.05	1.343
303.42	0.000
303.79	1.196
304.15	0.829
304.52	1.634
304.89	0.236
305.25	1.343
305.62	1.293
305.99	3.180
306.35	2.331
306.72	1.139
307.09	3.405
307.45	1.476
307.82	0.112
308.19	2.125
308.55	2.397
308.92	1.826
309.29	1.514
309.65	1.273
310.02	2.700
310.38	0.649
310.75	2.357
311.12	3.202
311.48	2.610
311.85	3.193
312.22	3.913
312.58	3.967
312.95	2.956
313.31	4.396
313.68	3.015
314.05	3.956
314.41	2.817
314.78	3.397
315.14	4.837
315.51	4.154
315.87	5.518
316.24	4.276
316.61	5.086
316.97	4.776
317.34	4.817
317.70	5.195
318.07	5.131
318.43	5.712
318.80	7.042
319.16	4.784
319.53	4.887
319.89	6.021
320.26	5.588
320.62	6.827
320.99	6.070
321.35	4.335
321.72	4.606
322.08	6.034
322.45	5.446
322.81	7.205
323.18	7.012
323.54	7.394
323.91	6.395
324.27	7.700
324.64	7.130
325.00	7.243
325.37	6.425
325.73	8.399
326.10	6.377
326.46	8.056
326.83	7.745
327.19	6.756
327.56	8.859
327.92	8.071
328.29	6.926
328.65	6.909
329.01	8.304
329.38	8.029
329.74	7.509
330.11	8.341
330.47	7.993
330.84	8.708
331.20	8.213
331.56	8.660
331.93	8.703
332.29	8.037
332.66	7.989
333.02	8.145
333.38	8.154
333.75	8.549
334.11	8.089
334.48	8.120
334.84	9.274
335.20	8.245
335.57	7.852
335.93	8.684
336.29	8.592
336.66	6.872
337.02	7.748
337.38	7.041
337.75	8.604
338.11	8.050
338.47	8.986
338.84	7.985
339.20	8.875
339.56	9.358
339.93	7.760
340.29	7.883
340.65	7.692
341.02	8.516
341.38	8.762
341.74	8.467
342.11	7.082
342.47	8.240
342.83	7.725
343.20	8.198
343.56	7.429
343.92	8.681
344.28	9.167
344.65	6.931
345.01	7.899
345.37	9.551
345.73	7.201
346.10	6.787
346.46	7.474
346.82	7.298
347.19	6.984
347.55	7.544
347.91	7.874
348.27	6.921
348.63	8.158
349.00	8.512
349.36	6.323
349.72	8.519
350.08	6.816
350.45	6.856
350.81	8.041
351.17	7.235
351.53	6.762
351.89	8.003
352.26	8.295
352.62	8.679
352.98	7.278
353.34	7.594
353.70	7.336
354.07	8.655
354.43	7.826
354.79	6.973
355.15	7.348
355.51	7.031
355.87	6.798
356.24	5.798
356.60	8.300
356.96	8.391
357.32	6.730
357.68	7.280
358.04	7.390
358.40	8.121
358.77	7.573
359.13	6.886
359.49	7.710
359.85	7.088
360.21	7.686
360.57	8.057
360.93	8.370
361.29	7.100
361.66	7.088
362.02	7.101
362.38	7.924
362.74	7.912
363.10	6.887
363.46	8.761
363.82	8.163
364.18	7.598
364.54	9.507
364.90	7.198
365.26	6.562
365.62	8.125
365.98	9.246
366.35	7.183
366.71	7.047
367.07	7.692
367.43	8.099
367.79	7.904
368.15	6.117
368.51	8.531
368.87	8.173
369.23	9.123
369.59	7.917
369.95	8.457
370.31	8.650
370.67	7.158
371.03	8.090
371.39	7.921
371.75	8.298
372.11	8.178
372.47	7.448
372.83	7.650
373.19	7.714
373.55	8.797
373.91	7.752
374.27	7.461
374.63	7.937
374.99	8.414
375.35	7.672
375.71	8.170
376.07	7.940
376.42	6.623
376.78	7.647
377.14	8.068
377.50	8.382
377.86	9.298
378.22	7.726
378.58	7.968
378.94	7.768
379.30	8.410
379.66	8.925
380.02	7.903
380.38	8.097
380.74	8.206
381.09	8.494
381.45	7.637
381.81	8.893
382.17	8.459
382.53	7.538
382.89	8.313
383.25	8.970
383.61	8.373
383.97	8.328
384.32	8.573
384.68	8.464
385.04	8.273
385.40	8.338
385.76	8.537
386.12	8.745
386.48	8.725
386.83	8.589
387.19	9.444
387.55	8.843
387.91	8.536
388.27	8.203
388.62	9.435
388.98	8.359
389.34	8.813
389.70	8.526
390.06	8.577
390.42	8.718
390.77	8.644
391.13	7.950
391.49	9.046
391.85	8.042
392.20	8.617
392.56	8.186
392.92	8.842
393.28	8.783
393.64	7.998
393.99	8.431
394.35	8.577
394.71	8.833
395.07	9.165
395.42	8.045
395.78	8.674
396.14	9.470
396.50	9.602
396.85	9.500
397.21	8.019
397.57	8.754
397.92	9.133
398.28	8.833
398.64	9.518
399.00	10.281
399.35	8.512
399.71	9.814
400.07	9.075
400.42	9.002
400.78	8.468
401.14	8.922
401.49	8.491
401.85	8.725
402.21	8.820
402.57	9.284
402.92	8.559
403.28	8.885
403.63	7.430
403.99	8.825
404.35	7.911
404.70	9.362
405.06	8.824
405.42	8.549
405.77	8.371
406.13	8.120
406.49	7.789
406.84	8.998
407.20	9.246
407.55	8.803
407.91	8.290
408.27	9.007
408.62	7.998
408.98	8.611
409.34	8.288
409.69	8.759
410.05	8.733
410.40	8.706
410.76	8.536
411.11	8.541
411.47	9.079
411.83	8.863
412.18	7.735
412.54	8.054
412.89	9.113
413.25	8.146
413.60	8.505
413.96	7.948
414.31	9.174
414.67	8.508
415.03	8.538
415.38	8.523
415.74	8.827
416.09	8.632
416.45	7.870
416.80	8.583
417.16	8.505
417.51	9.652
417.87	8.997
418.22	8.344
418.58	8.986
418.93	8.952
419.29	9.097
419.64	8.480
420.00	9.113
420.35	8.161
420.71	9.304
421.06	8.994
421.42	8.197
421.77	9.324
422.12	9.513
422.48	8.765
422.83	9.339
423.19	9.076
423.54	8.761
423.90	8.791
424.25	8.314
424.61	8.082
424.96	9.713
425.31	8.944
425.67	9.456
426.02	8.548
426.38	9.195
426.73	9.351
427.09	9.559
427.44	8.750
427.79	8.314
428.15	10.174
428.50	10.381
428.85	9.053
429.21	9.463
429.56	9.115
429.92	9.619
430.27	9.521
430.62	9.613
430.98	9.514
431.33	8.858
431.68	9.759
432.04	9.233
432.39	9.630
432.74	9.472
433.10	8.666
433.45	9.499
433.80	9.127
434.16	9.350
434.51	9.534
434.86	9.783
435.22	9.410
435.57	9.425
435.92	8.617
436.28	10.267
436.63	9.271
436.98	9.565
437.34	10.514
437.69	9.802
438.04	9.189
438.39	9.868
438.75	9.546
439.10	9.661
439.45	9.294
439.81	10.301
440.16	9.654
440.51	10.176
440.86	9.080
441.22	9.453
441.57	9.789
441.92	10.179
442.27	10.227
442.63	9.925
442.98	9.199
443.33	10.269
443.68	9.380
444.03	9.381
444.39	10.132
444.74	9.857
445.09	9.539
445.44	9.904
445.79	10.148
446.15	10.405
446.50	9.526
446.85	10.056
447.20	9.908
447.55	10.000
447.91	10.331
448.26	9.721
448.61	9.960
448.96	9.972
449.31	9.808
449.66	10.189
450.02	10.083
450.37	9.565
450.72	10.056
451.07	9.868
451.42	9.480
451.77	10.054
452.12	9.714
452.47	10.327
452.83	9.785
453.18	10.500
453.53	10.199
453.88	10.167
454.23	8.948
454.58	10.441
454.93	10.013
455.28	9.815
455.63	9.582
455.98	10.120
456.34	8.958
456.69	10.444
457.04	9.834
457.39	9.689
457.74	10.278
458.09	10.267
458.44	10.566
458.79	9.922
459.14	10.154
459.49	9.828
459.84	10.006
460.19	9.785
460.54	9.558
460.89	9.529
461.24	9.775
461.59	9.848
461.94	10.694
462.29	10.602
462.64	10.013
462.99	10.710
463.34	10.196
463.69	9.860
464.04	10.076
464.39	9.976
464.74	11.407
465.09	9.862
465.44	10.096
465.79	10.434
466.14	10.184
466.49	10.478
466.84	9.304
467.19	10.786
467.54	9.367
467.89	10.789
468.24	10.214
468.59	9.994
468.94	9.904
469.29	9.552
469.64	10.984
469.99	10.533
470.34	9.152
470.68	11.265
471.03	10.392
471.38	9.167
471.73	9.860
472.08	9.639
472.43	10.296
472.78	9.333
473.13	9.079
473.48	10.147
473.83	9.429
474.17	10.064
474.52	10.422
474.87	10.198
475.22	10.029
475.57	10.000
475.92	10.043
476.27	10.000
476.61	10.423
476.96	9.838
477.31	9.742
477.66	10.847
478.01	10.481
478.36	10.005
478.70	10.144
479.05	9.897
479.40	9.793
479.75	9.888
480.10	10.268
480.45	9.720
480.79	10.069
481.14	9.584
481.49	10.745
481.84	10.402
482.19	10.187
482.53	10.180
482.88	9.682
483.23	9.765
483.58	10.777
483.92	9.603
484.27	10.235
484.62	10.194
484.97	9.626
485.31	9.408
485.66	9.789
486.01	10.055
486.36	10.189
486.70	10.435
487.05	9.852
487.40	10.096
487.75	10.079
488.09	9.883
488.44	10.419
488.79	10.117
489.13	9.509
489.48	10.033
489.83	9.214
490.17	10.013
490.52	10.371
490.87	10.023
491.22	9.902
491.56	9.491
491.91	10.115
492.26	9.764
492.60	9.610
492.95	10.138
493.30	9.814
493.64	9.638
493.99	10.229
494.34	10.333
494.68	10.206
495.03	9.895
495.37	9.440
495.72	10.020
496.07	10.418
496.41	9.866
496.76	9.726
497.11	9.986
497.45	10.920
497.80	10.755
498.14	10.462
498.49	9.895
498.84	9.709
499.18	10.039
499.53	10.813
499.87	9.604
500.22	9.461
500.56	10.005
500.91	9.409
501.26	10.771
501.60	9.918
501.95	10.048
502.29	9.353
502.64	10.561
502.98	8.816
503.33	10.385
503.67	9.435
504.02	9.947
504.36	9.902
504.71	9.828
505.06	9.286
505.40	10.629
505.75	9.146
506.09	10.212
506.44	9.674
506.78	10.085
507.13	9.166
507.47	10.381
507.82	9.912
508.16	10.259
508.51	9.686
508.85	9.627
509.19	8.948
509.54	9.937
509.88	9.628
510.23	9.958
510.57	10.582
510.92	9.828
511.26	9.676
511.61	9.287
511.95	9.106
512.30	10.500
512.64	9.126
512.98	8.801
513.33	9.720
513.67	10.218
514.02	9.396
514.36	10.360
514.70	10.300
515.05	10.177
515.39	9.400
515.74	10.239
516.08	9.856
516.42	10.425
516.77	9.705
517.11	9.497
517.46	10.048
517.80	10.048
518.14	8.937
518.49	9.564
518.83	10.030
519.17	10.302
519.52	9.312
519.86	9.916
520.20	9.963
520.55	9.846
520.89	9.017
521.23	10.745
521.58	9.404
521.92	9.880
522.26	9.524
522.61	9.442
522.95	8.168
523.29	10.157
523.64	9.307
523.98	9.675
524.32	9.679
524.66	9.068
525.01	8.478
525.35	9.923
525.69	10.345
526.04	9.269
526.38	9.930
526.72	8.876
527.06	9.961
527.41	8.779
527.75	8.383
528.09	9.199
528.43	9.967
528.78	10.239
529.12	10.307
529.46	9.665
529.80	9.490
530.15	9.852
530.49	9.767
530.83	9.954
531.17	9.091
531.51	9.846
531.86	10.402
532.20	9.514
532.54	10.361
532.88	9.684
533.22	9.225
533.57	9.661
533.91	8.427
534.25	9.931
534.59	10.056
534.93	9.521
535.27	10.069
535.62	9.591
535.96	9.179
536.30	8.966
536.64	9.960
536.98	9.534
537.32	8.846
537.66	9.504
538.01	9.141
538.35	10.338
538.69	9.559
539.03	8.937
539.37	10.047
539.71	9.940
540.05	9.184
540.39	8.864
540.73	10.090
541.07	9.904
541.42	8.913
541.76	8.505
542.10	10.736
542.44	9.594
542.78	9.566
543.12	9.572
543.46	8.699
543.80	9.498
544.14	8.932
544.48	10.433
544.82	9.608
545.16	9.993
545.50	8.479
545.84	9.040
546.18	9.293
546.52	10.455
546.86	8.974
547.20	9.845
547.54	8.953
547.88	8.693
548.22	8.257
548.56	8.216
548.90	9.367
549.24	8.830
549.58	9.527
549.92	10.177
550.26	10.260
550.60	10.028
550.94	9.343
551.28	9.556
551.62	8.789
551.96	9.045
552.30	9.059
552.64	9.078
552.98	10.021
553.32	8.730
553.66	9.950
554.00	10.092
554.34	9.314
554.68	8.772
555.02	10.420
555.36	9.202
555.69	9.670
556.03	9.684
556.37	9.175
556.71	9.520
557.05	9.904
557.39	8.537
557.73	10.576
558.07	8.742
558.41	9.798
558.75	9.202
559.08	7.782
559.42	10.260
559.76	9.433
560.10	10.664
560.44	10.621
560.78	10.160
561.12	9.041
561.45	9.521
561.79	9.547
562.13	8.836
562.47	9.314
562.81	8.982
563.15	9.587
563.48	9.606
563.82	9.128
564.16	9.128
564.50	9.476
564.84	8.995
565.17	9.151
565.51	9.713
565.85	9.669
566.19	10.277
566.52	9.459
566.86	9.735
567.20	10.956
567.54	11.164
567.88	8.934
568.21	9.340
568.55	9.385
568.89	9.195
569.23	9.579
569.56	8.995
569.90	9.284
570.24	8.906
570.57	9.244
570.91	9.215
571.25	9.890
571.59	9.491
571.92	9.286
572.26	9.497
572.60	9.153
572.93	9.384
573.27	9.482
573.61	8.948
573.95	9.553
574.28	9.425
574.62	9.431
574.96	9.596
575.29	9.248
575.63	9.424
575.97	9.331
576.30	9.509
576.64	9.321
576.98	9.331
577.31	9.416
577.65	9.752
577.98	9.550
578.32	9.198
578.66	9.242
578.99	9.482
579.33	9.219
579.67	9.460
580.00	8.805
580.34	9.442
580.67	9.218
581.01	9.141
581.35	9.552
581.68	9.103
582.02	9.381
582.35	9.216
582.69	9.177
583.02	9.350
583.36	9.509
583.70	9.626
584.03	9.294
584.37	9.418
584.70	9.728
585.04	9.063
585.37	8.878
585.71	9.531
586.04	9.397
586.38	8.714
586.72	9.329
587.05	8.949
587.39	9.478
587.72	9.291
588.06	9.409
588.39	9.057
588.73	9.143
589.06	9.623
589.40	9.756
589.73	10.127
590.07	8.631
590.40	10.000
590.73	9.116
591.07	9.754
591.40	10.225
591.74	9.818
592.07	9.459
592.41	9.002
592.74	9.454
593.08	9.749
593.41	9.408
593.75	9.331
594.08	9.058
594.41	10.277
594.75	10.306
595.08	9.286
595.42	9.465
595.75	8.820
596.09	9.856
596.42	9.574
596.75	9.616
597.09	9.929
597.42	8.904
597.75	8.946
598.09	9.038
598.42	9.633
598.76	9.801
599.09	9.471
599.42	9.227
599.76	9.702
600.09	10.038
600.42	9.571
600.76	9.529
601.09	9.077
601.42	8.706
601.76	9.969
602.09	8.957
602.42	9.424
602.76	8.974
603.09	9.677
603.42	10.073
603.76	9.653
604.09	9.411
604.42	9.326
604.76	9.202
605.09	9.901
605.42	9.574
605.75	9.271
606.09	9.631
606.42	8.881
606.75	9.704
607.09	10.366
607.42	9.243
607.75	10.110
608.08	9.625
608.42	9.224
608.75	9.065
609.08	9.644
609.41	9.268
609.75	9.410
610.08	9.608
610.41	9.494
610.74	9.865
611.07	9.736
611.41	8.926
611.74	10.129
612.07	9.989
612.40	9.542
612.73	9.262
613.07	9.356
613.40	10.071
613.73	9.918
614.06	9.720
614.39	9.357
614.72	9.609
615.06	8.804
615.39	9.767
615.72	9.777
616.05	9.221
616.38	9.867
616.71	8.889
617.05	10.193
617.38	10.279
617.71	10.012
618.04	9.068
618.37	9.119
618.70	9.844
619.03	9.546
619.36	10.359
619.69	10.266
620.03	10.399
620.36	9.916
620.69	9.189
621.02	9.665
621.35	10.161
621.68	9.672
622.01	9.628
622.34	11.025
622.67	9.453
623.00	10.023
623.33	10.000
623.66	9.010
623.99	9.474
624.32	9.375
624.65	9.934
624.99	9.410
625.32	10.404
625.65	10.179
625.98	9.390
626.31	10.277
626.64	10.126
626.97	9.760
627.30	9.447
627.63	8.636
627.96	9.835
628.29	8.456
628.62	9.838
628.95	9.449
629.28	9.586
629.61	10.500
629.94	11.059
630.26	8.549
630.59	9.447
630.92	10.310
631.25	9.577
631.58	9.630
631.91	7.766
632.24	9.444
632.57	9.778
632.90	8.851
633.23	9.463
633.56	9.942
633.89	8.962
634.22	10.035
634.55	9.856
634.88	8.585
635.20	8.864
635.53	10.941
635.86	9.068
636.19	8.913
636.52	8.722
636.85	8.303
637.18	7.750
637.51	9.789
637.83	9.055
638.16	9.868
638.49	9.379
638.82	8.494
639.15	10.246
639.48	9.857
639.81	9.129
640.13	9.324
640.46	9.829
640.79	9.804
641.12	11.142
641.45	10.043
641.77	10.030
642.10	8.610
642.43	9.863
642.76	8.661
643.09	7.937
643.41	8.413
643.74	10.493
644.07	11.232
644.40	9.887
644.73	11.716
645.05	10.017
645.38	9.603
645.71	10.825
646.04	12.437
646.36	5.759
646.69	8.478
647.02	9.747
647.35	9.567
647.67	9.672
648.00	11.951
648.33	11.298
648.66	7.419
648.98	10.191
649.31	11.077
649.64	10.469
649.96	9.419
650.29	9.180
650.62	11.188
650.94	9.949
651.27	10.919
651.60	10.035
651.92	11.473
652.25	8.180
652.58	8.177
652.90	10.594
653.23	9.677
653.56	8.696
653.88	9.672
654.21	11.745
654.54	9.967
654.86	11.075
655.19	10.172
655.52	10.733
655.84	9.981
656.17	10.624
656.49	14.897
656.82	15.331
657.15	11.582
657.47	8.587
657.80	6.473
658.13	7.673
658.45	10.109
658.78	9.677
659.10	10.162
659.43	9.553
659.75	9.874
660.08	9.740
660.41	8.912
660.73	9.021
661.06	10.870
661.38	9.821
661.71	8.604
662.03	10.887
662.36	9.595
662.68	10.970
663.01	11.040
663.33	10.431
663.66	11.588
663.98	5.804
664.31	7.159
664.63	11.062
664.96	11.063
665.28	9.761
665.61	6.977
665.93	10.700
666.26	12.753
666.58	11.435
666.91	9.131
667.23	11.842
667.56	8.844
667.88	10.181
668.21	8.986
668.53	9.112
668.86	10.855
669.18	10.274
669.50	10.748
669.83	8.759
670.15	12.556
670.48	9.813
670.80	9.795
671.13	7.675
671.45	10.586
671.77	9.850
672.10	11.045
672.42	9.410
672.75	9.091
673.07	7.027
673.39	9.654
673.72	10.236
674.04	7.856
674.37	7.423
674.69	13.115
675.01	8.085
675.34	10.195
675.66	11.015
675.98	9.251
676.31	11.086
676.63	9.425
676.95	9.513
677.28	9.281
677.60	9.050
677.92	13.436
678.25	9.628
678.57	11.728
678.89	8.595
679.22	9.224
679.54	13.018
679.86	10.800
680.18	10.837
680.51	7.076
680.83	11.619
681.15	10.597
681.48	10.751
681.80	8.468
682.12	9.054
682.44	10.806
682.77	8.658
683.09	12.579
683.41	10.398
683.73	8.676
684.06	9.677
684.38	8.996
684.70	12.346
685.02	9.055
685.34	11.111
685.67	8.333
685.99	7.750
686.31	10.772
686.63	11.170
686.96	9.797
687.28	7.129
687.60	10.937
687.92	8.560
688.24	9.252
688.56	8.417
688.89	8.761
689.21	9.628
689.53	13.333
689.85	13.140
690.17	8.296
690.49	10.624
690.82	8.193
691.14	10.377
691.46	12.860
691.78	10.132
692.10	12.712
692.42	7.778
692.74	10.086
693.06	11.011
693.39	10.291
693.71	10.384
694.03	9.719
694.35	10.158
694.67	10.402
694.99	7.417
695.31	10.204
695.63	9.184
695.95	12.407
696.27	10.474
696.59	12.299
696.91	9.551
697.23	10.417
697.56	8.894
697.88	7.207
698.20	11.349
698.52	8.969
698.84	9.466
699.16	10.238
699.48	10.250
699.80	10.526
700.12	11.587
700.44	9.777
700.76	7.872
701.08	9.012
701.40	8.157
701.72	13.889
702.04	11.538
702.36	12.952
702.68	8.383
703.00	11.884
703.32	9.456
703.64	13.824
703.96	13.081
704.28	12.130
704.60	8.544
704.91	10.159
705.23	8.738
705.55	11.486
705.87	8.874
706.19	7.986
706.51	7.639
706.83	11.475
707.15	10.828
707.47	12.397
707.79	11.856
708.11	9.669
708.43	9.975
708.74	8.312
709.06	7.799
709.38	8.333
709.70	10.312
710.02	15.951
710.34	9.571
710.66	8.889
710.98	6.309
711.29	5.161
711.61	9.265
711.93	8.852
712.25	10.963
712.57	10.105
712.89	12.950
713.20	15.808
713.52	5.597
713.84	9.609
714.16	9.836
714.48	8.889
714.80	12.615
715.11	12.392
715.43	13.554
715.75	11.526
716.07	11.148
716.39	10.702
716.70	10.801
717.02	11.111
717.34	15.649
717.66	13.693
717.97	6.967
718.29	7.983
718.61	13.889
718.93	8.244
719.24	8.824
719.56	6.038
719.88	12.727
720.20	7.865
720.51	13.910
720.83	10.442
721.15	10.656
721.46	10.980
721.78	12.644
722.10	8.000
722.42	8.678
722.73	11.554
723.05	10.442
723.37	11.765
723.68	8.097
724.00	13.415
724.32	8.230
724.63	9.544
724.95	14.876
725.27	5.263
725.58	9.914
725.90	9.127
726.22	13.284
726.53	12.167
726.85	5.490
727.16	13.158
727.48	7.308
727.80	6.557
728.11	9.664
728.43	14.050
728.74	10.547
729.06	14.015
729.38	10.895
729.69	6.693
730.01	11.024
730.32	9.960
730.64	10.989
730.96	8.582
731.27	10.714
731.59	13.826
731.90	11.656
732.22	13.497
732.53	13.907
732.85	13.423
733.16	14.855
733.48	11.150
733.80	7.473
734.11	9.655
734.43	7.483
734.74	13.947
735.06	10.345
735.37	12.232
735.69	8.710
736.00	10.774
736.32	15.232
736.63	9.310
736.95	7.971
737.26	16.225
737.58	10.072
737.89	13.978
738.21	9.023
738.52	10.000
738.83	11.719
739.15	9.402
739.46	11.694
739.78	13.636
740.09	13.636
740.41	10.839
740.72	15.693
741.04	7.937
741.35	3.463
741.66	13.889
741.98	10.952
742.29	7.981
742.61	10.160
742.92	15.888
743.23	12.281
743.55	9.910
743.86	12.889
744.18	9.524
744.49	12.808
744.80	12.690
745.12	12.371
745.43	7.538
745.74	7.767
746.06	9.756
746.37	18.062
746.68	14.428
747.00	10.995
747.31	16.346
747.62	9.217
747.94	6.987
748.25	13.023
748.56	5.238
748.88	5.435
749.19	12.676
749.50	14.216
749.82	12.889
750.13	11.894
750.44	10.569
750.75	11.600
751.07	12.857
751.38	11.070
751.69	9.160
752.01	12.692
752.32	7.782
752.63	7.692
752.94	11.508
753.26	18.261
753.57	11.607
753.88	6.034
754.19	9.544
754.51	10.547
754.82	5.929
755.13	10.288
755.44	12.810
755.75	9.465
756.07	3.213
756.38	8.594
756.69	14.079
757.00	10.105
757.31	14.094
757.63	13.707
757.94	10.694
758.25	10.465
758.56	15.094
758.87	11.648
759.18	8.333
759.50	13.167
759.81	5.839
760.12	8.108
760.43	11.327
760.74	12.812
761.05	12.640
761.36	12.275
761.67	10.355
761.99	12.258
762.30	12.681
762.61	18.113
762.92	15.695
763.23	12.322
763.54	14.222
763.85	13.080
764.16	12.245
764.47	13.136
764.78	14.232
765.10	17.986
765.41	8.065
765.72	12.264
766.03	4.594
766.34	11.654
766.65	15.789
766.96	9.000
767.27	7.812
767.58	15.698
767.89	7.742
768.20	7.975
768.51	18.033
768.82	10.270
769.13	6.500
769.44	9.649
769.75	9.091
770.06	12.844
770.37	13.615
770.68	7.812
770.99	11.881
771.30	13.107
771.61	8.333
771.92	6.926
772.23	12.617
772.54	14.894
772.85	8.876
773.16	12.805
773.47	14.458
773.78	18.681
774.09	10.000
774.39	10.494
774.70	10.067
775.01	12.319
775.32	-1.493
775.63	6.612
775.94	13.534
776.25	14.286
776.56	9.836
776.87	11.504
777.18	18.584
777.48	2.727
777.79	5.217
778.10	-0.917
778.41	8.475
778.72	7.438
779.03	16.418
779.34	10.526
779.65	14.379
779.95	15.942
780.26	5.442
780.57	0.862
780.88	-3.704
781.19	-2.020
781.50	8.000
781.80	5.229
782.11	10.256
782.42	8.434
782.73	8.759
783.04	8.108
783.34	10.606
783.65	16.279
783.96	18.699
784.27	17.094
784.57	8.943
784.88	9.756
785.19	16.667
785.50	-2.062
785.81	12.381
786.11	-6.863
786.42	5.455
786.73	18.018
787.04	16.832
787.34	13.333
787.65	9.524
787.96	6.863
788.26	12.613
788.57	10.484
788.88	7.812
789.19	7.692
789.49	9.244
789.80	10.256
790.11	9.735
790.41	11.111
790.72	24.528
791.03	-13.889
791.33	11.842
791.64	17.204
791.95	-2.667
792.25	5.714
792.56	1.220
792.87	7.143
793.17	-1.316
793.48	6.757
793.79	-5.634
794.09	7.595
794.40	8.511
794.70	-0.935
795.01	-3.509
795.32	13.636
795.62	9.821
795.93	-3.093
796.23	0.000
796.54	21.053
796.85	-8.219
797.15	-6.944
797.46	2.740
797.76	21.127
798.07	15.000
798.37	1.471
798.68	12.857
798.99	15.714
799.29	17.105
799.60	25.000
799.90	-8.333
800.21	-9.375
800.51	9.524
800.82	-11.475
801.12	8.772
801.43	14.085
801.73	-1.695
802.04	4.918
802.34	-7.273
802.65	7.692
802.95	5.556
803.26	5.000
803.56	1.923
803.87	-10.526
804.17	1.613
804.48	27.692
804.78	-35.897
805.09	-6.977
805.39	-15.625
805.70	-24.528
806.00	21.053
806.30	31.081
806.61	13.235
806.91	3.704
807.22	4.000
807.52	10.448
807.83	-22.581
808.13	4.762
808.43	-12.727
808.74	24.242
809.04	-3.774
809.35	19.178
809.65	19.298
809.95	10.294
810.26	7.843
810.56	4.000
810.86	-22.449
811.17	5.714
811.47	17.308
811.77	-29.032
812.08	-60.526
812.38	0.000
812.69	-15.217
812.99	-16.129
813.29	-21.429
813.59	-70.370
813.90	-23.404
814.20	-25.581
814.50	16.667
814.81	-5.000
815.11	-26.829
815.41	-23.333
815.72	-2.857
816.02	-2.778
816.32	12.821
816.62	0.000
816.93	-29.412
817.23	-21.739
817.53	41.176
817.84	-2.941
818.14	-31.250
818.44	-17.241
818.74	-16.129
819.04	-11.111
819.35	-6.667
819.65	-48.000
819.95	16.667
820.25	-16.000
820.56	2.632
820.86	-17.500
821.16	6.383
821.46	17.241
821.76	12.821
822.07	-10.000
822.37	-9.302
822.67	-10.000
822.97	5.405
823.27	21.622
823.57	40.000
823.88	-8.108
824.18	-76.190
824.48	26.923
824.78	-130.769
825.08	-30.435
825.38	-12.500
825.69	-33.333
825.99	-100.000
826.29	-24.324
826.59	2.941
826.89	4.000
827.19	-2.857
827.49	7.895
827.79	6.250
828.09	-36.667
828.39	-4.348
828.70	-3.448
829.00	-13.793
829.30	-2.778
829.60	46.875
829.90	-33.333
830.20	7.692
830.50	-61.905
830.80	-3.571
831.10	-2.564
831.40	-28.571
831.70	-17.647
832.00	-20.833
832.30	-15.789
832.60	-37.500
832.90	-83.333
833.20	-88.235
833.50	-13.333
833.80	13.333
834.10	-30.000
834.40	20.833
834.70	-22.222
835.00	46.154
835.30	-20.833
835.60	17.241
835.90	-27.778
836.20	-72.727
836.50	-116.667
836.80	22.857
837.10	48.571
837.40	-11.765
837.70	-90.909
838.00	58.333
838.30	-12.500
838.60	4.762
838.90	-65.000
839.19	-39.130
839.49	26.087
839.79	-38.889
840.09	-43.478
840.39	-22.727
840.69	-75.000
840.99	10.526
841.29	-68.750
841.59	-50.000
841.88	-16.667
842.18	12.500
842.48	-52.941
842.78	-13.793
843.08	-64.286
843.38	-38.462
843.68	-100.000
843.97	-53.846
844.27	54.545
844.57	-20.000
844.87	44.000
845.17	40.000
845.47	-14.286
845.76	11.111
846.06	0.000
846.36	-150.000
846.66	-150.000
846.96	26.316
847.25	-12.500
847.55	-16.667
847.85	53.333
848.15	-20.000
848.44	76.923
848.74	57.895
849.04	600.000
849.34	0.000
849.63	-15.789
849.93	0.000
850.23	0.000
850.53	0.000
850.82	12.000
851.12	-21.053
851.42	-350.000
851.71	28.571
852.01	-83.333
852.31	11.765
852.61	-60.000
852.90	-33.333
853.20	-83.333
853.50	61.111
853.79	-57.895
854.09	-60.000
854.39	-10.714
854.68	-21.739
854.98	-175.000
855.28	13.793
855.57	-62.500
855.87	-5.000
856.17	-66.667
856.46	-34.483
856.76	-53.333
857.05	-35.294
857.35	-92.308
857.65	45.455
857.94	3.704
858.24	0.000
858.53	-100.000
858.83	-50.000
859.13	-144.444
859.42	61.905
859.72	-87.500
860.01	-366.667
860.31	-25.000
860.60	-320.000
860.90	-122.222
861.20	-37.500
861.49	-100.000
861.79	5.882
862.08	-500.000
862.38	-75.000
862.67	-7.692
862.97	82.353
863.26	0.000
863.56	-17.647
863.85	366.667
864.15	-10.000
864.44	15.385
864.74	60.000
865.03	-212.500
865.33	-200.000
865.62	-5.882
865.92	-375.000
866.21	-57.143
866.51	-50.000
866.80	-800.000
867.10	133.333
867.39	-5.882
867.69	91.304
867.98	-42.857
868.27	-220.000
868.57	-106.250
868.86	-100.000
869.16	23.529
869.45	-100.000
869.75	-57.143
870.04	100.000
870.33	-116.667
870.63	60.000
870.92	-44.444
871.22	-33.333
871.51	54.545
871.80	-16.667
872.10	-80.000
>>>>>End Processed Spectral Data<<<<<
