SpectraSuite Data File
++++++++++++++++++++++++++++++++++++
Date: Sat May 16 11:22:15 PDT 2015
User: schluterlab
Dark Spectrum Present: Yes
Reference Spectrum Present: Yes
Number of Sampled Component Spectra: 1
Spectrometers: USB2E3373
Integration Time (usec): 3000 (USB2E3373)
Spectra Averaged: 3 (USB2E3373)
Boxcar Smoothing: 0 (USB2E3373)
Correct for Electrical Dark: No (USB2E3373)
Strobe/Lamp Enabled: No (USB2E3373)
Correct for Detector Non-linearity: No (USB2E3373)
Correct for Stray Light: No (USB2E3373)
Number of Pixels in Processed Spectrum: 2048
>>>>>Begin Processed Spectral Data<<<<<
178.53	0.000
178.91	133.333
179.29	333.333
179.67	-600.000
180.04	-53.846
180.42	1000.000
180.80	300.000
181.18	600.000
181.56	-37.500
181.94	1000.000
182.31	275.000
182.69	-100.000
183.07	-333.333
183.45	1300.000
183.83	466.667
184.20	-114.286
184.58	-237.500
184.96	-250.000
185.34	112.500
185.72	-375.000
186.09	166.667
186.47	-75.000
186.85	-162.500
187.23	-125.000
187.61	-275.000
187.98	-250.000
188.36	-37.500
188.74	-125.000
189.12	1000.000
189.49	371.429
189.87	-33.333
190.25	325.000
190.63	-35.714
191.00	-188.889
191.38	360.000
191.76	0.000
192.14	660.000
192.51	-420.000
192.89	-166.667
193.27	0.000
193.65	-133.333
194.02	-285.714
194.40	500.000
194.78	-220.000
195.15	-600.000
195.53	-172.727
195.91	-450.000
196.29	120.000
196.66	-733.333
197.04	2900.000
197.42	-125.000
197.79	-6.667
198.17	-266.667
198.55	-300.000
198.92	-1500.000
199.30	212.500
199.68	-550.000
200.05	-88.889
200.43	-233.333
200.81	-2100.000
201.18	-100.000
201.56	171.429
201.94	-6.667
202.31	50.000
202.69	30.000
203.07	-140.000
203.44	566.667
203.82	-266.667
204.19	-275.000
204.57	-325.000
204.95	-1300.000
205.32	0.000
205.70	300.000
206.08	-1400.000
206.45	-5.556
206.83	-1000.000
207.20	-300.000
207.58	-500.000
207.96	-366.667
208.33	-87.500
208.71	-133.333
209.08	160.000
209.46	-185.714
209.84	600.000
210.21	0.000
210.59	45.000
210.96	1800.000
211.34	-250.000
211.71	-400.000
212.09	500.000
212.46	1250.000
212.84	-1300.000
213.22	600.000
213.59	175.000
213.97	-133.333
214.34	240.000
214.72	-150.000
215.09	-566.667
215.47	-83.333
215.84	-130.000
216.22	-70.000
216.59	-26.667
216.97	-325.000
217.34	1000.000
217.72	-142.857
218.09	-333.333
218.47	-142.857
218.84	357.143
219.22	-242.857
219.59	0.000
219.97	228.571
220.34	300.000
220.72	250.000
221.09	-38.462
221.47	0.000
221.84	533.333
222.22	-750.000
222.59	2000.000
222.97	-250.000
223.34	-700.000
223.72	-500.000
224.09	-14.286
224.46	-400.000
224.84	-71.429
225.21	-157.143
225.59	-63.636
225.96	-225.000
226.34	-242.857
226.71	-144.444
227.08	60.000
227.46	2200.000
227.83	28.571
228.21	-87.500
228.58	900.000
228.95	-37.500
229.33	-2300.000
229.70	-380.000
230.08	-950.000
230.45	-66.667
230.82	-216.667
231.20	100.000
231.57	-1050.000
231.95	1100.000
232.32	14.286
232.69	-177.778
233.07	-271.429
233.44	-450.000
233.81	-53.333
234.19	-100.000
234.56	-43.750
234.93	0.000
235.31	-200.000
235.68	-121.429
236.05	-47.059
236.43	-45.455
236.80	-12.903
237.17	-20.833
237.55	-95.238
237.92	-86.364
238.29	-20.000
238.67	-23.529
239.04	2.778
239.41	-67.742
239.79	-82.051
240.16	-11.905
240.53	-18.182
240.91	-12.821
241.28	1.818
241.65	1.538
242.02	-16.393
242.40	-8.197
242.77	-13.636
243.14	-25.424
243.51	-25.714
243.89	-13.924
244.26	-7.865
244.63	0.000
245.00	3.158
245.38	-1.695
245.75	3.540
246.12	-8.000
246.49	-0.787
246.87	-11.382
247.24	-1.695
247.61	-14.407
247.98	-3.521
248.36	-17.483
248.73	0.000
249.10	-7.643
249.47	9.357
249.84	-3.977
250.22	-12.500
250.59	-1.695
250.96	-4.188
251.33	2.844
251.70	0.000
252.08	-1.896
252.45	-1.896
252.82	-1.429
253.19	-0.851
253.56	-2.419
253.94	0.000
254.31	-3.004
254.68	2.033
255.05	-5.242
255.42	0.794
255.79	1.075
256.16	2.745
256.54	0.735
256.91	-0.758
257.28	-2.564
257.65	2.837
258.02	2.201
258.39	-2.007
258.76	-1.351
259.14	1.235
259.51	-1.967
259.88	-1.829
260.25	1.242
260.62	0.322
260.99	-0.593
261.36	1.220
261.73	2.312
262.10	2.222
262.47	-2.849
262.85	1.714
263.22	0.000
263.59	0.000
263.96	-1.449
264.33	2.439
264.70	3.315
265.07	0.824
265.44	1.034
265.81	0.258
266.18	-0.253
266.55	0.490
266.92	3.526
267.29	1.211
267.66	0.000
268.03	2.415
268.40	2.817
268.77	0.000
269.14	-0.696
269.51	4.138
269.88	-0.459
270.25	-0.932
270.62	-0.458
270.99	0.225
271.36	1.166
271.73	-0.673
272.10	-1.373
272.47	-1.111
272.84	2.667
273.21	1.376
273.58	0.000
273.95	-0.439
274.32	2.489
274.69	1.313
275.06	0.818
275.43	0.893
275.80	2.240
276.17	-0.628
276.54	2.240
276.91	-0.206
277.28	1.217
277.65	0.000
278.02	1.044
278.39	2.554
278.76	0.398
279.13	1.581
279.50	0.596
279.87	0.000
280.23	0.607
280.60	0.000
280.97	0.388
281.34	0.387
281.71	1.538
282.08	0.605
282.45	-0.611
282.82	0.775
283.19	0.727
283.56	3.480
283.92	3.004
284.29	0.186
284.66	1.799
285.03	4.456
285.40	-0.738
285.77	0.702
286.14	1.625
286.51	1.421
286.87	1.270
287.24	1.365
287.61	1.818
287.98	-0.173
288.35	0.992
288.72	0.849
289.08	1.356
289.45	1.347
289.82	-1.211
290.19	1.314
290.56	0.331
290.93	0.477
291.29	1.297
291.66	2.254
292.03	3.297
292.40	2.108
292.77	0.466
293.13	2.439
293.50	0.594
293.87	3.067
294.24	3.167
294.60	-0.455
294.97	2.731
295.34	1.926
295.71	1.935
296.08	0.614
296.44	1.860
296.81	1.425
297.18	1.831
297.55	1.271
297.91	3.347
298.28	0.959
298.65	1.116
299.02	3.075
299.38	3.342
299.75	1.223
300.12	1.667
300.48	3.453
300.85	1.966
301.22	2.846
301.59	2.471
301.95	2.645
302.32	0.522
302.69	3.060
303.05	2.198
303.42	1.500
303.79	2.033
304.15	1.422
304.52	3.501
304.89	2.834
305.25	1.832
305.62	3.643
305.99	4.005
306.35	3.663
306.72	2.733
307.09	3.292
307.45	3.859
307.82	3.128
308.19	3.132
308.55	3.050
308.92	2.900
309.29	3.459
309.65	2.863
310.02	4.428
310.38	3.027
310.75	4.713
311.12	3.926
311.48	5.846
311.85	4.325
312.22	3.708
312.58	6.104
312.95	4.893
313.31	5.195
313.68	4.925
314.05	6.429
314.41	4.326
314.78	4.895
315.14	6.219
315.51	5.370
315.87	7.067
316.24	6.900
316.61	7.294
316.97	6.070
317.34	6.262
317.70	7.050
318.07	7.556
318.43	6.648
318.80	8.732
319.16	6.473
319.53	7.519
319.89	7.996
320.26	7.451
320.62	7.308
320.99	8.060
321.35	7.291
321.72	7.984
322.08	8.902
322.45	9.010
322.81	9.990
323.18	10.279
323.54	11.183
323.91	11.399
324.27	11.787
324.64	11.609
325.00	12.740
325.37	14.027
325.73	15.573
326.10	13.729
326.46	15.762
326.83	16.170
327.19	14.595
327.56	17.547
327.92	16.822
328.29	18.009
328.65	17.545
329.01	18.816
329.38	18.198
329.74	20.604
330.11	19.583
330.47	19.619
330.84	21.357
331.20	19.856
331.56	20.419
331.93	20.337
332.29	21.096
332.66	21.510
333.02	20.724
333.38	21.864
333.75	20.214
334.11	20.622
334.48	20.741
334.84	21.347
335.20	20.922
335.57	21.931
335.93	22.560
336.29	20.461
336.66	21.850
337.02	23.063
337.38	19.964
337.75	21.335
338.11	20.841
338.47	22.598
338.84	21.506
339.20	21.090
339.56	21.747
339.93	22.134
340.29	21.612
340.65	21.766
341.02	20.742
341.38	22.241
341.74	21.507
342.11	22.526
342.47	21.288
342.83	21.830
343.20	21.349
343.56	20.490
343.92	21.870
344.28	21.699
344.65	21.040
345.01	21.092
345.37	21.512
345.73	20.295
346.10	20.114
346.46	20.715
346.82	20.850
347.19	20.707
347.55	20.626
347.91	22.441
348.27	21.321
348.63	22.536
349.00	22.593
349.36	21.390
349.72	23.169
350.08	21.251
350.45	20.489
350.81	22.532
351.17	22.267
351.53	20.923
351.89	21.423
352.26	21.705
352.62	21.813
352.98	21.994
353.34	21.423
353.70	21.236
354.07	22.817
354.43	21.739
354.79	22.504
355.15	21.486
355.51	22.266
355.87	22.134
356.24	21.922
356.60	22.885
356.96	23.249
357.32	22.803
357.68	22.452
358.04	22.479
358.40	23.202
358.77	21.638
359.13	22.188
359.49	23.129
359.85	22.561
360.21	23.212
360.57	23.569
360.93	23.481
361.29	23.543
361.66	23.095
362.02	23.669
362.38	24.285
362.74	23.956
363.10	22.884
363.46	24.217
363.82	24.271
364.18	23.300
364.54	24.732
364.90	23.201
365.26	23.395
365.62	24.804
365.98	24.182
366.35	24.225
366.71	23.679
367.07	24.065
367.43	25.532
367.79	24.330
368.15	23.898
368.51	24.476
368.87	24.451
369.23	24.561
369.59	25.139
369.95	24.454
370.31	25.387
370.67	25.669
371.03	24.927
371.39	24.187
371.75	26.967
372.11	26.471
372.47	24.946
372.83	26.287
373.19	25.714
373.55	27.023
373.91	26.102
374.27	24.846
374.63	26.501
374.99	26.634
375.35	26.514
375.71	27.684
376.07	26.283
376.42	25.894
376.78	27.647
377.14	27.593
377.50	28.627
377.86	27.763
378.22	28.894
378.58	27.980
378.94	28.545
379.30	28.641
379.66	28.415
380.02	28.223
380.38	28.882
380.74	28.429
381.09	28.588
381.45	29.296
381.81	28.736
382.17	29.637
382.53	29.666
382.89	29.605
383.25	29.922
383.61	30.837
383.97	30.557
384.32	30.914
384.68	31.620
385.04	30.556
385.40	30.676
385.76	32.195
386.12	31.106
386.48	32.426
386.83	32.025
387.19	31.321
387.55	31.435
387.91	31.357
388.27	32.207
388.62	31.490
388.98	31.738
389.34	31.395
389.70	31.790
390.06	31.945
390.42	32.436
390.77	31.798
391.13	32.919
391.49	32.002
391.85	32.918
392.20	31.978
392.56	32.437
392.92	33.200
393.28	33.180
393.64	33.915
393.99	33.723
394.35	32.968
394.71	33.477
395.07	33.647
395.42	32.479
395.78	32.432
396.14	33.583
396.50	32.844
396.85	34.053
397.21	33.536
397.57	34.103
397.92	34.309
398.28	34.500
398.64	33.789
399.00	34.213
399.35	33.371
399.71	34.088
400.07	33.970
400.42	34.124
400.78	33.453
401.14	33.293
401.49	34.198
401.85	34.777
402.21	34.207
402.57	33.920
402.92	35.116
403.28	33.824
403.63	33.433
403.99	33.686
404.35	33.454
404.70	34.757
405.06	33.679
405.42	33.395
405.77	32.240
406.13	33.163
406.49	34.212
406.84	33.773
407.20	34.688
407.55	33.186
407.91	33.679
408.27	34.007
408.62	33.854
408.98	33.960
409.34	32.602
409.69	33.270
410.05	32.686
410.40	34.090
410.76	33.906
411.11	34.476
411.47	32.864
411.83	34.291
412.18	34.097
412.54	33.740
412.89	34.083
413.25	32.822
413.60	33.779
413.96	32.779
414.31	34.495
414.67	34.603
415.03	34.476
415.38	34.548
415.74	34.794
416.09	33.696
416.45	32.474
416.80	34.005
417.16	33.156
417.51	34.143
417.87	33.981
418.22	34.134
418.58	35.558
418.93	34.457
419.29	33.940
419.64	34.987
420.00	35.298
420.35	35.305
420.71	35.594
421.06	34.793
421.42	34.485
421.77	35.399
422.12	35.870
422.48	34.955
422.83	35.706
423.19	35.245
423.54	35.389
423.90	35.396
424.25	36.029
424.61	35.766
424.96	35.518
425.31	36.724
425.67	36.218
426.02	35.800
426.38	37.084
426.73	36.470
427.09	37.194
427.44	37.045
427.79	36.802
428.15	37.582
428.50	37.185
428.85	37.890
429.21	36.635
429.56	37.708
429.92	36.974
430.27	36.989
430.62	37.356
430.98	37.742
431.33	37.460
431.68	38.499
432.04	38.053
432.39	38.575
432.74	37.290
433.10	38.492
433.45	37.363
433.80	38.858
434.16	38.796
434.51	39.014
434.86	39.250
435.22	40.145
435.57	38.250
435.92	39.215
436.28	39.110
436.63	37.705
436.98	38.144
437.34	39.043
437.69	39.615
438.04	38.741
438.39	39.591
438.75	38.591
439.10	39.367
439.45	39.529
439.81	39.458
440.16	40.545
440.51	39.941
440.86	39.907
441.22	39.027
441.57	39.684
441.92	40.205
442.27	39.286
442.63	40.504
442.98	39.673
443.33	40.637
443.68	40.281
444.03	40.472
444.39	39.648
444.74	40.584
445.09	39.748
445.44	40.743
445.79	40.745
446.15	40.252
446.50	40.827
446.85	40.021
447.20	40.603
447.55	40.773
447.91	41.157
448.26	40.056
448.61	40.690
448.96	41.457
449.31	40.023
449.66	41.500
450.02	40.222
450.37	40.058
450.72	40.508
451.07	41.358
451.42	39.591
451.77	40.575
452.12	41.359
452.47	41.877
452.83	40.827
453.18	41.935
453.53	40.858
453.88	41.388
454.23	39.843
454.58	41.889
454.93	40.050
455.28	42.001
455.63	41.646
455.98	42.892
456.34	40.152
456.69	41.401
457.04	40.811
457.39	40.072
457.74	40.992
458.09	40.835
458.44	42.321
458.79	41.760
459.14	41.129
459.49	41.859
459.84	41.765
460.19	41.527
460.54	41.440
460.89	41.143
461.24	41.105
461.59	41.501
461.94	41.884
462.29	41.632
462.64	40.777
462.99	42.169
463.34	40.851
463.69	42.239
464.04	42.121
464.39	40.442
464.74	40.839
465.09	40.168
465.44	41.624
465.79	42.132
466.14	41.945
466.49	40.645
466.84	42.917
467.19	41.646
467.54	40.443
467.89	42.047
468.24	40.202
468.59	41.412
468.94	42.122
469.29	41.455
469.64	41.577
469.99	41.594
470.34	41.149
470.68	41.642
471.03	41.432
471.38	41.250
471.73	42.727
472.08	40.027
472.43	40.798
472.78	42.400
473.13	41.683
473.48	42.374
473.83	42.494
474.17	41.210
474.52	43.478
474.87	40.793
475.22	41.298
475.57	41.444
475.92	42.657
476.27	41.829
476.61	42.310
476.96	42.985
477.31	42.573
477.66	42.391
478.01	42.085
478.36	41.173
478.70	43.780
479.05	41.969
479.40	42.332
479.75	41.794
480.10	42.510
480.45	40.377
480.79	42.744
481.14	42.298
481.49	42.256
481.84	42.302
482.19	42.165
482.53	42.330
482.88	41.528
483.23	42.160
483.58	41.212
483.92	42.284
484.27	40.851
484.62	41.210
484.97	40.530
485.31	40.544
485.66	40.738
486.01	40.754
486.36	41.538
486.70	42.502
487.05	41.571
487.40	41.827
487.75	40.904
488.09	39.839
488.44	40.020
488.79	40.255
489.13	40.015
489.48	40.905
489.83	41.354
490.17	41.141
490.52	41.848
490.87	41.709
491.22	41.196
491.56	40.880
491.91	41.889
492.26	42.217
492.60	41.532
492.95	41.694
493.30	41.115
493.64	41.326
493.99	41.635
494.34	40.810
494.68	42.322
495.03	40.822
495.37	40.954
495.72	41.159
496.07	41.718
496.41	42.427
496.76	41.598
497.11	41.309
497.45	41.906
497.80	41.521
498.14	41.847
498.49	42.341
498.84	41.845
499.18	42.398
499.53	41.500
499.87	41.795
500.22	41.716
500.56	41.971
500.91	42.611
501.26	41.873
501.60	41.647
501.95	42.126
502.29	40.954
502.64	42.056
502.98	41.591
503.33	41.635
503.67	41.762
504.02	41.236
504.36	41.667
504.71	43.009
505.06	41.787
505.40	42.615
505.75	42.530
506.09	41.304
506.44	42.456
506.78	40.542
507.13	40.937
507.47	41.993
507.82	42.179
508.16	43.109
508.51	42.349
508.85	42.288
509.19	41.915
509.54	42.865
509.88	42.819
510.23	42.086
510.57	43.651
510.92	41.890
511.26	41.946
511.61	42.117
511.95	41.433
512.30	42.716
512.64	41.347
512.98	42.464
513.33	42.834
513.67	41.932
514.02	42.282
514.36	43.102
514.70	43.011
515.05	43.682
515.39	42.445
515.74	42.118
516.08	42.824
516.42	43.173
516.77	44.425
517.11	42.906
517.46	44.378
517.80	44.404
518.14	42.814
518.49	43.276
518.83	42.967
519.17	42.392
519.52	42.741
519.86	43.608
520.20	43.460
520.55	43.815
520.89	43.081
521.23	43.101
521.58	42.633
521.92	43.825
522.26	43.175
522.61	43.726
522.95	42.693
523.29	42.884
523.64	43.410
523.98	43.348
524.32	43.683
524.66	42.174
525.01	43.353
525.35	44.716
525.69	43.982
526.04	43.995
526.38	43.603
526.72	41.954
527.06	43.555
527.41	42.442
527.75	43.630
528.09	43.018
528.43	42.754
528.78	43.781
529.12	45.134
529.46	42.784
529.80	43.706
530.15	43.142
530.49	43.467
530.83	43.877
531.17	43.300
531.51	42.599
531.86	42.199
532.20	43.522
532.54	43.850
532.88	43.215
533.22	43.316
533.57	44.517
533.91	41.635
534.25	42.489
534.59	42.473
534.93	42.004
535.27	43.109
535.62	43.670
535.96	43.568
536.30	42.081
536.64	43.426
536.98	42.514
537.32	42.985
537.66	42.295
538.01	42.268
538.35	42.432
538.69	41.711
539.03	42.383
539.37	42.582
539.71	41.828
540.05	42.975
540.39	43.075
540.73	42.985
541.07	41.872
541.42	41.999
541.76	40.465
542.10	42.741
542.44	41.839
542.78	42.130
543.12	42.906
543.46	41.507
543.80	40.669
544.14	41.169
544.48	42.192
544.82	42.016
545.16	42.723
545.50	41.184
545.84	40.751
546.18	42.372
546.52	42.461
546.86	43.447
547.20	43.038
547.54	40.909
547.88	41.208
548.22	41.153
548.56	42.418
548.90	42.385
549.24	41.416
549.58	42.202
549.92	42.120
550.26	41.474
550.60	41.536
550.94	42.263
551.28	41.535
551.62	41.654
551.96	40.738
552.30	41.951
552.64	41.942
552.98	43.518
553.32	40.476
553.66	41.384
554.00	41.294
554.34	41.877
554.68	40.789
555.02	41.027
555.36	41.625
555.69	41.117
556.03	41.825
556.37	41.821
556.71	41.732
557.05	41.981
557.39	40.386
557.73	41.138
558.07	42.050
558.41	40.464
558.75	41.749
559.08	40.778
559.42	40.888
559.76	41.488
560.10	41.984
560.44	42.413
560.78	41.614
561.12	41.063
561.45	40.411
561.79	42.578
562.13	41.445
562.47	40.686
562.81	39.463
563.15	41.288
563.48	41.742
563.82	41.988
564.16	41.109
564.50	42.204
564.84	41.336
565.17	40.650
565.51	40.417
565.85	41.785
566.19	41.963
566.52	40.378
566.86	40.898
567.20	41.162
567.54	41.583
567.88	40.927
568.21	41.051
568.55	40.933
568.89	40.308
569.23	39.889
569.56	39.596
569.90	40.126
570.24	40.023
570.57	38.629
570.91	38.592
571.25	39.591
571.59	39.213
571.92	38.601
572.26	38.197
572.60	38.567
572.93	37.597
573.27	37.744
573.61	37.339
573.95	38.079
574.28	37.934
574.62	38.358
574.96	36.964
575.29	37.271
575.63	37.669
575.97	37.648
576.30	37.243
576.64	37.755
576.98	37.372
577.31	37.616
577.65	38.314
577.98	38.032
578.32	37.760
578.66	37.630
578.99	37.975
579.33	37.830
579.67	37.408
580.00	37.649
580.34	37.011
580.67	37.632
581.01	36.723
581.35	37.724
581.68	37.538
582.02	38.315
582.35	38.263
582.69	38.056
583.02	38.528
583.36	37.893
583.70	37.199
584.03	37.150
584.37	37.591
584.70	36.717
585.04	37.570
585.37	37.041
585.71	37.663
586.04	37.943
586.38	37.316
586.72	38.275
587.05	37.978
587.39	38.077
587.72	37.510
588.06	37.744
588.39	38.394
588.73	38.021
589.06	38.523
589.40	38.750
589.73	37.358
590.07	38.055
590.40	38.007
590.73	38.944
591.07	38.566
591.40	38.042
591.74	38.923
592.07	38.198
592.41	39.108
592.74	39.085
593.08	39.307
593.41	38.586
593.75	38.642
594.08	39.360
594.41	39.889
594.75	39.147
595.08	39.211
595.42	39.017
595.75	38.111
596.09	37.757
596.42	39.321
596.75	39.457
597.09	39.314
597.42	38.193
597.75	38.973
598.09	38.816
598.42	38.754
598.76	38.538
599.09	38.200
599.42	38.524
599.76	38.316
600.09	39.733
600.42	39.271
600.76	39.209
601.09	39.119
601.42	37.792
601.76	38.201
602.09	38.732
602.42	38.395
602.76	38.720
603.09	38.065
603.42	38.678
603.76	39.769
604.09	38.366
604.42	37.635
604.76	38.770
605.09	39.602
605.42	39.583
605.75	37.602
606.09	38.896
606.42	38.500
606.75	38.042
607.09	38.509
607.42	38.424
607.75	38.146
608.08	40.036
608.42	38.316
608.75	37.523
609.08	38.139
609.41	38.366
609.75	37.445
610.08	38.824
610.41	38.410
610.74	39.410
611.07	38.641
611.41	38.477
611.74	38.972
612.07	38.937
612.40	38.380
612.73	38.503
613.07	39.075
613.40	39.901
613.73	39.128
614.06	38.386
614.39	40.192
614.72	38.156
615.06	38.043
615.39	38.361
615.72	38.892
616.05	37.880
616.38	39.060
616.71	38.138
617.05	39.023
617.38	38.762
617.71	38.943
618.04	38.571
618.37	39.057
618.70	40.156
619.03	39.404
619.36	39.605
619.69	39.627
620.03	39.876
620.36	39.944
620.69	40.273
621.02	38.584
621.35	39.597
621.68	39.836
622.01	39.725
622.34	39.363
622.67	40.469
623.00	38.256
623.33	40.299
623.66	39.069
623.99	39.474
624.32	39.807
624.65	38.190
624.99	38.611
625.32	40.269
625.65	39.394
625.98	39.671
626.31	39.070
626.64	39.247
626.97	39.384
627.30	39.404
627.63	40.242
627.96	40.209
628.29	39.706
628.62	39.255
628.95	40.354
629.28	41.259
629.61	40.530
629.94	40.643
630.26	41.650
630.59	41.005
630.92	40.941
631.25	41.431
631.58	40.106
631.91	39.787
632.24	41.333
632.57	41.444
632.90	40.690
633.23	42.407
633.56	40.819
633.89	41.274
634.22	39.669
634.55	41.106
634.88	40.266
635.20	39.825
635.53	40.076
635.86	38.791
636.19	38.828
636.52	39.785
636.85	39.471
637.18	40.500
637.51	41.636
637.83	43.142
638.16	39.605
638.49	41.241
638.82	40.927
639.15	41.245
639.48	39.300
639.81	41.494
640.13	40.676
640.46	42.165
640.79	38.515
641.12	41.608
641.45	41.750
641.77	42.964
642.10	43.202
642.43	40.819
642.76	42.520
643.09	41.270
643.41	43.016
643.74	42.607
644.07	41.030
644.40	40.681
644.73	41.089
645.05	40.735
645.38	42.053
645.71	43.814
646.04	44.202
646.36	40.314
646.69	41.522
647.02	39.711
647.35	41.155
647.67	42.701
648.00	42.882
648.33	41.821
648.66	40.323
648.98	39.968
649.31	41.692
649.64	41.719
649.96	41.444
650.29	37.705
650.62	41.480
650.94	40.641
651.27	40.555
651.60	40.484
651.92	41.267
652.25	40.735
652.58	39.693
652.90	39.326
653.23	40.000
653.56	39.298
653.88	37.869
654.21	41.779
654.54	40.864
654.86	41.091
655.19	40.115
655.52	39.456
655.84	39.256
656.17	42.366
656.49	57.286
656.82	57.918
657.15	42.486
657.47	31.436
657.80	24.300
658.13	27.010
658.45	35.270
658.78	33.630
659.10	32.254
659.43	31.568
659.75	30.960
660.08	30.521
660.41	30.241
660.73	33.223
661.06	37.101
661.38	39.643
661.71	40.535
662.03	41.734
662.36	42.644
662.68	38.819
663.01	39.278
663.33	39.909
663.66	42.489
663.98	41.295
664.31	41.834
664.63	40.708
664.96	39.696
665.28	41.866
665.61	40.381
665.93	40.741
666.26	41.700
666.58	40.333
666.91	38.085
667.23	41.228
667.56	38.322
667.88	42.534
668.21	41.244
668.53	41.822
668.86	41.339
669.18	39.041
669.50	40.654
669.83	37.956
670.15	43.049
670.48	40.187
670.80	37.813
671.13	38.149
671.45	38.739
671.77	41.756
672.10	37.870
672.42	41.328
672.75	38.000
673.07	39.279
673.39	40.437
673.72	38.189
674.04	39.915
674.37	38.351
674.69	42.623
675.01	37.660
675.34	38.395
675.66	43.844
675.98	39.427
676.31	39.140
676.63	44.138
676.95	38.717
677.28	41.531
677.60	41.855
677.92	41.410
678.25	40.481
678.57	39.712
678.89	40.042
679.22	38.994
679.54	39.842
679.86	37.600
680.18	37.452
680.51	36.313
680.83	38.857
681.15	38.536
681.48	42.394
681.80	39.315
682.12	39.034
682.44	39.096
682.77	37.229
683.09	40.042
683.41	40.708
683.73	39.269
684.06	40.215
684.38	38.494
684.70	38.683
685.02	38.583
685.34	39.766
685.67	40.530
685.99	39.509
686.31	40.934
686.63	40.248
686.96	37.893
687.28	36.609
687.60	39.063
687.92	34.630
688.24	40.551
688.56	35.872
688.89	38.034
689.21	38.293
689.53	39.080
689.85	39.866
690.17	40.583
690.49	37.413
690.82	38.554
691.14	37.736
691.46	41.907
691.78	38.987
692.10	38.136
692.42	37.556
692.74	38.197
693.06	37.978
693.39	39.150
693.71	41.986
694.03	38.877
694.35	36.343
694.67	36.879
694.99	35.550
695.31	41.327
695.63	37.500
695.95	40.695
696.27	37.157
696.59	40.374
696.91	40.169
697.23	42.708
697.56	36.538
697.88	40.090
698.20	37.687
698.52	35.202
698.84	38.592
699.16	40.714
699.48	40.750
699.80	39.850
700.12	39.798
700.44	35.475
700.76	38.484
701.08	38.081
701.40	36.254
701.72	38.272
702.04	40.385
702.36	44.880
702.68	39.521
703.00	40.870
703.32	36.103
703.64	39.118
703.96	38.953
704.28	40.533
704.60	37.658
704.91	35.556
705.23	41.100
705.55	37.162
705.87	39.590
706.19	36.111
706.51	40.278
706.83	43.279
707.15	36.943
707.47	38.567
707.79	40.206
708.11	34.351
708.43	39.152
708.74	36.104
709.06	33.983
709.38	34.195
709.70	38.125
710.02	38.957
710.34	35.974
710.66	36.190
710.98	36.909
711.29	37.097
711.61	32.907
711.93	34.754
712.25	40.864
712.57	34.843
712.89	41.007
713.20	38.832
713.52	35.448
713.84	40.569
714.16	36.066
714.48	41.587
714.80	38.769
715.11	35.447
715.43	40.663
715.75	37.072
716.07	37.705
716.39	35.117
716.70	37.282
717.02	39.630
717.34	37.023
717.66	38.174
717.97	40.984
718.29	34.874
718.61	39.286
718.93	37.993
719.24	33.088
719.56	35.849
719.88	38.909
720.20	36.704
720.51	40.602
720.83	34.940
721.15	36.885
721.46	36.078
721.78	33.333
722.10	36.000
722.42	41.736
722.73	37.849
723.05	40.161
723.37	38.824
723.68	36.032
724.00	40.650
724.32	37.860
724.63	36.100
724.95	35.950
725.27	39.035
725.58	35.345
725.90	33.730
726.22	42.066
726.53	41.065
726.85	34.510
727.16	39.098
727.48	38.462
727.80	33.607
728.11	36.555
728.43	38.430
728.74	39.453
729.06	39.394
729.38	31.128
729.69	35.827
730.01	36.220
730.32	34.661
730.64	32.967
730.96	39.925
731.27	38.571
731.59	34.405
731.90	34.663
732.22	35.583
732.53	37.417
732.85	37.584
733.16	35.507
733.48	35.540
733.80	29.893
734.11	33.448
734.43	40.816
734.74	35.905
735.06	37.931
735.37	34.862
735.69	35.806
736.00	35.017
736.32	34.437
736.63	35.517
736.95	28.623
737.26	36.755
737.58	37.770
737.89	37.634
738.21	32.707
738.52	36.154
738.83	40.625
739.15	39.316
739.46	32.661
739.78	38.112
740.09	36.713
740.41	34.965
740.72	33.577
741.04	34.127
741.35	33.333
741.66	37.500
741.98	38.095
742.29	36.620
742.61	37.968
742.92	38.785
743.23	31.579
743.55	37.387
743.86	38.667
744.18	36.667
744.49	38.916
744.80	32.995
745.12	34.536
745.43	40.201
745.74	33.981
746.06	32.195
746.37	38.326
746.68	35.821
747.00	37.173
747.31	33.654
747.62	36.406
747.94	32.751
748.25	41.395
748.56	38.571
748.88	33.152
749.19	35.211
749.50	46.569
749.82	36.444
750.13	37.885
750.44	36.992
750.75	37.600
751.07	40.714
751.38	33.210
751.69	32.061
752.01	33.846
752.32	36.187
752.63	31.538
752.94	32.540
753.26	38.261
753.57	33.482
753.88	34.914
754.19	34.855
754.51	30.859
754.82	33.597
755.13	35.802
755.44	35.950
755.75	36.214
756.07	28.916
756.38	34.375
756.69	31.408
757.00	40.767
757.31	37.248
757.63	36.760
757.94	30.636
758.25	33.430
758.56	36.658
758.87	33.239
759.18	32.333
759.50	33.096
759.81	36.131
760.12	32.432
760.43	41.100
760.74	35.000
761.05	35.393
761.36	36.527
761.67	37.278
761.99	32.258
762.30	32.246
762.61	35.472
762.92	37.220
763.23	34.597
763.54	34.222
763.85	36.709
764.16	33.878
764.47	40.254
764.78	30.712
765.10	37.050
765.41	34.194
765.72	37.421
766.03	30.742
766.34	30.075
766.65	33.198
766.96	30.500
767.27	31.771
767.58	33.721
767.89	30.323
768.20	36.196
768.51	33.880
768.82	30.270
769.13	31.500
769.44	32.018
769.75	35.931
770.06	37.156
770.37	35.211
770.68	36.458
770.99	39.109
771.30	33.495
771.61	26.852
771.92	31.169
772.23	33.645
772.54	30.319
772.85	31.953
773.16	34.146
773.47	36.145
773.78	34.615
774.09	42.000
774.39	35.802
774.70	22.819
775.01	34.058
775.32	24.627
775.63	31.405
775.94	33.083
776.25	37.857
776.56	36.885
776.87	43.363
777.18	35.398
777.48	22.727
777.79	18.261
778.10	28.440
778.41	32.203
778.72	25.620
779.03	36.567
779.34	39.098
779.65	32.680
779.95	36.957
780.26	32.653
780.57	27.586
780.88	25.926
781.19	22.222
781.50	25.600
781.80	24.183
782.11	35.256
782.42	29.518
782.73	21.168
783.04	33.784
783.34	24.242
783.65	31.783
783.96	37.398
784.27	23.932
784.57	26.016
784.88	24.390
785.19	28.070
785.50	22.680
785.81	21.905
786.11	21.569
786.42	23.636
786.73	31.532
787.04	39.604
787.34	27.619
787.65	18.095
787.96	31.373
788.26	33.333
788.57	31.452
788.88	16.406
789.19	37.607
789.49	29.412
789.80	26.496
790.11	27.434
790.41	24.242
790.72	23.585
791.03	4.167
791.33	25.000
791.64	30.108
791.95	26.667
792.25	22.857
792.56	30.488
792.87	30.612
793.17	22.368
793.48	5.405
793.79	18.310
794.09	21.519
794.40	20.213
794.70	34.579
795.01	23.684
795.32	30.909
795.62	29.464
795.93	28.866
796.23	21.978
796.54	33.684
796.85	19.178
797.15	15.278
797.46	31.507
797.76	22.535
798.07	25.000
798.37	22.059
798.68	41.429
798.99	15.714
799.29	28.947
799.60	25.000
799.90	20.833
800.21	18.750
800.51	19.048
800.82	13.115
801.12	15.789
801.43	18.310
801.73	6.780
802.04	21.311
802.34	1.818
802.65	34.615
802.95	27.778
803.26	-7.500
803.56	25.000
803.87	-10.526
804.17	35.484
804.48	27.692
804.78	7.692
805.09	18.605
805.39	0.000
805.70	11.321
806.00	33.333
806.30	25.676
806.61	36.765
806.91	24.691
807.22	37.333
807.52	23.881
807.83	20.968
808.13	12.698
808.43	23.636
808.74	21.212
809.04	26.415
809.35	26.027
809.65	33.333
809.95	32.353
810.26	29.412
810.56	4.000
810.86	-8.163
811.17	25.714
811.47	21.154
811.77	16.129
812.08	5.263
812.38	35.714
812.69	6.522
812.99	19.355
813.29	2.381
813.59	-51.852
813.90	4.255
814.20	-6.977
814.50	20.833
814.81	16.667
815.11	-12.195
815.41	16.667
815.72	37.143
816.02	11.111
816.32	25.641
816.62	8.108
816.93	-35.294
817.23	4.348
817.53	20.588
817.84	5.882
818.14	-25.000
818.44	-6.897
818.74	12.903
819.04	-22.222
819.35	10.000
819.65	16.000
819.95	36.667
820.25	16.000
820.56	-34.211
820.86	-17.500
821.16	25.532
821.46	12.069
821.76	10.256
822.07	-35.000
822.37	9.302
822.67	0.000
822.97	5.405
823.27	27.027
823.57	-8.000
823.88	-2.703
824.18	0.000
824.48	-11.538
824.78	-76.923
825.08	-26.087
825.38	8.333
825.69	12.500
825.99	-30.000
826.29	5.405
826.59	5.882
826.89	-44.000
827.19	-42.857
827.49	36.842
827.79	-34.375
828.09	-26.667
828.39	26.087
828.70	13.793
829.00	6.897
829.30	-16.667
829.60	62.500
829.90	-33.333
830.20	-3.846
830.50	-19.048
830.80	-46.429
831.10	0.000
831.40	-80.952
831.70	0.000
832.00	-8.333
832.30	-52.632
832.60	-112.500
832.90	-125.000
833.20	-47.059
833.50	-33.333
833.80	-93.333
834.10	-35.000
834.40	-45.833
834.70	-44.444
835.00	-11.538
835.30	-12.500
835.60	6.897
835.90	-55.556
836.20	-118.182
836.50	-150.000
836.80	-11.429
837.10	42.857
837.40	-11.765
837.70	-63.636
838.00	0.000
838.30	-68.750
838.60	-14.286
838.90	0.000
839.19	-39.130
839.49	4.348
839.79	-100.000
840.09	-56.522
840.39	-36.364
840.69	-56.250
840.99	10.526
841.29	-56.250
841.59	-21.429
841.88	-88.889
842.18	16.667
842.48	-52.941
842.78	-17.241
843.08	-50.000
843.38	0.000
843.68	-111.111
843.97	-46.154
844.27	-72.727
844.57	-220.000
844.87	-20.000
845.17	-200.000
845.47	-57.143
845.76	-144.444
846.06	0.000
846.36	-325.000
846.66	-130.000
846.96	-5.263
847.25	-25.000
847.55	-75.000
847.85	6.667
848.15	-90.000
848.44	46.154
848.74	0.000
849.04	333.333
849.34	-211.111
849.63	-47.368
849.93	0.000
850.23	-30.000
850.53	-33.333
850.82	-48.000
851.12	31.579
851.42	-1000.000
851.71	-7.143
852.01	-50.000
852.31	-5.882
852.61	-93.333
852.90	-4.762
853.20	-100.000
853.50	-83.333
853.79	-52.632
854.09	-46.667
854.39	-32.143
854.68	0.000
854.98	-66.667
855.28	0.000
855.57	-62.500
855.87	-35.000
856.17	-26.667
856.46	-17.241
856.76	-66.667
857.05	-17.647
857.35	-138.462
857.65	-54.545
857.94	-37.037
858.24	-157.143
858.53	-71.429
858.83	-83.333
859.13	-255.556
859.42	-4.762
859.72	-100.000
860.01	-266.667
860.31	-87.500
860.60	-300.000
860.90	-177.778
861.20	-62.500
861.49	-100.000
861.79	-47.059
862.08	-600.000
862.38	-108.333
862.67	-61.538
862.97	11.765
863.26	15.000
863.56	-100.000
863.85	66.667
864.15	-100.000
864.44	-100.000
864.74	-5.000
865.03	-237.500
865.33	-100.000
865.62	-29.412
865.92	-400.000
866.21	-71.429
866.51	-100.000
866.80	-1700.000
867.10	-300.000
867.39	47.059
867.69	26.087
867.98	-85.714
868.27	-300.000
868.57	-6.250
868.86	-154.545
869.16	-23.529
869.45	-183.333
869.75	-185.714
870.04	900.000
870.33	-33.333
870.63	-180.000
870.92	-144.444
871.22	-108.333
871.51	0.000
871.80	-66.667
872.10	20.000
>>>>>End Processed Spectral Data<<<<<
