SpectraSuite Data File
++++++++++++++++++++++++++++++++++++
Date: Sat May 16 11:46:03 PDT 2015
User: schluterlab
Dark Spectrum Present: Yes
Reference Spectrum Present: Yes
Number of Sampled Component Spectra: 1
Spectrometers: USB2E3373
Integration Time (usec): 3000 (USB2E3373)
Spectra Averaged: 3 (USB2E3373)
Boxcar Smoothing: 0 (USB2E3373)
Correct for Electrical Dark: No (USB2E3373)
Strobe/Lamp Enabled: No (USB2E3373)
Correct for Detector Non-linearity: No (USB2E3373)
Correct for Stray Light: No (USB2E3373)
Number of Pixels in Processed Spectrum: 2048
>>>>>Begin Processed Spectral Data<<<<<
178.53	0.000
178.91	140.000
179.29	533.333
179.67	-1600.000
180.04	15.385
180.42	1200.000
180.80	175.000
181.18	475.000
181.56	-162.500
181.94	1600.000
182.31	350.000
182.69	-38.462
183.07	-766.667
183.45	950.000
183.83	466.667
184.20	-200.000
184.58	-100.000
184.96	-250.000
185.34	118.750
185.72	-375.000
186.09	300.000
186.47	-187.500
186.85	-137.500
187.23	-12.500
187.61	-50.000
187.98	-225.000
188.36	-150.000
188.74	-125.000
189.12	1800.000
189.49	400.000
189.87	-83.333
190.25	175.000
190.63	-28.571
191.00	-255.556
191.38	200.000
191.76	-20.000
192.14	340.000
192.51	-160.000
192.89	-633.333
193.27	0.000
193.65	-111.111
194.02	-257.143
194.40	700.000
194.78	-80.000
195.15	-800.000
195.53	-190.909
195.91	-366.667
196.29	60.000
196.66	-500.000
197.04	1800.000
197.42	-200.000
197.79	60.000
198.17	-100.000
198.55	-100.000
198.92	-1300.000
199.30	75.000
199.68	-700.000
200.05	-133.333
200.43	-133.333
200.81	-1300.000
201.18	-91.667
201.56	242.857
201.94	-60.000
202.31	31.818
202.69	70.000
203.07	-20.000
203.44	433.333
203.82	-216.667
204.19	-350.000
204.57	-425.000
204.95	-500.000
205.32	-93.750
205.70	1000.000
206.08	-1800.000
206.45	-33.333
206.83	-750.000
207.20	-100.000
207.58	-533.333
207.96	-266.667
208.33	-12.500
208.71	-144.444
209.08	230.000
209.46	-100.000
209.84	750.000
210.21	0.000
210.59	-10.000
210.96	1300.000
211.34	-216.667
211.71	-66.667
212.09	300.000
212.46	650.000
212.84	-2300.000
213.22	566.667
213.59	141.667
213.97	-77.778
214.34	120.000
214.72	-20.000
215.09	-633.333
215.47	-183.333
215.84	-10.000
216.22	-90.000
216.59	-40.000
216.97	-375.000
217.34	950.000
217.72	-85.714
218.09	-283.333
218.47	-371.429
218.84	85.714
219.22	-200.000
219.59	0.000
219.97	328.571
220.34	350.000
220.72	212.500
221.09	-23.077
221.47	0.000
221.84	466.667
222.22	-300.000
222.59	500.000
222.97	-287.500
223.34	-900.000
223.72	-266.667
224.09	-100.000
224.46	-150.000
224.84	-14.286
225.21	-142.857
225.59	-45.455
225.96	-87.500
226.34	-128.571
226.71	-122.222
227.08	-20.000
227.46	2200.000
227.83	-171.429
228.21	-200.000
228.58	700.000
228.95	-93.750
229.33	-2400.000
229.70	-200.000
230.08	-400.000
230.45	25.000
230.82	33.333
231.20	-400.000
231.57	-800.000
231.95	500.000
232.32	0.000
232.69	-133.333
233.07	-242.857
233.44	-900.000
233.81	-93.333
234.19	-66.667
234.56	-50.000
234.93	-3.125
235.31	-57.143
235.68	-121.429
236.05	-47.059
236.43	4.545
236.80	0.000
237.17	-29.167
237.55	-52.381
237.92	-31.818
238.29	-20.000
238.67	2.941
239.04	-11.111
239.41	6.452
239.79	-23.077
240.16	-16.667
240.53	-9.091
240.91	15.385
241.28	12.727
241.65	24.615
242.02	22.951
242.40	4.918
242.77	22.727
243.14	15.254
243.51	0.000
243.89	26.582
244.26	20.225
244.63	21.053
245.00	21.053
245.38	17.797
245.75	15.929
246.12	23.200
246.49	24.409
246.87	21.138
247.24	20.339
247.61	24.576
247.98	28.873
248.36	16.783
248.73	20.886
249.10	29.936
249.47	25.146
249.84	26.136
250.22	13.690
250.59	19.209
250.96	19.895
251.33	21.801
251.70	22.596
252.08	24.171
252.45	21.801
252.82	25.714
253.19	23.404
253.56	25.000
253.94	18.143
254.31	25.751
254.68	25.203
255.05	27.419
255.42	26.190
255.79	21.505
256.16	23.529
256.54	24.632
256.91	25.758
257.28	25.641
257.65	26.241
258.02	27.987
258.39	22.742
258.76	22.297
259.14	23.148
259.51	28.197
259.88	25.915
260.25	31.056
260.62	22.186
260.99	22.849
261.36	25.000
261.73	29.480
262.10	27.222
262.47	24.786
262.85	26.000
263.22	24.642
263.59	22.462
263.96	23.478
264.33	25.203
264.70	26.796
265.07	25.275
265.44	26.098
265.81	25.323
266.18	24.557
266.55	27.206
266.92	27.204
267.29	24.939
267.66	27.654
268.03	27.053
268.40	27.934
268.77	27.952
269.14	24.362
269.51	25.287
269.88	24.312
270.25	21.911
270.62	25.400
270.99	25.450
271.36	25.874
271.73	26.906
272.10	27.689
272.47	25.556
272.84	28.444
273.21	26.147
273.58	25.275
273.95	23.465
274.32	25.113
274.69	27.352
275.06	26.789
275.43	24.107
275.80	26.884
276.17	25.105
276.54	25.866
276.91	23.868
277.28	26.775
277.65	25.207
278.02	22.547
278.39	26.130
278.76	26.494
279.13	24.506
279.50	27.237
279.87	26.427
280.23	26.316
280.60	27.237
280.97	24.660
281.34	24.952
281.71	26.923
282.08	23.589
282.45	24.236
282.82	23.837
283.19	25.818
283.56	27.289
283.92	23.852
284.29	26.022
284.66	24.460
285.03	26.025
285.40	26.753
285.77	24.561
286.14	24.729
286.51	23.091
286.87	25.771
287.24	25.256
287.61	26.116
287.98	23.917
288.35	23.471
288.72	23.599
289.08	20.339
289.45	23.737
289.82	23.875
290.19	24.795
290.56	20.000
290.93	21.304
291.29	23.339
291.66	21.739
292.03	23.077
292.40	21.084
292.77	23.292
293.13	23.902
293.50	20.654
293.87	22.546
294.24	23.077
294.60	19.697
294.97	22.307
295.34	21.185
295.71	21.429
296.08	20.891
296.44	19.599
296.81	20.655
297.18	22.958
297.55	23.305
297.91	22.176
298.28	22.192
298.65	20.363
299.02	20.053
299.38	19.920
299.75	20.380
300.12	21.026
300.48	19.693
300.85	19.004
301.22	19.276
301.59	21.326
301.95	21.285
302.32	18.644
302.69	19.951
303.05	17.827
303.42	19.125
303.79	19.976
304.15	19.550
304.52	19.253
304.89	17.710
305.25	20.879
305.62	19.506
305.99	21.790
306.35	20.200
306.72	19.818
307.09	21.453
307.45	18.048
307.82	18.212
308.19	18.345
308.55	19.063
308.92	19.334
309.29	18.486
309.65	19.618
310.02	19.438
310.38	19.027
310.75	18.852
311.12	21.384
311.48	20.668
311.85	20.803
312.22	20.597
312.58	20.855
312.95	19.266
313.31	20.180
313.68	21.709
314.05	21.662
314.41	21.529
314.78	20.280
315.14	22.705
315.51	22.594
315.87	21.684
316.24	21.963
316.61	23.800
316.97	22.886
317.34	22.929
317.70	22.913
318.07	25.933
318.43	24.438
318.80	26.009
319.16	24.390
319.53	24.530
319.89	24.835
320.26	25.098
320.62	25.769
320.99	28.358
321.35	26.995
321.72	27.738
322.08	27.498
322.45	27.723
322.81	28.722
323.18	30.163
323.54	29.390
323.91	31.511
324.27	31.274
324.64	32.450
325.00	32.897
325.37	33.484
325.73	36.920
326.10	33.924
326.46	35.201
326.83	36.596
327.19	36.197
327.56	38.075
327.92	38.573
328.29	40.173
328.65	38.636
329.01	41.166
329.38	40.410
329.74	41.758
330.11	41.976
330.47	42.961
330.84	43.630
331.20	45.036
331.56	45.123
331.93	45.115
332.29	46.575
332.66	44.688
333.02	47.421
333.38	47.939
333.75	48.442
334.11	47.111
334.48	48.544
334.84	47.594
335.20	48.227
335.57	49.278
335.93	51.119
336.29	47.741
336.66	49.251
337.02	51.351
337.38	49.020
337.75	49.166
338.11	50.805
338.47	51.957
338.84	51.089
339.20	50.615
339.56	53.654
339.93	49.647
340.29	52.613
340.65	52.010
341.02	51.012
341.38	51.896
341.74	51.143
342.11	50.853
342.47	51.931
342.83	50.462
343.20	52.690
343.56	50.857
343.92	52.421
344.28	52.986
344.65	51.485
345.01	53.445
345.37	52.243
345.73	50.655
346.10	52.249
346.46	51.990
346.82	51.724
347.19	53.492
347.55	51.685
347.91	51.890
348.27	52.586
348.63	52.827
349.00	52.347
349.36	49.727
349.72	54.538
350.08	54.451
350.45	53.901
350.81	53.264
351.17	53.698
351.53	52.586
351.89	53.436
352.26	53.488
352.62	53.533
352.98	53.402
353.34	54.916
353.70	51.892
354.07	53.265
354.43	53.992
354.79	53.645
355.15	55.112
355.51	54.688
355.87	54.071
356.24	54.567
356.60	55.520
356.96	53.041
357.32	55.265
357.68	55.096
358.04	53.349
358.40	54.602
358.77	54.791
359.13	55.318
359.49	55.253
359.85	54.421
360.21	55.175
360.57	56.099
360.93	55.630
361.29	57.474
361.66	56.250
362.02	55.473
362.38	56.200
362.74	56.996
363.10	56.313
363.46	57.906
363.82	56.706
364.18	56.585
364.54	57.398
364.90	57.792
365.26	57.275
365.62	58.232
365.98	57.112
366.35	56.408
366.71	56.589
367.07	58.998
367.43	58.065
367.79	57.526
368.15	57.966
368.51	58.182
368.87	58.104
369.23	58.596
369.59	57.986
369.95	58.140
370.31	59.142
370.67	58.568
371.03	59.548
371.39	58.345
371.75	59.299
372.11	59.971
372.47	59.798
372.83	60.292
373.19	60.429
373.55	59.747
373.91	61.166
374.27	60.096
374.63	60.041
374.99	60.223
375.35	59.825
375.71	61.985
376.07	62.286
376.42	60.000
376.78	63.268
377.14	63.322
377.50	61.509
377.86	61.964
378.22	62.626
378.58	61.519
378.94	61.776
379.30	61.913
379.66	61.991
380.02	61.973
380.38	63.202
380.74	62.134
381.09	61.453
381.45	63.365
381.81	63.521
382.17	62.907
382.53	62.432
382.89	63.935
383.25	63.937
383.61	63.738
383.97	63.258
384.32	63.705
384.68	64.873
385.04	63.164
385.40	63.238
385.76	64.573
386.12	63.148
386.48	66.708
386.83	64.724
387.19	64.854
387.55	63.961
387.91	64.671
388.27	64.113
388.62	65.745
388.98	64.749
389.34	64.198
389.70	65.347
390.06	64.388
390.42	66.474
390.77	64.164
391.13	66.957
391.49	65.876
391.85	66.771
392.20	64.867
392.56	65.241
392.92	65.545
393.28	66.475
393.64	65.725
393.99	67.508
394.35	65.328
394.71	65.967
395.07	67.608
395.42	65.912
395.78	66.310
396.14	66.044
396.50	66.606
396.85	65.392
397.21	66.160
397.57	65.836
397.92	66.569
398.28	67.111
398.64	66.092
399.00	67.416
399.35	65.727
399.71	67.305
400.07	66.448
400.42	67.153
400.78	66.190
401.14	66.287
401.49	66.863
401.85	68.212
402.21	66.091
402.57	65.959
402.92	67.716
403.28	66.667
403.63	64.350
403.99	65.942
404.35	65.942
404.70	65.067
405.06	67.013
405.42	65.621
405.77	64.819
406.13	65.985
406.49	66.866
406.84	65.627
407.20	66.726
407.55	65.358
407.91	64.961
408.27	66.544
408.62	65.664
408.98	65.858
409.34	65.143
409.69	65.784
410.05	65.009
410.40	66.156
410.76	65.857
411.11	67.519
411.47	66.880
411.83	66.443
412.18	66.584
412.54	65.894
412.89	65.735
413.25	65.643
413.60	65.006
413.96	64.941
414.31	66.789
414.67	65.841
415.03	64.748
415.38	67.404
415.74	66.946
416.09	66.304
416.45	66.601
416.80	65.605
417.16	66.844
417.51	67.039
417.87	66.408
418.22	67.193
418.58	67.587
418.93	67.750
419.29	67.001
419.64	66.080
420.00	69.259
420.35	68.303
420.71	68.307
421.06	66.923
421.42	67.272
421.77	68.230
422.12	68.159
422.48	68.733
422.83	68.280
423.19	67.038
423.54	69.510
423.90	68.190
424.25	67.421
424.61	70.265
424.96	70.685
425.31	69.201
425.67	69.799
426.02	68.503
426.38	69.873
426.73	71.303
427.09	71.078
427.44	69.602
427.79	69.651
428.15	71.275
428.50	71.202
428.85	71.583
429.21	71.555
429.56	71.250
429.92	71.192
430.27	70.638
430.62	72.414
430.98	71.458
431.33	71.932
431.68	73.405
432.04	73.979
432.39	73.618
432.74	73.261
433.10	72.257
433.45	71.733
433.80	74.356
434.16	73.348
434.51	73.918
434.86	74.634
435.22	74.555
435.57	74.357
435.92	75.029
436.28	74.362
436.63	73.375
436.98	73.310
437.34	75.605
437.69	73.746
438.04	75.893
438.39	75.572
438.75	74.913
439.10	75.236
439.45	73.989
439.81	75.542
440.16	75.639
440.51	77.765
440.86	76.113
441.22	75.180
441.57	75.053
441.92	75.703
442.27	77.327
442.63	76.073
442.98	77.370
443.33	75.618
443.68	76.759
444.03	77.210
444.39	77.533
444.74	77.753
445.09	78.125
445.44	78.278
445.79	78.021
446.15	77.601
446.50	77.681
446.85	77.424
447.20	77.988
447.55	78.950
447.91	79.394
448.26	77.765
448.61	77.646
448.96	78.151
449.31	78.523
449.66	79.737
450.02	78.006
450.37	79.304
450.72	78.927
451.07	80.893
451.42	78.563
451.77	80.431
452.12	79.678
452.47	80.416
452.83	79.849
453.18	80.202
453.53	78.918
453.88	80.383
454.23	79.988
454.58	81.603
454.93	79.786
455.28	80.115
455.63	79.423
455.98	81.446
456.34	80.051
456.69	81.051
457.04	80.332
457.39	81.041
457.74	80.508
458.09	80.336
458.44	81.755
458.79	82.007
459.14	81.517
459.49	82.238
459.84	80.438
460.19	81.205
460.54	80.520
460.89	81.726
461.24	79.660
461.59	81.301
461.94	82.113
462.29	80.762
462.64	81.555
462.99	82.396
463.34	81.431
463.69	82.761
464.04	81.312
464.39	80.526
464.74	79.905
465.09	80.758
465.44	81.105
465.79	81.049
466.14	83.372
466.49	82.268
466.84	83.013
467.19	81.546
467.54	81.646
467.89	82.737
468.24	81.888
468.59	83.698
468.94	84.502
469.29	81.871
469.64	82.749
469.99	82.174
470.34	82.365
470.68	84.738
471.03	83.070
471.38	82.778
471.73	86.014
472.08	84.605
472.43	83.784
472.78	82.667
473.13	83.433
473.48	83.599
473.83	83.437
474.17	83.949
474.52	86.317
474.87	83.100
475.22	82.773
475.57	84.722
475.92	83.639
476.27	83.086
476.61	83.324
476.96	84.125
477.31	85.630
477.66	85.113
478.01	84.441
478.36	82.085
478.70	84.517
479.05	83.559
479.40	84.715
479.75	84.913
480.10	83.383
480.45	82.737
480.79	84.847
481.14	84.797
481.49	84.463
481.84	84.004
482.19	82.960
482.53	85.133
482.88	83.958
483.23	83.474
483.58	85.476
483.92	85.619
484.27	82.986
484.62	84.017
484.97	83.242
485.31	81.088
485.66	78.381
486.01	78.805
486.36	80.854
486.70	82.416
487.05	82.413
487.40	82.399
487.75	82.510
488.09	82.613
488.44	81.563
488.79	83.233
489.13	83.720
489.48	84.502
489.83	84.716
490.17	83.674
490.52	86.685
490.87	85.219
491.22	85.848
491.56	84.630
491.91	86.212
492.26	86.274
492.60	86.632
492.95	85.816
493.30	83.945
493.64	84.485
493.99	86.329
494.34	86.000
494.68	86.423
495.03	85.373
495.37	87.856
495.72	85.904
496.07	86.673
496.41	87.216
496.76	86.347
497.11	86.717
497.45	86.303
497.80	87.644
498.14	86.395
498.49	87.042
498.84	84.757
499.18	86.842
499.53	86.118
499.87	86.486
500.22	87.549
500.56	87.194
500.91	86.059
501.26	86.948
501.60	86.230
501.95	88.454
502.29	85.498
502.64	87.129
502.98	86.775
503.33	85.338
503.67	86.925
504.02	85.514
504.36	86.569
504.71	87.437
505.06	87.968
505.40	88.373
505.75	88.008
506.09	89.080
506.44	88.321
506.78	87.908
507.13	89.032
507.47	88.941
507.82	87.455
508.16	89.275
508.51	87.687
508.85	88.509
509.19	89.691
509.54	87.368
509.88	89.096
510.23	88.889
510.57	90.106
510.92	90.333
511.26	88.464
511.61	89.363
511.95	89.547
512.30	90.269
512.64	90.262
512.98	90.374
513.33	89.621
513.67	90.341
514.02	88.758
514.36	91.080
514.70	90.889
515.05	91.995
515.39	90.715
515.74	92.728
516.08	89.971
516.42	91.105
516.77	90.237
517.11	90.847
517.46	94.378
517.80	94.043
518.14	92.331
518.49	92.648
518.83	90.920
519.17	91.474
519.52	91.209
519.86	92.772
520.20	93.215
520.55	93.108
520.89	92.736
521.23	92.125
521.58	94.044
521.92	93.414
522.26	92.698
522.61	93.283
522.95	92.597
523.29	93.730
523.64	93.567
523.98	94.017
524.32	92.772
524.66	91.491
525.01	91.972
525.35	93.428
525.69	93.299
526.04	93.864
526.38	95.608
526.72	92.209
527.06	93.555
527.41	93.399
527.75	93.465
528.09	93.911
528.43	94.033
528.78	91.960
529.12	93.406
529.46	92.719
529.80	92.705
530.15	93.110
530.49	93.014
530.83	92.862
531.17	94.276
531.51	93.168
531.86	93.483
532.20	93.995
532.54	94.652
532.88	92.556
533.22	94.920
533.57	94.386
533.91	90.824
534.25	92.709
534.59	91.255
534.93	90.604
535.27	92.637
535.62	92.263
535.96	91.726
536.30	91.492
536.64	92.098
536.98	96.893
537.32	94.610
537.66	91.174
538.01	93.540
538.35	91.689
538.69	92.513
539.03	91.875
539.37	92.548
539.71	91.461
540.05	92.872
540.39	93.006
540.73	94.057
541.07	93.648
541.42	93.045
541.76	91.030
542.10	94.328
542.44	92.205
542.78	92.741
543.12	93.211
543.46	90.479
543.80	90.903
544.14	91.739
544.48	91.798
544.82	94.587
545.16	91.818
545.50	91.992
545.84	91.933
546.18	94.660
546.52	92.603
546.86	92.877
547.20	93.812
547.54	89.118
547.88	92.104
548.22	91.743
548.56	92.385
548.90	93.598
549.24	91.731
549.58	93.155
549.92	94.488
550.26	94.798
550.60	92.532
550.94	95.036
551.28	92.777
551.62	94.092
551.96	93.198
552.30	92.544
552.64	92.540
552.98	93.623
553.32	94.156
553.66	95.025
554.00	93.532
554.34	93.069
554.68	93.202
555.02	92.909
555.36	93.889
555.69	92.765
556.03	93.404
556.37	95.590
556.71	94.202
557.05	94.383
557.39	93.690
557.73	94.748
558.07	96.534
558.41	94.316
558.75	95.665
559.08	96.187
559.42	95.942
559.76	94.402
560.10	94.333
560.44	94.364
560.78	94.781
561.12	94.755
561.45	94.110
561.79	94.286
562.13	94.250
562.47	93.207
562.81	94.059
563.15	95.381
563.48	93.504
563.82	94.320
564.16	94.050
564.50	93.078
564.84	91.997
565.17	94.032
565.51	92.047
565.85	95.876
566.19	94.071
566.52	92.172
566.86	92.668
567.20	92.615
567.54	92.558
567.88	88.777
568.21	92.002
568.55	89.608
568.89	87.227
569.23	88.478
569.56	86.591
569.90	86.861
570.24	86.509
570.57	84.499
570.91	84.597
571.25	84.987
571.59	85.795
571.92	83.125
572.26	84.362
572.60	83.152
572.93	82.936
573.27	83.537
573.61	82.420
573.95	82.491
574.28	81.460
574.62	82.435
574.96	80.907
575.29	82.317
575.63	82.665
575.97	81.338
576.30	80.789
576.64	81.671
576.98	81.214
577.31	80.882
577.65	81.212
577.98	81.918
578.32	80.846
578.66	81.119
578.99	80.416
579.33	81.537
579.67	81.156
580.00	80.977
580.34	81.336
580.67	82.422
581.01	79.730
581.35	80.896
581.68	79.523
582.02	80.246
582.35	80.132
582.69	81.968
583.02	81.742
583.36	81.292
583.70	82.232
584.03	82.705
584.37	82.869
584.70	83.029
585.04	81.570
585.37	80.644
585.71	80.697
586.04	82.497
586.38	82.358
586.72	82.751
587.05	82.696
587.39	82.327
587.72	82.320
588.06	82.146
588.39	83.338
588.73	83.675
589.06	84.847
589.40	85.847
589.73	84.632
590.07	84.559
590.40	85.793
590.73	86.246
591.07	85.984
591.40	87.175
591.74	86.099
592.07	86.667
592.41	85.987
592.74	84.743
593.08	85.307
593.41	84.507
593.75	82.559
594.08	86.628
594.41	85.989
594.75	84.636
595.08	86.541
595.42	85.730
595.75	86.035
596.09	85.409
596.42	86.457
596.75	85.683
597.09	86.643
597.42	85.247
597.75	87.245
598.09	86.941
598.42	86.920
598.76	86.337
599.09	84.886
599.42	85.121
599.76	84.334
600.09	84.885
600.42	84.884
600.76	84.783
601.09	85.568
601.42	85.635
601.76	84.930
602.09	86.667
602.42	85.062
602.76	84.919
603.09	85.968
603.42	86.825
603.76	85.600
604.09	86.704
604.42	85.429
604.76	86.699
605.09	86.438
605.42	86.037
605.75	86.848
606.09	85.015
606.42	87.390
606.75	84.972
607.09	85.929
607.42	86.224
607.75	85.960
608.08	86.715
608.42	86.613
608.75	86.589
609.08	88.115
609.41	87.245
609.75	86.641
610.08	88.235
610.41	86.554
610.74	87.186
611.07	88.032
611.41	87.191
611.74	86.735
612.07	89.742
612.40	86.834
612.73	87.614
613.07	86.516
613.40	88.998
613.73	88.937
614.06	87.644
614.39	89.459
614.72	87.151
615.06	86.141
615.39	88.117
615.72	89.191
616.05	87.410
616.38	89.205
616.71	88.529
617.05	88.359
617.38	90.402
617.71	88.698
618.04	90.807
618.37	92.013
618.70	92.243
619.03	89.844
619.36	90.698
619.69	91.385
620.03	88.705
620.36	90.999
620.69	93.467
621.02	93.303
621.35	93.306
621.68	95.164
622.01	92.880
622.34	91.460
622.67	92.344
623.00	92.043
623.33	91.343
623.66	92.393
623.99	92.105
624.32	90.476
624.65	91.096
624.99	93.727
625.32	91.692
625.65	93.240
625.98	92.488
626.31	93.393
626.64	93.808
626.97	94.521
627.30	95.064
627.63	94.387
627.96	95.126
628.29	96.783
628.62	96.944
628.95	98.622
629.28	95.395
629.61	98.332
629.94	97.164
630.26	100.795
630.59	99.497
630.92	96.697
631.25	95.565
631.58	98.307
631.91	97.766
632.24	101.556
632.57	101.333
632.90	104.253
633.23	101.285
633.56	98.246
633.89	101.533
634.22	98.347
634.55	102.284
634.88	99.274
635.20	99.625
635.53	102.926
635.86	99.370
636.19	99.756
636.52	96.774
636.85	99.398
637.18	102.500
637.51	102.354
637.83	105.593
638.16	102.895
638.49	103.034
638.82	101.158
639.15	102.464
639.48	100.778
639.81	106.224
640.13	99.324
640.46	102.707
640.79	103.361
641.12	103.526
641.45	103.156
641.77	105.988
642.10	102.568
642.43	103.794
642.76	103.465
643.09	104.127
643.41	105.873
643.74	106.041
644.07	103.588
644.40	105.835
644.73	107.261
645.05	105.843
645.38	105.960
645.71	108.076
646.04	105.714
646.36	105.759
646.69	104.325
647.02	110.650
647.35	108.123
647.67	108.212
648.00	108.787
648.33	108.094
648.66	100.968
648.98	103.822
649.31	102.462
649.64	104.063
649.96	101.256
650.29	102.459
650.62	108.950
650.94	104.047
651.27	105.719
651.60	106.920
651.92	104.795
652.25	102.671
652.58	105.963
652.90	103.371
653.23	101.774
653.56	105.184
653.88	99.180
654.21	106.711
654.54	107.973
654.86	100.642
655.19	99.284
655.52	89.872
655.84	79.752
656.17	83.927
656.49	100.000
656.82	100.000
657.15	100.000
657.47	74.112
657.80	51.374
658.13	59.155
658.45	79.385
658.78	80.213
659.10	79.875
659.43	79.118
659.75	81.471
660.08	82.240
660.41	83.419
660.73	93.619
661.06	99.855
661.38	108.214
661.71	102.868
662.03	103.831
662.36	107.249
662.68	107.384
663.01	111.040
663.33	110.431
663.66	109.657
663.98	108.259
664.31	108.054
664.63	110.619
664.96	108.026
665.28	107.158
665.61	105.708
665.93	106.584
666.26	101.012
666.58	105.613
666.91	109.354
667.23	109.430
667.56	111.565
667.88	109.276
668.21	108.756
668.53	110.280
668.86	111.316
669.18	112.329
669.50	106.542
669.83	112.165
670.15	105.381
670.48	109.112
670.80	107.973
671.13	104.515
671.45	108.108
671.77	106.210
672.10	103.156
672.42	103.506
672.75	103.091
673.07	98.919
673.39	99.818
673.72	102.953
674.04	104.883
674.37	100.825
674.69	105.123
675.01	101.489
675.34	103.037
675.66	104.320
675.98	107.489
676.31	108.371
676.63	106.897
676.95	103.319
677.28	106.961
677.60	102.715
677.92	105.727
678.25	105.689
678.57	103.909
678.89	102.935
679.22	105.660
679.54	100.000
679.86	102.000
680.18	100.760
680.51	99.069
680.83	98.857
681.15	97.110
681.48	102.637
681.80	101.815
682.12	100.805
682.44	97.053
682.77	101.299
683.09	100.839
683.41	103.761
683.73	102.968
684.06	98.710
684.38	100.209
684.70	102.469
685.02	99.409
685.34	96.296
685.67	100.947
685.99	100.000
686.31	94.973
686.63	91.312
686.96	95.379
687.28	95.761
687.60	98.437
687.92	97.471
688.24	99.606
688.56	97.595
688.89	99.573
689.21	98.687
689.53	103.678
689.85	98.664
690.17	101.345
690.49	100.000
690.82	102.651
691.14	97.877
691.46	96.674
691.78	101.982
692.10	97.246
692.42	100.222
692.74	98.069
693.06	101.798
693.39	94.631
693.71	99.097
694.03	98.056
694.35	98.871
694.67	97.636
694.99	100.256
695.31	106.633
695.63	101.531
695.95	99.007
696.27	99.501
696.59	101.604
696.91	103.933
697.23	102.604
697.56	97.837
697.88	98.874
698.20	94.861
698.52	95.516
698.84	99.757
699.16	95.714
699.48	96.000
699.80	93.484
700.12	95.970
700.44	98.324
700.76	101.458
701.08	100.872
701.40	100.604
701.72	104.938
702.04	106.410
702.36	100.000
702.68	102.395
703.00	102.609
703.32	100.000
703.64	101.765
703.96	98.547
704.28	97.929
704.60	99.367
704.91	104.127
705.23	102.913
705.55	101.689
705.87	103.754
706.19	99.306
706.51	101.389
706.83	103.934
707.15	103.185
707.47	100.000
707.79	96.392
708.11	93.130
708.43	94.763
708.74	91.169
709.06	94.986
709.38	91.092
709.70	99.688
710.02	99.387
710.34	93.069
710.66	93.968
710.98	99.685
711.29	97.097
711.61	95.208
711.93	100.000
712.25	104.651
712.57	101.742
712.89	102.518
713.20	100.000
713.52	105.224
713.84	100.356
714.16	97.377
714.48	93.333
714.80	94.462
715.11	88.184
715.43	97.590
715.75	93.146
716.07	95.410
716.39	97.324
716.70	100.348
717.02	99.259
717.34	100.000
717.66	102.905
717.97	97.951
718.29	102.941
718.61	110.714
718.93	92.115
719.24	98.162
719.56	97.736
719.88	100.000
720.20	96.629
720.51	100.000
720.83	100.402
721.15	102.869
721.46	102.745
721.78	97.318
722.10	99.200
722.42	99.587
722.73	93.625
723.05	94.779
723.37	93.725
723.68	92.308
724.00	99.187
724.32	99.177
724.63	90.871
724.95	97.934
725.27	97.368
725.58	102.155
725.90	94.841
726.22	95.572
726.53	96.958
726.85	93.725
727.16	95.489
727.48	96.538
727.80	94.262
728.11	94.958
728.43	97.521
728.74	90.625
729.06	92.045
729.38	91.051
729.69	92.913
730.01	96.457
730.32	97.211
730.64	94.139
730.96	94.030
731.27	93.929
731.59	90.032
731.90	90.798
732.22	83.742
732.53	95.033
732.85	88.591
733.16	92.754
733.48	91.638
733.80	90.036
734.11	89.655
734.43	90.476
734.74	91.988
735.06	90.282
735.37	89.602
735.69	85.806
736.00	88.889
736.32	89.073
736.63	85.862
736.95	89.855
737.26	85.099
737.58	90.288
737.89	92.832
738.21	94.737
738.52	95.769
738.83	86.719
739.15	88.462
739.46	89.919
739.78	85.664
740.09	88.462
740.41	89.860
740.72	88.686
741.04	88.095
741.35	92.641
741.66	92.593
741.98	96.667
742.29	97.653
742.61	103.743
742.92	97.196
743.23	86.404
743.55	92.342
743.86	93.333
744.18	90.952
744.49	94.089
744.80	96.447
745.12	98.454
745.43	101.508
745.74	93.689
746.06	97.073
746.37	88.106
746.68	99.005
747.00	101.571
747.31	92.308
747.62	92.627
747.94	86.900
748.25	94.419
748.56	90.000
748.88	94.022
749.19	89.202
749.50	96.078
749.82	93.778
750.13	96.916
750.44	89.837
750.75	96.000
751.07	88.571
751.38	86.716
751.69	84.733
752.01	85.000
752.32	87.160
752.63	87.308
752.94	84.921
753.26	90.000
753.57	94.643
753.88	86.638
754.19	86.722
754.51	92.188
754.82	91.700
755.13	90.123
755.44	87.603
755.75	92.593
756.07	85.542
756.38	86.328
756.69	89.170
757.00	83.624
757.31	87.919
757.63	87.539
757.94	80.636
758.25	79.651
758.56	85.984
758.87	78.977
759.18	78.667
759.50	82.562
759.81	84.307
760.12	83.108
760.43	88.997
760.74	90.625
761.05	79.213
761.36	83.234
761.67	80.178
761.99	80.968
762.30	82.246
762.61	80.000
762.92	88.341
763.23	93.839
763.54	83.556
763.85	83.544
764.16	85.306
764.47	88.559
764.78	85.393
765.10	87.770
765.41	77.742
765.72	77.044
766.03	75.972
766.34	86.090
766.65	80.567
766.96	90.000
767.27	85.417
767.58	91.860
767.89	89.677
768.20	96.319
768.51	83.060
768.82	81.622
769.13	85.500
769.44	86.842
769.75	83.983
770.06	81.193
770.37	80.751
770.68	91.667
770.99	81.683
771.30	83.495
771.61	80.093
771.92	82.251
772.23	82.710
772.54	82.447
772.85	76.923
773.16	92.683
773.47	90.361
773.78	83.516
774.09	83.333
774.39	82.099
774.70	83.221
775.01	85.507
775.32	85.075
775.63	95.041
775.94	95.489
776.25	87.143
776.56	86.885
776.87	93.805
777.18	93.805
777.48	94.545
777.79	85.217
778.10	87.156
778.41	76.271
778.72	90.909
779.03	87.313
779.34	86.466
779.65	79.085
779.95	89.855
780.26	70.068
780.57	76.724
780.88	101.852
781.19	84.848
781.50	79.200
781.80	78.431
782.11	83.333
782.42	78.313
782.73	83.942
783.04	75.000
783.34	82.576
783.65	82.171
783.96	77.236
784.27	90.598
784.57	82.114
784.88	79.675
785.19	75.439
785.50	76.289
785.81	70.476
786.11	85.294
786.42	82.727
786.73	73.874
787.04	93.069
787.34	76.190
787.65	72.381
787.96	92.157
788.26	89.189
788.57	81.452
788.88	77.344
789.19	76.068
789.49	68.067
789.80	65.812
790.11	82.301
790.41	70.707
790.72	83.962
791.03	80.556
791.33	77.632
791.64	75.269
791.95	80.000
792.25	90.000
792.56	74.390
792.87	91.837
793.17	76.316
793.48	68.919
793.79	66.197
794.09	72.152
794.40	91.489
794.70	77.570
795.01	64.912
795.32	73.636
795.62	79.464
795.93	74.227
796.23	79.121
796.54	89.474
796.85	90.411
797.15	72.222
797.46	76.712
797.76	98.592
798.07	73.750
798.37	97.059
798.68	81.429
798.99	72.857
799.29	75.000
799.60	85.000
799.90	66.667
800.21	70.313
800.51	58.730
800.82	67.213
801.12	57.895
801.43	54.930
801.73	77.966
802.04	88.525
802.34	60.000
802.65	86.538
802.95	66.667
803.26	82.500
803.56	80.769
803.87	100.000
804.17	87.097
804.48	73.846
804.78	92.308
805.09	90.698
805.39	103.125
805.70	66.038
806.00	84.211
806.30	55.405
806.61	92.647
806.91	66.667
807.22	72.000
807.52	64.179
807.83	70.968
808.13	50.794
808.43	76.364
808.74	65.152
809.04	79.245
809.35	50.685
809.65	78.947
809.95	67.647
810.26	80.392
810.56	72.000
810.86	61.224
811.17	74.286
811.47	65.385
811.77	106.452
812.08	71.053
812.38	85.714
812.69	43.478
812.99	61.290
813.29	64.286
813.59	33.333
813.90	51.064
814.20	25.581
814.50	83.333
814.81	63.333
815.11	82.927
815.41	73.333
815.72	105.714
816.02	47.222
816.32	84.615
816.62	67.568
816.93	52.941
817.23	36.957
817.53	76.471
817.84	38.235
818.14	50.000
818.44	48.276
818.74	70.968
819.04	48.148
819.35	100.000
819.65	68.000
819.95	86.667
820.25	64.000
820.56	31.579
820.86	40.000
821.16	55.319
821.46	72.414
821.76	69.231
822.07	32.500
822.37	39.535
822.67	50.000
822.97	83.784
823.27	32.432
823.57	80.000
823.88	64.865
824.18	14.286
824.48	65.385
824.78	61.538
825.08	43.478
825.38	83.333
825.69	79.167
825.99	5.000
826.29	10.811
826.59	41.176
826.89	116.000
827.19	25.714
827.49	63.158
827.79	56.250
828.09	70.000
828.39	117.391
828.70	20.690
829.00	24.138
829.30	58.333
829.60	81.250
829.90	94.444
830.20	38.462
830.50	76.190
830.80	50.000
831.10	56.410
831.40	33.333
831.70	38.235
832.00	70.833
832.30	31.579
832.60	50.000
832.90	-33.333
833.20	-11.765
833.50	-46.667
833.80	73.333
834.10	-15.000
834.40	54.167
834.70	83.333
835.00	53.846
835.30	-12.500
835.60	44.828
835.90	-5.556
836.20	-18.182
836.50	-16.667
836.80	62.857
837.10	68.571
837.40	17.647
837.70	-54.545
838.00	16.667
838.30	-25.000
838.60	14.286
838.90	20.000
839.19	0.000
839.49	34.783
839.79	-50.000
840.09	-26.087
840.39	-9.091
840.69	25.000
840.99	42.105
841.29	6.250
841.59	121.429
841.88	11.111
842.18	37.500
842.48	-23.529
842.78	10.345
843.08	71.429
843.38	38.462
843.68	-66.667
843.97	0.000
844.27	-81.818
844.57	-40.000
844.87	48.000
845.17	280.000
845.47	21.429
845.76	-166.667
846.06	0.000
846.36	-200.000
846.66	-40.000
846.96	21.053
847.25	45.833
847.55	-158.333
847.85	40.000
848.15	50.000
848.44	65.385
848.74	15.789
849.04	-33.333
849.34	-33.333
849.63	-26.316
849.93	0.000
850.23	-55.000
850.53	38.095
850.82	-8.000
851.12	47.368
851.42	-500.000
851.71	42.857
852.01	-8.333
852.31	-23.529
852.61	13.333
852.90	4.762
853.20	66.667
853.50	-44.444
853.79	21.053
854.09	53.333
854.39	25.000
854.68	0.000
854.98	-141.667
855.28	17.241
855.57	0.000
855.87	0.000
856.17	-93.333
856.46	13.793
856.76	-33.333
857.05	-52.941
857.35	-38.462
857.65	81.818
857.94	18.519
858.24	-50.000
858.53	-7.143
858.83	16.667
859.13	-44.444
859.42	47.619
859.72	37.500
860.01	-66.667
860.31	-37.500
860.60	-180.000
860.90	-77.778
861.20	-62.500
861.49	-157.143
861.79	-17.647
862.08	-450.000
862.38	-41.667
862.67	15.385
862.97	-41.176
863.26	-5.000
863.56	-11.765
863.85	600.000
864.15	-60.000
864.44	-38.462
864.74	-5.000
865.03	-62.500
865.33	-133.333
865.62	-52.941
865.92	-325.000
866.21	-35.714
866.51	-41.667
866.80	-1200.000
867.10	-400.000
867.39	-29.412
867.69	34.783
867.98	85.714
868.27	-140.000
868.57	-62.500
868.86	-200.000
869.16	-17.647
869.45	-83.333
869.75	-57.143
870.04	2000.000
870.33	-50.000
870.63	-80.000
870.92	-122.222
871.22	-50.000
871.51	27.273
871.80	16.667
872.10	40.000
>>>>>End Processed Spectral Data<<<<<
