SpectraSuite Data File
++++++++++++++++++++++++++++++++++++
Date: Sat May 16 11:14:55 PDT 2015
User: schluterlab
Dark Spectrum Present: Yes
Reference Spectrum Present: Yes
Number of Sampled Component Spectra: 1
Spectrometers: USB2E3373
Integration Time (usec): 3000 (USB2E3373)
Spectra Averaged: 3 (USB2E3373)
Boxcar Smoothing: 0 (USB2E3373)
Correct for Electrical Dark: No (USB2E3373)
Strobe/Lamp Enabled: No (USB2E3373)
Correct for Detector Non-linearity: No (USB2E3373)
Correct for Stray Light: No (USB2E3373)
Number of Pixels in Processed Spectrum: 2048
>>>>>Begin Processed Spectral Data<<<<<
178.53	0.000
178.91	100.000
179.29	233.333
179.67	-100.000
180.04	-7.692
180.42	800.000
180.80	25.000
181.18	250.000
181.56	-62.500
181.94	1000.000
182.31	325.000
182.69	7.692
183.07	-100.000
183.45	950.000
183.83	366.667
184.20	-42.857
184.58	-62.500
184.96	-350.000
185.34	93.750
185.72	-550.000
186.09	200.000
186.47	-175.000
186.85	-200.000
187.23	75.000
187.61	-50.000
187.98	-150.000
188.36	0.000
188.74	-12.500
189.12	1200.000
189.49	271.429
189.87	8.333
190.25	-25.000
190.63	-35.714
191.00	-177.778
191.38	300.000
191.76	0.000
192.14	440.000
192.51	-240.000
192.89	-333.333
193.27	0.000
193.65	88.889
194.02	-228.571
194.40	166.667
194.78	-80.000
195.15	-400.000
195.53	-81.818
195.91	-266.667
196.29	180.000
196.66	-500.000
197.04	700.000
197.42	25.000
197.79	60.000
198.17	-266.667
198.55	-650.000
198.92	-600.000
199.30	87.500
199.68	-300.000
200.05	-55.556
200.43	22.222
200.81	-1800.000
201.18	-8.333
201.56	114.286
201.94	20.000
202.31	22.727
202.69	-50.000
203.07	-120.000
203.44	566.667
203.82	-150.000
204.19	-300.000
204.57	25.000
204.95	-500.000
205.32	-68.750
205.70	-0.000
206.08	-1700.000
206.45	5.556
206.83	-700.000
207.20	300.000
207.58	-466.667
207.96	-333.333
208.33	-12.500
208.71	-22.222
209.08	120.000
209.46	-28.571
209.84	600.000
210.21	0.000
210.59	35.000
210.96	700.000
211.34	-50.000
211.71	-233.333
212.09	575.000
212.46	850.000
212.84	-2800.000
213.22	300.000
213.59	133.333
213.97	0.000
214.34	160.000
214.72	10.000
215.09	-100.000
215.47	-83.333
215.84	-40.000
216.22	-10.000
216.59	-13.333
216.97	-75.000
217.34	550.000
217.72	-71.429
218.09	-33.333
218.47	-114.286
218.84	128.571
219.22	-100.000
219.59	0.000
219.97	71.429
220.34	325.000
220.72	187.500
221.09	38.462
221.47	0.000
221.84	233.333
222.22	-150.000
222.59	900.000
222.97	-87.500
223.34	-650.000
223.72	-100.000
224.09	-71.429
224.46	-300.000
224.84	-14.286
225.21	100.000
225.59	-18.182
225.96	-250.000
226.34	-42.857
226.71	-11.111
227.08	35.000
227.46	1900.000
227.83	-42.857
228.21	-125.000
228.58	250.000
228.95	25.000
229.33	-1600.000
229.70	-300.000
230.08	-350.000
230.45	41.667
230.82	33.333
231.20	-1300.000
231.57	-400.000
231.95	900.000
232.32	42.857
232.69	22.222
233.07	-228.571
233.44	-700.000
233.81	-53.333
234.19	-11.111
234.56	-6.250
234.93	37.500
235.31	-185.714
235.68	-64.286
236.05	-41.176
236.43	-68.182
236.80	-12.903
237.17	-4.167
237.55	14.286
237.92	-31.818
238.29	-11.429
238.67	38.235
239.04	2.778
239.41	-38.710
239.79	-28.205
240.16	-4.762
240.53	-3.636
240.91	30.769
241.28	3.636
241.65	21.538
242.02	-1.639
242.40	6.557
242.77	15.152
243.14	1.695
243.51	-5.714
243.89	-1.266
244.26	-4.494
244.63	11.579
245.00	11.579
245.38	11.017
245.75	14.159
246.12	12.800
246.49	7.874
246.87	5.691
247.24	4.237
247.61	5.085
247.98	3.521
248.36	4.895
248.73	10.759
249.10	5.096
249.47	7.602
249.84	13.068
250.22	4.762
250.59	12.994
250.96	11.518
251.33	19.431
251.70	6.250
252.08	16.588
252.45	7.583
252.82	12.857
253.19	8.511
253.56	7.258
253.94	8.861
254.31	7.296
254.68	16.260
255.05	8.065
255.42	12.698
255.79	6.810
256.16	12.941
256.54	8.456
256.91	7.576
257.28	8.791
257.65	7.801
258.02	14.465
258.39	11.371
258.76	9.122
259.14	8.642
259.51	12.787
259.88	10.976
260.25	16.460
260.62	12.219
260.99	6.231
261.36	12.805
261.73	11.850
262.10	12.222
262.47	10.826
262.85	14.857
263.22	12.321
263.59	9.231
263.96	13.623
264.33	9.214
264.70	12.431
265.07	12.912
265.44	11.111
265.81	11.370
266.18	11.139
266.55	10.539
266.92	14.861
267.29	11.138
267.66	9.877
268.03	14.734
268.40	11.268
268.77	10.843
269.14	11.833
269.51	11.264
269.88	9.862
270.25	11.655
270.62	11.899
270.99	11.712
271.36	11.888
271.73	10.987
272.10	13.730
272.47	12.667
272.84	12.889
273.21	13.532
273.58	10.989
273.95	9.868
274.32	13.575
274.69	12.910
275.06	12.270
275.43	10.491
275.80	12.016
276.17	11.715
276.54	14.868
276.91	10.905
277.28	11.359
277.65	10.331
278.02	12.317
278.39	13.163
278.76	12.351
279.13	13.834
279.50	11.531
279.87	10.782
280.23	10.324
280.60	14.513
280.97	9.709
281.34	11.605
281.71	10.385
282.08	12.097
282.45	8.961
282.82	11.240
283.19	9.636
283.56	13.553
283.92	10.601
284.29	10.967
284.66	11.331
285.03	11.586
285.40	11.439
285.77	13.158
286.14	10.650
286.51	11.545
286.87	10.889
287.24	13.823
287.61	11.570
287.98	9.185
288.35	9.421
288.72	10.866
289.08	9.492
289.45	11.279
289.82	9.689
290.19	11.823
290.56	7.934
290.93	11.447
291.29	10.859
291.66	10.950
292.03	10.989
292.40	10.090
292.77	11.180
293.13	9.431
293.50	13.819
293.87	9.663
294.24	11.011
294.60	8.182
294.97	11.381
295.34	9.481
295.71	10.863
296.08	8.909
296.44	8.298
296.81	10.256
297.18	9.577
297.55	10.311
297.91	10.879
298.28	8.082
298.65	9.763
299.02	10.027
299.38	10.829
299.75	9.103
300.12	9.359
300.48	10.486
300.85	8.257
301.22	8.797
301.59	8.973
301.95	11.587
302.32	7.823
302.69	8.690
303.05	9.158
303.42	8.250
303.79	8.971
304.15	9.479
304.52	7.818
304.89	8.855
305.25	8.303
305.62	8.461
305.99	10.954
306.35	8.657
306.72	8.314
307.09	10.102
307.45	9.081
307.82	6.816
308.19	8.725
308.55	9.586
308.92	7.734
309.29	8.432
309.65	9.120
310.02	8.639
310.38	7.676
310.75	9.016
311.12	9.091
311.48	8.142
311.85	8.754
312.22	8.136
312.58	10.173
312.95	9.378
313.31	8.791
313.68	10.151
314.05	8.605
314.41	9.557
314.78	7.592
315.14	9.773
315.51	8.713
315.87	9.487
316.24	10.010
316.61	10.653
316.97	9.453
317.34	9.923
317.70	9.184
318.07	8.955
318.43	9.644
318.80	11.268
319.16	10.131
319.53	11.372
319.89	10.066
320.26	11.569
320.62	11.731
320.99	10.547
321.35	11.626
321.72	10.747
322.08	12.661
322.45	12.475
322.81	13.256
323.18	13.449
323.54	13.309
323.91	14.551
324.27	13.593
324.64	15.174
325.00	14.311
325.37	15.385
325.73	16.098
326.10	14.260
326.46	16.112
326.83	16.255
327.19	17.098
327.56	17.717
327.92	18.182
328.29	17.316
328.65	17.273
329.01	17.845
329.38	17.841
329.74	19.963
330.11	20.218
330.47	18.801
330.84	20.257
331.20	20.217
331.56	20.146
331.93	18.828
332.29	20.000
332.66	20.369
333.02	21.176
333.38	21.685
333.75	21.193
334.11	22.578
334.48	20.035
334.84	22.310
335.20	22.429
335.57	22.653
335.93	23.366
336.29	21.966
336.66	22.731
337.02	23.514
337.38	22.282
337.75	22.651
338.11	23.166
338.47	22.687
338.84	22.777
339.20	23.286
339.56	23.975
339.93	21.869
340.29	21.966
340.65	22.815
341.02	23.272
341.38	23.336
341.74	23.031
342.11	22.782
342.47	22.833
342.83	23.342
343.20	23.228
343.56	21.959
343.92	22.955
344.28	23.633
344.65	22.937
345.01	24.202
345.37	24.834
345.73	22.259
346.10	21.750
346.46	22.989
346.82	23.496
347.19	23.583
347.55	23.676
347.91	23.701
348.27	22.434
348.63	24.233
349.00	24.582
349.36	23.185
349.72	23.567
350.08	24.699
350.45	22.459
350.81	23.806
351.17	23.312
351.53	22.355
351.89	24.171
352.26	23.256
352.62	24.962
352.98	24.288
353.34	23.661
353.70	23.552
354.07	23.210
354.43	23.636
354.79	24.326
355.15	24.361
355.51	23.516
355.87	23.715
356.24	24.464
356.60	25.705
356.96	24.788
357.32	25.257
357.68	23.755
358.04	23.557
358.40	24.207
358.77	24.730
359.13	24.331
359.49	25.094
359.85	24.390
360.21	25.799
360.57	25.527
360.93	26.296
361.29	25.336
361.66	23.552
362.02	23.964
362.38	25.238
362.74	25.055
363.10	25.036
363.46	26.140
363.82	24.708
364.18	25.615
364.54	26.019
364.90	25.157
365.26	24.465
365.62	26.800
365.98	26.743
366.35	24.507
366.71	25.934
367.07	26.676
367.43	26.218
367.79	25.086
368.15	25.889
368.51	27.063
368.87	26.305
369.23	25.263
369.59	25.347
369.95	26.075
370.31	26.160
370.67	25.452
371.03	26.603
371.39	25.884
371.75	27.110
372.11	27.044
372.47	26.392
372.83	26.426
373.19	27.357
373.55	27.868
373.91	26.387
374.27	26.420
374.63	26.501
374.99	26.634
375.35	26.447
375.71	27.752
376.07	26.831
376.42	26.821
376.78	26.601
377.14	27.661
377.50	27.531
377.86	26.528
378.22	27.261
378.58	27.116
378.94	26.326
379.30	27.727
379.66	26.897
380.02	26.084
380.38	27.613
380.74	26.788
381.09	27.006
381.45	28.162
381.81	27.163
382.17	28.008
382.53	26.626
382.89	26.675
383.25	27.514
383.61	27.005
383.97	28.169
384.32	27.847
384.68	28.235
385.04	27.295
385.40	27.145
385.76	27.744
386.12	26.733
386.48	28.280
386.83	27.178
387.19	27.197
387.55	27.135
387.91	26.675
388.27	26.719
388.62	27.163
388.98	27.559
389.34	27.050
389.70	27.223
390.06	26.725
390.42	27.564
390.77	27.319
391.13	27.516
391.49	27.511
391.85	28.554
392.20	27.609
392.56	27.062
392.92	27.268
393.28	27.325
393.64	28.082
393.99	27.754
394.35	27.007
394.71	26.374
395.07	27.809
395.42	27.175
395.78	27.844
396.14	28.287
396.50	27.401
396.85	27.267
397.21	27.582
397.57	28.571
397.92	27.810
398.28	27.500
398.64	28.198
399.00	27.921
399.35	27.396
399.71	27.468
400.07	27.522
400.42	27.676
400.78	26.893
401.14	27.725
401.49	27.358
401.85	27.395
402.21	27.712
402.57	28.095
402.92	28.005
403.28	27.328
403.63	26.962
403.99	28.030
404.35	26.812
404.70	27.501
405.06	27.336
405.42	27.368
405.77	26.018
406.13	26.462
406.49	27.202
406.84	27.415
407.20	27.326
407.55	27.359
407.91	26.490
408.27	27.451
408.62	27.180
408.98	26.925
409.34	26.691
409.69	27.095
410.05	25.894
410.40	25.628
410.76	27.030
411.11	27.307
411.47	27.685
411.83	27.934
412.18	26.733
412.54	26.968
412.89	27.035
413.25	26.387
413.60	26.549
413.96	26.186
414.31	26.422
414.67	26.603
415.03	27.878
415.38	27.391
415.74	27.255
416.09	26.662
416.45	26.653
416.80	26.853
417.16	26.977
417.51	28.431
417.87	26.926
418.22	27.370
418.58	27.214
418.93	27.161
419.29	27.415
419.64	27.450
420.00	28.433
420.35	27.735
420.71	27.611
421.06	28.580
421.42	27.518
421.77	27.192
422.12	28.316
422.48	27.418
422.83	27.392
423.19	28.563
423.54	28.991
423.90	28.051
424.25	28.224
424.61	28.468
424.96	29.023
425.31	29.234
425.67	28.596
426.02	28.744
426.38	30.067
426.73	28.638
427.09	29.657
427.44	29.375
427.79	29.477
428.15	29.443
428.50	30.029
428.85	29.556
429.21	29.884
429.56	30.990
429.92	29.960
430.27	30.259
430.62	29.728
430.98	30.162
431.33	30.203
431.68	30.241
432.04	30.498
432.39	31.111
432.74	30.935
433.10	31.401
433.45	31.434
433.80	31.075
434.16	31.059
434.51	31.178
434.86	31.517
435.22	32.127
435.57	31.457
435.92	31.653
436.28	31.869
436.63	30.921
436.98	31.730
437.34	31.896
437.69	31.097
438.04	31.764
438.39	33.454
438.75	32.829
439.10	32.593
439.45	32.649
439.81	32.108
440.16	32.765
440.51	33.471
440.86	33.083
441.22	32.615
441.57	33.105
441.92	33.095
442.27	32.143
442.63	32.940
442.98	32.957
443.33	33.718
443.68	33.142
444.03	33.202
444.39	33.578
444.74	34.141
445.09	33.059
445.44	33.258
445.79	33.809
446.15	33.954
446.50	33.043
446.85	34.428
447.20	33.197
447.55	34.309
447.91	33.970
448.26	33.687
448.61	33.447
448.96	33.725
449.31	34.160
449.66	34.402
450.02	33.019
450.37	34.029
450.72	33.446
451.07	34.507
451.42	33.891
451.77	34.710
452.12	34.565
452.47	33.816
452.83	35.527
453.18	34.662
453.53	33.893
453.88	35.646
454.23	34.764
454.58	34.804
454.93	35.327
455.28	35.373
455.63	34.951
455.98	36.506
456.34	34.117
456.69	35.460
457.04	35.648
457.39	34.330
457.74	35.322
458.09	34.977
458.44	34.931
458.79	35.314
459.14	35.083
459.49	35.938
459.84	36.369
460.19	35.859
460.54	34.241
460.89	36.099
461.24	35.944
461.59	36.460
461.94	35.964
462.29	35.616
462.64	34.717
462.99	36.011
463.34	35.652
463.69	35.369
464.04	35.091
464.39	35.603
464.74	35.225
465.09	34.756
465.44	35.928
465.79	36.492
466.14	36.709
466.49	35.924
466.84	36.495
467.19	36.783
467.54	35.380
467.89	36.806
468.24	35.748
468.59	35.540
468.94	36.463
469.29	36.647
469.64	36.658
469.99	36.327
470.34	37.141
470.68	36.192
471.03	36.958
471.38	37.014
471.73	37.063
472.08	36.479
472.43	36.165
472.78	37.267
473.13	35.321
473.48	36.631
473.83	36.787
474.17	36.306
474.52	37.596
474.87	37.063
475.22	35.988
475.57	36.722
475.92	38.121
476.27	37.657
476.61	37.070
476.96	36.389
477.31	37.298
477.66	36.303
478.01	37.655
478.36	37.035
478.70	38.227
479.05	38.075
479.40	37.927
479.75	37.513
480.10	36.012
480.45	36.992
480.79	36.624
481.14	37.933
481.49	36.980
481.84	37.402
482.19	37.049
482.53	37.879
482.88	36.877
483.23	37.465
483.58	36.078
483.92	37.888
484.27	36.730
484.62	36.587
484.97	36.633
485.31	35.808
485.66	35.397
486.01	34.871
486.36	35.445
486.70	36.257
487.05	36.244
487.40	36.565
487.75	36.131
488.09	36.010
488.44	37.043
488.79	36.010
489.13	37.277
489.48	37.398
489.83	38.079
490.17	37.745
490.52	38.043
490.87	38.060
491.22	37.833
491.56	37.269
491.91	37.357
492.26	37.877
492.60	37.536
492.95	38.267
493.30	38.018
493.64	37.142
493.99	38.050
494.34	37.619
494.68	38.904
495.03	37.763
495.37	37.807
495.72	38.212
496.07	38.339
496.41	38.768
496.76	38.356
497.11	38.860
497.45	38.745
497.80	39.620
498.14	38.752
498.49	38.674
498.84	37.718
499.18	38.645
499.53	38.042
499.87	38.900
500.22	38.480
500.56	38.019
500.91	37.980
501.26	39.156
501.60	38.276
501.95	40.338
502.29	38.309
502.64	38.614
502.98	39.195
503.33	38.440
503.67	38.075
504.02	38.436
504.36	38.382
504.71	39.362
505.06	38.742
505.40	39.371
505.75	39.278
506.09	40.344
506.44	39.398
506.78	39.538
507.13	39.186
507.47	39.697
507.82	38.926
508.16	39.741
508.51	39.567
508.85	38.872
509.19	39.560
509.54	40.222
509.88	39.734
510.23	38.941
510.57	40.106
510.92	40.494
511.26	39.075
511.61	40.065
511.95	39.386
512.30	39.857
512.64	39.176
512.98	41.254
513.33	40.582
513.67	39.419
514.02	40.213
514.36	39.501
514.70	39.332
515.05	40.766
515.39	40.600
515.74	40.954
516.08	40.519
516.42	40.680
516.77	40.555
517.11	41.133
517.46	41.089
517.80	41.817
518.14	40.700
518.49	40.406
518.83	40.712
519.17	40.971
519.52	40.428
519.86	41.398
520.20	40.954
520.55	39.815
520.89	41.014
521.23	40.537
521.58	40.564
521.92	42.052
522.26	41.968
522.61	41.572
522.95	40.013
523.29	41.630
523.64	40.412
523.98	41.693
524.32	41.358
524.66	40.248
525.01	41.490
525.35	41.302
525.69	42.290
526.04	42.037
526.38	42.775
526.72	40.932
527.06	42.383
527.41	41.650
527.75	40.924
528.09	41.496
528.43	42.033
528.78	41.206
529.12	41.613
529.46	40.915
529.80	41.317
530.15	41.983
530.49	40.686
530.83	42.305
531.17	40.741
531.51	40.790
531.86	40.553
532.20	41.026
532.54	42.045
532.88	40.777
533.22	40.575
533.57	40.862
533.91	40.949
534.25	40.729
534.59	41.099
534.93	40.324
535.27	41.661
535.62	40.857
535.96	39.690
536.30	40.445
536.64	41.368
536.98	41.667
537.32	40.774
537.66	40.597
538.01	40.412
538.35	41.486
538.69	40.307
539.03	40.284
539.37	40.918
539.71	39.893
540.05	40.576
540.39	41.136
540.73	41.672
541.07	42.077
541.42	40.243
541.76	39.734
542.10	41.594
542.44	40.706
542.78	40.299
543.12	41.684
543.46	40.822
543.80	40.602
544.14	41.639
544.48	40.748
544.82	40.122
545.16	41.180
545.50	40.108
545.84	41.307
546.18	41.401
546.52	41.892
546.86	40.313
547.20	42.053
547.54	39.807
547.88	42.070
548.22	39.712
548.56	41.082
548.90	41.442
549.24	39.944
549.58	40.508
549.92	41.060
550.26	41.691
550.60	40.825
550.94	41.314
551.28	41.309
551.62	39.882
551.96	41.317
552.30	40.976
552.64	41.731
552.98	40.855
553.32	40.548
553.66	41.456
554.00	41.436
554.34	40.650
554.68	41.667
555.02	42.692
555.36	41.193
555.69	41.404
556.03	41.333
556.37	41.394
556.71	42.448
557.05	41.537
557.39	41.648
557.73	41.940
558.07	42.427
558.41	40.539
558.75	42.890
559.08	42.101
559.42	42.573
559.76	42.868
560.10	42.133
560.44	42.124
560.78	41.406
561.12	40.511
561.45	41.986
561.79	40.557
562.13	41.585
562.47	41.176
562.81	40.877
563.15	41.777
563.48	41.672
563.82	41.447
564.16	40.568
564.50	40.726
564.84	41.138
565.17	41.048
565.51	40.548
565.85	42.529
566.19	42.490
566.52	41.096
566.86	40.455
567.20	41.404
567.54	42.115
567.88	39.866
568.21	40.101
568.55	39.979
568.89	39.016
569.23	38.408
569.56	37.789
569.90	38.356
570.24	38.331
570.57	38.137
570.91	37.606
571.25	37.549
571.59	37.496
571.92	37.113
572.26	37.268
572.60	37.170
572.93	36.575
573.27	36.921
573.61	36.708
573.95	36.296
574.28	36.484
574.62	36.706
574.96	36.665
575.29	37.043
575.63	37.324
575.97	35.868
576.30	36.996
576.64	36.789
576.98	36.054
577.31	36.734
577.65	36.457
577.98	36.309
578.32	36.287
578.66	36.591
578.99	36.303
579.33	36.498
579.67	36.089
580.00	36.334
580.34	36.130
580.67	36.406
581.01	35.718
581.35	36.040
581.68	35.305
582.02	36.240
582.35	35.921
582.69	36.869
583.02	36.848
583.36	37.035
583.70	36.764
584.03	37.150
584.37	37.023
584.70	37.008
585.04	36.709
585.37	36.181
585.71	36.164
586.04	36.069
586.38	36.300
586.72	36.809
587.05	37.808
587.39	36.848
587.72	36.395
588.06	37.717
588.39	36.599
588.73	37.658
589.06	37.948
589.40	37.650
589.73	38.137
590.07	38.092
590.40	37.417
590.73	37.545
591.07	38.607
591.40	38.908
591.74	38.315
592.07	38.468
592.41	38.217
592.74	38.586
593.08	38.036
593.41	38.191
593.75	37.191
594.08	38.102
594.41	38.262
594.75	38.128
595.08	37.256
595.42	38.042
595.75	37.854
596.09	37.796
596.42	38.748
596.75	38.422
597.09	39.270
597.42	37.625
597.75	37.644
598.09	39.132
598.42	38.445
598.76	37.998
599.09	37.490
599.42	37.985
599.76	38.543
600.09	38.397
600.42	38.435
600.76	37.966
601.09	37.714
601.42	37.911
601.76	37.461
602.09	38.446
602.42	37.819
602.76	38.139
603.09	39.032
603.42	38.638
603.76	38.692
604.09	37.926
604.42	38.135
604.76	37.898
605.09	38.382
605.42	39.317
605.75	38.853
606.09	37.900
606.42	37.788
606.75	37.398
607.09	39.171
607.42	38.204
607.75	37.616
608.08	40.352
608.42	38.411
608.75	38.318
609.08	39.162
609.41	38.864
609.75	38.079
610.08	39.216
610.41	39.711
610.74	39.990
611.07	40.213
611.41	38.275
611.74	39.794
612.07	40.226
612.40	39.712
612.73	39.149
613.07	39.185
613.40	39.135
613.73	39.401
614.06	39.374
614.39	40.248
614.72	39.888
615.06	39.674
615.39	38.416
615.72	39.870
616.05	39.426
616.38	39.814
616.71	39.459
617.05	39.686
617.38	40.991
617.71	37.899
618.04	39.752
618.37	41.258
618.70	40.743
619.03	40.352
619.36	41.720
619.69	41.852
620.03	39.945
620.36	40.788
620.69	41.062
621.02	42.085
621.35	41.774
621.68	41.230
622.01	41.828
622.34	40.373
622.67	40.703
623.00	42.234
623.33	42.090
623.66	40.842
623.99	41.353
624.32	41.890
624.65	41.280
624.99	40.851
625.32	40.644
625.65	41.647
625.98	41.471
626.31	42.333
626.64	42.259
626.97	42.894
627.30	42.383
627.63	41.019
627.96	42.472
628.29	42.739
628.62	41.738
628.95	44.094
629.28	42.575
629.61	43.180
629.94	43.289
630.26	45.726
630.59	44.422
630.92	44.044
631.25	44.960
631.58	43.704
631.91	42.979
632.24	45.556
632.57	44.333
632.90	44.483
633.23	43.808
633.56	44.327
633.89	45.873
634.22	44.628
634.55	44.111
634.88	45.345
635.20	43.571
635.53	45.547
635.86	45.592
636.19	43.590
636.52	44.325
636.85	43.803
637.18	43.125
637.51	45.477
637.83	44.874
638.16	43.421
638.49	45.931
638.82	45.174
639.15	45.266
639.48	44.877
639.81	46.335
640.13	43.919
640.46	44.444
640.79	45.098
641.12	46.121
641.45	44.907
641.77	46.407
642.10	44.260
642.43	44.765
642.76	45.039
643.09	46.032
643.41	47.937
643.74	47.059
644.07	46.958
644.40	45.867
644.73	46.370
645.05	45.910
645.38	47.020
645.71	47.079
646.04	49.244
646.36	46.248
646.69	47.405
647.02	48.556
647.35	45.848
647.67	47.080
648.00	48.330
648.33	48.735
648.66	45.161
648.98	44.904
649.31	42.000
649.64	46.094
649.96	45.526
650.29	43.115
650.62	47.676
650.94	44.519
651.27	46.620
651.60	46.540
651.92	48.116
652.25	44.741
652.58	46.337
652.90	43.660
653.23	46.935
653.56	45.819
653.88	45.574
654.21	47.651
654.54	45.183
654.86	45.907
655.19	43.266
655.52	40.590
655.84	36.586
656.17	38.708
656.49	52.286
656.82	54.075
657.15	40.655
657.47	30.306
657.80	23.315
658.13	26.514
658.45	36.194
658.78	35.409
659.10	35.716
659.43	36.160
659.75	37.175
660.08	37.448
660.41	38.276
660.73	40.924
661.06	42.319
661.38	47.857
661.71	47.992
662.03	45.766
662.36	47.761
662.68	45.148
663.01	47.771
663.33	48.980
663.66	46.567
663.98	46.205
664.31	50.783
664.63	48.451
664.96	46.204
665.28	46.421
665.61	47.780
665.93	46.914
666.26	47.773
666.58	45.322
666.91	45.212
667.23	47.588
667.56	44.671
667.88	50.000
668.21	47.926
668.53	46.028
668.86	46.882
669.18	46.119
669.50	49.065
669.83	47.202
670.15	45.964
670.48	47.664
670.80	46.925
671.13	45.824
671.45	43.018
671.77	45.182
672.10	46.943
672.42	45.387
672.75	45.636
673.07	44.144
673.39	45.902
673.72	45.472
674.04	46.921
674.37	40.412
674.69	46.721
675.01	41.915
675.34	46.638
675.66	47.516
675.98	44.493
676.31	49.774
676.63	47.586
676.95	45.133
677.28	45.244
677.60	47.511
677.92	47.797
678.25	47.921
678.57	44.650
678.89	44.444
679.22	45.493
679.54	41.815
679.86	42.800
680.18	44.677
680.51	42.272
680.83	44.762
681.15	44.123
681.48	46.856
681.80	42.540
682.12	44.266
682.44	43.222
682.77	43.723
683.09	45.912
683.41	45.354
683.73	46.119
684.06	44.516
684.38	42.469
684.70	43.621
685.02	45.276
685.34	43.860
685.67	42.992
685.99	41.966
686.31	44.704
686.63	41.489
686.96	42.329
687.28	42.582
687.60	42.383
687.92	42.607
688.24	44.685
688.56	44.489
688.89	43.376
689.21	42.670
689.53	47.586
689.85	41.871
690.17	47.085
690.49	42.032
690.82	44.819
691.14	46.698
691.46	45.011
691.78	44.053
692.10	42.373
692.42	43.333
692.74	44.206
693.06	42.697
693.39	41.611
693.71	44.018
694.03	45.356
694.35	43.115
694.67	45.390
694.99	39.898
695.31	42.602
695.63	40.816
695.95	45.409
696.27	46.633
696.59	44.920
696.91	44.663
697.23	44.531
697.56	39.904
697.88	42.793
698.20	41.542
698.52	42.152
698.84	45.146
699.16	40.476
699.48	43.250
699.80	41.855
700.12	46.096
700.44	42.737
700.76	45.773
701.08	44.477
701.40	41.692
701.72	46.914
702.04	46.795
702.36	48.494
702.68	41.317
703.00	44.928
703.32	41.261
703.64	47.059
703.96	45.930
704.28	45.266
704.60	44.937
704.91	42.540
705.23	49.515
705.55	44.932
705.87	45.051
706.19	42.361
706.51	48.264
706.83	46.230
707.15	46.178
707.47	42.975
707.79	42.526
708.11	39.186
708.43	43.641
708.74	40.000
709.06	40.669
709.38	44.253
709.70	42.812
710.02	45.092
710.34	46.535
710.66	46.032
710.98	43.533
711.29	40.000
711.61	44.728
711.93	40.656
712.25	41.196
712.57	44.251
712.89	52.518
713.20	43.299
713.52	49.627
713.84	44.840
714.16	44.590
714.48	41.587
714.80	43.385
715.11	39.769
715.43	44.578
715.75	43.614
716.07	40.000
716.39	45.151
716.70	45.645
717.02	46.296
717.34	41.985
717.66	48.963
717.97	49.180
718.29	44.958
718.61	48.413
718.93	42.294
719.24	46.691
719.56	43.774
719.88	39.273
720.20	41.948
720.51	45.489
720.83	44.578
721.15	44.672
721.46	42.745
721.78	45.211
722.10	43.200
722.42	47.934
722.73	43.028
723.05	42.570
723.37	47.451
723.68	39.271
724.00	47.154
724.32	38.272
724.63	40.664
724.95	45.041
725.27	39.912
725.58	43.103
725.90	42.460
726.22	45.387
726.53	40.304
726.85	40.000
727.16	40.226
727.48	41.923
727.80	41.803
728.11	42.437
728.43	41.736
728.74	45.313
729.06	41.667
729.38	38.132
729.69	44.882
730.01	42.520
730.32	43.028
730.64	44.322
730.96	43.657
731.27	36.429
731.59	41.801
731.90	38.957
732.22	41.718
732.53	44.040
732.85	37.584
733.16	39.493
733.48	40.767
733.80	39.502
734.11	38.621
734.43	43.197
734.74	37.685
735.06	40.752
735.37	39.450
735.69	36.129
736.00	38.721
736.32	44.371
736.63	37.241
736.95	37.319
737.26	40.728
737.58	42.446
737.89	41.577
738.21	38.346
738.52	40.385
738.83	44.922
739.15	38.034
739.46	41.532
739.78	41.259
740.09	41.259
740.41	41.259
740.72	40.146
741.04	39.683
741.35	41.558
741.66	46.759
741.98	41.429
742.29	44.131
742.61	44.920
742.92	41.589
743.23	40.351
743.55	38.739
743.86	46.667
744.18	42.381
744.49	42.365
744.80	38.579
745.12	46.907
745.43	43.719
745.74	43.689
746.06	39.512
746.37	40.088
746.68	43.781
747.00	38.743
747.31	41.346
747.62	41.475
747.94	45.852
748.25	43.721
748.56	42.857
748.88	42.391
749.19	37.089
749.50	48.529
749.82	44.000
750.13	48.018
750.44	41.870
750.75	37.600
751.07	42.500
751.38	36.900
751.69	32.061
752.01	40.385
752.32	36.187
752.63	38.077
752.94	44.048
753.26	41.739
753.57	42.411
753.88	40.517
754.19	38.174
754.51	37.500
754.82	40.316
755.13	40.741
755.44	39.669
755.75	41.564
756.07	39.759
756.38	33.203
756.69	41.155
757.00	39.721
757.31	36.913
757.63	41.121
757.94	33.526
758.25	38.663
758.56	40.701
758.87	34.659
759.18	34.000
759.50	38.790
759.81	33.577
760.12	35.811
760.43	38.188
760.74	38.750
761.05	36.236
761.36	39.222
761.67	34.320
761.99	34.516
762.30	44.565
762.61	38.868
762.92	42.152
763.23	36.493
763.54	33.778
763.85	43.460
764.16	35.918
764.47	45.339
764.78	37.453
765.10	41.007
765.41	38.065
765.72	35.849
766.03	32.155
766.34	35.338
766.65	40.081
766.96	36.000
767.27	39.583
767.58	43.023
767.89	41.935
768.20	50.307
768.51	39.344
768.82	37.838
769.13	39.500
769.44	33.772
769.75	41.126
770.06	40.367
770.37	33.333
770.68	36.979
770.99	34.158
771.30	35.922
771.61	39.352
771.92	33.333
772.23	36.449
772.54	37.234
772.85	36.095
773.16	41.463
773.47	43.976
773.78	43.407
774.09	44.000
774.39	41.975
774.70	35.570
775.01	39.130
775.32	40.299
775.63	33.884
775.94	43.609
776.25	40.714
776.56	35.246
776.87	45.133
777.18	48.673
777.48	34.545
777.79	27.826
778.10	41.284
778.41	36.441
778.72	44.628
779.03	35.075
779.34	47.368
779.65	37.255
779.95	38.406
780.26	35.374
780.57	23.276
780.88	39.815
781.19	31.313
781.50	29.600
781.80	33.333
782.11	33.974
782.42	38.554
782.73	32.117
783.04	35.135
783.34	41.667
783.65	35.659
783.96	34.959
784.27	40.171
784.57	37.398
784.88	30.081
785.19	32.456
785.50	24.742
785.81	43.810
786.11	27.451
786.42	32.727
786.73	48.649
787.04	41.584
787.34	45.714
787.65	29.524
787.96	47.059
788.26	40.541
788.57	33.065
788.88	37.500
789.19	33.333
789.49	35.294
789.80	36.752
790.11	36.283
790.41	34.343
790.72	40.566
791.03	27.778
791.33	38.158
791.64	40.860
791.95	32.000
792.25	38.571
792.56	42.683
792.87	32.653
793.17	28.947
793.48	35.135
793.79	25.352
794.09	41.772
794.40	37.234
794.70	25.234
795.01	21.930
795.32	35.455
795.62	34.821
795.93	30.928
796.23	31.868
796.54	32.632
796.85	32.877
797.15	12.500
797.46	42.466
797.76	29.577
798.07	31.250
798.37	36.765
798.68	40.000
798.99	32.857
799.29	31.579
799.60	25.000
799.90	22.222
800.21	28.125
800.51	23.810
800.82	27.869
801.12	28.070
801.43	21.127
801.73	37.288
802.04	44.262
802.34	45.455
802.65	11.538
802.95	35.185
803.26	12.500
803.56	28.846
803.87	21.053
804.17	35.484
804.48	30.769
804.78	17.949
805.09	65.116
805.39	34.375
805.70	26.415
806.00	38.596
806.30	32.432
806.61	44.118
806.91	35.802
807.22	32.000
807.52	34.328
807.83	11.290
808.13	30.159
808.43	1.818
808.74	37.879
809.04	39.623
809.35	42.466
809.65	36.842
809.95	36.765
810.26	27.451
810.56	42.000
810.86	28.571
811.17	28.571
811.47	9.615
811.77	0.000
812.08	7.895
812.38	16.667
812.69	32.609
812.99	22.581
813.29	9.524
813.59	-62.963
813.90	8.511
814.20	9.302
814.50	25.000
814.81	30.000
815.11	46.341
815.41	33.333
815.72	40.000
816.02	16.667
816.32	30.769
816.62	40.541
816.93	-29.412
817.23	17.391
817.53	35.294
817.84	55.882
818.14	-18.750
818.44	-6.897
818.74	41.935
819.04	48.148
819.35	40.000
819.65	24.000
819.95	43.333
820.25	-8.000
820.56	23.684
820.86	-2.500
821.16	6.383
821.46	29.310
821.76	38.462
822.07	12.500
822.37	11.628
822.67	23.333
822.97	10.811
823.27	24.324
823.57	32.000
823.88	27.027
824.18	-14.286
824.48	7.692
824.78	-30.769
825.08	26.087
825.38	8.333
825.69	-4.167
825.99	65.000
826.29	2.703
826.59	20.588
826.89	20.000
827.19	20.000
827.49	10.526
827.79	-3.125
828.09	-3.333
828.39	56.522
828.70	44.828
829.00	-27.586
829.30	5.556
829.60	53.125
829.90	50.000
830.20	-15.385
830.50	4.762
830.80	14.286
831.10	33.333
831.40	-4.762
831.70	44.118
832.00	8.333
832.30	0.000
832.60	12.500
832.90	-33.333
833.20	-35.294
833.50	-20.000
833.80	26.667
834.10	0.000
834.40	-12.500
834.70	11.111
835.00	23.077
835.30	-16.667
835.60	20.690
835.90	-33.333
836.20	18.182
836.50	-58.333
836.80	57.143
837.10	68.571
837.40	35.294
837.70	54.545
838.00	25.000
838.30	25.000
838.60	19.048
838.90	15.000
839.19	8.696
839.49	21.739
839.79	-27.778
840.09	26.087
840.39	-4.545
840.69	0.000
840.99	-26.316
841.29	-50.000
841.59	14.286
841.88	-22.222
842.18	16.667
842.48	-5.882
842.78	-13.793
843.08	28.571
843.38	0.000
843.68	-133.333
843.97	-30.769
844.27	-63.636
844.57	-40.000
844.87	28.000
845.17	-100.000
845.47	7.143
845.76	-11.111
846.06	0.000
846.36	0.000
846.66	-60.000
846.96	-5.263
847.25	-12.500
847.55	-8.333
847.85	0.000
848.15	-50.000
848.44	65.385
848.74	42.105
849.04	66.667
849.34	-22.222
849.63	-47.368
849.93	0.000
850.23	15.000
850.53	0.000
850.82	-24.000
851.12	31.579
851.42	-300.000
851.71	42.857
852.01	-41.667
852.31	-23.529
852.61	-33.333
852.90	23.810
853.20	150.000
853.50	-5.556
853.79	21.053
854.09	40.000
854.39	14.286
854.68	17.391
854.98	-200.000
855.28	-10.345
855.57	0.000
855.87	25.000
856.17	-33.333
856.46	6.897
856.76	-20.000
857.05	-76.471
857.35	-46.154
857.65	-72.727
857.94	3.704
858.24	7.143
858.53	42.857
858.83	-8.333
859.13	-88.889
859.42	47.619
859.72	37.500
860.01	-33.333
860.31	-75.000
860.60	-160.000
860.90	-33.333
861.20	-25.000
861.49	-71.429
861.79	47.059
862.08	-500.000
862.38	0.000
862.67	15.385
862.97	35.294
863.26	30.000
863.56	0.000
863.85	700.000
864.15	-70.000
864.44	7.692
864.74	45.000
865.03	-175.000
865.33	-133.333
865.62	29.412
865.92	-375.000
866.21	-92.857
866.51	-83.333
866.80	-500.000
867.10	-66.667
867.39	11.765
867.69	65.217
867.98	-14.286
868.27	-220.000
868.57	-118.750
868.86	-45.455
869.16	58.824
869.45	-83.333
869.75	-71.429
870.04	700.000
870.33	-100.000
870.63	-60.000
870.92	-22.222
871.22	-16.667
871.51	-81.818
871.80	50.000
872.10	40.000
>>>>>End Processed Spectral Data<<<<<
