SpectraSuite Data File
++++++++++++++++++++++++++++++++++++
Date: Sat May 16 11:23:07 PDT 2015
User: schluterlab
Dark Spectrum Present: Yes
Reference Spectrum Present: Yes
Number of Sampled Component Spectra: 1
Spectrometers: USB2E3373
Integration Time (usec): 3000 (USB2E3373)
Spectra Averaged: 3 (USB2E3373)
Boxcar Smoothing: 0 (USB2E3373)
Correct for Electrical Dark: No (USB2E3373)
Strobe/Lamp Enabled: No (USB2E3373)
Correct for Detector Non-linearity: No (USB2E3373)
Correct for Stray Light: No (USB2E3373)
Number of Pixels in Processed Spectrum: 2048
>>>>>Begin Processed Spectral Data<<<<<
178.53	0.000
178.91	93.333
179.29	533.333
179.67	-700.000
180.04	-76.923
180.42	600.000
180.80	400.000
181.18	425.000
181.56	-150.000
181.94	1000.000
182.31	550.000
182.69	-53.846
183.07	-566.667
183.45	1000.000
183.83	433.333
184.20	-185.714
184.58	-137.500
184.96	-225.000
185.34	93.750
185.72	-275.000
186.09	183.333
186.47	-275.000
186.85	-162.500
187.23	-87.500
187.61	-175.000
187.98	-312.500
188.36	-162.500
188.74	-150.000
189.12	1800.000
189.49	428.571
189.87	0.000
190.25	225.000
190.63	0.000
191.00	-200.000
191.38	260.000
191.76	46.667
192.14	440.000
192.51	-340.000
192.89	-366.667
193.27	0.000
193.65	-133.333
194.02	-71.429
194.40	566.667
194.78	-180.000
195.15	-1600.000
195.53	-136.364
195.91	-333.333
196.29	240.000
196.66	-800.000
197.04	2400.000
197.42	25.000
197.79	6.667
198.17	33.333
198.55	-500.000
198.92	-2400.000
199.30	162.500
199.68	-350.000
200.05	-66.667
200.43	-177.778
200.81	-2300.000
201.18	-133.333
201.56	100.000
201.94	13.333
202.31	4.545
202.69	-60.000
203.07	-30.000
203.44	866.667
203.82	-466.667
204.19	-450.000
204.57	-325.000
204.95	-2500.000
205.32	-56.250
205.70	1300.000
206.08	-1400.000
206.45	-27.778
206.83	-600.000
207.20	150.000
207.58	-633.333
207.96	-366.667
208.33	-212.500
208.71	-44.444
209.08	240.000
209.46	-257.143
209.84	1200.000
210.21	0.000
210.59	0.000
210.96	300.000
211.34	-366.667
211.71	-133.333
212.09	375.000
212.46	900.000
212.84	-1800.000
213.22	433.333
213.59	125.000
213.97	-11.111
214.34	230.000
214.72	-160.000
215.09	-433.333
215.47	-133.333
215.84	-90.000
216.22	-80.000
216.59	-20.000
216.97	-550.000
217.34	750.000
217.72	-100.000
218.09	-266.667
218.47	-285.714
218.84	442.857
219.22	-42.857
219.59	0.000
219.97	157.143
220.34	350.000
220.72	212.500
221.09	-38.462
221.47	0.000
221.84	333.333
222.22	-350.000
222.59	400.000
222.97	-150.000
223.34	-650.000
223.72	-566.667
224.09	-114.286
224.46	-425.000
224.84	-14.286
225.21	-114.286
225.59	-100.000
225.96	-137.500
226.34	-200.000
226.71	-244.444
227.08	-10.000
227.46	3100.000
227.83	-228.571
228.21	-162.500
228.58	600.000
228.95	-56.250
229.33	-1800.000
229.70	-260.000
230.08	-800.000
230.45	-33.333
230.82	-83.333
231.20	-500.000
231.57	-350.000
231.95	1000.000
232.32	-9.524
232.69	-111.111
233.07	-157.143
233.44	-1000.000
233.81	-53.333
234.19	-133.333
234.56	-31.250
234.93	-9.375
235.31	-157.143
235.68	-121.429
236.05	0.000
236.43	-113.636
236.80	3.226
237.17	-12.500
237.55	-85.714
237.92	-63.636
238.29	-20.000
238.67	0.000
239.04	-27.778
239.41	-22.581
239.79	-51.282
240.16	-33.333
240.53	-21.818
240.91	-30.769
241.28	0.000
241.65	-9.231
242.02	-1.639
242.40	-8.197
242.77	-6.061
243.14	-13.559
243.51	-15.714
243.89	-10.127
244.26	-6.742
244.63	5.263
245.00	-1.053
245.38	2.542
245.75	-1.770
246.12	10.400
246.49	3.937
246.87	-2.439
247.24	-4.237
247.61	-15.254
247.98	6.338
248.36	-5.594
248.73	-2.532
249.10	1.274
249.47	-1.754
249.84	2.273
250.22	-8.333
250.59	7.910
250.96	1.571
251.33	9.953
251.70	4.808
252.08	0.474
252.45	-3.318
252.82	0.000
253.19	3.404
253.56	2.016
253.94	5.485
254.31	0.000
254.68	6.911
255.05	5.645
255.42	5.556
255.79	0.000
256.16	5.490
256.54	7.353
256.91	2.273
257.28	2.930
257.65	2.482
258.02	4.403
258.39	4.013
258.76	2.703
259.14	4.938
259.51	3.607
259.88	6.402
260.25	3.416
260.62	2.572
260.99	2.374
261.36	3.354
261.73	7.514
262.10	7.222
262.47	5.983
262.85	6.857
263.22	4.871
263.59	2.154
263.96	5.507
264.33	7.859
264.70	6.077
265.07	6.319
265.44	3.101
265.81	8.527
266.18	2.278
266.55	4.167
266.92	6.549
267.29	4.600
267.66	5.926
268.03	7.246
268.40	5.164
268.77	5.301
269.14	7.657
269.51	6.207
269.88	1.606
270.25	3.497
270.62	5.950
270.99	3.829
271.36	6.527
271.73	5.605
272.10	7.094
272.47	3.778
272.84	7.778
273.21	6.422
273.58	6.154
273.95	4.386
274.32	7.240
274.69	6.783
275.06	6.748
275.43	2.455
275.80	6.721
276.17	4.603
276.54	5.703
276.91	4.527
277.28	4.462
277.65	5.165
278.02	7.098
278.39	6.876
278.76	5.378
279.13	7.905
279.50	6.561
279.87	6.977
280.23	5.668
280.60	4.970
280.97	6.214
281.34	5.996
281.71	5.192
282.08	4.637
282.45	2.648
282.82	4.457
283.19	5.636
283.56	9.707
283.92	6.714
284.29	5.948
284.66	7.014
285.03	7.665
285.40	7.011
285.77	7.368
286.14	4.152
286.51	6.039
286.87	7.078
287.24	6.826
287.61	6.942
287.98	5.373
288.35	4.463
288.72	6.452
289.08	3.729
289.45	5.556
289.82	5.017
290.19	5.911
290.56	5.455
290.93	4.610
291.29	3.728
291.66	5.153
292.03	7.849
292.40	5.271
292.77	5.280
293.13	6.667
293.50	6.835
293.87	6.595
294.24	5.279
294.60	3.788
294.97	5.008
295.34	5.333
295.71	6.250
296.08	4.608
296.44	4.864
296.81	4.131
297.18	5.211
297.55	7.062
297.91	6.974
298.28	5.205
298.65	5.439
299.02	7.086
299.38	6.551
299.75	6.250
300.12	6.282
300.48	6.266
300.85	5.767
301.22	5.433
301.59	5.462
301.95	6.675
302.32	4.172
302.69	5.998
303.05	4.274
303.42	5.875
303.79	6.459
304.15	6.161
304.52	5.484
304.89	6.021
305.25	5.128
305.62	6.463
305.99	7.303
306.35	6.437
306.72	5.239
307.09	6.356
307.45	5.902
307.82	4.804
308.19	6.711
308.55	6.209
308.92	6.015
309.29	5.514
309.65	6.045
310.02	6.263
310.38	6.270
310.75	5.533
311.12	7.025
311.48	6.785
311.85	6.076
312.22	6.797
312.58	7.935
312.95	7.849
313.31	6.593
313.68	6.332
314.05	6.627
314.41	5.936
314.78	4.995
315.14	7.009
315.51	7.497
315.87	9.100
316.24	7.677
316.61	8.829
316.97	8.060
317.34	7.225
317.70	6.957
318.07	7.836
318.43	8.333
318.80	8.263
319.16	7.692
319.53	8.647
319.89	6.491
320.26	7.451
320.62	7.019
320.99	8.756
321.35	6.404
321.72	6.960
322.08	9.001
322.45	7.822
322.81	7.589
323.18	7.973
323.54	8.041
323.91	8.156
324.27	8.365
324.64	7.404
325.00	8.901
325.37	9.050
325.73	9.624
326.10	7.972
326.46	10.070
326.83	9.021
327.19	9.174
327.56	10.221
327.92	9.941
328.29	8.139
328.65	8.727
329.01	9.541
329.38	9.991
329.74	10.623
330.11	10.154
330.47	9.628
330.84	9.808
331.20	9.477
331.56	10.210
331.93	10.124
332.29	10.868
332.66	10.360
333.02	10.045
333.38	10.573
333.75	11.131
334.11	9.422
334.48	9.797
334.84	10.761
335.20	9.486
335.57	10.830
335.93	12.175
336.29	10.363
336.66	10.308
337.02	11.081
337.38	9.804
337.75	11.501
338.11	10.018
338.47	10.320
338.84	11.071
339.20	10.896
339.56	11.408
339.93	11.111
340.29	10.806
340.65	11.538
341.02	10.961
341.38	11.120
341.74	11.516
342.11	11.860
342.47	10.815
342.83	10.579
343.20	10.589
343.56	9.714
343.92	11.770
344.28	10.934
344.65	10.314
345.01	11.008
345.37	12.292
345.73	10.065
346.10	9.894
346.46	11.292
346.82	11.067
347.19	11.011
347.55	10.915
347.91	11.811
348.27	10.660
348.63	12.359
349.00	11.933
349.36	9.133
349.72	11.624
350.08	10.345
350.45	10.402
350.81	11.943
351.17	9.968
351.53	10.263
351.89	11.964
352.26	11.628
352.62	12.596
352.98	10.997
353.34	11.511
353.70	10.656
354.07	12.116
354.43	11.462
354.79	11.094
355.15	11.342
355.51	11.406
355.87	10.909
356.24	11.676
356.60	11.281
356.96	11.701
357.32	11.560
357.68	11.111
358.04	11.701
358.40	12.142
358.77	11.360
359.13	11.171
359.49	11.036
359.85	12.348
360.21	12.100
360.57	11.747
360.93	12.370
361.29	12.407
361.66	10.137
362.02	11.834
362.38	12.913
362.74	12.234
363.10	10.904
363.46	12.749
363.82	12.682
364.18	13.169
364.54	12.723
364.90	12.509
365.26	11.698
365.62	13.115
365.98	13.016
366.35	12.394
366.71	12.403
367.07	12.703
367.43	13.040
367.79	12.715
368.15	12.802
368.51	13.497
368.87	13.599
369.23	12.561
369.59	13.194
369.95	13.601
370.31	13.643
370.67	12.509
371.03	13.338
371.39	12.376
371.75	13.662
372.11	13.056
372.47	13.377
372.83	13.561
373.19	13.643
373.55	14.567
373.91	14.438
374.27	13.689
374.63	14.424
374.99	14.395
375.35	13.122
375.71	14.990
376.07	14.237
376.42	13.510
376.78	14.183
377.14	14.780
377.50	14.894
377.86	14.499
378.22	14.636
378.58	14.577
378.94	14.858
379.30	14.808
379.66	14.572
380.02	14.379
380.38	14.622
380.74	14.947
381.09	14.997
381.45	14.558
381.81	14.338
382.17	15.288
382.53	15.319
382.89	14.773
383.25	16.315
383.61	15.625
383.97	16.228
384.32	15.707
384.68	16.022
385.04	15.821
385.40	16.068
385.76	16.037
386.12	17.052
386.48	16.832
386.83	16.258
387.19	16.856
387.55	16.233
387.91	16.005
388.27	15.501
388.62	16.466
388.98	17.020
389.34	16.401
389.70	16.870
390.06	16.718
390.42	16.923
390.77	16.845
391.13	17.950
391.49	16.968
391.85	17.643
392.20	17.051
392.56	16.860
392.92	17.342
393.28	18.197
393.64	17.559
393.99	18.031
394.35	16.971
394.71	17.727
395.07	17.326
395.42	17.282
395.78	17.222
396.14	17.570
396.50	17.982
396.85	18.075
397.21	17.740
397.57	18.419
397.92	17.740
398.28	17.444
398.64	17.549
399.00	18.989
399.35	17.136
399.71	18.409
400.07	18.925
400.42	18.431
400.78	17.293
401.14	17.964
401.49	17.040
401.85	17.938
402.21	17.640
402.57	18.083
402.92	18.125
403.28	18.076
403.63	17.615
403.99	18.397
404.35	17.995
404.70	19.075
405.06	19.839
405.42	18.512
405.77	17.421
406.13	18.455
406.49	18.814
406.84	18.476
407.20	19.081
407.55	17.606
407.91	17.746
408.27	18.505
408.62	17.919
408.98	18.375
409.34	18.464
409.69	17.454
410.05	18.557
410.40	18.394
410.76	19.265
411.11	19.140
411.47	17.519
411.83	18.704
412.18	18.626
412.54	18.243
412.89	18.591
413.25	17.828
413.60	18.165
413.96	18.608
414.31	19.083
414.67	18.349
415.03	18.823
415.38	18.543
415.74	18.750
416.09	18.798
416.45	18.519
416.80	19.571
417.16	19.003
417.51	18.976
417.87	19.612
418.22	18.584
418.58	19.320
418.93	18.823
419.29	19.072
419.64	19.221
420.00	19.806
420.35	19.219
420.71	18.848
421.06	18.757
421.42	18.384
421.77	19.542
422.12	20.145
422.48	19.081
422.83	19.590
423.19	18.820
423.54	19.769
423.90	18.855
424.25	19.231
424.61	19.903
424.96	19.661
425.31	20.067
425.67	19.427
426.02	19.793
426.38	20.690
426.73	20.281
427.09	20.650
427.44	20.568
427.79	19.651
428.15	20.527
428.50	20.293
428.85	20.444
429.21	20.033
429.56	20.104
429.92	19.990
430.27	20.788
430.62	20.481
430.98	20.230
431.33	20.277
431.68	21.072
432.04	20.537
432.39	20.342
432.74	21.043
433.10	20.878
433.45	20.207
433.80	20.885
434.16	20.688
434.51	20.603
434.86	21.558
435.22	20.601
435.57	20.624
435.92	21.805
436.28	21.484
436.63	21.029
436.98	21.077
437.34	21.500
437.69	21.004
438.04	20.987
438.39	21.600
438.75	21.013
439.10	21.377
439.45	21.304
439.81	21.265
440.16	21.465
440.51	22.412
440.86	21.515
441.22	21.338
441.57	21.105
441.92	21.944
442.27	21.699
442.63	21.888
442.98	21.445
443.33	21.966
443.68	21.522
444.03	22.250
444.39	22.026
444.74	22.577
445.09	21.217
445.44	22.228
445.79	21.673
446.15	22.289
446.50	21.502
446.85	22.319
447.20	21.399
447.55	22.320
447.91	22.572
448.26	22.737
448.61	22.128
448.96	22.241
449.31	22.210
449.66	21.866
450.02	21.440
450.37	22.319
450.72	21.638
451.07	22.690
451.42	21.995
451.77	22.142
452.12	22.288
452.47	22.796
452.83	22.831
453.18	23.150
453.53	22.326
453.88	23.086
454.23	22.551
454.58	23.182
454.93	22.481
455.28	21.734
455.63	22.850
455.98	22.771
456.34	22.363
456.69	22.389
457.04	22.926
457.39	22.309
457.74	22.623
458.09	23.376
458.44	23.152
458.79	22.814
459.14	22.989
459.49	22.972
459.84	23.047
460.19	23.210
460.54	22.989
460.89	22.702
461.24	23.376
461.59	23.623
461.94	23.425
462.29	23.526
462.64	22.859
462.99	24.096
463.34	23.835
463.69	22.901
464.04	23.023
464.39	22.700
464.74	23.168
465.09	22.309
465.44	23.689
465.79	23.632
466.14	23.993
466.49	22.740
466.84	23.649
467.19	24.377
467.54	22.911
467.89	24.353
468.24	24.109
468.59	24.047
468.94	24.309
469.29	23.067
469.64	24.528
469.99	25.051
470.34	24.048
470.68	24.491
471.03	25.327
471.38	23.125
471.73	24.406
472.08	24.297
472.43	25.290
472.78	24.200
473.13	24.453
473.48	24.633
473.83	24.132
474.17	25.223
474.52	25.448
474.87	25.117
475.22	24.484
475.57	23.389
475.92	25.000
476.27	25.086
476.61	24.563
476.96	24.762
477.31	25.081
477.66	25.069
478.01	25.770
478.36	24.935
478.70	24.987
479.05	25.041
479.40	25.699
479.75	25.280
480.10	25.397
480.45	25.145
480.79	25.321
481.14	25.088
481.49	25.557
481.84	24.873
482.19	25.628
482.53	25.473
482.88	25.771
483.23	24.883
483.58	26.549
483.92	24.940
484.27	24.457
484.62	25.529
484.97	25.370
485.31	23.808
485.66	23.636
486.01	23.529
486.36	24.110
486.70	24.466
487.05	24.301
487.40	25.214
487.75	24.088
488.09	24.089
488.44	24.763
488.79	24.903
489.13	24.914
489.48	25.163
489.83	24.934
490.17	26.121
490.52	26.359
490.87	25.681
491.22	25.876
491.56	25.880
491.91	26.479
492.26	26.651
492.60	26.118
492.95	25.464
493.30	26.298
493.64	26.610
493.99	25.765
494.34	26.429
494.68	26.264
495.03	25.430
495.37	26.155
495.72	25.982
496.07	26.795
496.41	27.050
496.76	26.073
497.11	27.273
497.45	26.964
497.80	27.314
498.14	26.326
498.49	25.565
498.84	25.922
499.18	26.803
499.53	26.449
499.87	26.882
500.22	26.814
500.56	26.463
500.91	26.502
501.26	27.123
501.60	26.240
501.95	28.309
502.29	26.972
502.64	26.403
502.98	26.785
503.33	27.632
503.67	26.868
504.02	26.654
504.36	27.990
504.71	27.001
505.06	26.161
505.40	27.645
505.75	27.541
506.09	26.997
506.44	27.569
506.78	27.998
507.13	27.909
507.47	27.334
507.82	28.240
508.16	27.927
508.51	28.387
508.85	28.675
509.19	28.885
509.54	28.700
509.88	29.043
510.23	27.621
510.57	29.735
510.92	29.431
511.26	28.070
511.61	27.916
511.95	29.472
512.30	29.357
512.64	28.937
512.98	29.593
513.33	30.038
513.67	29.257
514.02	29.362
514.36	29.861
514.70	30.504
515.05	30.017
515.39	29.123
515.74	30.832
516.08	30.663
516.42	30.028
516.77	30.329
517.11	30.263
517.46	31.160
517.80	30.385
518.14	31.280
518.49	30.903
518.83	30.861
519.17	30.965
519.52	30.075
519.86	32.019
520.20	31.112
520.55	31.692
520.89	30.996
521.23	30.525
521.58	30.721
521.92	31.412
522.26	32.063
522.61	31.939
522.95	32.291
523.29	31.160
523.64	31.668
523.98	32.527
524.32	32.307
524.66	30.311
525.01	33.076
525.35	32.668
525.69	30.514
526.04	32.963
526.38	33.864
526.72	32.120
527.06	31.771
527.41	32.211
527.75	30.957
528.09	32.892
528.43	32.000
528.78	31.533
529.12	32.522
529.46	32.088
529.80	32.150
530.15	32.067
530.49	32.083
530.83	33.333
531.17	33.939
531.51	32.351
531.86	32.126
532.20	33.873
532.54	34.291
532.88	31.423
533.22	32.019
533.57	32.572
533.91	31.710
534.25	31.867
534.59	32.230
534.93	31.487
535.27	32.347
535.62	33.120
535.96	32.515
536.30	30.890
536.64	32.205
536.98	33.333
537.32	32.550
537.66	32.722
538.01	32.027
538.35	32.500
538.69	32.353
539.03	33.649
539.37	31.737
539.71	32.955
540.05	32.419
540.39	33.033
540.73	32.343
541.07	33.470
541.42	32.208
541.76	31.628
542.10	32.546
542.44	33.578
542.78	32.157
543.12	33.333
543.46	31.712
543.80	30.970
544.14	31.565
544.48	32.612
544.82	32.882
545.16	32.327
545.50	31.763
545.84	33.032
546.18	32.663
546.52	33.642
546.86	32.764
547.20	33.333
547.54	31.474
547.88	32.183
548.22	31.389
548.56	30.661
548.90	32.075
549.24	33.567
549.58	33.380
549.92	33.428
550.26	33.743
550.60	33.642
550.94	32.774
551.28	33.333
551.62	33.456
551.96	32.562
552.30	32.544
552.64	34.624
552.98	33.146
553.32	33.550
553.66	34.030
554.00	34.399
554.34	31.625
554.68	33.480
555.02	32.851
555.36	31.488
555.69	31.877
556.03	32.561
556.37	32.788
556.71	32.498
557.05	32.964
557.39	34.001
557.73	33.552
558.07	33.459
558.41	34.031
558.75	33.232
559.08	32.451
559.42	33.308
559.76	33.512
560.10	33.706
560.44	34.249
560.78	32.568
561.12	32.988
561.45	33.493
561.79	31.638
562.13	32.328
562.47	32.143
562.81	32.320
563.15	32.750
563.48	33.379
563.82	32.928
564.16	32.928
564.50	32.796
564.84	32.738
565.17	31.897
565.51	32.203
565.85	33.401
566.19	32.872
566.52	32.290
566.86	32.238
567.20	32.385
567.54	32.605
567.88	31.602
568.21	31.152
568.55	31.442
568.89	30.368
569.23	30.819
569.56	30.853
569.90	30.842
570.24	31.229
570.57	29.244
570.91	29.004
571.25	30.026
571.59	30.315
571.92	28.839
572.26	29.329
572.60	29.476
572.93	28.461
573.27	28.415
573.61	28.133
573.95	28.925
574.28	28.457
574.62	29.029
574.96	28.415
575.29	28.557
575.63	28.564
575.97	28.263
576.30	28.419
576.64	28.486
576.98	28.266
577.31	28.462
577.65	28.472
577.98	27.963
578.32	28.099
578.66	28.256
578.99	28.159
579.33	28.561
579.67	28.405
580.00	28.224
580.34	28.082
580.67	27.825
581.01	27.742
581.35	28.319
581.68	27.710
582.02	28.328
582.35	28.178
582.69	28.356
583.02	28.227
583.36	28.646
583.70	28.111
584.03	28.664
584.37	28.985
584.70	28.152
585.04	28.253
585.37	28.162
585.71	27.987
586.04	28.774
586.38	28.094
586.72	28.523
587.05	28.774
587.39	28.899
587.72	28.856
588.06	28.308
588.39	28.681
588.73	28.877
589.06	29.412
589.40	29.921
589.73	29.037
590.07	28.878
590.40	29.742
590.73	29.068
591.07	29.918
591.40	31.109
591.74	29.670
592.07	30.225
592.41	30.106
592.74	30.246
593.08	29.488
593.41	28.750
593.75	29.212
594.08	29.691
594.41	30.055
594.75	29.709
595.08	30.150
595.42	29.371
595.75	28.997
596.09	29.569
596.42	30.155
596.75	28.935
597.09	29.920
597.42	29.943
597.75	29.805
598.09	29.417
598.42	30.358
598.76	29.485
599.09	29.084
599.42	29.450
599.76	29.407
600.09	29.656
600.42	30.801
600.76	30.282
601.09	28.978
601.42	28.967
601.76	30.218
602.09	29.325
602.42	29.342
602.76	29.165
603.09	29.476
603.42	29.936
603.76	29.517
604.09	30.036
604.42	29.392
604.76	29.743
605.09	30.154
605.42	30.142
605.75	30.056
606.09	29.846
606.42	30.876
606.75	29.970
607.09	29.951
607.42	29.930
607.75	30.949
608.08	31.089
608.42	30.132
608.75	30.093
609.08	30.102
609.41	30.344
609.75	30.132
610.08	30.392
610.41	30.265
610.74	30.609
611.07	30.832
611.41	30.308
611.74	31.003
612.07	31.847
612.40	30.757
612.73	30.318
613.07	30.765
613.40	31.801
613.73	31.553
614.06	30.038
614.39	31.962
614.72	31.285
615.06	30.870
615.39	30.385
615.72	30.853
616.05	29.542
616.38	31.457
616.71	31.171
617.05	31.906
617.38	31.455
617.71	31.081
618.04	32.236
618.37	31.635
618.70	33.312
619.03	30.873
619.36	32.840
619.69	32.950
620.03	31.818
620.36	31.927
620.69	32.304
621.02	33.562
621.35	32.984
621.68	32.869
622.01	32.524
622.34	34.161
622.67	33.281
623.00	32.441
623.33	31.343
623.66	31.388
623.99	32.556
624.32	32.812
624.65	32.450
624.99	32.039
625.32	32.260
625.65	32.789
625.98	33.099
626.31	32.871
626.64	32.887
626.97	33.048
627.30	33.191
627.63	31.779
627.96	32.724
628.29	33.364
628.62	35.530
628.95	34.941
629.28	32.331
629.61	32.777
629.94	33.270
630.26	36.083
630.59	33.769
630.92	34.134
631.25	34.375
631.58	35.979
631.91	33.830
632.24	33.778
632.57	36.778
632.90	36.322
633.23	35.397
633.56	33.918
633.89	35.259
634.22	35.065
634.55	35.457
634.88	37.001
635.20	34.831
635.53	35.496
635.86	35.264
636.19	34.432
636.52	34.648
636.85	32.852
637.18	33.750
637.51	36.555
637.83	37.550
638.16	36.711
638.49	34.897
638.82	36.165
639.15	36.316
639.48	35.279
639.81	36.653
640.13	34.730
640.46	35.755
640.79	36.134
641.12	37.941
641.45	36.872
641.77	38.623
642.10	36.858
642.43	36.115
642.76	36.063
643.09	36.984
643.41	38.413
643.74	39.269
644.07	36.193
644.40	38.250
644.73	38.284
645.05	38.230
645.38	39.073
645.71	39.347
646.04	39.328
646.36	37.173
646.69	38.408
647.02	40.253
647.35	39.711
647.67	41.058
648.00	40.773
648.33	38.111
648.66	34.516
648.98	36.624
649.31	35.231
649.64	36.094
649.96	36.578
650.29	37.213
650.62	37.177
650.94	38.111
651.27	37.435
651.60	37.024
651.92	39.212
652.25	35.893
652.58	35.945
652.90	36.437
653.23	38.710
653.56	36.622
653.88	35.410
654.21	39.597
654.54	38.870
654.86	37.079
655.19	34.527
655.52	32.502
655.84	28.481
656.17	30.346
656.49	40.642
656.82	41.825
657.15	31.511
657.47	23.380
657.80	17.827
658.13	20.009
658.45	27.725
658.78	27.143
659.10	26.974
659.43	26.730
659.75	27.026
660.08	27.812
660.41	30.022
660.73	32.123
661.06	34.638
661.38	37.857
661.71	38.241
662.03	39.516
662.36	38.380
662.68	39.030
663.01	37.580
663.33	37.642
663.66	39.056
663.98	35.491
664.31	38.702
664.63	40.044
664.96	39.913
665.28	40.564
665.61	36.575
665.93	36.420
666.26	40.486
666.58	39.293
666.91	42.762
667.23	39.474
667.56	38.095
667.88	38.462
668.21	38.940
668.53	39.252
668.86	39.030
669.18	38.584
669.50	39.019
669.83	40.146
670.15	37.892
670.48	38.318
670.80	37.813
671.13	37.020
671.45	38.514
671.77	38.330
672.10	38.659
672.42	34.317
672.75	36.364
673.07	31.351
673.39	35.337
673.72	38.976
674.04	32.484
674.37	37.113
674.69	37.910
675.01	35.745
675.34	36.009
675.66	39.309
675.98	37.885
676.31	38.688
676.63	40.230
676.95	36.283
677.28	38.051
677.60	38.914
677.92	35.903
678.25	39.387
678.57	39.712
678.89	34.382
679.22	37.945
679.54	38.856
679.86	35.600
680.18	39.163
680.51	35.940
680.83	36.381
681.15	35.838
681.48	37.525
681.80	36.089
682.12	36.016
682.44	36.739
682.77	35.931
683.09	37.736
683.41	38.496
683.73	35.160
684.06	37.419
684.38	36.192
684.70	36.420
685.02	35.630
685.34	35.673
685.67	35.606
685.99	35.350
686.31	36.804
686.63	35.993
686.96	34.011
687.28	34.489
687.60	37.305
687.92	34.047
688.24	36.811
688.56	33.667
688.89	35.470
689.21	36.105
689.53	37.701
689.85	37.639
690.17	36.996
690.49	37.413
690.82	35.663
691.14	33.962
691.46	37.029
691.78	36.784
692.10	34.746
692.42	33.111
692.74	34.979
693.06	35.506
693.39	36.465
693.71	36.117
694.03	36.933
694.35	35.892
694.67	35.697
694.99	34.527
695.31	37.755
695.63	34.949
695.95	40.199
696.27	36.160
696.59	40.107
696.91	40.449
697.23	37.500
697.56	33.894
697.88	35.586
698.20	33.619
698.52	33.184
698.84	37.379
699.16	34.762
699.48	36.750
699.80	38.346
700.12	36.524
700.44	34.078
700.76	39.359
701.08	36.337
701.40	32.326
701.72	39.815
702.04	41.026
702.36	38.253
702.68	35.030
703.00	37.681
703.32	35.530
703.64	42.059
703.96	37.791
704.28	35.503
704.60	35.127
704.91	34.921
705.23	41.748
705.55	39.527
705.87	38.908
706.19	35.417
706.51	38.889
706.83	40.328
707.15	36.624
707.47	35.813
707.79	36.082
708.11	32.570
708.43	33.666
708.74	36.883
709.06	35.376
709.38	35.920
709.70	37.500
710.02	39.264
710.34	35.974
710.66	37.460
710.98	34.385
711.29	33.871
711.61	34.824
711.93	34.754
712.25	37.209
712.57	32.753
712.89	38.129
713.20	42.955
713.52	36.194
713.84	33.452
714.16	34.754
714.48	38.730
714.80	36.615
715.11	35.159
715.43	35.843
715.75	42.056
716.07	33.115
716.39	34.783
716.70	36.237
717.02	37.778
717.34	34.351
717.66	38.174
717.97	37.705
718.29	39.076
718.61	40.476
718.93	35.484
719.24	30.515
719.56	33.962
719.88	41.455
720.20	35.955
720.51	37.218
720.83	34.940
721.15	31.557
721.46	37.647
721.78	33.333
722.10	37.200
722.42	33.058
722.73	32.669
723.05	35.743
723.37	35.294
723.68	38.462
724.00	39.024
724.32	39.506
724.63	36.100
724.95	38.430
725.27	35.526
725.58	31.897
725.90	32.937
726.22	37.638
726.53	40.304
726.85	30.980
727.16	36.842
727.48	31.538
727.80	36.475
728.11	36.555
728.43	33.058
728.74	39.063
729.06	35.985
729.38	29.572
729.69	27.953
730.01	34.252
730.32	34.661
730.64	33.333
730.96	33.582
731.27	34.286
731.59	31.833
731.90	30.368
732.22	30.061
732.53	37.417
732.85	34.228
733.16	37.681
733.48	36.934
733.80	30.249
734.11	34.483
734.43	29.932
734.74	34.125
735.06	33.856
735.37	33.333
735.69	27.419
736.00	31.313
736.32	34.106
736.63	29.655
736.95	35.145
737.26	33.113
737.58	35.252
737.89	34.767
738.21	30.075
738.52	32.692
738.83	33.203
739.15	37.179
739.46	34.677
739.78	30.070
740.09	28.671
740.41	33.566
740.72	36.131
741.04	32.143
741.35	34.632
741.66	31.944
741.98	33.810
742.29	38.498
742.61	37.968
742.92	35.514
743.23	32.895
743.55	37.387
743.86	39.111
744.18	31.905
744.49	39.409
744.80	32.995
745.12	41.237
745.43	35.176
745.74	34.466
746.06	33.171
746.37	37.004
746.68	38.308
747.00	34.031
747.31	30.769
747.62	34.101
747.94	34.934
748.25	34.884
748.56	34.762
748.88	35.870
749.19	35.211
749.50	40.196
749.82	36.000
750.13	37.004
750.44	31.707
750.75	34.400
751.07	30.000
751.38	33.210
751.69	29.389
752.01	33.077
752.32	31.907
752.63	31.154
752.94	34.524
753.26	37.826
753.57	36.161
753.88	30.172
754.19	39.004
754.51	33.594
754.82	33.597
755.13	36.626
755.44	38.843
755.75	37.037
756.07	31.325
756.38	25.000
756.69	34.296
757.00	29.268
757.31	31.879
757.63	37.072
757.94	28.613
758.25	30.523
758.56	33.423
758.87	32.670
759.18	32.333
759.50	34.520
759.81	27.372
760.12	32.095
760.43	32.686
760.74	33.750
761.05	35.393
761.36	33.234
761.67	30.769
761.99	30.000
762.30	29.348
762.61	35.472
762.92	31.839
763.23	32.227
763.54	32.444
763.85	35.443
764.16	30.204
764.47	36.017
764.78	30.712
765.10	35.252
765.41	28.387
765.72	33.019
766.03	33.216
766.34	31.203
766.65	32.794
766.96	32.500
767.27	35.937
767.58	29.651
767.89	29.677
768.20	34.969
768.51	32.787
768.82	37.297
769.13	29.500
769.44	31.140
769.75	33.333
770.06	34.404
770.37	33.803
770.68	29.687
770.99	26.733
771.30	29.612
771.61	29.630
771.92	29.870
772.23	34.112
772.54	28.191
772.85	24.852
773.16	35.366
773.47	44.578
773.78	41.758
774.09	32.000
774.39	43.210
774.70	31.544
775.01	29.710
775.32	26.866
775.63	28.099
775.94	38.346
776.25	30.000
776.56	44.262
776.87	22.124
777.18	34.513
777.48	14.545
777.79	26.957
778.10	22.018
778.41	33.898
778.72	25.620
779.03	30.597
779.34	33.083
779.65	28.105
779.95	31.884
780.26	24.490
780.57	31.034
780.88	37.963
781.19	26.263
781.50	23.200
781.80	29.412
782.11	32.692
782.42	33.735
782.73	26.277
783.04	29.054
783.34	37.879
783.65	29.457
783.96	23.577
784.27	36.752
784.57	26.829
784.88	27.642
785.19	31.579
785.50	22.680
785.81	20.000
786.11	24.510
786.42	22.727
786.73	36.937
787.04	34.653
787.34	24.762
787.65	24.762
787.96	14.706
788.26	31.532
788.57	22.581
788.88	22.656
789.19	19.658
789.49	32.773
789.80	23.077
790.11	25.664
790.41	36.364
790.72	32.075
791.03	23.611
791.33	32.895
791.64	37.634
791.95	40.000
792.25	21.429
792.56	23.171
792.87	34.694
793.17	15.789
793.48	16.216
793.79	7.042
794.09	26.582
794.40	38.298
794.70	29.907
795.01	16.667
795.32	26.364
795.62	33.929
795.93	20.619
796.23	25.275
796.54	29.474
796.85	17.808
797.15	13.889
797.46	34.247
797.76	22.535
798.07	31.250
798.37	32.353
798.68	22.857
798.99	25.714
799.29	15.789
799.60	28.333
799.90	20.833
800.21	28.125
800.51	19.048
800.82	21.311
801.12	10.526
801.43	9.859
801.73	25.424
802.04	26.230
802.34	23.636
802.65	0.000
802.95	38.889
803.26	-2.500
803.56	1.923
803.87	0.000
804.17	19.355
804.48	24.615
804.78	-2.564
805.09	41.860
805.39	9.375
805.70	5.660
806.00	38.596
806.30	40.541
806.61	39.706
806.91	17.284
807.22	24.000
807.52	20.896
807.83	35.484
808.13	0.000
808.43	7.273
808.74	25.758
809.04	49.057
809.35	20.548
809.65	36.842
809.95	26.471
810.26	25.490
810.56	20.000
810.86	20.408
811.17	42.857
811.47	9.615
811.77	29.032
812.08	-5.263
812.38	21.429
812.69	17.391
812.99	19.355
813.29	9.524
813.59	-40.741
813.90	29.787
814.20	-9.302
814.50	29.167
814.81	21.667
815.11	36.585
815.41	0.000
815.72	20.000
816.02	-13.889
816.32	51.282
816.62	-16.216
816.93	-11.765
817.23	4.348
817.53	14.706
817.84	5.882
818.14	9.375
818.44	31.034
818.74	-25.806
819.04	0.000
819.35	20.000
819.65	-24.000
819.95	-3.333
820.25	40.000
820.56	7.895
820.86	-7.500
821.16	19.149
821.46	15.517
821.76	0.000
822.07	-7.500
822.37	6.977
822.67	-33.333
822.97	10.811
823.27	8.108
823.57	20.000
823.88	13.514
824.18	-47.619
824.48	23.077
824.78	-84.615
825.08	4.348
825.38	-12.500
825.69	16.667
825.99	-60.000
826.29	-16.216
826.59	-8.824
826.89	32.000
827.19	-17.143
827.49	28.947
827.79	25.000
828.09	13.333
828.39	43.478
828.70	-17.241
829.00	-48.276
829.30	22.222
829.60	53.125
829.90	-11.111
830.20	7.692
830.50	-4.762
830.80	-35.714
831.10	-7.692
831.40	-52.381
831.70	-2.941
832.00	41.667
832.30	-47.368
832.60	-12.500
832.90	-133.333
833.20	-94.118
833.50	-73.333
833.80	-66.667
834.10	-25.000
834.40	20.833
834.70	5.556
835.00	-19.231
835.30	-4.167
835.60	20.690
835.90	-55.556
836.20	-109.091
836.50	-91.667
836.80	-2.857
837.10	65.714
837.40	23.529
837.70	-72.727
838.00	0.000
838.30	-43.750
838.60	-33.333
838.90	-5.000
839.19	-39.130
839.49	8.696
839.79	-50.000
840.09	-26.087
840.39	-4.545
840.69	-50.000
840.99	-78.947
841.29	-100.000
841.59	-50.000
841.88	-22.222
842.18	-20.833
842.48	-29.412
842.78	44.828
843.08	-42.857
843.38	-38.462
843.68	-77.778
843.97	-92.308
844.27	-54.545
844.57	-160.000
844.87	32.000
845.17	-240.000
845.47	0.000
845.76	-222.222
846.06	0.000
846.36	-125.000
846.66	-50.000
846.96	-31.579
847.25	-29.167
847.55	-25.000
847.85	33.333
848.15	-160.000
848.44	26.923
848.74	-26.316
849.04	433.333
849.34	22.222
849.63	-94.737
849.93	0.000
850.23	-5.000
850.53	-14.286
850.82	-4.000
851.12	-52.632
851.42	-300.000
851.71	7.143
852.01	-100.000
852.31	-17.647
852.61	-20.000
852.90	-76.190
853.20	-100.000
853.50	-88.889
853.79	-57.895
854.09	-46.667
854.39	3.571
854.68	0.000
854.98	-100.000
855.28	17.241
855.57	-37.500
855.87	0.000
856.17	-73.333
856.46	-10.345
856.76	6.667
857.05	-58.824
857.35	-130.769
857.65	-100.000
857.94	-59.259
858.24	-121.429
858.53	-57.143
858.83	25.000
859.13	-177.778
859.42	9.524
859.72	-62.500
860.01	-600.000
860.31	-162.500
860.60	-240.000
860.90	-177.778
861.20	-75.000
861.49	-142.857
861.79	11.765
862.08	-650.000
862.38	-108.333
862.67	15.385
862.97	-23.529
863.26	35.000
863.56	-23.529
863.85	700.000
864.15	-80.000
864.44	-138.462
864.74	0.000
865.03	-237.500
865.33	-216.667
865.62	-35.294
865.92	-650.000
866.21	-114.286
866.51	-133.333
866.80	-1000.000
867.10	-400.000
867.39	-29.412
867.69	-8.696
867.98	14.286
868.27	-320.000
868.57	-62.500
868.86	-154.545
869.16	17.647
869.45	-50.000
869.75	-100.000
870.04	2100.000
870.33	16.667
870.63	-340.000
870.92	-77.778
871.22	-41.667
871.51	-54.545
871.80	-50.000
872.10	-80.000
>>>>>End Processed Spectral Data<<<<<
