SpectraSuite Data File
++++++++++++++++++++++++++++++++++++
Date: Sat May 16 11:25:53 PDT 2015
User: schluterlab
Dark Spectrum Present: Yes
Reference Spectrum Present: Yes
Number of Sampled Component Spectra: 1
Spectrometers: USB2E3373
Integration Time (usec): 3000 (USB2E3373)
Spectra Averaged: 3 (USB2E3373)
Boxcar Smoothing: 0 (USB2E3373)
Correct for Electrical Dark: No (USB2E3373)
Strobe/Lamp Enabled: No (USB2E3373)
Correct for Detector Non-linearity: No (USB2E3373)
Correct for Stray Light: No (USB2E3373)
Number of Pixels in Processed Spectrum: 2048
>>>>>Begin Processed Spectral Data<<<<<
178.53	0.000
178.91	166.667
179.29	1033.333
179.67	-700.000
180.04	-69.231
180.42	300.000
180.80	475.000
181.18	500.000
181.56	-125.000
181.94	-0.000
182.31	600.000
182.69	-123.077
183.07	-800.000
183.45	1250.000
183.83	533.333
184.20	-242.857
184.58	-75.000
184.96	-100.000
185.34	68.750
185.72	-450.000
186.09	316.667
186.47	-225.000
186.85	-350.000
187.23	-62.500
187.61	-425.000
187.98	-362.500
188.36	-87.500
188.74	-37.500
189.12	2300.000
189.49	285.714
189.87	-41.667
190.25	400.000
190.63	-21.429
191.00	-100.000
191.38	320.000
191.76	-40.000
192.14	460.000
192.51	-200.000
192.89	-366.667
193.27	0.000
193.65	-66.667
194.02	-200.000
194.40	766.667
194.78	80.000
195.15	-1600.000
195.53	-81.818
195.91	-400.000
196.29	160.000
196.66	-666.667
197.04	1800.000
197.42	-400.000
197.79	46.667
198.17	-166.667
198.55	-650.000
198.92	-2300.000
199.30	325.000
199.68	-850.000
200.05	-177.778
200.43	-155.556
200.81	-800.000
201.18	-91.667
201.56	185.714
201.94	-26.667
202.31	0.000
202.69	0.000
203.07	-70.000
203.44	400.000
203.82	-150.000
204.19	-225.000
204.57	-275.000
204.95	-1800.000
205.32	-50.000
205.70	300.000
206.08	-900.000
206.45	-33.333
206.83	-400.000
207.20	150.000
207.58	-400.000
207.96	-366.667
208.33	-187.500
208.71	-133.333
209.08	200.000
209.46	-200.000
209.84	1100.000
210.21	0.000
210.59	10.000
210.96	600.000
211.34	-100.000
211.71	-233.333
212.09	250.000
212.46	1500.000
212.84	-2200.000
213.22	500.000
213.59	66.667
213.97	-122.222
214.34	120.000
214.72	-60.000
215.09	-366.667
215.47	-300.000
215.84	-100.000
216.22	-30.000
216.59	-26.667
216.97	-375.000
217.34	1000.000
217.72	-171.429
218.09	-316.667
218.47	-257.143
218.84	171.429
219.22	-157.143
219.59	0.000
219.97	200.000
220.34	650.000
220.72	100.000
221.09	-84.615
221.47	0.000
221.84	433.333
222.22	-550.000
222.59	700.000
222.97	-287.500
223.34	-850.000
223.72	-566.667
224.09	-64.286
224.46	-600.000
224.84	-78.571
225.21	-200.000
225.59	-100.000
225.96	-137.500
226.34	-114.286
226.71	-155.556
227.08	-35.000
227.46	900.000
227.83	-200.000
228.21	-75.000
228.58	700.000
228.95	-18.750
229.33	-2900.000
229.70	-420.000
230.08	150.000
230.45	33.333
230.82	-16.667
231.20	-1100.000
231.57	-250.000
231.95	800.000
232.32	4.762
232.69	-100.000
233.07	-257.143
233.44	-1150.000
233.81	-106.667
234.19	-55.556
234.56	-31.250
234.93	21.875
235.31	-342.857
235.68	-142.857
236.05	-94.118
236.43	-81.818
236.80	-45.161
237.17	-25.000
237.55	-61.905
237.92	-27.273
238.29	-28.571
238.67	-17.647
239.04	-55.556
239.41	-54.839
239.79	-58.974
240.16	-33.333
240.53	-38.182
240.91	-17.949
241.28	-3.636
241.65	-18.462
242.02	-6.557
242.40	-29.508
242.77	-34.848
243.14	-23.729
243.51	-25.714
243.89	-20.253
244.26	-11.236
244.63	-7.368
245.00	-8.421
245.38	-6.780
245.75	-3.540
246.12	-4.800
246.49	-3.937
246.87	-13.008
247.24	-11.864
247.61	-14.407
247.98	-7.746
248.36	-7.692
248.73	-7.595
249.10	-8.917
249.47	-5.263
249.84	-3.977
250.22	-11.310
250.59	0.000
250.96	-2.094
251.33	1.896
251.70	-7.212
252.08	0.000
252.45	-6.635
252.82	-3.810
253.19	0.426
253.56	-5.645
253.94	-4.219
254.31	-3.863
254.68	-1.220
255.05	-8.468
255.42	-3.175
255.79	-3.584
256.16	-3.529
256.54	-0.735
256.91	-4.545
257.28	-4.029
257.65	-6.738
258.02	2.201
258.39	-4.013
258.76	-0.676
259.14	-3.395
259.51	0.328
259.88	-2.134
260.25	-0.311
260.62	-2.572
260.99	-2.077
261.36	-2.744
261.73	-0.867
262.10	0.000
262.47	-6.268
262.85	2.571
263.22	-2.292
263.59	-6.462
263.96	0.000
264.33	-0.271
264.70	-1.105
265.07	-4.121
265.44	-1.292
265.81	-2.842
266.18	-5.316
266.55	-1.225
266.92	0.000
267.29	0.242
267.66	-3.951
268.03	-0.966
268.40	-0.939
268.77	-1.205
269.14	-2.088
269.51	1.609
269.88	-2.982
270.25	-1.865
270.62	-0.686
270.99	-2.027
271.36	-3.030
271.73	-0.224
272.10	-0.229
272.47	-2.222
272.84	2.667
273.21	-1.376
273.58	-1.758
273.95	-1.974
274.32	-0.226
274.69	-0.219
275.06	0.204
275.43	-0.446
275.80	1.222
276.17	-3.138
276.54	2.851
276.91	-2.881
277.28	0.609
277.65	-3.719
278.02	-0.835
278.39	0.000
278.76	-2.988
279.13	1.186
279.50	-0.199
279.87	-2.537
280.23	-2.834
280.60	-1.392
280.97	-1.748
281.34	-2.128
281.71	0.192
282.08	-1.815
282.45	-2.851
282.82	-1.357
283.19	0.182
283.56	1.465
283.92	-0.883
284.29	-1.301
284.66	-2.158
285.03	0.713
285.40	-0.923
285.77	0.000
286.14	-1.625
286.51	-1.599
286.87	0.363
287.24	-1.024
287.61	0.165
287.98	-0.173
288.35	-2.314
288.72	-1.358
289.08	-2.712
289.45	-0.337
289.82	-4.152
290.19	-0.821
290.56	-2.479
290.93	-0.477
291.29	-2.269
291.66	-1.449
292.03	-0.471
292.40	0.452
292.77	-1.553
293.13	-1.463
293.50	0.149
293.87	-1.227
294.24	1.508
294.60	-2.273
294.97	1.062
295.34	-1.037
295.71	0.744
296.08	-1.843
296.44	-1.860
296.81	-0.427
297.18	-0.423
297.55	0.424
297.91	-0.139
298.28	-1.781
298.65	-0.697
299.02	0.000
299.38	-1.070
299.75	-1.495
300.12	0.641
300.48	0.000
300.85	-1.835
301.22	0.000
301.59	-3.121
301.95	0.378
302.32	-1.956
302.69	-1.469
303.05	-0.733
303.42	-0.500
303.79	-0.598
304.15	0.000
304.52	-0.117
304.89	0.826
305.25	-0.977
305.62	0.235
305.99	0.589
306.35	0.999
306.72	-0.797
307.09	2.157
307.45	-0.341
307.82	0.223
308.19	-0.671
308.55	-0.871
308.92	0.215
309.29	0.324
309.65	-0.530
310.02	0.864
310.38	-1.622
310.75	2.152
311.12	1.860
311.48	0.939
311.85	0.721
312.22	1.442
312.58	2.442
312.95	2.141
313.31	1.998
313.68	2.613
314.05	3.462
314.41	1.207
314.78	0.899
315.14	3.060
315.51	1.114
315.87	3.679
316.24	1.944
316.61	3.551
316.97	3.781
317.34	4.239
317.70	3.618
318.07	4.664
318.43	4.588
318.80	5.728
319.16	4.128
319.53	4.793
319.89	5.456
320.26	6.667
320.62	5.288
320.99	6.468
321.35	5.714
321.72	6.039
322.08	6.726
322.45	6.931
322.81	8.646
323.18	8.357
323.54	8.410
323.91	9.731
324.27	11.027
324.64	8.775
325.00	10.908
325.37	11.855
325.73	12.423
326.10	11.780
326.46	13.485
326.83	12.681
327.19	13.845
327.56	15.162
327.92	15.633
328.29	16.277
328.65	13.545
329.01	16.608
329.38	18.020
329.74	17.674
330.11	19.130
330.47	18.347
330.84	18.882
331.20	18.773
331.56	20.237
331.93	19.716
332.29	21.826
332.66	21.071
333.02	22.262
333.38	23.387
333.75	23.598
334.11	22.933
334.48	23.213
334.84	23.885
335.20	23.936
335.57	23.917
335.93	25.604
336.29	25.155
336.66	23.877
337.02	25.135
337.38	25.490
337.75	25.637
338.11	25.671
338.47	25.445
338.84	25.771
339.20	25.835
339.56	26.292
339.93	25.750
340.29	26.572
340.65	25.962
341.02	25.717
341.38	26.706
341.74	27.011
342.11	26.621
342.47	27.124
342.83	26.532
343.20	26.302
343.56	25.388
343.92	27.045
344.28	28.680
344.65	26.733
345.01	27.731
345.37	27.492
345.73	27.169
346.10	26.247
346.46	26.726
346.82	27.346
347.19	27.691
347.55	26.966
347.91	26.772
348.27	27.287
348.63	28.110
349.00	27.049
349.36	25.059
349.72	28.503
350.08	28.549
350.45	27.344
350.81	28.344
351.17	28.135
351.53	27.446
351.89	28.133
352.26	28.527
352.62	28.648
352.98	27.927
353.34	28.537
353.70	27.568
354.07	28.482
354.43	28.617
354.79	29.160
355.15	29.073
355.51	28.906
355.87	28.933
356.24	28.912
356.60	29.815
356.96	29.869
357.32	29.295
357.68	30.345
358.04	30.331
358.40	29.466
358.77	29.212
359.13	30.298
359.49	30.159
359.85	29.497
360.21	30.289
360.57	30.045
360.93	30.741
361.29	30.867
361.66	30.793
362.02	30.547
362.38	31.768
362.74	31.941
363.10	30.846
363.46	31.481
363.82	31.195
364.18	31.838
364.54	32.309
364.90	30.678
365.26	31.312
365.62	33.001
365.98	33.784
366.35	33.380
366.71	31.360
367.07	32.463
367.43	34.111
367.79	32.440
368.15	32.930
368.51	34.336
368.87	33.929
369.23	33.895
369.59	33.125
369.95	33.756
370.31	34.810
370.67	33.984
371.03	34.111
371.39	33.734
371.75	34.979
372.11	35.007
372.47	35.647
372.83	34.910
373.19	35.929
373.55	35.609
373.91	35.277
374.27	35.592
374.63	35.473
374.99	37.622
375.35	36.070
375.71	37.137
376.07	36.003
376.42	35.298
376.78	36.863
377.14	37.424
377.50	37.653
377.86	37.906
378.22	37.688
378.58	38.851
378.94	37.485
379.30	38.452
379.66	38.555
380.02	38.919
380.38	39.275
380.74	38.511
381.09	39.484
381.45	40.334
381.81	40.169
382.17	40.602
382.53	39.271
382.89	40.431
383.25	40.157
383.61	40.330
383.97	41.335
384.32	40.738
384.68	41.959
385.04	41.486
385.40	41.509
385.76	41.646
386.12	41.974
386.48	43.193
386.83	42.393
387.19	43.395
387.55	41.793
387.91	41.731
388.27	41.435
388.62	43.089
388.98	42.459
389.34	43.880
389.70	43.727
390.06	42.449
390.42	44.295
390.77	42.082
391.13	44.658
391.49	43.107
391.85	43.204
392.20	43.871
392.56	43.372
392.92	44.096
393.28	44.202
393.64	44.197
393.99	44.862
394.35	44.465
394.71	44.966
395.07	45.009
395.42	43.683
395.78	43.180
396.14	46.044
396.50	44.771
396.85	44.355
397.21	44.289
397.57	45.167
397.92	45.023
398.28	46.056
398.64	44.438
399.00	46.573
399.35	44.814
399.71	45.645
400.07	44.597
400.42	45.012
400.78	45.796
401.14	45.689
401.49	45.165
401.85	45.455
402.21	45.888
402.57	45.328
402.92	47.199
403.28	45.588
403.63	43.619
403.99	45.308
404.35	44.807
404.70	45.758
405.06	45.732
405.42	44.465
405.77	44.287
406.13	45.656
406.49	46.016
406.84	45.291
407.20	46.820
407.55	44.902
407.91	45.013
408.27	45.772
408.62	45.881
408.98	45.543
409.34	45.216
409.69	45.999
410.05	45.361
410.40	46.842
410.76	46.532
411.11	46.633
411.47	46.547
411.83	46.944
412.18	45.668
412.54	45.882
412.89	45.504
413.25	44.982
413.60	45.808
413.96	45.471
414.31	46.300
414.67	45.714
415.03	46.054
415.38	46.129
415.74	47.036
416.09	45.652
416.45	46.164
416.80	45.969
417.16	45.847
417.51	47.669
417.87	47.961
418.22	46.460
418.58	47.754
418.93	46.168
419.29	46.926
419.64	47.236
420.00	48.299
420.35	46.895
420.71	48.079
421.06	47.456
421.42	47.365
421.77	47.795
422.12	48.573
422.48	47.461
422.83	48.918
423.19	47.940
423.54	48.127
423.90	48.352
424.25	47.851
424.61	49.397
424.96	50.380
425.31	49.189
425.67	48.596
426.02	47.791
426.38	48.518
426.73	50.029
427.09	50.429
427.44	49.886
427.79	49.360
428.15	49.431
428.50	49.326
428.85	50.480
429.21	49.474
429.56	50.729
429.92	50.802
430.27	50.000
430.62	50.679
430.98	49.660
431.33	51.441
431.68	50.885
432.04	52.658
432.39	51.624
432.74	51.739
433.10	51.097
433.45	51.410
433.80	51.512
434.16	50.188
434.51	52.384
434.86	52.255
435.22	51.726
435.57	52.509
435.92	52.462
436.28	52.107
436.63	52.063
436.98	53.265
437.34	52.747
437.69	52.217
438.04	52.921
438.39	52.888
438.75	52.445
439.10	52.582
439.45	52.927
439.81	52.952
440.16	52.357
440.51	52.824
440.86	53.846
441.22	51.410
441.57	52.526
441.92	53.095
442.27	53.355
442.63	53.970
442.98	52.201
443.33	52.718
443.68	53.830
444.03	53.291
444.39	53.549
444.74	53.910
445.09	53.015
445.44	53.967
445.79	53.544
446.15	54.491
446.50	52.967
446.85	54.182
447.20	53.830
447.55	53.481
447.91	55.306
448.26	54.078
448.61	52.801
448.96	55.462
449.31	54.171
449.66	53.349
450.02	53.241
450.37	54.551
450.72	53.729
451.07	53.300
451.42	52.850
451.77	54.159
452.12	54.052
452.47	53.841
452.83	54.339
453.18	54.333
453.53	53.172
453.88	54.725
454.23	54.474
454.58	54.568
454.93	54.219
455.28	55.641
455.63	55.098
455.98	55.542
456.34	53.812
456.69	54.722
457.04	53.964
457.39	55.084
457.74	54.460
458.09	54.524
458.44	55.254
458.79	54.148
459.14	54.136
459.49	55.477
459.84	53.401
460.19	53.819
460.54	55.656
460.89	54.540
461.24	54.523
461.59	54.338
461.94	55.824
462.29	53.544
462.64	55.468
462.99	55.489
463.34	54.288
463.69	55.534
464.04	53.427
464.39	54.719
464.74	53.487
465.09	53.999
465.44	54.315
465.79	55.894
466.14	55.178
466.49	55.095
466.84	54.682
467.19	55.175
467.54	52.975
467.89	54.809
468.24	54.869
468.59	55.965
468.94	54.791
469.29	55.361
469.64	55.728
469.99	54.760
470.34	54.977
470.68	55.160
471.03	56.022
471.38	54.861
471.73	57.133
472.08	55.756
472.43	54.247
472.78	55.533
473.13	54.539
473.48	55.137
473.83	55.397
474.17	55.096
474.52	55.499
474.87	54.604
475.22	54.690
475.57	54.278
475.92	54.374
476.27	54.400
476.61	55.437
476.96	56.009
477.31	55.705
477.66	54.621
478.01	55.538
478.36	55.212
478.70	55.473
479.05	55.273
479.40	55.440
479.75	55.963
480.10	54.067
480.45	54.449
480.79	56.269
481.14	55.494
481.49	55.663
481.84	55.340
482.19	55.139
482.53	55.114
482.88	54.627
483.23	54.601
483.58	55.920
483.92	55.805
484.27	55.605
484.62	54.644
484.97	53.858
485.31	54.272
485.66	53.874
486.01	55.165
486.36	55.390
486.70	56.656
487.05	56.142
487.40	55.876
487.75	55.306
488.09	53.860
488.44	54.127
488.79	54.227
489.13	53.633
489.48	55.261
489.83	56.245
490.17	54.506
490.52	56.341
490.87	55.012
491.22	54.134
491.56	55.880
491.91	56.298
492.26	55.613
492.60	55.614
492.95	56.307
493.30	55.788
493.64	54.913
493.99	54.541
494.34	56.190
494.68	56.320
495.03	55.927
495.37	56.047
495.72	55.501
496.07	56.359
496.41	55.489
496.76	55.936
497.11	55.817
497.45	55.795
497.80	55.878
498.14	56.631
498.49	56.404
498.84	55.049
499.18	57.359
499.53	56.503
499.87	54.875
500.22	56.225
500.56	56.328
500.91	55.172
501.26	56.623
501.60	56.379
501.95	56.473
502.29	56.306
502.64	56.200
502.98	55.199
503.33	55.545
503.67	55.125
504.02	56.784
504.36	55.490
504.71	56.383
505.06	55.417
505.40	57.036
505.75	57.876
506.09	56.623
506.44	56.892
506.78	57.652
507.13	55.767
507.47	56.599
507.82	56.944
508.16	57.047
508.51	57.239
508.85	57.402
509.19	55.468
509.54	56.448
509.88	57.181
510.23	57.128
510.57	57.354
510.92	58.271
511.26	56.566
511.61	56.695
511.95	56.519
512.30	57.834
512.64	57.095
512.98	56.876
513.33	56.892
513.67	56.896
514.02	57.103
514.36	57.950
514.70	56.423
515.05	57.747
515.39	56.978
515.74	58.232
516.08	57.349
516.42	56.261
516.77	58.579
517.11	58.066
517.46	59.330
517.80	59.627
518.14	56.703
518.49	58.577
518.83	56.558
519.17	57.726
519.52	57.606
519.86	58.961
520.20	58.130
520.55	58.400
520.89	57.733
521.23	57.692
521.58	57.931
521.92	58.645
522.26	58.159
522.61	57.985
522.95	57.626
523.29	57.429
523.64	57.714
523.98	59.389
524.32	58.580
524.66	58.075
525.01	57.739
525.35	59.343
525.69	58.946
526.04	59.726
526.38	59.071
526.72	57.535
527.06	58.789
527.41	58.746
527.75	58.020
528.09	58.570
528.43	58.164
528.78	57.475
529.12	59.539
529.46	59.343
529.80	59.070
530.15	58.081
530.49	58.150
530.83	58.481
531.17	59.192
531.51	59.143
531.86	57.406
532.20	58.704
532.54	58.757
532.88	59.091
533.22	60.495
533.57	58.159
533.91	58.552
534.25	57.700
534.59	57.651
534.93	57.996
535.27	58.716
535.62	58.824
535.96	58.177
536.30	58.377
536.64	58.566
536.98	60.523
537.32	59.019
537.66	59.199
538.01	59.519
538.35	59.122
538.69	58.757
539.03	60.190
539.37	60.013
539.71	59.039
540.05	58.944
540.39	59.349
540.73	60.401
541.07	59.495
541.42	59.217
541.76	57.409
542.10	60.432
542.44	59.027
542.78	58.955
543.12	59.674
543.46	58.219
543.80	58.796
544.14	57.555
544.48	59.711
544.82	59.811
545.16	59.557
545.50	58.748
545.84	58.275
546.18	59.293
546.52	59.744
546.86	59.330
547.20	60.127
547.54	59.022
547.88	60.186
548.22	59.174
548.56	59.519
548.90	60.445
549.24	58.514
549.58	58.363
549.92	59.293
550.26	59.465
550.60	57.112
550.94	58.905
551.28	59.819
551.62	59.084
551.96	58.900
552.30	59.164
552.64	58.339
552.98	59.776
553.32	60.823
553.66	58.904
554.00	60.768
554.34	58.628
554.68	57.968
555.02	60.709
555.36	58.879
555.69	59.456
556.03	60.491
556.37	59.459
556.71	61.203
557.05	59.867
557.39	60.356
557.73	60.394
558.07	61.417
558.41	58.714
558.75	60.380
559.08	59.455
559.42	60.337
559.76	59.509
560.10	60.925
560.44	61.055
560.78	59.569
561.12	60.248
561.45	59.795
561.79	60.697
562.13	59.467
562.47	60.014
562.81	60.679
563.15	59.692
563.48	60.608
563.82	58.688
564.16	59.838
564.50	60.349
564.84	59.325
565.17	59.416
565.51	58.931
565.85	61.325
566.19	61.528
566.52	60.535
566.86	60.303
567.20	60.291
567.54	60.189
567.88	59.129
568.21	60.962
568.55	59.544
568.89	59.493
569.23	59.324
569.56	57.671
569.90	59.559
570.24	59.263
570.57	58.102
570.91	58.416
571.25	58.495
571.59	58.914
571.92	58.274
572.26	57.549
572.60	58.083
572.93	56.984
573.27	57.530
573.61	57.069
573.95	57.531
574.28	57.613
574.62	59.126
574.96	57.627
575.29	57.546
575.63	57.924
575.97	56.472
576.30	57.084
576.64	57.389
576.98	57.253
577.31	57.068
577.65	58.018
577.98	57.629
578.32	58.724
578.66	57.197
578.99	57.105
579.33	57.900
579.67	57.976
580.00	57.837
580.34	58.121
580.67	57.784
581.01	56.718
581.35	58.174
581.68	57.309
582.02	58.362
582.35	58.357
582.69	59.328
583.02	58.311
583.36	58.413
583.70	58.321
584.03	57.920
584.37	58.512
584.70	58.340
585.04	58.228
585.37	57.327
585.71	57.934
586.04	58.283
586.38	57.364
586.72	57.835
587.05	58.879
587.39	59.191
587.72	58.030
588.06	58.569
588.39	58.844
588.73	58.962
589.06	59.239
589.40	59.498
589.73	59.136
590.07	58.012
590.40	58.118
590.73	59.896
591.07	58.402
591.40	60.009
591.74	59.687
592.07	59.550
592.41	60.085
592.74	59.723
593.08	58.634
593.41	60.362
593.75	58.919
594.08	60.748
594.41	60.776
594.75	59.607
595.08	60.113
595.42	58.996
595.75	59.794
596.09	59.643
596.42	60.352
596.75	59.638
597.09	60.240
597.42	59.494
597.75	59.477
598.09	59.602
598.42	59.258
598.76	59.759
599.09	59.195
599.42	58.670
599.76	59.079
600.09	59.542
600.42	59.780
600.76	59.699
601.09	59.780
601.42	59.121
601.76	58.762
602.09	60.123
602.42	59.053
602.76	58.247
603.09	60.323
603.42	59.911
603.76	60.550
604.09	58.510
604.42	59.450
604.76	60.270
605.09	60.307
605.42	59.796
605.75	59.422
606.09	60.191
606.42	60.452
606.75	58.866
607.09	60.344
607.42	60.387
607.75	60.486
608.08	59.783
608.42	61.353
608.75	58.598
609.08	60.448
609.41	59.940
609.75	59.337
610.08	60.637
610.41	61.205
610.74	60.542
611.07	60.801
611.41	59.052
611.74	59.897
612.07	60.419
612.40	59.968
612.73	59.882
613.07	60.429
613.40	60.810
613.73	60.000
614.06	59.747
614.39	60.936
614.72	59.888
615.06	60.217
615.39	59.794
615.72	60.511
616.05	59.525
616.38	60.302
616.71	60.060
617.05	60.555
617.38	61.176
617.71	60.565
618.04	61.180
618.37	62.138
618.70	60.887
619.03	59.648
619.36	61.099
619.69	61.450
620.03	59.366
620.36	61.533
620.69	62.527
621.02	61.720
621.35	61.290
621.68	61.639
622.01	62.864
622.34	61.413
622.67	61.953
623.00	61.056
623.33	62.090
623.66	60.857
623.99	60.752
624.32	59.821
624.65	62.178
624.99	62.285
625.32	60.928
625.65	62.238
625.98	60.094
626.31	61.664
626.64	60.335
626.97	61.986
627.30	61.277
627.63	60.276
627.96	61.706
628.29	61.581
628.62	60.649
628.95	64.665
629.28	62.030
629.61	62.120
629.94	61.909
630.26	63.718
630.59	63.015
630.92	61.161
631.25	61.996
631.58	63.810
631.91	60.106
632.24	62.333
632.57	63.333
632.90	62.989
633.23	63.201
633.56	61.287
633.89	63.679
634.22	63.282
634.55	63.462
634.88	62.515
635.20	61.923
635.53	63.104
635.86	64.106
636.19	61.416
636.52	62.724
636.85	61.011
637.18	61.750
637.51	62.082
637.83	61.651
638.16	62.500
638.49	64.690
638.82	59.459
639.15	64.073
639.48	61.868
639.81	65.422
640.13	62.162
640.46	63.533
640.79	62.745
641.12	63.470
641.45	63.558
641.77	65.120
642.10	63.444
642.43	63.278
642.76	62.205
643.09	63.175
643.41	65.079
643.74	63.434
644.07	63.339
644.40	60.616
644.73	64.356
645.05	63.272
645.38	62.914
645.71	64.605
646.04	62.689
646.36	63.351
646.69	63.841
647.02	63.718
647.35	64.801
647.67	63.504
648.00	63.269
648.33	64.755
648.66	60.806
648.98	64.490
649.31	63.231
649.64	63.438
649.96	64.207
650.29	64.590
650.62	62.823
650.94	62.057
651.27	64.818
651.60	64.187
651.92	65.068
652.25	61.436
652.58	62.181
652.90	62.761
653.23	61.935
653.56	63.712
653.88	58.852
654.21	64.094
654.54	62.458
654.86	63.563
655.19	63.610
655.52	62.283
655.84	61.650
656.17	66.518
656.49	88.348
656.82	90.190
657.15	68.198
657.47	50.364
657.80	39.019
658.13	44.399
658.45	59.129
658.78	58.820
659.10	57.111
659.43	55.971
659.75	56.845
660.08	55.990
660.41	55.077
660.73	56.986
661.06	61.014
661.38	63.036
661.71	62.715
662.03	63.508
662.36	65.885
662.68	63.924
663.01	65.817
663.33	68.254
663.66	63.090
663.98	64.732
664.31	62.640
664.63	66.814
664.96	60.521
665.28	64.642
665.61	62.368
665.93	65.844
666.26	62.955
666.58	60.915
666.91	63.474
667.23	64.035
667.56	64.626
667.88	63.348
668.21	65.899
668.53	65.187
668.86	65.820
669.18	62.329
669.50	61.215
669.83	63.260
670.15	62.556
670.48	65.888
670.80	64.009
671.13	58.916
671.45	63.288
671.77	62.527
672.10	66.469
672.42	61.808
672.75	62.909
673.07	59.459
673.39	60.474
673.72	63.386
674.04	60.934
674.37	61.237
674.69	62.500
675.01	63.404
675.34	59.870
675.66	61.123
675.98	64.978
676.31	64.706
676.63	63.448
676.95	61.947
677.28	61.717
677.60	63.801
677.92	65.859
678.25	60.175
678.57	61.111
678.89	63.941
679.22	61.426
679.54	59.369
679.86	60.600
680.18	65.019
680.51	60.149
680.83	59.429
681.15	59.923
681.48	64.097
681.80	63.105
682.12	61.771
682.44	60.904
682.77	63.420
683.09	61.845
683.41	61.062
683.73	60.046
684.06	62.796
684.38	63.180
684.70	62.757
685.02	61.614
685.34	64.133
685.67	62.311
685.99	61.437
686.31	63.555
686.63	60.993
686.96	60.813
687.28	60.116
687.60	61.328
687.92	58.171
688.24	60.039
688.56	60.321
688.89	60.043
689.21	58.643
689.53	65.747
689.85	61.024
690.17	62.108
690.49	59.122
690.82	60.964
691.14	62.972
691.46	62.749
691.78	62.555
692.10	61.229
692.42	60.889
692.74	60.515
693.06	62.697
693.39	63.311
693.71	61.625
694.03	62.419
694.35	60.722
694.67	59.574
694.99	60.358
695.31	59.694
695.63	59.439
695.95	61.042
696.27	58.853
696.59	62.032
696.91	65.449
697.23	60.677
697.56	61.058
697.88	61.937
698.20	60.814
698.52	57.848
698.84	60.922
699.16	60.238
699.48	62.000
699.80	60.150
700.12	63.728
700.44	60.894
700.76	63.557
701.08	61.047
701.40	57.704
701.72	65.432
702.04	64.744
702.36	63.554
702.68	62.275
703.00	62.609
703.32	61.318
703.64	64.118
703.96	62.791
704.28	63.018
704.60	60.759
704.91	58.730
705.23	64.725
705.55	60.473
705.87	60.068
706.19	59.375
706.51	59.375
706.83	68.197
707.15	60.828
707.47	61.983
707.79	61.598
708.11	58.270
708.43	64.090
708.74	60.519
709.06	60.167
709.38	57.471
709.70	60.313
710.02	63.804
710.34	64.026
710.66	56.190
710.98	61.199
711.29	61.613
711.61	58.786
711.93	63.279
712.25	63.787
712.57	60.627
712.89	64.748
713.20	63.574
713.52	61.194
713.84	61.566
714.16	60.656
714.48	61.905
714.80	60.615
715.11	58.501
715.43	62.651
715.75	62.305
716.07	58.361
716.39	56.187
716.70	59.582
717.02	58.889
717.34	60.305
717.66	65.975
717.97	61.475
718.29	64.286
718.61	63.095
718.93	56.989
719.24	56.985
719.56	56.981
719.88	62.909
720.20	58.052
720.51	63.910
720.83	62.249
721.15	62.705
721.46	60.392
721.78	58.238
722.10	61.200
722.42	66.116
722.73	60.558
723.05	60.643
723.37	57.255
723.68	54.656
724.00	59.350
724.32	61.317
724.63	56.846
724.95	64.050
725.27	59.649
725.58	62.931
725.90	59.127
726.22	58.303
726.53	61.977
726.85	55.686
727.16	63.158
727.48	58.846
727.80	57.377
728.11	59.664
728.43	64.463
728.74	60.937
729.06	63.258
729.38	59.533
729.69	59.843
730.01	59.843
730.32	60.159
730.64	60.440
730.96	59.328
731.27	59.286
731.59	54.341
731.90	55.521
732.22	59.202
732.53	62.583
732.85	59.732
733.16	59.058
733.48	56.098
733.80	58.363
734.11	56.897
734.43	62.585
734.74	59.644
735.06	58.307
735.37	58.104
735.69	53.226
736.00	56.566
736.32	57.616
736.63	52.759
736.95	56.159
737.26	58.609
737.58	63.309
737.89	63.799
738.21	57.143
738.52	60.000
738.83	57.422
739.15	60.256
739.46	63.306
739.78	56.993
740.09	58.741
740.41	56.993
740.72	59.124
741.04	57.937
741.35	54.978
741.66	56.481
741.98	57.143
742.29	65.258
742.61	59.358
742.92	57.477
743.23	57.018
743.55	61.712
743.86	62.222
744.18	51.429
744.49	56.158
744.80	59.898
745.12	65.979
745.43	56.784
745.74	63.592
746.06	55.610
746.37	59.031
746.68	54.726
747.00	69.110
747.31	59.135
747.62	58.525
747.94	58.952
748.25	57.674
748.56	62.381
748.88	58.152
749.19	61.972
749.50	61.765
749.82	60.444
750.13	64.317
750.44	59.350
750.75	58.000
751.07	60.714
751.38	59.041
751.69	59.542
752.01	58.462
752.32	57.977
752.63	51.923
752.94	55.952
753.26	58.696
753.57	58.929
753.88	61.638
754.19	53.527
754.51	60.156
754.82	54.545
755.13	58.436
755.44	58.264
755.75	56.790
756.07	58.233
756.38	57.422
756.69	63.538
757.00	55.401
757.31	60.738
757.63	62.305
757.94	54.335
758.25	59.302
758.56	60.647
758.87	55.398
759.18	62.000
759.50	54.093
759.81	58.029
760.12	55.743
760.43	60.518
760.74	59.375
761.05	52.247
761.36	55.689
761.67	59.763
761.99	49.677
762.30	56.884
762.61	55.094
762.92	56.054
763.23	58.294
763.54	56.444
763.85	60.759
764.16	55.102
764.47	61.017
764.78	53.558
765.10	62.590
765.41	59.355
765.72	60.692
766.03	53.004
766.34	55.263
766.65	57.895
766.96	56.000
767.27	60.417
767.58	65.116
767.89	63.226
768.20	54.601
768.51	55.738
768.82	56.757
769.13	54.500
769.44	54.825
769.75	53.680
770.06	57.798
770.37	55.869
770.68	59.375
770.99	51.485
771.30	59.709
771.61	50.926
771.92	50.649
772.23	54.673
772.54	55.319
772.85	52.663
773.16	51.829
773.47	59.639
773.78	61.538
774.09	53.333
774.39	45.062
774.70	49.664
775.01	42.029
775.32	55.970
775.63	53.719
775.94	45.865
776.25	57.143
776.56	55.738
776.87	59.292
777.18	54.867
777.48	44.545
777.79	48.696
778.10	47.706
778.41	50.000
778.72	50.413
779.03	56.716
779.34	52.632
779.65	49.673
779.95	63.043
780.26	46.939
780.57	56.897
780.88	53.704
781.19	55.556
781.50	51.200
781.80	43.791
782.11	53.846
782.42	44.578
782.73	42.336
783.04	57.432
783.34	49.242
783.65	58.140
783.96	62.602
784.27	62.393
784.57	52.033
784.88	55.285
785.19	41.228
785.50	35.052
785.81	50.476
786.11	50.000
786.42	40.000
786.73	66.667
787.04	65.347
787.34	43.810
787.65	40.000
787.96	48.039
788.26	54.054
788.57	53.226
788.88	50.000
789.19	52.991
789.49	41.176
789.80	50.427
790.11	50.442
790.41	38.384
790.72	50.000
791.03	34.722
791.33	35.526
791.64	41.935
791.95	42.667
792.25	47.143
792.56	47.561
792.87	30.612
793.17	42.105
793.48	33.784
793.79	35.211
794.09	44.304
794.40	55.319
794.70	44.860
795.01	35.088
795.32	54.545
795.62	45.536
795.93	46.392
796.23	42.857
796.54	54.737
796.85	45.205
797.15	36.111
797.46	53.425
797.76	54.930
798.07	42.500
798.37	45.588
798.68	61.429
798.99	35.714
799.29	51.316
799.60	41.667
799.90	34.722
800.21	17.187
800.51	52.381
800.82	24.590
801.12	38.596
801.43	35.211
801.73	30.508
802.04	50.820
802.34	50.909
802.65	30.769
802.95	42.593
803.26	15.000
803.56	38.462
803.87	28.947
804.17	35.484
804.48	40.000
804.78	35.897
805.09	37.209
805.39	-9.375
805.70	32.075
806.00	50.877
806.30	51.351
806.61	44.118
806.91	43.210
807.22	45.333
807.52	50.746
807.83	56.452
808.13	26.984
808.43	34.545
808.74	37.879
809.04	52.830
809.35	31.507
809.65	52.632
809.95	51.471
810.26	47.059
810.56	40.000
810.86	26.531
811.17	40.000
811.47	28.846
811.77	45.161
812.08	7.895
812.38	35.714
812.69	36.957
812.99	48.387
813.29	28.571
813.59	3.704
813.90	2.128
814.20	16.279
814.50	39.583
814.81	25.000
815.11	41.463
815.41	23.333
815.72	34.286
816.02	11.111
816.32	38.462
816.62	16.216
816.93	0.000
817.23	10.870
817.53	11.765
817.84	47.059
818.14	-3.125
818.44	3.448
818.74	0.000
819.04	33.333
819.35	20.000
819.65	16.000
819.95	36.667
820.25	36.000
820.56	36.842
820.86	10.000
821.16	48.936
821.46	29.310
821.76	17.949
822.07	17.500
822.37	16.279
822.67	10.000
822.97	5.405
823.27	18.919
823.57	68.000
823.88	13.514
824.18	0.000
824.48	38.462
824.78	0.000
825.08	39.130
825.38	0.000
825.69	-8.333
825.99	-15.000
826.29	-18.919
826.59	26.471
826.89	52.000
827.19	-8.571
827.49	26.316
827.79	3.125
828.09	3.333
828.39	52.174
828.70	-13.793
829.00	-10.345
829.30	13.889
829.60	56.250
829.90	5.556
830.20	3.846
830.50	4.762
830.80	-3.571
831.10	15.385
831.40	9.524
831.70	-14.706
832.00	25.000
832.30	31.579
832.60	-12.500
832.90	-16.667
833.20	-94.118
833.50	6.667
833.80	0.000
834.10	5.000
834.40	20.833
834.70	-61.111
835.00	34.615
835.30	12.500
835.60	-3.448
835.90	-55.556
836.20	-90.909
836.50	16.667
836.80	20.000
837.10	88.571
837.40	5.882
837.70	-54.545
838.00	12.500
838.30	-12.500
838.60	33.333
838.90	35.000
839.19	-13.043
839.49	-13.043
839.79	5.556
840.09	-8.696
840.39	-36.364
840.69	-25.000
840.99	-21.053
841.29	0.000
841.59	-50.000
841.88	-38.889
842.18	16.667
842.48	-64.706
842.78	6.897
843.08	-21.429
843.38	0.000
843.68	-177.778
843.97	-23.077
844.27	-54.545
844.57	-200.000
844.87	48.000
845.17	20.000
845.47	-114.286
845.76	-111.111
846.06	0.000
846.36	-275.000
846.66	-90.000
846.96	-10.526
847.25	0.000
847.55	-41.667
847.85	-20.000
848.15	-70.000
848.44	23.077
848.74	15.789
849.04	366.667
849.34	-133.333
849.63	-68.421
849.93	0.000
850.23	-25.000
850.53	-4.762
850.82	-32.000
851.12	36.842
851.42	-400.000
851.71	-28.571
852.01	-50.000
852.31	47.059
852.61	-80.000
852.90	-57.143
853.20	-183.333
853.50	-38.889
853.79	-63.158
854.09	-100.000
854.39	7.143
854.68	-21.739
854.98	-41.667
855.28	13.793
855.57	-31.250
855.87	-5.000
856.17	-13.333
856.46	-44.828
856.76	-53.333
857.05	-76.471
857.35	-115.385
857.65	27.273
857.94	-48.148
858.24	-35.714
858.53	-28.571
858.83	-41.667
859.13	-111.111
859.42	9.524
859.72	-62.500
860.01	-466.667
860.31	-37.500
860.60	-300.000
860.90	-44.444
861.20	-162.500
861.49	-128.571
861.79	-52.941
862.08	-650.000
862.38	-8.333
862.67	-69.231
862.97	-5.882
863.26	40.000
863.56	11.765
863.85	166.667
864.15	-110.000
864.44	-53.846
864.74	30.000
865.03	-275.000
865.33	-150.000
865.62	-17.647
865.92	-375.000
866.21	-50.000
866.51	-91.667
866.80	-500.000
867.10	-400.000
867.39	-11.765
867.69	0.000
867.98	-171.429
868.27	-240.000
868.57	-68.750
868.86	-145.455
869.16	-23.529
869.45	-183.333
869.75	-142.857
870.04	1000.000
870.33	-66.667
870.63	-120.000
870.92	-66.667
871.22	-33.333
871.51	-90.909
871.80	-16.667
872.10	0.000
>>>>>End Processed Spectral Data<<<<<
