SpectraSuite Data File
++++++++++++++++++++++++++++++++++++
Date: Sat May 16 11:17:41 PDT 2015
User: schluterlab
Dark Spectrum Present: Yes
Reference Spectrum Present: Yes
Number of Sampled Component Spectra: 1
Spectrometers: USB2E3373
Integration Time (usec): 3000 (USB2E3373)
Spectra Averaged: 3 (USB2E3373)
Boxcar Smoothing: 0 (USB2E3373)
Correct for Electrical Dark: No (USB2E3373)
Strobe/Lamp Enabled: No (USB2E3373)
Correct for Detector Non-linearity: No (USB2E3373)
Correct for Stray Light: No (USB2E3373)
Number of Pixels in Processed Spectrum: 2048
>>>>>Begin Processed Spectral Data<<<<<
178.53	0.000
178.91	93.333
179.29	466.667
179.67	-800.000
180.04	-84.615
180.42	600.000
180.80	-100.000
181.18	250.000
181.56	25.000
181.94	1300.000
182.31	275.000
182.69	-15.385
183.07	-733.333
183.45	700.000
183.83	566.667
184.20	-200.000
184.58	-150.000
184.96	-200.000
185.34	81.250
185.72	-325.000
186.09	50.000
186.47	-137.500
186.85	-200.000
187.23	37.500
187.61	0.000
187.98	-237.500
188.36	0.000
188.74	-112.500
189.12	1800.000
189.49	157.143
189.87	-41.667
190.25	225.000
190.63	-71.429
191.00	-222.222
191.38	300.000
191.76	20.000
192.14	400.000
192.51	-140.000
192.89	-66.667
193.27	0.000
193.65	-44.444
194.02	-114.286
194.40	633.333
194.78	-130.000
195.15	-300.000
195.53	-9.091
195.91	-433.333
196.29	140.000
196.66	-100.000
197.04	2000.000
197.42	50.000
197.79	73.333
198.17	-166.667
198.55	-650.000
198.92	-1000.000
199.30	200.000
199.68	-600.000
200.05	-122.222
200.43	-122.222
200.81	-300.000
201.18	-66.667
201.56	185.714
201.94	-6.667
202.31	27.273
202.69	80.000
203.07	-80.000
203.44	466.667
203.82	-300.000
204.19	-100.000
204.57	-400.000
204.95	-400.000
205.32	-25.000
205.70	800.000
206.08	-1600.000
206.45	-11.111
206.83	-550.000
207.20	0.000
207.58	-600.000
207.96	-566.667
208.33	-212.500
208.71	-88.889
209.08	50.000
209.46	-71.429
209.84	650.000
210.21	0.000
210.59	15.000
210.96	-300.000
211.34	-216.667
211.71	-66.667
212.09	125.000
212.46	650.000
212.84	-2000.000
213.22	700.000
213.59	108.333
213.97	-11.111
214.34	140.000
214.72	-60.000
215.09	-166.667
215.47	-233.333
215.84	40.000
216.22	-140.000
216.59	40.000
216.97	-250.000
217.34	400.000
217.72	-14.286
218.09	-133.333
218.47	-285.714
218.84	214.286
219.22	-42.857
219.59	0.000
219.97	228.571
220.34	200.000
220.72	175.000
221.09	7.692
221.47	0.000
221.84	533.333
222.22	-400.000
222.59	-0.000
222.97	-162.500
223.34	-350.000
223.72	-66.667
224.09	-78.571
224.46	-125.000
224.84	-35.714
225.21	-28.571
225.59	-18.182
225.96	-62.500
226.34	14.286
226.71	-55.556
227.08	-15.000
227.46	1300.000
227.83	-71.429
228.21	-150.000
228.58	500.000
228.95	-25.000
229.33	-2000.000
229.70	-160.000
230.08	-650.000
230.45	83.333
230.82	-150.000
231.20	-100.000
231.57	-400.000
231.95	1000.000
232.32	-4.762
232.69	-66.667
233.07	-257.143
233.44	-750.000
233.81	13.333
234.19	-77.778
234.56	-31.250
234.93	18.750
235.31	-185.714
235.68	-121.429
236.05	5.882
236.43	-68.182
236.80	-9.677
237.17	-29.167
237.55	-76.190
237.92	-81.818
238.29	-8.571
238.67	11.765
239.04	-36.111
239.41	-35.484
239.79	-41.026
240.16	-23.810
240.53	-20.000
240.91	5.128
241.28	-3.636
241.65	30.769
242.02	0.000
242.40	-13.115
242.77	-1.515
243.14	-15.254
243.51	-14.286
243.89	-5.063
244.26	1.124
244.63	-2.105
245.00	1.053
245.38	1.695
245.75	12.389
246.12	7.200
246.49	-3.937
246.87	1.626
247.24	-3.390
247.61	-5.932
247.98	-5.634
248.36	-4.196
248.73	4.430
249.10	-3.185
249.47	0.585
249.84	7.386
250.22	-11.905
250.59	1.695
250.96	-0.524
251.33	1.896
251.70	3.365
252.08	6.635
252.45	-1.896
252.82	0.000
253.19	0.426
253.56	-0.403
253.94	6.751
254.31	3.433
254.68	3.252
255.05	3.226
255.42	3.968
255.79	-0.717
256.16	5.882
256.54	2.574
256.91	2.652
257.28	2.198
257.65	5.319
258.02	6.918
258.39	4.682
258.76	3.041
259.14	6.481
259.51	5.574
259.88	3.354
260.25	6.832
260.62	2.894
260.99	1.484
261.36	4.268
261.73	5.780
262.10	4.444
262.47	2.849
262.85	5.429
263.22	4.011
263.59	1.846
263.96	6.087
264.33	4.336
264.70	3.867
265.07	4.945
265.44	4.134
265.81	3.618
266.18	3.291
266.55	2.696
266.92	4.534
267.29	3.632
267.66	3.704
268.03	3.623
268.40	4.695
268.77	3.133
269.14	3.248
269.51	4.368
269.88	0.688
270.25	1.399
270.62	4.577
270.99	4.505
271.36	6.294
271.73	4.709
272.10	2.975
272.47	3.333
272.84	6.000
273.21	4.587
273.58	5.055
273.95	3.289
274.32	4.751
274.69	5.033
275.06	7.771
275.43	2.455
275.80	6.721
276.17	3.766
276.54	5.703
276.91	3.292
277.28	4.462
277.65	4.752
278.02	2.923
278.39	4.322
278.76	5.179
279.13	6.126
279.50	3.380
279.87	3.383
280.23	5.061
280.60	3.181
280.97	2.718
281.34	3.868
281.71	3.654
282.08	4.032
282.45	2.240
282.82	3.101
283.19	4.909
283.56	5.861
283.92	4.770
284.29	3.346
284.66	4.856
285.03	4.635
285.40	4.059
285.77	5.263
286.14	5.235
286.51	2.842
286.87	5.808
287.24	6.314
287.61	7.107
287.98	4.333
288.35	4.298
288.72	4.075
289.08	3.729
289.45	4.377
289.82	2.768
290.19	6.732
290.56	5.455
290.93	4.293
291.29	3.566
291.66	4.670
292.03	5.965
292.40	5.873
292.77	5.745
293.13	4.715
293.50	4.012
293.87	6.288
294.24	6.033
294.60	3.636
294.97	7.132
295.34	4.000
295.71	3.720
296.08	3.226
296.44	3.577
296.81	3.846
297.18	4.507
297.55	6.921
297.91	6.276
298.28	4.247
298.65	5.718
299.02	7.219
299.38	5.615
299.75	4.891
300.12	4.872
300.48	5.371
300.85	4.325
301.22	6.339
301.59	4.551
301.95	7.305
302.32	3.911
302.69	7.222
303.05	4.762
303.42	4.750
303.79	5.861
304.15	5.687
304.52	6.301
304.89	6.494
305.25	6.105
305.62	5.993
305.99	6.949
306.35	5.660
306.72	5.809
307.09	7.264
307.45	6.129
307.82	5.475
308.19	6.264
308.55	6.645
308.92	5.478
309.29	6.486
309.65	5.302
310.02	7.235
310.38	5.622
310.75	7.480
311.12	7.335
311.48	7.203
311.85	8.136
312.22	6.797
312.58	7.833
312.95	7.441
313.31	8.092
313.68	8.342
314.05	8.111
314.41	7.746
314.78	7.093
315.14	7.404
315.51	7.903
315.87	9.003
316.24	9.815
316.61	9.405
316.97	9.055
317.34	8.574
317.70	7.699
318.07	9.515
318.43	8.521
318.80	9.484
319.16	8.349
319.53	9.492
319.89	9.501
320.26	10.294
320.62	8.750
320.99	8.060
321.35	8.177
321.72	9.007
322.08	9.496
322.45	9.505
322.81	11.047
323.18	10.375
323.54	10.351
323.91	11.307
324.27	10.741
324.64	9.781
325.00	11.257
325.37	11.946
325.73	12.511
326.10	10.540
326.46	11.821
326.83	12.596
327.19	13.595
327.56	15.162
327.92	12.489
328.29	13.506
328.65	13.182
329.01	14.576
329.38	15.433
329.74	14.744
330.11	16.319
330.47	15.895
330.84	16.590
331.20	15.975
331.56	16.135
331.93	17.584
332.29	17.534
332.66	16.681
333.02	17.195
333.38	18.190
333.75	17.898
334.11	18.044
334.48	16.681
334.84	17.848
335.20	18.706
335.57	18.682
335.93	20.322
336.29	17.449
336.66	18.326
337.02	19.550
337.38	18.538
337.75	18.876
338.11	18.336
338.47	19.395
338.84	18.512
339.20	18.541
339.56	19.519
339.93	19.577
340.29	19.486
340.65	19.668
341.02	19.730
341.38	17.439
341.74	19.475
342.11	19.027
342.47	19.227
342.83	17.716
343.20	19.385
343.56	18.449
343.92	19.449
344.28	19.680
344.65	19.389
345.01	19.328
345.37	19.767
345.73	18.740
346.10	18.234
346.46	17.790
346.82	18.284
347.19	18.570
347.55	20.305
347.91	19.764
348.27	19.014
348.63	19.225
349.00	19.411
349.36	18.189
349.72	20.382
350.08	19.727
350.45	18.834
350.81	20.223
351.17	19.373
351.53	18.775
351.89	19.887
352.26	19.767
352.62	19.816
352.98	19.462
353.34	19.504
353.70	19.614
354.07	19.355
354.43	20.237
354.79	20.206
355.15	19.249
355.51	19.141
355.87	19.051
356.24	20.175
356.60	20.387
356.96	20.246
357.32	19.636
357.68	19.387
358.04	20.554
358.40	19.258
358.77	20.402
359.13	20.122
359.49	20.106
359.85	20.579
360.21	20.852
360.57	21.536
360.93	21.630
361.29	20.478
361.66	20.579
362.02	20.414
362.38	20.690
362.74	21.245
363.10	21.090
363.46	21.439
363.82	20.700
364.18	21.635
364.54	23.016
364.90	20.894
365.26	21.612
365.62	21.668
365.98	22.119
366.35	22.183
366.71	20.719
367.07	22.371
367.43	22.169
367.79	21.993
368.15	21.693
368.51	22.168
368.87	23.695
369.23	22.596
369.59	23.194
369.95	22.622
370.31	23.207
370.67	21.692
371.03	23.178
371.39	22.348
371.75	23.247
372.11	23.745
372.47	23.500
372.83	22.949
373.19	24.143
373.55	23.997
373.91	23.684
374.27	24.093
374.63	23.602
374.99	24.131
375.35	23.015
375.71	25.996
376.07	24.572
376.42	22.848
376.78	24.052
377.14	24.136
377.50	24.823
377.86	25.293
378.22	25.879
378.58	24.954
378.94	25.401
379.30	26.082
379.66	25.683
380.02	24.955
380.38	25.861
380.74	25.498
381.09	26.245
381.45	26.790
381.81	26.134
382.17	26.316
382.53	26.201
382.89	27.153
383.25	27.152
383.61	27.358
383.97	27.802
384.32	27.847
384.68	27.630
385.04	28.865
385.40	28.180
385.76	27.744
386.12	28.107
386.48	28.342
386.83	28.589
387.19	28.870
387.55	28.589
387.91	28.216
388.27	27.744
388.62	28.606
388.98	29.255
389.34	28.825
389.70	28.441
390.06	28.776
390.42	29.615
390.77	28.517
391.13	29.255
391.49	29.757
391.85	29.489
392.20	29.005
392.56	29.444
392.92	29.663
393.28	30.482
393.64	30.607
393.99	30.523
394.35	29.745
394.71	30.574
395.07	31.073
395.42	29.678
395.78	30.044
396.14	30.779
396.50	30.520
396.85	30.907
397.21	30.741
397.57	31.003
397.92	30.796
398.28	31.722
398.64	31.112
399.00	32.360
399.35	30.665
399.71	32.288
400.07	31.821
400.42	31.144
400.78	30.948
401.14	31.437
401.49	31.014
401.85	31.483
402.21	32.002
402.57	30.825
402.92	31.970
403.28	30.944
403.63	31.037
403.99	31.075
404.35	30.676
404.70	32.066
405.06	31.142
405.42	31.242
405.77	31.957
406.13	32.822
406.49	31.756
406.84	32.274
407.20	31.037
407.55	32.299
407.91	31.671
408.27	32.108
408.62	32.171
408.98	31.413
409.34	31.444
409.69	30.561
410.05	31.292
410.40	30.840
410.76	31.595
411.11	31.796
411.47	31.714
411.83	33.191
412.18	31.374
412.54	31.300
412.89	32.078
413.25	31.759
413.60	31.896
413.96	31.547
414.31	32.661
414.67	31.492
415.03	32.730
415.38	33.051
415.74	31.508
416.09	32.417
416.45	31.217
416.80	32.120
417.16	31.096
417.51	31.845
417.87	32.233
418.22	31.479
418.58	32.157
418.93	32.434
419.29	31.430
419.64	32.035
420.00	33.232
420.35	32.289
420.71	33.013
421.06	33.136
421.42	32.026
421.77	32.719
422.12	32.401
422.48	32.763
422.83	32.916
423.19	31.626
423.54	32.334
423.90	31.290
424.25	32.127
424.61	33.353
424.96	32.943
425.31	32.812
425.67	31.003
426.02	32.071
426.38	34.180
426.73	33.022
427.09	34.620
427.44	34.034
427.79	31.919
428.15	33.453
428.50	32.610
428.85	32.914
429.21	32.042
429.56	33.073
429.92	32.766
430.27	32.353
430.62	33.020
430.98	32.985
431.33	32.711
431.68	33.834
432.04	33.688
432.39	33.504
432.74	33.333
433.10	34.384
433.45	33.045
433.80	33.203
434.16	32.671
434.51	33.315
434.86	33.861
435.22	33.073
435.57	32.497
435.92	33.822
436.28	35.252
436.63	33.013
436.98	33.620
437.34	33.963
437.69	34.889
438.04	33.806
438.39	34.236
438.75	33.935
439.10	33.259
439.45	32.951
439.81	34.699
440.16	33.447
440.51	34.000
440.86	33.372
441.22	32.781
441.57	33.474
441.92	33.146
442.27	33.279
442.63	34.335
442.98	33.296
443.33	32.455
443.68	34.237
444.03	34.332
444.39	33.529
444.74	34.306
445.09	33.607
445.44	33.652
445.79	35.747
446.15	33.406
446.50	33.424
446.85	34.377
447.20	34.270
447.55	33.204
447.91	34.756
448.26	34.134
448.61	32.484
448.96	34.342
449.31	34.442
449.66	34.287
450.02	34.460
450.37	34.899
450.72	34.520
451.07	34.004
451.42	34.015
451.77	35.129
452.12	34.386
452.47	34.698
452.83	34.362
453.18	35.231
453.53	34.142
453.88	34.928
454.23	33.555
454.58	35.115
454.93	35.390
455.28	34.417
455.63	35.074
455.98	36.386
456.34	34.117
456.69	34.334
457.04	35.157
457.39	34.091
457.74	35.676
458.09	34.861
458.44	35.046
458.79	34.473
459.14	35.311
459.49	35.642
459.84	34.907
460.19	34.427
460.54	34.362
460.89	35.034
461.24	34.548
461.59	35.404
461.94	35.010
462.29	35.021
462.64	35.507
462.99	36.212
463.34	34.436
463.69	36.132
464.04	34.798
464.39	35.484
464.74	33.983
465.09	34.877
465.44	35.477
465.79	35.251
466.14	35.846
466.49	34.945
466.84	35.354
467.19	35.474
467.54	35.696
467.89	36.930
468.24	34.976
468.59	35.166
468.94	36.399
469.29	34.893
469.64	35.243
469.99	35.517
470.34	35.337
470.68	36.265
471.03	36.476
471.38	35.486
471.73	37.343
472.08	36.613
472.43	36.486
472.78	36.667
473.13	35.852
473.48	36.120
473.83	36.104
474.17	35.987
474.52	38.043
474.87	36.480
475.22	35.693
475.57	36.056
475.92	37.635
476.27	36.629
476.61	36.845
476.96	36.557
477.31	37.352
477.66	36.912
478.01	37.223
478.36	36.616
478.70	36.199
479.05	37.426
479.40	36.269
479.75	36.086
480.10	36.111
480.45	35.687
480.79	37.611
481.14	37.130
481.49	36.302
481.84	36.246
482.19	37.003
482.53	36.600
482.88	36.308
483.23	37.042
483.58	37.095
483.92	37.793
484.27	36.553
484.62	37.106
484.97	36.321
485.31	35.232
485.66	34.686
486.01	35.349
486.36	35.879
486.70	36.709
487.05	36.269
487.40	36.619
487.75	36.272
488.09	35.825
488.44	37.145
488.79	36.116
489.13	37.619
489.48	37.276
489.83	36.900
490.17	37.048
490.52	38.089
490.87	37.090
491.22	37.693
491.56	36.898
491.91	38.120
492.26	36.934
492.60	37.393
492.95	37.220
493.30	36.779
493.64	36.765
493.99	37.189
494.34	38.524
494.68	38.483
495.03	38.002
495.37	37.807
495.72	37.770
496.07	38.573
496.41	37.888
496.76	38.128
497.11	38.483
497.45	38.075
497.80	37.969
498.14	37.770
498.49	38.322
498.84	38.252
499.18	37.914
499.53	38.432
499.87	37.597
500.22	38.578
500.56	38.669
500.91	38.177
501.26	38.137
501.60	37.650
501.95	38.744
502.29	38.026
502.64	38.991
502.98	38.428
503.33	38.017
503.67	38.362
504.02	38.436
504.36	38.775
504.71	38.754
505.06	38.293
505.40	39.022
505.75	38.720
506.09	39.080
506.44	38.847
506.78	38.585
507.13	39.032
507.47	40.845
507.82	38.668
508.16	39.430
508.51	38.897
508.85	39.389
509.19	39.194
509.54	39.746
509.88	39.521
510.23	40.618
510.57	40.688
510.92	41.085
511.26	38.490
511.61	39.687
511.95	39.925
512.30	39.967
512.64	40.345
512.98	40.429
513.33	39.923
513.67	41.206
514.02	40.716
514.36	40.499
514.70	40.351
515.05	41.281
515.39	39.677
515.74	42.234
516.08	41.499
516.42	41.586
516.77	42.057
517.11	40.618
517.46	41.029
517.80	42.419
518.14	42.089
518.49	43.156
518.83	41.484
519.17	43.043
519.52	41.180
519.86	42.294
520.20	43.215
520.55	42.092
520.89	41.014
521.23	42.369
521.58	42.884
521.92	43.762
522.26	43.937
522.61	43.283
522.95	42.884
523.29	43.260
523.64	42.973
523.98	44.367
524.32	44.060
524.66	42.298
525.01	44.188
525.35	43.492
525.69	44.307
526.04	43.864
526.38	44.048
526.72	42.720
527.06	44.857
527.41	43.828
527.75	43.960
528.09	44.606
528.43	44.459
528.78	44.912
529.12	43.598
529.46	44.910
529.80	43.447
530.15	44.366
530.49	44.308
530.83	44.925
531.17	44.512
531.51	44.273
531.86	43.976
532.20	44.130
532.54	44.987
532.88	44.335
533.22	44.786
533.57	45.235
533.91	43.633
534.25	45.820
534.59	44.347
534.93	43.995
535.27	44.493
535.62	46.228
535.96	44.926
536.30	43.979
536.64	45.750
536.98	45.975
537.32	45.750
537.66	44.807
538.01	45.567
538.35	46.892
538.69	46.123
539.03	45.768
539.37	45.709
539.71	45.897
540.05	46.333
540.39	46.468
540.73	46.786
541.07	46.038
541.42	45.510
541.76	43.322
542.10	46.658
542.44	46.103
542.78	46.744
543.12	46.572
543.46	45.411
543.80	45.217
544.14	45.735
544.48	46.916
544.82	46.143
545.16	45.875
545.50	44.482
545.84	46.523
546.18	46.394
546.52	47.155
546.86	47.365
547.20	46.906
547.54	46.694
547.88	45.919
548.22	44.889
548.56	46.025
548.90	46.833
549.24	46.531
549.58	46.224
549.92	46.148
550.26	46.460
550.60	46.799
550.94	46.058
551.28	46.275
551.62	46.529
551.96	46.020
552.30	45.436
552.64	46.094
552.98	46.181
553.32	46.248
553.66	47.152
554.00	46.055
554.34	45.848
554.68	46.126
555.02	48.046
555.36	46.441
555.69	46.203
556.03	47.298
556.37	46.444
556.71	47.674
557.05	48.189
557.39	46.399
557.73	46.681
558.07	47.476
558.41	45.999
558.75	47.452
559.08	46.070
559.42	47.243
559.76	47.163
560.10	46.980
560.44	47.327
560.78	47.530
561.12	46.446
561.45	45.137
561.79	46.969
562.13	46.073
562.47	46.078
562.81	46.181
563.15	46.606
563.48	45.681
563.82	46.450
564.16	46.518
564.50	46.169
564.84	45.106
565.17	45.358
565.51	46.936
565.85	47.194
566.19	47.826
566.52	45.401
566.86	45.575
567.20	46.065
567.54	46.545
567.88	44.724
568.21	46.812
568.55	45.758
568.89	44.682
569.23	45.211
569.56	43.884
569.90	44.453
570.24	44.720
570.57	43.831
570.91	43.489
571.25	44.034
571.59	43.178
571.92	43.065
572.26	43.679
572.60	43.314
572.93	43.450
573.27	42.713
573.61	42.615
573.95	42.922
574.28	42.957
574.62	43.060
574.96	42.797
575.29	43.089
575.63	42.925
575.97	42.395
576.30	42.368
576.64	43.185
576.98	42.150
577.31	43.004
577.65	43.033
577.98	41.852
578.32	42.686
578.66	42.405
578.99	42.369
579.33	42.929
579.67	42.582
580.00	42.609
580.34	42.784
580.67	42.903
581.01	42.185
581.35	42.668
581.68	42.099
582.02	42.813
582.35	42.115
582.69	42.886
583.02	43.126
583.36	42.517
583.70	42.960
584.03	43.561
584.37	43.491
584.70	43.299
585.04	42.557
585.37	41.527
585.71	42.477
586.04	42.503
586.38	43.117
586.72	42.616
587.05	43.132
587.39	42.475
587.72	42.607
588.06	42.558
588.39	43.065
588.73	43.030
589.06	43.510
589.40	43.181
589.73	43.768
590.07	43.918
590.40	43.284
590.73	44.222
591.07	42.869
591.40	44.064
591.74	43.918
592.07	44.054
592.41	43.524
592.74	43.236
593.08	42.465
593.41	43.059
593.75	42.301
594.08	43.458
594.41	43.253
594.75	43.413
595.08	43.609
595.42	44.400
595.75	44.065
596.09	43.345
596.42	44.026
596.75	44.588
597.09	44.212
597.42	44.042
597.75	43.623
598.09	44.103
598.42	44.145
598.76	43.272
599.09	43.567
599.42	42.753
599.76	43.148
600.09	42.786
600.42	42.613
600.76	43.766
601.09	42.347
601.42	43.292
601.76	42.601
602.09	44.376
602.42	44.362
602.76	42.792
603.09	43.024
603.42	43.795
603.76	43.638
604.09	43.012
604.42	42.298
604.76	43.000
605.09	44.168
605.42	44.326
605.75	43.683
606.09	43.587
606.42	43.444
606.75	43.538
607.09	45.037
607.42	43.134
607.75	43.841
608.08	44.058
608.42	43.851
608.75	43.084
609.08	44.569
609.41	43.298
609.75	43.052
610.08	44.951
610.41	44.386
610.74	44.294
611.07	45.030
611.41	43.016
611.74	44.576
612.07	44.898
612.40	43.763
612.73	43.403
613.07	44.139
613.40	45.922
613.73	45.123
614.06	43.932
614.39	44.589
614.72	42.793
615.06	43.696
615.39	41.997
615.72	43.781
616.05	43.401
616.38	46.257
616.71	44.444
617.05	44.632
617.38	45.387
617.71	44.410
618.04	45.031
618.37	45.094
618.70	45.763
619.03	44.076
619.36	46.159
619.69	45.800
620.03	45.041
620.36	45.288
620.69	47.380
621.02	44.825
621.35	46.613
621.68	45.820
622.01	45.388
622.34	45.575
622.67	45.781
623.00	46.672
623.33	46.493
623.66	44.830
623.99	44.962
624.32	45.685
624.65	45.622
624.99	46.004
625.32	45.808
625.65	45.532
625.98	45.070
626.31	44.535
626.64	45.774
626.97	44.949
627.30	47.149
627.63	44.387
627.96	46.388
628.29	45.956
628.62	46.800
628.95	46.949
629.28	45.677
629.61	46.909
629.94	46.408
630.26	47.913
630.59	48.241
630.92	46.046
631.25	46.673
631.58	48.042
631.91	46.064
632.24	47.444
632.57	47.111
632.90	48.276
633.23	47.897
633.56	47.368
633.89	47.877
634.22	47.580
634.55	46.274
634.88	45.586
635.20	47.566
635.53	48.473
635.86	47.355
636.19	47.009
636.52	46.714
636.85	47.413
637.18	45.375
637.51	48.327
637.83	48.602
638.16	46.316
638.49	49.655
638.82	47.490
639.15	49.416
639.48	47.341
639.81	50.484
640.13	47.432
640.46	50.570
640.79	47.479
641.12	47.673
641.45	47.202
641.77	48.353
642.10	46.979
642.43	48.103
642.76	48.346
643.09	46.508
643.41	49.524
643.74	49.603
644.07	49.610
644.40	48.298
644.73	49.340
645.05	46.578
645.38	49.007
645.71	50.000
646.04	50.756
646.36	49.215
646.69	49.481
647.02	51.083
647.35	47.473
647.67	51.642
648.00	46.221
648.33	49.241
648.66	47.419
648.98	47.930
649.31	45.846
649.64	47.969
649.96	46.625
650.29	46.230
650.62	49.570
650.94	48.567
651.27	48.527
651.60	44.810
651.92	48.459
652.25	47.746
652.58	46.337
652.90	47.191
653.23	46.613
653.56	46.154
653.88	46.721
654.21	48.658
654.54	49.502
654.86	48.957
655.19	46.848
655.52	44.293
655.84	40.480
656.17	43.146
656.49	58.759
656.82	60.957
657.15	46.044
657.47	34.209
657.80	26.415
658.13	30.067
658.45	40.513
658.78	40.139
659.10	40.174
659.43	39.498
659.75	40.755
660.08	42.135
660.41	41.563
660.73	43.674
661.06	47.826
661.38	50.179
661.71	45.315
662.03	50.202
662.36	47.761
662.68	50.211
663.01	49.894
663.33	53.061
663.66	48.712
663.98	49.107
664.31	50.112
664.63	49.558
664.96	48.807
665.28	48.156
665.61	43.975
665.93	46.914
666.26	49.393
666.58	50.312
666.91	50.557
667.23	51.535
667.56	48.299
667.88	48.643
668.21	47.235
668.53	49.299
668.86	49.423
669.18	48.402
669.50	49.533
669.83	50.852
670.15	45.964
670.48	49.299
670.80	49.658
671.13	46.275
671.45	43.694
671.77	47.966
672.10	49.507
672.42	45.941
672.75	44.364
673.07	44.685
673.39	45.902
673.72	49.016
674.04	47.346
674.37	44.948
674.69	46.311
675.01	47.021
675.34	45.336
675.66	47.732
675.98	46.916
676.31	50.905
676.63	47.816
676.95	45.796
677.28	50.116
677.60	47.964
677.92	49.559
678.25	47.484
678.57	48.765
678.89	45.702
679.22	45.283
679.54	47.337
679.86	44.400
680.18	44.487
680.51	45.065
680.83	45.143
681.15	44.701
681.48	50.710
681.80	47.379
682.12	48.692
682.44	45.972
682.77	46.104
683.09	45.702
683.41	50.664
683.73	44.521
684.06	45.591
684.38	47.699
684.70	44.444
685.02	44.882
685.34	45.224
685.67	47.348
685.99	43.667
686.31	44.345
686.63	47.163
686.96	45.471
687.28	44.894
687.60	45.312
687.92	43.191
688.24	46.850
688.56	43.888
688.89	43.590
689.21	48.359
689.53	48.276
689.85	45.434
690.17	46.188
690.49	46.651
690.82	47.229
691.14	44.575
691.46	45.455
691.78	46.476
692.10	46.398
692.42	43.111
692.74	42.704
693.06	47.865
693.39	46.085
693.71	46.727
694.03	45.572
694.35	42.664
694.67	42.317
694.99	41.688
695.31	46.173
695.63	44.643
695.95	48.387
696.27	45.387
696.59	41.711
696.91	46.067
697.23	46.615
697.56	43.510
697.88	45.495
698.20	40.471
698.52	40.583
698.84	44.660
699.16	45.000
699.48	44.750
699.80	46.867
700.12	46.599
700.44	46.089
700.76	46.064
701.08	41.279
701.40	43.505
701.72	47.531
702.04	45.192
702.36	49.699
702.68	42.814
703.00	44.928
703.32	43.553
703.64	47.353
703.96	44.477
704.28	46.450
704.60	39.557
704.91	47.302
705.23	43.042
705.55	43.243
705.87	47.440
706.19	40.625
706.51	45.139
706.83	44.590
707.15	44.268
707.47	44.077
707.79	42.526
708.11	39.949
708.43	46.883
708.74	43.896
709.06	42.340
709.38	41.092
709.70	42.500
710.02	47.853
710.34	45.875
710.66	40.317
710.98	46.057
711.29	40.968
711.61	41.214
711.93	42.623
712.25	44.518
712.57	46.341
712.89	41.007
713.20	43.299
713.52	43.284
713.84	41.281
714.16	42.295
714.48	44.444
714.80	41.846
715.11	41.787
715.43	46.386
715.75	42.368
716.07	45.902
716.39	42.140
716.70	44.251
717.02	44.815
717.34	45.420
717.66	48.548
717.97	45.082
718.29	44.958
718.61	45.238
718.93	45.520
719.24	40.441
719.56	38.868
719.88	48.000
720.20	40.075
720.51	45.113
720.83	43.373
721.15	42.213
721.46	45.490
721.78	44.444
722.10	50.000
722.42	41.322
722.73	43.825
723.05	38.956
723.37	41.176
723.68	37.247
724.00	47.154
724.32	42.798
724.63	39.419
724.95	47.521
725.27	39.912
725.58	42.672
725.90	42.857
726.22	42.804
726.53	40.684
726.85	38.824
727.16	42.481
727.48	42.692
727.80	35.656
728.11	43.697
728.43	40.083
728.74	45.313
729.06	39.773
729.38	39.300
729.69	37.795
730.01	46.063
730.32	37.849
730.64	40.659
730.96	46.269
731.27	38.571
731.59	43.408
731.90	37.117
732.22	40.491
732.53	43.709
732.85	37.248
733.16	40.217
733.48	43.206
733.80	35.587
734.11	37.241
734.43	39.796
734.74	39.466
735.06	36.677
735.37	37.309
735.69	41.613
736.00	39.394
736.32	40.397
736.63	35.862
736.95	40.217
737.26	37.086
737.58	39.568
737.89	46.953
738.21	37.218
738.52	41.538
738.83	40.625
739.15	43.162
739.46	45.565
739.78	37.762
740.09	38.462
740.41	39.510
740.72	40.146
741.04	41.667
741.35	38.528
741.66	39.815
741.98	37.143
742.29	48.826
742.61	42.246
742.92	43.925
743.23	37.719
743.55	36.937
743.86	46.222
744.18	40.476
744.49	45.813
744.80	41.624
745.12	44.845
745.43	38.693
745.74	41.262
746.06	38.537
746.37	38.326
746.68	50.249
747.00	42.408
747.31	40.385
747.62	39.171
747.94	44.105
748.25	41.395
748.56	41.429
748.88	36.957
749.19	40.845
749.50	42.157
749.82	44.000
750.13	45.374
750.44	39.431
750.75	40.800
751.07	42.500
751.38	39.483
751.69	35.878
752.01	40.385
752.32	38.132
752.63	35.385
752.94	38.095
753.26	44.783
753.57	40.179
753.88	39.655
754.19	39.419
754.51	39.453
754.82	38.735
755.13	39.095
755.44	41.322
755.75	41.975
756.07	39.357
756.38	42.969
756.69	39.350
757.00	34.843
757.31	41.611
757.63	40.498
757.94	37.861
758.25	38.953
758.56	38.005
758.87	35.795
759.18	34.667
759.50	43.416
759.81	33.212
760.12	31.757
760.43	41.424
760.74	39.375
761.05	40.169
761.36	41.317
761.67	35.799
761.99	33.226
762.30	41.304
762.61	38.113
762.92	41.256
763.23	43.602
763.54	39.111
763.85	35.443
764.16	37.143
764.47	39.831
764.78	34.082
765.10	43.165
765.41	32.903
765.72	34.906
766.03	37.102
766.34	37.218
766.65	37.652
766.96	33.000
767.27	38.542
767.58	36.047
767.89	34.839
768.20	41.718
768.51	34.426
768.82	39.459
769.13	37.000
769.44	32.895
769.75	38.095
770.06	36.697
770.37	35.681
770.68	42.708
770.99	35.149
771.30	34.466
771.61	39.815
771.92	33.333
772.23	39.720
772.54	32.979
772.85	31.361
773.16	40.854
773.47	36.145
773.78	42.308
774.09	34.667
774.39	34.568
774.70	33.557
775.01	34.783
775.32	34.328
775.63	39.669
775.94	39.850
776.25	43.571
776.56	43.443
776.87	40.708
777.18	27.434
777.48	28.182
777.79	27.826
778.10	33.945
778.41	37.288
778.72	38.017
779.03	36.567
779.34	40.602
779.65	34.641
779.95	37.681
780.26	37.415
780.57	37.069
780.88	39.815
781.19	27.273
781.50	32.000
781.80	36.601
782.11	40.385
782.42	36.145
782.73	25.547
783.04	29.730
783.34	39.394
783.65	40.310
783.96	38.211
784.27	33.333
784.57	27.642
784.88	21.138
785.19	37.719
785.50	22.680
785.81	31.429
786.11	29.412
786.42	32.727
786.73	27.928
787.04	34.653
787.34	26.667
787.65	37.143
787.96	28.431
788.26	36.937
788.57	34.677
788.88	28.125
789.19	29.060
789.49	25.210
789.80	30.769
790.11	38.053
790.41	25.253
790.72	35.849
791.03	11.111
791.33	38.158
791.64	34.409
791.95	36.000
792.25	30.000
792.56	37.805
792.87	28.571
793.17	23.684
793.48	24.324
793.79	26.761
794.09	39.241
794.40	28.723
794.70	40.187
795.01	26.316
795.32	32.727
795.62	35.714
795.93	29.897
796.23	30.769
796.54	28.421
796.85	16.438
797.15	36.111
797.46	30.137
797.76	35.211
798.07	30.000
798.37	25.000
798.68	50.000
798.99	34.286
799.29	38.158
799.60	38.333
799.90	22.222
800.21	21.875
800.51	19.048
800.82	31.148
801.12	10.526
801.43	28.169
801.73	11.864
802.04	21.311
802.34	7.273
802.65	25.000
802.95	29.630
803.26	10.000
803.56	13.462
803.87	2.632
804.17	32.258
804.48	36.923
804.78	5.128
805.09	23.256
805.39	15.625
805.70	9.434
806.00	43.860
806.30	32.432
806.61	42.647
806.91	43.210
807.22	28.000
807.52	32.836
807.83	24.194
808.13	11.111
808.43	29.091
808.74	21.212
809.04	33.962
809.35	27.397
809.65	26.316
809.95	38.235
810.26	29.412
810.56	4.000
810.86	30.612
811.17	22.857
811.47	15.385
811.77	29.032
812.08	-15.789
812.38	28.571
812.69	19.565
812.99	35.484
813.29	-2.381
813.59	-7.407
813.90	14.894
814.20	18.605
814.50	33.333
814.81	20.000
815.11	26.829
815.41	20.000
815.72	20.000
816.02	22.222
816.32	51.282
816.62	27.027
816.93	-17.647
817.23	47.826
817.53	-17.647
817.84	5.882
818.14	-18.750
818.44	24.138
818.74	-9.677
819.04	7.407
819.35	23.333
819.65	20.000
819.95	-6.667
820.25	-4.000
820.56	-18.421
820.86	-5.000
821.16	36.170
821.46	15.517
821.76	-17.949
822.07	-10.000
822.37	-20.930
822.67	-3.333
822.97	-5.405
823.27	5.405
823.57	8.000
823.88	18.919
824.18	-19.048
824.48	0.000
824.78	-53.846
825.08	13.043
825.38	-16.667
825.69	41.667
825.99	-35.000
826.29	10.811
826.59	5.882
826.89	36.000
827.19	0.000
827.49	18.421
827.79	3.125
828.09	23.333
828.39	43.478
828.70	-31.034
829.00	17.241
829.30	-5.556
829.60	31.250
829.90	11.111
830.20	46.154
830.50	14.286
830.80	-7.143
831.10	10.256
831.40	-42.857
831.70	23.529
832.00	4.167
832.30	-10.526
832.60	-68.750
832.90	-108.333
833.20	-70.588
833.50	-60.000
833.80	26.667
834.10	25.000
834.40	25.000
834.70	44.444
835.00	11.538
835.30	20.833
835.60	62.069
835.90	-44.444
836.20	-145.455
836.50	-58.333
836.80	11.429
837.10	60.000
837.40	-29.412
837.70	-72.727
838.00	-41.667
838.30	50.000
838.60	-19.048
838.90	0.000
839.19	-4.348
839.49	43.478
839.79	5.556
840.09	-8.696
840.39	-27.273
840.69	37.500
840.99	-21.053
841.29	-31.250
841.59	-35.714
841.88	-27.778
842.18	50.000
842.48	-41.176
842.78	20.690
843.08	-21.429
843.38	-7.692
843.68	-188.889
843.97	-30.769
844.27	-90.909
844.57	-240.000
844.87	8.000
845.17	-100.000
845.47	7.143
845.76	-22.222
846.06	0.000
846.36	-400.000
846.66	-50.000
846.96	-36.842
847.25	29.167
847.55	-58.333
847.85	13.333
848.15	-100.000
848.44	46.154
848.74	15.789
849.04	400.000
849.34	-122.222
849.63	-36.842
849.93	0.000
850.23	-50.000
850.53	9.524
850.82	0.000
851.12	42.105
851.42	-1050.000
851.71	-7.143
852.01	-58.333
852.31	5.882
852.61	-6.667
852.90	0.000
853.20	-83.333
853.50	5.556
853.79	-26.316
854.09	-33.333
854.39	-3.571
854.68	17.391
854.98	-58.333
855.28	51.724
855.57	-25.000
855.87	-25.000
856.17	-13.333
856.46	-13.793
856.76	20.000
857.05	-41.176
857.35	-130.769
857.65	-9.091
857.94	3.704
858.24	-85.714
858.53	14.286
858.83	33.333
859.13	-88.889
859.42	28.571
859.72	-87.500
860.01	-200.000
860.31	-50.000
860.60	-400.000
860.90	-44.444
861.20	-112.500
861.49	-271.429
861.79	52.941
862.08	-650.000
862.38	-83.333
862.67	7.692
862.97	41.176
863.26	-25.000
863.56	-41.176
863.85	400.000
864.15	-130.000
864.44	-84.615
864.74	30.000
865.03	-100.000
865.33	-166.667
865.62	-23.529
865.92	-400.000
866.21	-85.714
866.51	-25.000
866.80	-400.000
867.10	-366.667
867.39	52.941
867.69	43.478
867.98	14.286
868.27	-280.000
868.57	-50.000
868.86	-109.091
869.16	17.647
869.45	-16.667
869.75	-171.429
870.04	800.000
870.33	-50.000
870.63	-80.000
870.92	33.333
871.22	-100.000
871.51	-90.909
871.80	66.667
872.10	10.000
>>>>>End Processed Spectral Data<<<<<
