SpectraSuite Data File
++++++++++++++++++++++++++++++++++++
Date: Sat May 16 11:20:28 PDT 2015
User: schluterlab
Dark Spectrum Present: Yes
Reference Spectrum Present: Yes
Number of Sampled Component Spectra: 1
Spectrometers: USB2E3373
Integration Time (usec): 3000 (USB2E3373)
Spectra Averaged: 3 (USB2E3373)
Boxcar Smoothing: 0 (USB2E3373)
Correct for Electrical Dark: No (USB2E3373)
Strobe/Lamp Enabled: No (USB2E3373)
Correct for Detector Non-linearity: No (USB2E3373)
Correct for Stray Light: No (USB2E3373)
Number of Pixels in Processed Spectrum: 2048
>>>>>Begin Processed Spectral Data<<<<<
178.53	0.000
178.91	120.000
179.29	700.000
179.67	-1200.000
180.04	-23.077
180.42	1000.000
180.80	225.000
181.18	500.000
181.56	-62.500
181.94	1000.000
182.31	650.000
182.69	-61.538
183.07	-666.667
183.45	1750.000
183.83	100.000
184.20	-128.571
184.58	-262.500
184.96	-275.000
185.34	125.000
185.72	-275.000
186.09	200.000
186.47	-200.000
186.85	-175.000
187.23	-75.000
187.61	0.000
187.98	-300.000
188.36	-37.500
188.74	-100.000
189.12	100.000
189.49	271.429
189.87	8.333
190.25	350.000
190.63	28.571
191.00	-111.111
191.38	280.000
191.76	-33.333
192.14	440.000
192.51	-160.000
192.89	-500.000
193.27	0.000
193.65	-111.111
194.02	-171.429
194.40	300.000
194.78	-150.000
195.15	-200.000
195.53	-54.545
195.91	-266.667
196.29	140.000
196.66	-166.667
197.04	1800.000
197.42	-100.000
197.79	106.667
198.17	-233.333
198.55	-700.000
198.92	-900.000
199.30	150.000
199.68	-450.000
200.05	-144.444
200.43	-66.667
200.81	-2600.000
201.18	-75.000
201.56	214.286
201.94	-46.667
202.31	22.727
202.69	120.000
203.07	-10.000
203.44	333.333
203.82	-200.000
204.19	-225.000
204.57	-200.000
204.95	-100.000
205.32	-18.750
205.70	1900.000
206.08	-1600.000
206.45	-44.444
206.83	-650.000
207.20	-250.000
207.58	-533.333
207.96	-133.333
208.33	-12.500
208.71	-66.667
209.08	140.000
209.46	-142.857
209.84	650.000
210.21	0.000
210.59	15.000
210.96	500.000
211.34	-183.333
211.71	-400.000
212.09	150.000
212.46	1000.000
212.84	-1200.000
213.22	533.333
213.59	91.667
213.97	22.222
214.34	130.000
214.72	-150.000
215.09	-333.333
215.47	166.667
215.84	-70.000
216.22	-40.000
216.59	53.333
216.97	-175.000
217.34	700.000
217.72	-42.857
218.09	-133.333
218.47	-114.286
218.84	171.429
219.22	-71.429
219.59	0.000
219.97	185.714
220.34	500.000
220.72	225.000
221.09	15.385
221.47	0.000
221.84	433.333
222.22	50.000
222.59	200.000
222.97	-137.500
223.34	-200.000
223.72	-266.667
224.09	-14.286
224.46	0.000
224.84	-35.714
225.21	-328.571
225.59	-172.727
225.96	12.500
226.34	-114.286
226.71	-66.667
227.08	15.000
227.46	1600.000
227.83	0.000
228.21	-137.500
228.58	500.000
228.95	-31.250
229.33	-1700.000
229.70	-400.000
230.08	-550.000
230.45	-58.333
230.82	-16.667
231.20	-1000.000
231.57	-450.000
231.95	1100.000
232.32	28.571
232.69	-55.556
233.07	-257.143
233.44	-650.000
233.81	-100.000
234.19	55.556
234.56	-31.250
234.93	9.375
235.31	-271.429
235.68	-178.571
236.05	11.765
236.43	-22.727
236.80	19.355
237.17	25.000
237.55	23.810
237.92	-40.909
238.29	-14.286
238.67	11.765
239.04	2.778
239.41	9.677
239.79	-10.256
240.16	-4.762
240.53	30.909
240.91	30.769
241.28	40.000
241.65	46.154
242.02	11.475
242.40	27.869
242.77	27.273
243.14	11.864
243.51	35.714
243.89	3.797
244.26	25.843
244.63	20.000
245.00	26.316
245.38	31.356
245.75	37.168
246.12	34.400
246.49	31.496
246.87	30.081
247.24	24.576
247.61	27.966
247.98	32.394
248.36	25.874
248.73	24.684
249.10	23.567
249.47	27.485
249.84	35.795
250.22	20.833
250.59	24.859
250.96	29.319
251.33	35.071
251.70	32.692
252.08	35.545
252.45	24.645
252.82	30.476
253.19	30.213
253.56	33.065
253.94	29.114
254.31	29.185
254.68	29.675
255.05	33.468
255.42	34.921
255.79	27.240
256.16	37.255
256.54	33.088
256.91	32.955
257.28	29.304
257.65	30.142
258.02	34.591
258.39	32.441
258.76	35.135
259.14	28.704
259.51	34.754
259.88	31.707
260.25	33.851
260.62	29.904
260.99	31.157
261.36	32.927
261.73	36.127
262.10	31.944
262.47	31.339
262.85	32.857
263.22	32.665
263.59	28.923
263.96	29.855
264.33	32.520
264.70	32.597
265.07	34.066
265.44	32.300
265.81	30.491
266.18	30.633
266.55	31.618
266.92	35.264
267.29	30.508
267.66	34.074
268.03	31.884
268.40	31.690
268.77	33.012
269.14	33.411
269.51	31.954
269.88	30.734
270.25	29.138
270.62	34.783
270.99	31.532
271.36	34.033
271.73	32.063
272.10	35.011
272.47	29.333
272.84	35.111
273.21	32.339
273.58	31.868
273.95	31.798
274.32	33.032
274.69	34.573
275.06	33.129
275.43	30.134
275.80	35.845
276.17	31.799
276.54	31.772
276.91	32.305
277.28	32.860
277.65	34.298
278.02	33.194
278.39	32.809
278.76	32.470
279.13	34.783
279.50	32.406
279.87	32.135
280.23	31.174
280.60	31.610
280.97	31.262
281.34	32.108
281.71	29.231
282.08	33.266
282.45	31.568
282.82	31.008
283.19	32.909
283.56	34.249
283.92	31.449
284.29	33.086
284.66	28.597
285.03	31.373
285.40	32.472
285.77	32.807
286.14	30.686
286.51	30.373
286.87	33.031
287.24	33.106
287.61	32.231
287.98	31.023
288.35	30.579
288.72	31.070
289.08	28.475
289.45	28.788
289.82	27.509
290.19	30.049
290.56	28.264
290.93	28.617
291.29	28.363
291.66	28.824
292.03	30.769
292.40	29.367
292.77	27.329
293.13	28.943
293.50	30.163
293.87	29.294
294.24	30.015
294.60	25.606
294.97	29.135
295.34	27.852
295.71	27.381
296.08	25.960
296.44	26.466
296.81	29.915
297.18	27.606
297.55	27.401
297.91	27.476
298.28	25.753
298.65	26.639
299.02	27.273
299.38	25.668
299.75	28.125
300.12	26.538
300.48	25.959
300.85	25.557
301.22	25.356
301.59	23.797
301.95	26.700
302.32	25.684
302.69	26.805
303.05	24.542
303.42	25.625
303.79	26.555
304.15	25.118
304.52	25.554
304.89	26.446
305.25	26.984
305.62	25.969
305.99	25.913
306.35	26.415
306.72	25.057
307.09	26.561
307.45	25.426
307.82	24.358
308.19	26.286
308.55	25.272
308.92	25.456
309.29	25.405
309.65	25.981
310.02	25.594
310.38	25.730
310.75	27.561
311.12	27.996
311.48	27.244
311.85	27.394
312.22	26.468
312.58	28.383
312.95	27.115
313.31	29.471
313.68	28.241
314.05	28.882
314.41	28.471
314.78	27.972
315.14	28.332
315.51	29.483
315.87	30.397
316.24	29.349
316.61	30.038
316.97	31.045
317.34	31.985
317.70	30.334
318.07	31.437
318.43	31.273
318.80	32.488
319.16	30.206
319.53	32.143
319.89	32.173
320.26	33.529
320.62	32.500
320.99	33.532
321.35	33.793
321.72	35.210
322.08	36.301
322.45	37.327
322.81	38.521
323.18	38.232
323.54	38.262
323.91	39.018
324.27	40.589
324.64	40.494
325.00	40.750
325.37	41.810
325.73	43.570
326.10	42.958
326.46	44.221
326.83	45.447
327.19	44.454
327.56	48.211
327.92	47.664
328.29	48.745
328.65	48.636
329.01	51.590
329.38	51.472
329.74	52.564
330.11	50.499
330.47	50.954
330.84	53.987
331.20	53.971
331.56	52.051
331.93	53.108
332.29	56.804
332.66	53.819
333.02	54.570
333.38	55.376
333.75	54.764
334.11	56.000
334.48	54.898
334.84	55.381
335.20	56.826
335.57	58.213
335.93	58.281
336.29	56.067
336.66	55.771
337.02	58.018
337.38	55.080
337.75	57.594
338.11	58.945
338.47	59.253
338.84	57.350
339.20	58.348
339.56	57.932
339.93	58.289
340.29	56.687
340.65	57.780
341.02	58.094
341.38	57.793
341.74	59.018
342.11	59.044
342.47	58.541
342.83	57.011
343.20	59.009
343.56	56.816
343.92	59.599
344.28	59.378
344.65	56.931
345.01	59.328
345.37	57.807
345.73	57.038
346.10	56.337
346.46	57.758
346.82	59.182
347.19	58.340
347.55	58.266
347.91	58.740
348.27	57.995
348.63	60.016
349.00	59.427
349.36	57.221
349.72	61.385
350.08	59.022
350.45	59.890
350.81	59.793
351.17	60.209
351.53	59.268
351.89	59.499
352.26	60.388
352.62	60.215
352.98	59.968
353.34	61.551
353.70	58.996
354.07	60.268
354.43	60.949
354.79	59.350
355.15	59.665
355.51	60.313
355.87	61.423
356.24	59.492
356.60	63.981
356.96	61.663
357.32	61.045
357.68	62.375
358.04	61.740
358.40	60.866
358.77	61.901
359.13	61.744
359.49	61.376
359.85	62.271
360.21	61.872
360.57	60.994
360.93	62.667
361.29	63.303
361.66	61.662
362.02	63.683
362.38	62.289
362.74	64.029
363.10	62.626
363.46	64.601
363.82	62.536
364.18	62.446
364.54	64.546
364.90	61.915
365.26	63.766
365.62	65.360
365.98	63.727
366.35	63.239
366.71	62.438
367.07	64.220
367.43	64.447
367.79	64.330
368.15	64.865
368.51	64.755
368.87	64.560
369.23	64.982
369.59	64.444
369.95	65.680
370.31	66.526
370.67	65.076
371.03	65.671
371.39	65.700
371.75	66.237
372.11	66.499
372.47	67.317
372.83	67.107
373.19	66.571
373.55	66.502
373.91	66.714
374.27	66.393
374.63	65.355
374.99	67.316
375.35	66.285
375.71	66.644
376.07	67.214
376.42	65.960
376.78	68.497
377.14	69.559
377.50	69.181
377.86	67.880
378.22	67.148
378.58	67.573
378.94	67.448
379.30	67.642
379.66	67.092
380.02	67.558
380.38	68.761
380.74	68.875
381.09	67.780
381.45	68.795
381.81	66.727
382.17	67.857
382.53	66.626
382.89	68.421
383.25	69.777
383.61	67.099
383.97	68.708
384.32	69.274
384.68	69.045
385.04	68.599
385.40	67.925
385.76	69.878
386.12	67.895
386.48	69.431
386.83	69.018
387.19	68.858
387.55	68.201
387.91	69.117
388.27	68.396
388.62	67.668
388.98	69.291
389.34	68.360
389.70	68.149
390.06	68.179
390.42	68.654
390.77	67.571
391.13	69.814
391.49	68.559
391.85	68.641
392.20	67.718
392.56	66.891
392.92	68.796
393.28	68.255
393.64	70.415
393.99	68.615
394.35	67.518
394.71	67.634
395.07	68.613
395.42	67.282
395.78	67.379
396.14	66.854
396.50	67.095
396.85	67.551
397.21	67.861
397.57	67.538
397.92	67.447
398.28	68.556
398.64	68.174
399.00	68.933
399.35	67.418
399.71	68.467
400.07	67.164
400.42	67.518
400.78	66.309
401.14	66.347
401.49	65.625
401.85	68.395
402.21	65.673
402.57	66.201
402.92	67.716
403.28	65.931
403.63	63.930
403.99	65.382
404.35	64.312
404.70	64.658
405.06	64.764
405.42	64.084
405.77	65.441
406.13	64.452
406.49	65.069
406.84	65.987
407.20	65.194
407.55	65.674
407.91	64.249
408.27	65.196
408.62	64.221
408.98	64.039
409.34	64.351
409.69	64.839
410.05	65.312
410.40	65.420
410.76	62.952
411.11	64.651
411.47	63.939
411.83	63.875
412.18	63.366
412.54	62.355
412.89	63.244
413.25	62.456
413.60	63.791
413.96	63.771
414.31	63.058
414.67	62.984
415.03	63.001
415.38	64.476
415.74	64.626
416.09	63.747
416.45	64.220
416.80	64.759
417.16	65.316
417.51	65.003
417.87	64.595
418.22	64.286
418.58	64.570
418.93	65.175
419.29	64.680
419.64	65.201
420.00	66.403
420.35	67.061
420.71	65.726
421.06	65.207
421.42	66.803
421.77	67.560
422.12	67.543
422.48	67.397
422.83	67.540
423.19	67.205
423.54	67.378
423.90	67.611
424.25	68.948
424.61	70.627
424.96	71.387
425.31	71.101
425.67	69.857
426.02	69.707
426.38	70.720
426.73	71.479
427.09	71.752
427.44	70.057
427.79	71.628
428.15	71.035
428.50	72.258
428.85	71.403
429.21	72.828
429.56	74.010
429.92	72.144
430.27	74.078
430.62	74.660
430.98	73.654
431.33	74.600
431.68	74.209
432.04	75.713
432.39	75.726
432.74	75.959
433.10	74.789
433.45	75.360
433.80	76.428
434.16	75.819
434.51	78.356
434.86	77.680
435.22	79.009
435.57	77.601
435.92	77.315
436.28	78.932
436.63	77.841
436.98	76.518
437.34	76.728
437.69	77.538
438.04	79.410
438.39	79.964
438.75	79.802
439.10	78.234
439.45	78.877
439.81	79.458
440.16	79.160
440.51	81.059
440.86	80.104
441.22	79.381
441.57	79.737
441.92	79.847
442.27	79.654
442.63	80.150
442.98	80.813
443.33	79.572
443.68	80.823
444.03	79.519
444.39	80.029
444.74	81.993
445.09	80.647
445.44	81.654
445.79	81.948
446.15	82.147
446.50	81.056
446.85	81.067
447.20	81.256
447.55	81.768
447.91	82.369
448.26	80.726
448.61	81.268
448.96	84.202
449.31	83.145
449.66	82.770
450.02	80.831
450.37	82.957
450.72	82.316
451.07	84.601
451.42	82.776
451.77	82.944
452.12	83.492
452.47	83.123
452.83	82.994
453.18	83.744
453.53	84.701
453.88	84.988
454.23	83.374
454.58	85.705
454.93	83.564
455.28	83.493
455.63	84.029
455.98	84.699
456.34	83.227
456.69	82.677
457.04	84.143
457.39	84.749
457.74	83.225
458.09	83.875
458.44	85.219
458.79	85.762
459.14	84.541
459.49	85.080
459.84	83.418
460.19	82.339
460.54	85.178
460.89	85.146
461.24	82.149
461.59	83.646
461.94	84.787
462.29	84.574
462.64	85.375
462.99	86.747
463.34	83.592
463.69	86.005
464.04	82.308
464.39	83.333
464.74	82.801
465.09	83.343
465.44	84.602
465.79	83.305
466.14	84.062
466.49	85.550
466.84	85.114
467.19	85.474
467.54	82.911
467.89	84.895
468.24	85.036
468.59	84.510
468.94	86.302
469.29	85.510
469.64	85.243
469.99	85.888
470.34	85.638
470.68	87.137
471.03	85.478
471.38	85.903
471.73	86.503
472.08	84.605
472.43	85.393
472.78	85.133
473.13	85.752
473.48	86.790
473.83	85.422
474.17	85.414
474.52	87.404
474.87	84.091
475.22	84.071
475.57	85.556
475.92	85.475
476.27	84.286
476.61	85.352
476.96	85.467
477.31	86.114
477.66	86.884
478.01	84.873
478.36	84.075
478.70	86.332
479.05	86.804
479.40	85.907
479.75	83.435
480.10	83.085
480.45	83.075
480.79	84.847
481.14	85.198
481.49	85.334
481.84	85.160
482.19	84.422
482.53	85.653
482.88	83.626
483.23	84.319
483.58	83.904
483.92	86.144
484.27	83.252
484.62	83.931
484.97	83.009
485.31	81.408
485.66	79.528
486.01	79.706
486.36	82.156
486.70	83.792
487.05	82.900
487.40	83.040
487.75	82.173
488.09	83.230
488.44	82.442
488.79	81.995
489.13	83.340
489.48	84.462
489.83	85.459
490.17	84.414
490.52	85.236
490.87	84.850
491.22	85.474
491.56	84.213
491.91	85.782
492.26	84.340
492.60	85.633
492.95	84.484
493.30	84.612
493.64	83.780
493.99	85.229
494.34	85.667
494.68	86.096
495.03	84.656
495.37	85.939
495.72	86.640
496.07	85.171
496.41	86.336
496.76	85.845
497.11	86.057
497.45	85.345
497.80	86.043
498.14	85.953
498.49	86.238
498.84	84.223
499.18	85.721
499.53	85.046
499.87	85.328
500.22	85.588
500.56	86.793
500.91	84.581
501.26	84.377
501.60	85.315
501.95	86.473
502.29	84.554
502.64	84.347
502.98	85.577
503.33	84.774
503.67	85.057
504.02	85.369
504.36	85.147
504.71	85.005
505.06	85.871
505.40	85.279
505.75	88.262
506.09	85.895
506.44	85.514
506.78	85.700
507.13	85.427
507.47	86.594
507.82	86.009
508.16	85.751
508.51	86.090
508.85	85.300
509.19	85.662
509.54	86.575
509.88	85.372
510.23	85.901
510.57	86.614
510.92	88.185
511.26	85.274
511.61	86.609
511.95	86.207
512.30	88.180
512.64	86.533
512.98	86.469
513.33	86.052
513.67	85.539
514.02	86.018
514.36	85.319
514.70	85.512
515.05	87.021
515.39	86.794
515.74	87.435
516.08	86.686
516.42	86.062
516.77	88.215
517.11	86.842
517.46	88.098
517.80	88.147
518.14	86.957
518.49	87.388
518.83	86.291
519.17	85.554
519.52	85.483
519.86	87.993
520.20	88.325
520.55	88.123
520.89	87.163
521.23	87.179
521.58	87.022
521.92	87.144
522.26	85.397
522.61	87.009
522.95	86.343
523.29	86.458
523.64	86.758
523.98	88.288
524.32	86.549
524.66	86.211
525.01	87.219
525.35	88.273
525.69	86.467
526.04	87.533
526.38	87.715
526.72	84.674
527.06	87.500
527.41	87.195
527.75	86.205
528.09	87.426
528.43	87.148
528.78	85.302
529.12	86.748
529.46	86.018
529.80	86.314
530.15	86.220
530.49	85.511
530.83	84.938
531.17	86.128
531.51	84.729
531.86	83.805
532.20	85.155
532.54	84.759
532.88	85.046
533.22	86.832
533.57	83.943
533.91	83.271
534.25	83.281
534.59	82.448
534.93	83.012
535.27	83.197
535.62	84.591
535.96	81.900
536.30	83.312
536.64	83.865
536.98	86.511
537.32	85.073
537.66	83.910
538.01	84.330
538.35	83.986
538.69	83.422
539.03	83.412
539.37	84.298
539.71	83.923
540.05	84.647
540.39	83.864
540.73	84.589
541.07	84.699
541.42	82.579
541.76	81.262
542.10	83.997
542.44	82.278
542.78	82.700
543.12	85.064
543.46	82.123
543.80	82.007
544.14	83.412
544.48	81.562
544.82	83.897
545.16	82.294
545.50	82.032
545.84	82.476
546.18	84.535
546.52	83.642
546.86	83.761
547.20	84.599
547.54	81.749
547.88	82.747
548.22	82.831
548.56	83.166
548.90	82.278
549.24	83.672
549.58	84.121
549.92	83.322
550.26	82.514
550.60	81.721
550.94	84.453
551.28	83.220
551.62	82.718
551.96	83.068
552.30	81.951
552.64	85.222
552.98	83.812
553.32	84.416
553.66	84.283
554.00	82.587
554.34	85.343
554.68	81.579
555.02	83.285
555.36	83.106
555.69	84.527
556.03	83.368
556.37	83.215
556.71	85.540
557.05	86.844
557.39	85.152
557.73	82.932
558.07	85.607
558.41	83.022
558.75	83.802
559.08	83.502
559.42	84.456
559.76	85.583
560.10	84.042
560.44	85.477
560.78	84.830
561.12	82.816
561.45	83.562
561.79	82.718
562.13	84.081
562.47	83.683
562.81	83.593
563.15	84.115
563.48	83.690
563.82	83.570
564.16	82.353
564.50	81.855
564.84	82.275
565.17	82.294
565.51	83.051
565.85	85.328
566.19	83.531
566.52	83.301
566.86	82.364
567.20	82.022
567.54	82.339
567.88	81.184
568.21	81.320
568.55	80.435
568.89	80.318
569.23	79.454
569.56	76.923
569.90	78.127
570.24	77.941
570.57	75.220
570.91	75.621
571.25	76.459
571.59	76.116
571.92	75.060
572.26	74.775
572.60	75.427
572.93	75.132
573.27	74.390
573.61	73.702
573.95	74.215
574.28	74.107
574.62	74.021
574.96	73.180
575.29	73.095
575.63	74.224
575.97	72.869
576.30	73.801
576.64	73.943
576.98	72.779
577.31	73.635
577.65	72.713
577.98	72.410
578.32	72.427
578.66	72.629
578.99	73.346
579.33	73.876
579.67	73.117
580.00	72.693
580.34	73.092
580.67	73.646
581.01	72.098
581.35	72.775
581.68	71.565
582.02	73.600
582.35	72.748
582.69	73.697
583.02	74.447
583.36	72.903
583.70	74.680
584.03	74.704
584.37	74.966
584.70	74.333
585.04	73.873
585.37	72.554
585.71	73.464
586.04	74.873
586.38	74.231
586.72	74.831
587.05	74.653
587.39	74.898
587.72	74.675
588.06	75.131
588.39	74.765
588.73	75.769
589.06	76.055
589.40	77.396
589.73	75.496
590.07	76.038
590.40	75.314
590.73	77.169
591.07	77.377
591.40	77.166
591.74	76.325
592.07	77.793
592.41	77.580
592.74	77.248
593.08	76.828
593.41	76.645
593.75	75.833
594.08	77.858
594.41	77.523
594.75	76.595
595.08	78.120
595.42	76.915
595.75	76.736
596.09	77.765
596.42	78.560
596.75	77.749
597.09	77.293
597.42	77.259
597.75	77.857
598.09	79.304
598.42	76.536
598.76	76.952
599.09	77.230
599.42	76.932
599.76	77.010
600.09	77.137
600.42	76.643
600.76	76.874
601.09	75.959
601.42	76.336
601.76	76.324
602.09	77.423
602.42	75.844
602.76	76.735
603.09	77.258
603.42	78.525
603.76	77.383
604.09	77.333
604.42	78.018
604.76	77.846
605.09	78.255
605.42	77.438
605.75	78.180
606.09	77.792
606.42	77.671
606.75	76.428
607.09	76.886
607.42	77.597
607.75	77.925
608.08	76.954
608.42	79.565
608.75	76.589
609.08	78.324
609.41	78.376
609.75	76.987
610.08	79.069
610.41	78.217
610.74	78.820
611.07	79.868
611.41	77.206
611.74	78.869
612.07	80.451
612.40	77.932
612.73	78.244
613.07	78.976
613.40	80.679
613.73	79.237
614.06	78.254
614.39	80.947
614.72	78.045
615.06	78.098
615.39	79.110
615.72	79.087
616.05	77.747
616.38	80.209
616.71	79.279
617.05	80.217
617.38	79.938
617.71	78.808
618.04	79.938
618.37	81.761
618.70	80.639
619.03	80.975
619.36	80.620
619.69	80.689
620.03	80.165
620.36	80.872
620.69	82.053
621.02	83.257
621.35	82.661
621.68	83.361
622.01	83.495
622.34	82.143
622.67	82.813
623.00	82.020
623.33	82.537
623.66	82.570
623.99	81.729
624.32	82.589
624.65	80.795
624.99	83.346
625.32	81.662
625.65	82.984
625.98	81.299
626.31	83.361
626.64	83.933
626.97	85.445
627.30	83.574
627.63	82.988
627.96	85.640
628.29	85.570
628.62	82.044
628.95	86.319
629.28	84.211
629.61	84.593
629.94	84.594
630.26	87.376
630.59	86.332
630.92	86.086
631.25	86.391
631.58	87.407
631.91	86.915
632.24	89.333
632.57	86.556
632.90	89.310
633.23	89.603
633.56	87.719
633.89	89.033
634.22	89.020
634.55	88.822
634.88	87.062
635.20	89.139
635.53	88.931
635.86	87.531
636.19	87.668
636.52	87.336
636.85	85.800
637.18	87.625
637.51	88.600
637.83	89.481
638.16	88.158
638.49	90.897
638.82	88.417
639.15	88.716
639.48	87.160
639.81	91.010
640.13	86.892
640.46	88.177
640.79	91.317
641.12	87.870
641.45	88.092
641.77	91.766
642.10	90.332
642.43	92.109
642.76	89.449
643.09	91.429
643.41	93.333
643.74	92.210
644.07	89.236
644.40	90.113
644.73	94.884
645.05	91.653
645.38	91.887
645.71	95.017
646.04	90.756
646.36	91.449
646.69	91.696
647.02	96.029
647.35	94.043
647.67	95.255
648.00	94.025
648.33	94.435
648.66	89.032
648.98	90.764
649.31	89.231
649.64	90.625
649.96	86.499
650.29	88.689
650.62	91.738
650.94	87.690
651.27	90.815
651.60	88.408
651.92	92.123
652.25	89.316
652.58	92.845
652.90	86.517
653.23	88.548
653.56	93.144
653.88	88.033
654.21	92.617
654.54	89.867
654.86	87.480
655.19	87.679
655.52	79.894
655.84	72.966
656.17	77.664
656.49	100.000
656.82	100.000
657.15	85.031
657.47	59.909
657.80	46.382
658.13	53.323
658.45	72.180
658.78	71.816
659.10	71.482
659.43	70.453
659.75	71.558
660.08	71.615
660.41	71.877
660.73	76.898
661.06	82.174
661.38	91.250
661.71	91.587
662.03	89.113
662.36	95.096
662.68	93.882
663.01	93.631
663.33	96.145
663.66	92.275
663.98	92.634
664.31	94.855
664.63	94.248
664.96	93.709
665.28	96.963
665.61	92.600
665.93	94.444
666.26	89.069
666.58	87.734
666.91	93.318
667.23	92.544
667.56	88.209
667.88	95.023
668.21	94.009
668.53	95.561
668.86	93.533
669.18	93.607
669.50	92.290
669.83	98.540
670.15	90.359
670.48	96.495
670.80	92.027
671.13	90.745
671.45	90.541
671.77	92.077
672.10	90.927
672.42	88.007
672.75	88.545
673.07	86.306
673.39	87.250
673.72	88.189
674.04	93.418
674.37	87.010
674.69	87.705
675.01	87.660
675.34	92.408
675.66	89.201
675.98	92.070
676.31	94.118
676.63	92.414
676.95	90.929
677.28	93.503
677.60	90.271
677.92	90.088
678.25	92.779
678.57	91.770
678.89	90.147
679.22	90.566
679.54	89.349
679.86	88.400
680.18	86.692
680.51	85.847
680.83	86.095
681.15	86.127
681.48	90.872
681.80	89.113
682.12	87.324
682.44	85.069
682.77	88.961
683.09	84.696
683.41	89.381
683.73	84.703
684.06	90.108
684.38	87.238
684.70	87.860
685.02	84.843
685.34	85.575
685.67	86.174
685.99	85.633
686.31	85.278
686.63	80.851
686.96	82.810
687.28	82.466
687.60	86.523
687.92	84.436
688.24	86.220
688.56	85.371
688.89	86.752
689.21	90.153
689.53	89.885
689.85	84.855
690.17	85.202
690.49	88.222
690.82	87.711
691.14	88.208
691.46	88.027
691.78	87.885
692.10	87.288
692.42	86.889
692.74	83.691
693.06	88.764
693.39	85.682
693.71	86.456
694.03	86.825
694.35	86.682
694.67	86.761
694.99	85.678
695.31	90.816
695.63	87.245
695.95	87.097
696.27	88.030
696.59	92.246
696.91	91.854
697.23	90.365
697.56	90.144
697.88	88.063
698.20	80.514
698.52	78.924
698.84	88.835
699.16	83.810
699.48	84.500
699.80	82.957
700.12	85.390
700.44	86.592
700.76	90.379
701.08	88.372
701.40	89.124
701.72	86.420
702.04	91.667
702.36	90.964
702.68	85.329
703.00	88.406
703.32	85.387
703.64	93.824
703.96	87.500
704.28	90.828
704.60	83.861
704.91	86.984
705.23	87.702
705.55	89.189
705.87	88.396
706.19	85.764
706.51	90.278
706.83	88.525
707.15	90.446
707.47	86.226
707.79	88.918
708.11	82.443
708.43	84.788
708.74	83.117
709.06	84.680
709.38	84.483
709.70	88.125
710.02	84.356
710.34	84.158
710.66	80.635
710.98	87.697
711.29	85.161
711.61	86.262
711.93	87.213
712.25	89.037
712.57	86.760
712.89	90.288
713.20	85.567
713.52	88.060
713.84	89.680
714.16	87.541
714.48	86.984
714.80	82.462
715.11	81.844
715.43	85.843
715.75	84.112
716.07	81.639
716.39	85.619
716.70	85.714
717.02	84.815
717.34	85.496
717.66	94.191
717.97	86.475
718.29	91.597
718.61	92.063
718.93	79.570
719.24	85.294
719.56	79.245
719.88	81.818
720.20	86.517
720.51	84.962
720.83	91.165
721.15	86.475
721.46	84.314
721.78	83.142
722.10	80.000
722.42	87.603
722.73	87.251
723.05	85.944
723.37	83.922
723.68	79.352
724.00	87.805
724.32	83.951
724.63	83.817
724.95	82.231
725.27	87.281
725.58	82.328
725.90	82.143
726.22	85.978
726.53	88.213
726.85	78.824
727.16	83.459
727.48	85.385
727.80	82.377
728.11	83.613
728.43	85.124
728.74	82.422
729.06	83.333
729.38	80.545
729.69	81.496
730.01	83.465
730.32	84.064
730.64	83.150
730.96	81.716
731.27	82.143
731.59	78.135
731.90	77.301
732.22	75.460
732.53	84.106
732.85	78.523
733.16	82.971
733.48	75.261
733.80	80.427
734.11	77.931
734.43	79.932
734.74	77.745
735.06	79.624
735.37	78.287
735.69	74.516
736.00	76.768
736.32	81.457
736.63	74.828
736.95	80.435
737.26	79.470
737.58	82.014
737.89	80.287
738.21	80.075
738.52	79.615
738.83	78.906
739.15	85.897
739.46	79.839
739.78	73.427
740.09	74.126
740.41	77.273
740.72	78.832
741.04	77.381
741.35	81.385
741.66	84.722
741.98	79.048
742.29	80.282
742.61	86.096
742.92	83.178
743.23	79.386
743.55	78.829
743.86	84.000
744.18	79.524
744.49	81.281
744.80	80.711
745.12	89.691
745.43	81.910
745.74	87.864
746.06	79.024
746.37	74.890
746.68	87.562
747.00	80.105
747.31	75.962
747.62	86.636
747.94	82.969
748.25	83.256
748.56	82.381
748.88	84.783
749.19	76.526
749.50	84.314
749.82	77.778
750.13	88.546
750.44	81.301
750.75	83.600
751.07	76.786
751.38	74.539
751.69	76.336
752.01	75.385
752.32	78.210
752.63	73.462
752.94	75.397
753.26	82.609
753.57	81.250
753.88	80.172
754.19	80.083
754.51	77.734
754.82	78.261
755.13	74.486
755.44	79.752
755.75	86.420
756.07	73.092
756.38	75.391
756.69	76.173
757.00	68.293
757.31	73.826
757.63	72.586
757.94	71.098
758.25	71.221
758.56	77.628
758.87	74.432
759.18	71.333
759.50	78.648
759.81	79.927
760.12	71.284
760.43	77.023
760.74	79.375
761.05	69.101
761.36	76.647
761.67	67.751
761.99	69.677
762.30	74.638
762.61	71.698
762.92	77.130
763.23	77.251
763.54	79.556
763.85	80.591
764.16	68.980
764.47	77.119
764.78	71.910
765.10	75.899
765.41	66.452
765.72	73.270
766.03	70.318
766.34	74.812
766.65	67.611
766.96	80.000
767.27	78.125
767.58	83.140
767.89	83.226
768.20	77.914
768.51	72.678
768.82	77.297
769.13	70.500
769.44	78.509
769.75	74.026
770.06	74.312
770.37	74.178
770.68	73.437
770.99	78.713
771.30	78.641
771.61	75.000
771.92	68.398
772.23	65.421
772.54	71.809
772.85	70.414
773.16	84.146
773.47	76.506
773.78	70.330
774.09	76.000
774.39	72.222
774.70	78.523
775.01	69.565
775.32	73.881
775.63	77.686
775.94	80.451
776.25	72.857
776.56	80.328
776.87	71.681
777.18	92.035
777.48	68.182
777.79	61.739
778.10	73.394
778.41	69.492
778.72	78.512
779.03	75.373
779.34	81.955
779.65	75.817
779.95	80.435
780.26	68.027
780.57	73.276
780.88	84.259
781.19	72.727
781.50	76.800
781.80	73.856
782.11	73.077
782.42	69.277
782.73	71.533
783.04	70.946
783.34	73.485
783.65	75.194
783.96	81.301
784.27	71.795
784.57	76.423
784.88	71.545
785.19	67.544
785.50	57.732
785.81	80.000
786.11	69.608
786.42	72.727
786.73	70.270
787.04	71.287
787.34	69.524
787.65	76.190
787.96	68.627
788.26	75.676
788.57	68.548
788.88	63.281
789.19	73.504
789.49	63.025
789.80	56.410
790.11	68.142
790.41	70.707
790.72	69.811
791.03	75.000
791.33	60.526
791.64	60.215
791.95	88.000
792.25	88.571
792.56	80.488
792.87	63.265
793.17	56.579
793.48	55.405
793.79	42.254
794.09	72.152
794.40	77.660
794.70	63.551
795.01	61.404
795.32	69.091
795.62	72.321
795.93	57.732
796.23	63.736
796.54	73.684
796.85	84.932
797.15	50.000
797.46	75.342
797.76	63.380
798.07	82.500
798.37	67.647
798.68	78.571
798.99	62.857
799.29	61.842
799.60	85.000
799.90	63.889
800.21	62.500
800.51	63.492
800.82	63.934
801.12	73.684
801.43	50.704
801.73	50.847
802.04	68.852
802.34	56.364
802.65	75.000
802.95	70.370
803.26	50.000
803.56	80.769
803.87	44.737
804.17	66.129
804.48	80.000
804.78	56.410
805.09	95.349
805.39	71.875
805.70	54.717
806.00	77.193
806.30	55.405
806.61	55.882
806.91	65.432
807.22	60.000
807.52	70.149
807.83	62.903
808.13	50.794
808.43	67.273
808.74	46.970
809.04	64.151
809.35	64.384
809.65	85.965
809.95	48.529
810.26	72.549
810.56	56.000
810.86	59.184
811.17	80.000
811.47	55.769
811.77	38.710
812.08	36.842
812.38	52.381
812.69	56.522
812.99	64.516
813.29	40.476
813.59	22.222
813.90	29.787
814.20	32.558
814.50	68.750
814.81	41.667
815.11	26.829
815.41	83.333
815.72	71.429
816.02	72.222
816.32	79.487
816.62	48.649
816.93	29.412
817.23	19.565
817.53	67.647
817.84	79.412
818.14	31.250
818.44	65.517
818.74	41.935
819.04	48.148
819.35	43.333
819.65	48.000
819.95	33.333
820.25	44.000
820.56	28.947
820.86	25.000
821.16	55.319
821.46	39.655
821.76	56.410
822.07	60.000
822.37	41.860
822.67	53.333
822.97	35.135
823.27	59.459
823.57	52.000
823.88	51.351
824.18	4.762
824.48	11.538
824.78	0.000
825.08	47.826
825.38	66.667
825.69	33.333
825.99	35.000
826.29	51.351
826.59	32.353
826.89	56.000
827.19	51.429
827.49	26.316
827.79	46.875
828.09	53.333
828.39	65.217
828.70	27.586
829.00	37.931
829.30	75.000
829.60	62.500
829.90	50.000
830.20	19.231
830.50	23.810
830.80	14.286
831.10	41.026
831.40	9.524
831.70	70.588
832.00	58.333
832.30	-5.263
832.60	81.250
832.90	-58.333
833.20	0.000
833.50	-40.000
833.80	-46.667
834.10	20.000
834.40	62.500
834.70	50.000
835.00	53.846
835.30	25.000
835.60	48.276
835.90	5.556
836.20	18.182
836.50	-8.333
836.80	34.286
837.10	77.143
837.40	11.765
837.70	-27.273
838.00	25.000
838.30	25.000
838.60	4.762
838.90	105.000
839.19	8.696
839.49	8.696
839.79	5.556
840.09	0.000
840.39	-18.182
840.69	-12.500
840.99	5.263
841.29	12.500
841.59	7.143
841.88	-11.111
842.18	45.833
842.48	-29.412
842.78	48.276
843.08	92.857
843.38	-15.385
843.68	-144.444
843.97	23.077
844.27	72.727
844.57	100.000
844.87	28.000
845.17	220.000
845.47	42.857
845.76	0.000
846.06	0.000
846.36	-100.000
846.66	-110.000
846.96	21.053
847.25	16.667
847.55	-16.667
847.85	66.667
848.15	0.000
848.44	42.308
848.74	26.316
849.04	233.333
849.34	-11.111
849.63	-57.895
849.93	0.000
850.23	20.000
850.53	4.762
850.82	4.000
851.12	-5.263
851.42	-350.000
851.71	14.286
852.01	16.667
852.31	23.529
852.61	-46.667
852.90	4.762
853.20	-133.333
853.50	27.778
853.79	-15.789
854.09	6.667
854.39	21.429
854.68	0.000
854.98	-25.000
855.28	27.586
855.57	43.750
855.87	-15.000
856.17	0.000
856.46	31.034
856.76	53.333
857.05	29.412
857.35	-76.923
857.65	18.182
857.94	25.926
858.24	-50.000
858.53	64.286
858.83	-75.000
859.13	-122.222
859.42	0.000
859.72	-187.500
860.01	-33.333
860.31	0.000
860.60	-160.000
860.90	-11.111
861.20	-50.000
861.49	-285.714
861.79	29.412
862.08	-650.000
862.38	-125.000
862.67	-23.077
862.97	11.765
863.26	40.000
863.56	-23.529
863.85	-66.667
864.15	-30.000
864.44	-69.231
864.74	10.000
865.03	-150.000
865.33	-266.667
865.62	-35.294
865.92	-300.000
866.21	-50.000
866.51	-83.333
866.80	-1500.000
867.10	-266.667
867.39	-23.529
867.69	4.348
867.98	-142.857
868.27	-140.000
868.57	-43.750
868.86	-90.909
869.16	11.765
869.45	100.000
869.75	-142.857
870.04	500.000
870.33	-8.333
870.63	80.000
870.92	-11.111
871.22	-91.667
871.51	-18.182
871.80	75.000
872.10	50.000
>>>>>End Processed Spectral Data<<<<<
