SpectraSuite Data File
++++++++++++++++++++++++++++++++++++
Date: Sat May 16 11:27:14 PDT 2015
User: schluterlab
Dark Spectrum Present: Yes
Reference Spectrum Present: Yes
Number of Sampled Component Spectra: 1
Spectrometers: USB2E3373
Integration Time (usec): 3000 (USB2E3373)
Spectra Averaged: 3 (USB2E3373)
Boxcar Smoothing: 0 (USB2E3373)
Correct for Electrical Dark: No (USB2E3373)
Strobe/Lamp Enabled: No (USB2E3373)
Correct for Detector Non-linearity: No (USB2E3373)
Correct for Stray Light: No (USB2E3373)
Number of Pixels in Processed Spectrum: 2048
>>>>>Begin Processed Spectral Data<<<<<
178.53	0.000
178.91	80.000
179.29	833.333
179.67	-1600.000
180.04	-123.077
180.42	1300.000
180.80	475.000
181.18	275.000
181.56	-125.000
181.94	200.000
182.31	700.000
182.69	-15.385
183.07	-500.000
183.45	1800.000
183.83	100.000
184.20	-100.000
184.58	-50.000
184.96	-575.000
185.34	137.500
185.72	-575.000
186.09	400.000
186.47	-112.500
186.85	-187.500
187.23	-62.500
187.61	-250.000
187.98	-162.500
188.36	-100.000
188.74	-225.000
189.12	600.000
189.49	457.143
189.87	-66.667
190.25	425.000
190.63	-71.429
191.00	-200.000
191.38	380.000
191.76	-26.667
192.14	500.000
192.51	-380.000
192.89	-166.667
193.27	0.000
193.65	-66.667
194.02	-314.286
194.40	500.000
194.78	-190.000
195.15	-1300.000
195.53	-136.364
195.91	-383.333
196.29	360.000
196.66	-633.333
197.04	2200.000
197.42	-325.000
197.79	-20.000
198.17	-333.333
198.55	-600.000
198.92	-1800.000
199.30	237.500
199.68	-600.000
200.05	-55.556
200.43	-222.222
200.81	-700.000
201.18	-175.000
201.56	100.000
201.94	-80.000
202.31	-13.636
202.69	-20.000
203.07	-110.000
203.44	400.000
203.82	-383.333
204.19	-425.000
204.57	-500.000
204.95	-900.000
205.32	-6.250
205.70	1600.000
206.08	-1100.000
206.45	-38.889
206.83	-1000.000
207.20	400.000
207.58	-700.000
207.96	-466.667
208.33	-175.000
208.71	-133.333
209.08	210.000
209.46	-57.143
209.84	650.000
210.21	0.000
210.59	50.000
210.96	-0.000
211.34	-116.667
211.71	-333.333
212.09	425.000
212.46	900.000
212.84	-2300.000
213.22	700.000
213.59	141.667
213.97	-88.889
214.34	120.000
214.72	-140.000
215.09	-433.333
215.47	-166.667
215.84	-80.000
216.22	-130.000
216.59	-26.667
216.97	-325.000
217.34	350.000
217.72	-100.000
218.09	-250.000
218.47	-157.143
218.84	328.571
219.22	-114.286
219.59	0.000
219.97	171.429
220.34	400.000
220.72	325.000
221.09	-46.154
221.47	0.000
221.84	466.667
222.22	-550.000
222.59	1000.000
222.97	-225.000
223.34	-1100.000
223.72	-166.667
224.09	-57.143
224.46	-400.000
224.84	-78.571
225.21	-300.000
225.59	-81.818
225.96	-200.000
226.34	28.571
226.71	-166.667
227.08	-35.000
227.46	2500.000
227.83	-328.571
228.21	-237.500
228.58	900.000
228.95	-62.500
229.33	-1000.000
229.70	-220.000
230.08	-1050.000
230.45	-66.667
230.82	-250.000
231.20	-1600.000
231.57	-450.000
231.95	2400.000
232.32	-47.619
232.69	-255.556
233.07	-214.286
233.44	-650.000
233.81	-126.667
234.19	-55.556
234.56	-56.250
234.93	6.250
235.31	-200.000
235.68	-150.000
236.05	-117.647
236.43	-90.909
236.80	9.677
237.17	-29.167
237.55	-42.857
237.92	-95.455
238.29	-51.429
238.67	2.941
239.04	8.333
239.41	-35.484
239.79	-51.282
240.16	-47.619
240.53	-27.273
240.91	-38.462
241.28	-27.273
241.65	-7.692
242.02	-13.115
242.40	-27.869
242.77	-7.576
243.14	-27.119
243.51	-20.000
243.89	-15.190
244.26	-17.978
244.63	-2.105
245.00	-8.421
245.38	-3.390
245.75	-10.619
246.12	-5.600
246.49	-3.937
246.87	-8.943
247.24	-17.797
247.61	-16.102
247.98	-8.451
248.36	-5.594
248.73	1.899
249.10	-14.013
249.47	-4.678
249.84	1.136
250.22	-11.310
250.59	-2.260
250.96	-6.283
251.33	1.896
251.70	-5.769
252.08	-0.474
252.45	-10.900
252.82	-7.619
253.19	-2.128
253.56	-4.839
253.94	-5.485
254.31	-3.863
254.68	-0.407
255.05	-9.677
255.42	-6.349
255.79	-4.301
256.16	-1.569
256.54	-4.044
256.91	-4.924
257.28	-2.930
257.65	-3.191
258.02	-0.314
258.39	-4.013
258.76	-7.432
259.14	-2.778
259.51	0.328
259.88	0.305
260.25	0.000
260.62	-3.537
260.99	-4.154
261.36	-3.049
261.73	-2.312
262.10	0.833
262.47	-1.140
262.85	-1.143
263.22	-3.725
263.59	-4.308
263.96	-2.899
264.33	-1.084
264.70	-2.762
265.07	0.000
265.44	-2.326
265.81	-2.067
266.18	-2.785
266.55	-2.696
266.92	-0.504
267.29	-1.453
267.66	-3.210
268.03	2.174
268.40	-2.113
268.77	-2.410
269.14	-2.784
269.51	-0.690
269.88	-3.211
270.25	-3.030
270.62	-2.288
270.99	-3.153
271.36	-1.865
271.73	-2.915
272.10	-3.204
272.47	-1.778
272.84	0.000
273.21	-2.523
273.58	0.879
273.95	-1.754
274.32	-1.584
274.69	0.000
275.06	-1.022
275.43	-3.348
275.80	1.629
276.17	-1.464
276.54	1.018
276.91	-2.058
277.28	-0.811
277.65	-1.446
278.02	-2.296
278.39	-0.786
278.76	-0.398
279.13	-2.372
279.50	0.000
279.87	-1.268
280.23	0.000
280.60	-3.380
280.97	-0.971
281.34	-3.095
281.71	-1.154
282.08	-0.202
282.45	-4.277
282.82	-0.388
283.19	-1.636
283.56	0.366
283.92	-1.237
284.29	-1.301
284.66	-1.079
285.03	1.426
285.40	-1.661
285.77	-1.053
286.14	-0.903
286.51	-1.954
286.87	-0.181
287.24	-0.171
287.61	-0.992
287.98	-2.253
288.35	-2.149
288.72	-1.358
289.08	-3.898
289.45	-1.684
289.82	-1.038
290.19	-0.657
290.56	-3.967
290.93	-2.544
291.29	-2.269
291.66	-1.449
292.03	-0.471
292.40	0.000
292.77	0.621
293.13	-1.626
293.50	0.594
293.87	-2.301
294.24	0.452
294.60	-2.121
294.97	-1.062
295.34	-1.778
295.71	-1.637
296.08	-2.611
296.44	-1.574
296.81	-1.567
297.18	0.141
297.55	-0.565
297.91	0.837
298.28	-1.507
298.65	-0.837
299.02	-0.267
299.38	0.134
299.75	-0.408
300.12	-0.641
300.48	0.895
300.85	-1.311
301.22	0.776
301.59	-1.170
301.95	0.756
302.32	-0.782
302.69	-0.490
303.05	-0.366
303.42	-2.000
303.79	-0.718
304.15	0.711
304.52	-0.583
304.89	-1.771
305.25	0.611
305.62	-0.705
305.99	2.002
306.35	0.555
306.72	-2.392
307.09	0.227
307.45	0.568
307.82	-0.782
308.19	0.783
308.55	-0.109
308.92	-1.074
309.29	-0.324
309.65	-0.424
310.02	0.216
310.38	-0.973
310.75	1.230
311.12	1.343
311.48	0.209
311.85	0.618
312.22	-0.309
312.58	2.136
312.95	0.000
313.31	0.400
313.68	2.513
314.05	2.374
314.41	0.302
314.78	0.599
315.14	1.777
315.51	0.101
315.87	2.904
316.24	2.721
316.61	2.879
316.97	3.184
317.34	1.830
317.70	1.391
318.07	3.172
318.43	2.060
318.80	1.878
319.16	2.345
319.53	2.350
319.89	2.446
320.26	2.745
320.62	2.019
320.99	4.179
321.35	2.857
321.72	3.071
322.08	4.352
322.45	4.059
322.81	2.978
323.18	5.476
323.54	3.420
323.91	4.634
324.27	4.848
324.64	5.119
325.00	4.625
325.37	5.882
325.73	7.174
326.10	3.809
326.46	6.042
326.83	6.043
327.19	7.089
327.56	7.411
327.92	6.967
328.29	7.619
328.65	5.545
329.01	8.834
329.38	8.118
329.74	9.341
330.11	7.344
330.47	7.902
330.84	8.708
331.20	7.762
331.56	8.113
331.93	7.638
332.29	8.402
332.66	8.253
333.02	8.778
333.38	9.140
333.75	10.419
334.11	8.444
334.48	8.826
334.84	11.199
335.20	10.018
335.57	9.928
335.93	10.474
336.29	9.920
336.66	8.811
337.02	9.820
337.38	8.913
337.75	9.745
338.11	9.928
338.47	10.053
338.84	8.893
339.20	9.490
339.56	10.428
339.93	9.965
340.29	8.857
340.65	9.266
341.02	9.528
341.38	11.205
341.74	10.246
342.11	9.556
342.47	10.472
342.83	10.747
343.20	9.308
343.56	8.898
343.92	10.184
344.28	10.849
344.65	8.581
345.01	9.412
345.37	10.548
345.73	9.329
346.10	7.768
346.46	9.504
346.82	9.623
347.19	9.778
347.55	9.149
347.91	9.213
348.27	9.944
348.63	9.774
349.00	9.706
349.36	9.133
349.72	10.350
350.08	10.425
350.45	9.141
350.81	9.793
351.17	10.048
351.53	8.910
351.89	9.054
352.26	10.388
352.62	11.598
352.98	10.047
353.34	11.191
353.70	9.189
354.07	9.913
354.43	10.356
354.79	10.301
355.15	9.505
355.51	9.375
355.87	9.723
356.24	9.531
356.60	10.475
356.96	10.162
357.32	9.026
357.68	10.345
358.04	11.393
358.40	9.358
358.77	10.046
359.13	10.635
359.49	11.111
359.85	10.061
360.21	10.274
360.57	11.145
360.93	10.444
361.29	11.286
361.66	8.994
362.02	9.837
362.38	10.565
362.74	10.623
363.10	10.043
363.46	11.396
363.82	10.860
364.18	10.854
364.54	12.795
364.90	10.342
365.26	10.842
365.62	11.475
365.98	11.664
366.35	10.563
366.71	11.487
367.07	11.574
367.43	12.903
367.79	12.096
368.15	11.024
368.51	12.308
368.87	13.668
369.23	12.842
369.59	12.569
369.95	11.980
370.31	12.658
370.67	11.714
371.03	11.953
371.39	11.457
371.75	12.446
372.11	11.478
372.47	12.075
372.83	12.796
373.19	12.214
373.55	12.808
373.91	12.945
374.27	11.910
374.63	12.284
374.99	12.239
375.35	12.517
375.71	13.977
376.07	13.142
376.42	11.921
376.78	13.464
377.14	13.085
377.50	13.798
377.86	13.589
378.22	14.070
378.58	14.083
378.94	13.625
379.30	13.955
379.66	13.297
380.02	13.844
380.38	13.656
380.74	13.482
381.09	15.231
381.45	14.916
381.81	15.245
382.17	14.223
382.53	14.590
382.89	14.474
383.25	14.750
383.61	15.448
383.97	16.044
384.32	14.956
384.68	15.538
385.04	14.432
385.40	15.338
385.76	14.817
386.12	15.678
386.48	16.460
386.83	16.074
387.19	16.378
387.55	15.930
387.91	15.768
388.27	14.837
388.62	16.346
388.98	16.293
389.34	15.606
389.70	16.322
390.06	15.475
390.42	17.308
390.77	16.215
391.13	17.205
391.49	16.968
391.85	17.269
392.20	16.323
392.56	16.310
392.92	16.771
393.28	16.705
393.64	16.837
393.99	17.538
394.35	16.545
394.71	16.862
395.07	17.640
395.42	16.210
395.78	17.410
396.14	17.196
396.50	16.330
396.85	17.088
397.21	16.889
397.57	17.812
397.92	17.857
398.28	17.111
398.64	17.609
399.00	17.921
399.35	17.813
399.71	17.828
400.07	18.149
400.42	18.187
400.78	16.935
401.14	17.725
401.49	17.335
401.85	18.365
402.21	18.176
402.57	18.083
402.92	18.439
403.28	16.850
403.63	17.376
403.99	17.961
404.35	18.478
404.70	17.730
405.06	18.743
405.42	17.897
405.77	17.421
406.13	17.888
406.49	18.634
406.84	17.816
407.20	18.610
407.55	17.479
407.91	18.070
408.27	19.056
408.62	18.340
408.98	18.132
409.34	18.708
409.69	18.273
410.05	17.526
410.40	17.903
410.76	18.257
411.11	18.329
411.47	17.711
411.83	18.460
412.18	17.574
412.54	17.816
412.89	17.618
413.25	17.946
413.60	17.436
413.96	17.498
414.31	18.532
414.67	17.460
415.03	18.499
415.38	17.957
415.74	18.686
416.09	17.711
416.45	17.460
416.80	18.661
417.16	17.940
417.51	19.238
417.87	17.799
418.22	18.521
418.58	18.164
418.93	18.639
419.29	17.880
419.64	17.714
420.00	19.077
420.35	17.978
420.71	18.607
421.06	17.929
421.42	19.262
421.77	19.040
422.12	20.034
422.48	18.867
422.83	18.622
423.19	17.539
423.54	18.732
423.90	18.623
424.25	18.835
424.61	20.084
424.96	20.012
425.31	19.005
425.67	18.682
426.02	18.130
426.38	19.722
426.73	19.345
427.09	19.240
427.44	19.659
427.79	18.256
428.15	19.330
428.50	20.059
428.85	19.784
429.21	19.480
429.56	18.906
429.92	19.940
430.27	19.541
430.62	19.331
430.98	19.707
431.33	19.584
431.68	19.839
432.04	20.090
432.39	20.456
432.74	20.384
433.10	20.090
433.45	19.229
433.80	19.429
434.16	20.795
434.51	19.671
434.86	20.621
435.22	21.771
435.57	19.584
435.92	20.164
436.28	20.297
436.63	19.559
436.98	19.072
437.34	20.673
437.69	19.895
438.04	20.023
438.39	20.517
438.75	20.198
439.10	20.711
439.45	19.614
439.81	20.904
440.16	20.897
440.51	21.529
440.86	20.590
441.22	20.343
441.57	20.737
441.92	20.972
442.27	21.212
442.63	21.084
442.98	19.921
443.33	20.538
443.68	20.896
444.03	20.481
444.39	19.873
444.74	20.154
445.09	20.943
445.44	20.540
445.79	20.602
446.15	21.742
446.50	20.631
446.85	21.036
447.20	20.225
447.55	20.994
447.91	21.056
448.26	20.894
448.61	20.939
448.96	21.232
449.31	19.729
449.66	20.836
450.02	21.108
450.37	20.928
450.72	20.678
451.07	21.496
451.42	21.375
451.77	21.305
452.12	21.335
452.47	21.411
452.83	21.374
453.18	20.810
453.53	21.206
453.88	21.830
454.23	20.738
454.58	21.877
454.93	21.411
455.28	20.969
455.63	21.499
455.98	22.048
456.34	20.966
456.69	21.639
457.04	21.389
457.39	21.112
457.74	21.677
458.09	21.984
458.44	22.055
458.79	21.973
459.14	21.677
459.49	21.966
459.84	21.698
460.19	21.420
460.54	21.295
460.89	21.076
461.24	21.494
461.59	21.923
461.94	22.661
462.29	21.977
462.64	21.080
462.99	22.624
463.34	21.337
463.69	21.501
464.04	20.680
464.39	21.804
464.74	21.986
465.09	21.167
465.44	22.109
465.79	22.222
466.14	21.634
466.49	21.762
466.84	21.609
467.19	22.382
467.54	20.443
467.89	21.332
468.24	20.843
468.59	21.674
468.94	21.286
469.29	20.533
469.64	21.429
469.99	22.755
470.34	22.846
470.68	21.366
471.03	22.299
471.38	21.458
471.73	21.958
472.08	22.289
472.43	22.394
472.78	22.333
473.13	20.875
473.48	22.144
473.83	21.836
474.17	22.994
474.52	22.187
474.87	22.028
475.22	21.711
475.57	22.167
475.92	22.462
476.27	22.229
476.61	22.141
476.96	22.247
477.31	21.851
477.66	23.630
478.01	22.798
478.36	22.839
478.70	23.011
479.05	22.336
479.40	21.813
479.75	21.814
480.10	22.272
480.45	22.195
480.79	22.952
481.14	22.378
481.49	22.798
481.84	22.931
482.19	22.796
482.53	22.680
482.88	21.927
483.23	22.300
483.58	23.451
483.92	23.029
484.27	21.976
484.62	22.073
484.97	22.564
485.31	21.568
485.66	21.275
486.01	21.544
486.36	22.409
486.70	23.131
487.05	21.917
487.40	22.115
487.75	22.319
488.09	22.143
488.44	22.327
488.79	22.533
489.13	22.214
489.48	22.064
489.83	22.445
490.17	22.725
490.52	22.826
490.87	22.540
491.22	22.419
491.56	22.361
491.91	23.378
492.26	22.028
492.60	22.835
492.95	22.608
493.30	22.535
493.64	22.567
493.99	22.562
494.34	22.905
494.68	22.612
495.03	22.419
495.37	22.419
495.72	22.888
496.07	22.712
496.41	22.696
496.76	23.105
497.11	22.751
497.45	23.180
497.80	22.961
498.14	22.986
498.49	23.004
498.84	22.427
499.18	22.953
499.53	23.137
499.87	22.587
500.22	23.676
500.56	22.661
500.91	23.005
501.26	23.872
501.60	22.725
501.95	23.768
502.29	22.721
502.64	23.244
502.98	22.568
503.33	23.308
503.67	22.989
504.02	22.356
504.36	24.363
504.71	22.948
505.06	22.516
505.40	23.453
505.75	24.035
506.09	23.559
506.44	23.609
506.78	22.880
507.13	23.223
507.47	23.266
507.82	23.800
508.16	24.093
508.51	23.442
508.85	23.240
509.19	23.496
509.54	23.309
509.88	23.830
510.23	23.847
510.57	23.280
510.92	24.544
511.26	23.392
511.61	23.974
511.95	23.653
512.30	23.694
512.64	23.984
512.98	24.202
513.33	24.547
513.67	23.953
514.02	22.931
514.36	24.044
514.70	24.052
515.05	24.700
515.39	24.221
515.74	24.491
516.08	24.496
516.42	24.703
516.77	24.841
517.11	24.657
517.46	24.522
517.80	24.489
518.14	23.792
518.49	24.447
518.83	25.045
519.17	25.340
519.52	23.597
519.86	24.671
520.20	24.083
520.55	24.185
520.89	24.734
521.23	24.908
521.58	24.451
521.92	24.699
522.26	24.063
522.61	25.539
522.95	24.314
523.29	25.580
523.64	24.297
523.98	24.634
524.32	24.827
524.66	24.224
525.01	24.534
525.35	25.322
525.69	25.244
526.04	24.674
526.38	25.016
526.72	23.883
527.06	25.846
527.41	25.479
527.75	24.686
528.09	25.414
528.43	24.984
528.78	24.874
529.12	26.056
529.46	24.162
529.80	24.855
530.15	25.370
530.49	25.614
530.83	26.588
531.17	25.320
531.51	24.916
531.86	25.543
532.20	25.439
532.54	25.602
532.88	24.901
533.22	25.334
533.57	25.326
533.91	24.657
534.25	24.953
534.59	24.235
534.93	24.704
535.27	25.173
535.62	25.575
535.96	25.275
536.30	24.215
536.64	25.764
536.98	25.777
537.32	24.326
537.66	24.440
538.01	25.292
538.35	25.541
538.69	24.131
539.03	25.999
539.37	24.617
539.71	25.417
540.05	25.291
540.39	24.931
540.73	24.810
541.07	25.410
541.42	24.713
541.76	24.983
542.10	25.658
542.44	24.983
542.78	25.984
543.12	24.576
543.46	25.137
543.80	24.415
544.14	24.849
544.48	23.819
544.82	24.899
545.16	25.486
545.50	24.293
545.84	24.965
546.18	25.936
546.52	24.822
546.86	24.501
547.20	24.895
547.54	24.518
547.88	25.282
548.22	23.198
548.56	24.115
548.90	25.067
549.24	25.158
549.58	24.912
549.92	25.724
550.26	26.373
550.60	25.107
550.94	25.328
551.28	25.132
551.62	25.111
551.96	24.747
552.30	24.878
552.64	25.475
552.98	25.298
553.32	25.613
553.66	25.379
554.00	24.733
554.34	24.693
554.68	24.708
555.02	25.470
555.36	24.443
555.69	25.143
556.03	25.333
556.37	24.395
556.71	25.125
557.05	25.277
557.39	24.647
557.73	26.039
558.07	26.149
558.41	24.682
558.75	24.639
559.08	23.268
559.42	25.881
559.76	25.383
560.10	25.503
560.44	25.578
560.78	24.148
561.12	25.121
561.45	24.247
561.79	24.599
562.13	24.614
562.47	24.860
562.81	25.743
563.15	25.192
563.48	24.879
563.82	24.679
564.16	24.746
564.50	25.269
564.84	25.198
565.17	24.536
565.51	24.707
565.85	25.558
566.19	25.165
566.52	25.506
566.86	24.842
567.20	26.150
567.54	25.162
567.88	24.065
568.21	24.664
568.55	24.549
568.89	24.304
569.23	24.387
569.56	23.665
569.90	23.958
570.24	24.690
570.57	23.480
570.91	23.427
571.25	23.768
571.59	24.508
571.92	24.435
572.26	24.266
572.60	24.046
572.93	23.258
573.27	23.537
573.61	23.143
573.95	24.109
574.28	23.433
574.62	23.920
574.96	22.906
575.29	23.653
575.63	23.520
575.97	22.816
576.30	23.294
576.64	23.760
576.98	23.538
577.31	23.123
577.65	23.194
577.98	23.936
578.32	23.342
578.66	23.369
578.99	23.382
579.33	23.411
579.67	23.003
580.00	23.289
580.34	23.630
580.67	23.805
581.01	23.126
581.35	23.669
581.68	23.206
582.02	23.536
582.35	23.456
582.69	23.787
583.02	23.607
583.36	22.974
583.70	23.682
584.03	23.572
584.37	23.166
584.70	23.606
585.04	23.443
585.37	23.079
585.71	23.319
586.04	23.683
586.38	23.283
586.72	23.534
587.05	23.563
587.39	22.917
587.72	23.786
588.06	23.714
588.39	23.754
588.73	24.291
589.06	24.457
589.40	24.734
589.73	24.186
590.07	23.744
590.40	24.280
590.73	23.830
591.07	23.566
591.40	24.133
591.74	23.936
592.07	23.874
592.41	24.289
592.74	24.366
593.08	23.824
593.41	23.520
593.75	22.981
594.08	23.724
594.41	23.586
594.75	24.462
595.08	23.195
595.42	23.916
595.75	24.072
596.09	24.098
596.42	24.550
596.75	24.321
597.09	24.933
597.42	23.701
597.75	23.826
598.09	24.311
598.42	23.730
598.76	24.128
599.09	23.481
599.42	23.068
599.76	23.820
600.09	23.931
600.42	23.889
600.76	23.766
601.09	24.725
601.42	23.744
601.76	24.338
602.09	23.517
602.42	23.827
602.76	22.933
603.09	24.113
603.42	23.691
603.76	23.694
604.09	23.588
604.42	24.230
604.76	23.027
605.09	24.412
605.42	23.892
605.75	23.458
606.09	23.537
606.42	23.837
606.75	23.701
607.09	24.041
607.42	24.252
607.75	23.532
608.08	24.130
608.42	24.125
608.75	23.505
609.08	24.452
609.41	23.717
609.75	23.062
610.08	24.020
610.41	23.952
610.74	24.710
611.07	24.544
611.41	23.348
611.74	25.244
612.07	24.275
612.40	23.614
612.73	24.556
613.07	24.216
613.40	24.904
613.73	24.142
614.06	23.558
614.39	24.352
614.72	23.296
615.06	24.076
615.39	24.145
615.72	23.683
616.05	23.854
616.38	24.434
616.71	24.084
617.05	24.849
617.38	24.520
617.71	24.447
618.04	23.975
618.37	25.031
618.70	24.902
619.03	24.983
619.36	24.806
619.69	25.269
620.03	24.105
620.36	24.543
620.69	24.910
621.02	24.505
621.35	24.516
621.68	25.000
622.01	23.867
622.34	25.932
622.67	25.703
623.00	24.637
623.33	24.254
623.66	23.708
623.99	24.962
624.32	24.628
624.65	24.503
624.99	24.347
625.32	24.102
625.65	23.932
625.98	25.274
626.31	25.449
626.64	25.021
626.97	24.914
627.30	25.106
627.63	23.575
627.96	24.717
628.29	24.540
628.62	25.310
628.95	25.591
629.28	25.000
629.61	24.436
629.94	25.236
630.26	25.447
630.59	26.432
630.92	23.624
631.25	27.218
631.58	24.550
631.91	24.362
632.24	25.000
632.57	24.000
632.90	25.287
633.23	24.766
633.56	24.444
633.89	25.472
634.22	24.793
634.55	24.880
634.88	25.030
635.20	25.468
635.53	24.936
635.86	25.693
636.19	25.641
636.52	24.134
636.85	24.789
637.18	22.250
637.51	25.031
637.83	26.764
638.16	26.447
638.49	25.655
638.82	25.997
639.15	25.162
639.48	24.384
639.81	25.588
640.13	24.054
640.46	26.496
640.79	27.311
641.12	25.670
641.45	24.247
641.77	24.701
642.10	26.133
642.43	24.583
642.76	26.929
643.09	26.984
643.41	25.873
643.74	26.232
644.07	25.741
644.40	22.690
644.73	26.073
645.05	24.541
645.38	24.007
645.71	31.271
646.04	26.723
646.36	26.527
646.69	25.606
647.02	25.271
647.35	23.646
647.67	24.635
648.00	24.253
648.33	25.632
648.66	23.387
648.98	23.885
649.31	25.692
649.64	23.750
649.96	24.176
650.29	25.246
650.62	25.473
650.94	24.789
651.27	24.263
651.60	25.433
651.92	25.856
652.25	26.043
652.58	23.850
652.90	26.164
653.23	25.000
653.56	23.579
653.88	24.426
654.21	23.490
654.54	26.744
654.86	27.929
655.19	26.361
655.52	23.961
655.84	23.220
656.17	25.334
656.49	34.692
656.82	35.465
657.15	26.627
657.47	19.767
657.80	15.018
658.13	17.164
658.45	22.746
658.78	22.673
659.10	22.391
659.43	22.015
659.75	21.794
660.08	22.865
660.41	22.425
660.73	24.092
661.06	24.928
661.38	24.107
661.71	24.283
662.03	25.000
662.36	28.145
662.68	23.629
663.01	25.690
663.33	26.757
663.66	27.897
663.98	24.554
664.31	25.280
664.63	26.991
664.96	22.560
665.28	24.946
665.61	21.142
665.93	24.897
666.26	25.506
666.58	26.819
666.91	24.722
667.23	28.728
667.56	25.170
667.88	25.339
668.21	25.576
668.53	27.103
668.86	27.483
669.18	23.744
669.50	22.664
669.83	27.251
670.15	23.318
670.48	26.869
670.80	21.640
671.13	26.637
671.45	24.550
671.77	23.126
672.10	22.682
672.42	25.277
672.75	24.727
673.07	24.324
673.39	24.408
673.72	24.213
674.04	24.204
674.37	22.680
674.69	26.844
675.01	26.383
675.34	24.946
675.66	27.430
675.98	24.890
676.31	25.113
676.63	27.816
676.95	25.000
677.28	26.450
677.60	25.113
677.92	27.093
678.25	27.133
678.57	24.897
678.89	23.270
679.22	25.367
679.54	24.655
679.86	24.000
680.18	25.095
680.51	21.788
680.83	24.571
681.15	24.470
681.48	23.327
681.80	23.387
682.12	26.157
682.44	23.379
682.77	23.377
683.09	26.205
683.41	25.221
683.73	22.603
684.06	24.301
684.38	25.314
684.70	23.868
685.02	26.181
685.34	25.146
685.67	23.864
685.99	26.087
686.31	25.673
686.63	25.177
686.96	22.181
687.28	21.965
687.60	23.437
687.92	23.152
688.24	24.803
688.56	24.248
688.89	23.077
689.21	23.195
689.53	26.897
689.85	24.944
690.17	23.767
690.49	24.480
690.82	24.578
691.14	22.406
691.46	27.051
691.78	23.789
692.10	23.941
692.42	22.444
692.74	22.961
693.06	24.719
693.39	25.727
693.71	23.476
694.03	24.838
694.35	23.025
694.67	20.567
694.99	25.320
695.31	24.490
695.63	26.531
695.95	25.806
696.27	26.434
696.59	27.273
696.91	27.528
697.23	25.260
697.56	21.635
697.88	23.874
698.20	20.985
698.52	23.767
698.84	25.243
699.16	23.571
699.48	22.750
699.80	25.564
700.12	26.952
700.44	23.743
700.76	22.449
701.08	21.512
701.40	22.659
701.72	26.543
702.04	28.846
702.36	23.494
702.68	22.754
703.00	26.087
703.32	22.350
703.64	25.588
703.96	26.453
704.28	23.373
704.60	25.316
704.91	22.222
705.23	24.595
705.55	20.946
705.87	24.232
706.19	23.958
706.51	22.222
706.83	22.295
707.15	24.204
707.47	26.722
707.79	25.773
708.11	20.102
708.43	26.683
708.74	23.117
709.06	22.563
709.38	22.414
709.70	20.000
710.02	26.687
710.34	26.073
710.66	18.730
710.98	23.344
711.29	21.613
711.61	20.447
711.93	21.311
712.25	22.924
712.57	19.512
712.89	26.619
713.20	24.742
713.52	19.776
713.84	22.064
714.16	25.902
714.48	23.810
714.80	24.000
715.11	23.055
715.43	24.096
715.75	25.234
716.07	18.033
716.39	21.405
716.70	25.784
717.02	21.111
717.34	22.901
717.66	22.407
717.97	20.492
718.29	26.891
718.61	26.190
718.93	21.505
719.24	20.221
719.56	19.245
719.88	19.636
720.20	17.978
720.51	25.188
720.83	24.498
721.15	24.590
721.46	25.098
721.78	20.690
722.10	24.400
722.42	19.835
722.73	23.108
723.05	24.096
723.37	21.961
723.68	24.696
724.00	24.390
724.32	21.811
724.63	20.332
724.95	24.793
725.27	17.982
725.58	24.138
725.90	24.206
726.22	24.354
726.53	19.772
726.85	17.647
727.16	22.180
727.48	22.308
727.80	18.443
728.11	19.328
728.43	23.967
728.74	25.781
729.06	22.727
729.38	26.070
729.69	20.079
730.01	24.409
730.32	20.717
730.64	21.612
730.96	26.493
731.27	20.357
731.59	27.331
731.90	21.779
732.22	19.018
732.53	27.815
732.85	20.134
733.16	21.377
733.48	21.951
733.80	20.641
734.11	23.448
734.43	23.129
734.74	23.145
735.06	24.138
735.37	22.018
735.69	20.000
736.00	18.182
736.32	20.530
736.63	18.276
736.95	20.290
737.26	21.854
737.58	21.942
737.89	24.731
738.21	19.925
738.52	19.615
738.83	17.969
739.15	20.513
739.46	27.016
739.78	24.126
740.09	22.378
740.41	20.280
740.72	23.358
741.04	20.238
741.35	24.675
741.66	26.389
741.98	22.857
742.29	25.352
742.61	18.182
742.92	25.234
743.23	22.368
743.55	20.270
743.86	27.111
744.18	21.429
744.49	27.094
744.80	23.350
745.12	27.320
745.43	23.618
745.74	20.874
746.06	20.000
746.37	24.670
746.68	27.861
747.00	22.513
747.31	25.000
747.62	24.424
747.94	17.904
748.25	19.535
748.56	22.857
748.88	12.500
749.19	23.474
749.50	29.412
749.82	22.222
750.13	29.515
750.44	21.951
750.75	18.000
751.07	24.643
751.38	19.926
751.69	20.229
752.01	20.385
752.32	20.623
752.63	17.308
752.94	23.016
753.26	26.522
753.57	20.536
753.88	18.966
754.19	21.162
754.51	21.484
754.82	21.739
755.13	18.930
755.44	20.248
755.75	25.103
756.07	16.867
756.38	17.578
756.69	28.881
757.00	21.254
757.31	25.168
757.63	22.741
757.94	23.121
758.25	24.128
758.56	24.259
758.87	19.034
759.18	22.333
759.50	28.826
759.81	17.883
760.12	20.270
760.43	19.094
760.74	26.875
761.05	21.910
761.36	18.563
761.67	18.343
761.99	19.677
762.30	22.101
762.61	22.642
762.92	19.731
763.23	23.697
763.54	20.889
763.85	25.316
764.16	23.673
764.47	22.458
764.78	21.348
765.10	24.820
765.41	22.258
765.72	20.755
766.03	17.314
766.34	26.692
766.65	19.838
766.96	21.000
767.27	19.792
767.58	22.674
767.89	21.935
768.20	18.405
768.51	17.486
768.82	22.162
769.13	17.500
769.44	18.421
769.75	25.541
770.06	21.101
770.37	23.474
770.68	17.708
770.99	23.762
771.30	20.874
771.61	18.056
771.92	21.212
772.23	19.159
772.54	22.872
772.85	13.018
773.16	15.244
773.47	24.699
773.78	25.275
774.09	19.333
774.39	20.988
774.70	20.805
775.01	12.319
775.32	18.657
775.63	16.529
775.94	24.060
776.25	20.000
776.56	22.131
776.87	25.664
777.18	23.894
777.48	12.727
777.79	7.826
778.10	22.018
778.41	16.949
778.72	18.182
779.03	23.881
779.34	18.797
779.65	22.876
779.95	17.391
780.26	15.646
780.57	8.621
780.88	8.333
781.19	11.111
781.50	8.000
781.80	17.647
782.11	20.513
782.42	16.265
782.73	17.518
783.04	17.568
783.34	16.667
783.65	17.054
783.96	24.390
784.27	22.222
784.57	3.252
784.88	12.195
785.19	22.807
785.50	10.309
785.81	12.381
786.11	12.745
786.42	13.636
786.73	9.910
787.04	15.842
787.34	15.238
787.65	12.381
787.96	11.765
788.26	20.721
788.57	26.613
788.88	14.844
789.19	17.094
789.49	15.126
789.80	14.530
790.11	19.469
790.41	3.030
790.72	14.151
791.03	-5.556
791.33	9.211
791.64	16.129
791.95	-12.000
792.25	8.571
792.56	9.756
792.87	25.510
793.17	0.000
793.48	-2.703
793.79	9.859
794.09	20.253
794.40	15.957
794.70	16.822
795.01	7.895
795.32	11.818
795.62	8.036
795.93	-1.031
796.23	8.791
796.54	14.737
796.85	20.548
797.15	-11.111
797.46	-2.740
797.76	12.676
798.07	13.750
798.37	4.412
798.68	14.286
798.99	14.286
799.29	18.421
799.60	13.333
799.90	0.000
800.21	1.562
800.51	9.524
800.82	-8.197
801.12	5.263
801.43	-5.634
801.73	-16.949
802.04	0.000
802.34	-7.273
802.65	0.000
802.95	1.852
803.26	7.500
803.56	5.769
803.87	-39.474
804.17	16.129
804.48	7.692
804.78	-17.949
805.09	0.000
805.39	-40.625
805.70	-22.642
806.00	28.070
806.30	18.919
806.61	4.412
806.91	20.988
807.22	4.000
807.52	8.955
807.83	-1.613
808.13	-3.175
808.43	-10.909
808.74	16.667
809.04	0.000
809.35	16.438
809.65	17.544
809.95	-8.824
810.26	7.843
810.56	12.000
810.86	-24.490
811.17	2.857
811.47	-1.923
811.77	-3.226
812.08	-18.421
812.38	0.000
812.69	-17.391
812.99	-16.129
813.29	-4.762
813.59	-3.704
813.90	-12.766
814.20	-11.628
814.50	-2.083
814.81	1.667
815.11	4.878
815.41	-3.333
815.72	25.714
816.02	-11.111
816.32	-12.821
816.62	2.703
816.93	-17.647
817.23	0.000
817.53	-2.941
817.84	5.882
818.14	-21.875
818.44	-20.690
818.74	-48.387
819.04	-55.556
819.35	-60.000
819.65	-28.000
819.95	6.667
820.25	-20.000
820.56	15.789
820.86	-17.500
821.16	10.638
821.46	3.448
821.76	-7.692
822.07	-40.000
822.37	-6.977
822.67	-33.333
822.97	-13.514
823.27	2.703
823.57	24.000
823.88	13.514
824.18	-85.714
824.48	-15.385
824.78	-169.231
825.08	-30.435
825.38	-4.167
825.69	-75.000
825.99	-25.000
826.29	-5.405
826.59	-17.647
826.89	0.000
827.19	-28.571
827.49	10.526
827.79	-56.250
828.09	-26.667
828.39	-8.696
828.70	-55.172
829.00	-3.448
829.30	0.000
829.60	21.875
829.90	5.556
830.20	-23.077
830.50	-85.714
830.80	-50.000
831.10	12.821
831.40	-38.095
831.70	-5.882
832.00	8.333
832.30	-21.053
832.60	-56.250
832.90	-133.333
833.20	-47.059
833.50	-106.667
833.80	-53.333
834.10	-70.000
834.40	-37.500
834.70	-33.333
835.00	3.846
835.30	4.167
835.60	-44.828
835.90	-66.667
836.20	-100.000
836.50	-133.333
836.80	-8.571
837.10	31.429
837.40	-58.824
837.70	-163.636
838.00	-33.333
838.30	-62.500
838.60	9.524
838.90	10.000
839.19	-39.130
839.49	-43.478
839.79	-44.444
840.09	-43.478
840.39	-40.909
840.69	-68.750
840.99	0.000
841.29	-37.500
841.59	-78.571
841.88	-33.333
842.18	-33.333
842.48	-70.588
842.78	-17.241
843.08	-28.571
843.38	-46.154
843.68	-188.889
843.97	-215.385
844.27	-27.273
844.57	-240.000
844.87	28.000
845.17	-60.000
845.47	-100.000
845.76	-177.778
846.06	0.000
846.36	-300.000
846.66	-170.000
846.96	-31.579
847.25	-29.167
847.55	-141.667
847.85	-66.667
848.15	-190.000
848.44	26.923
848.74	-36.842
849.04	466.667
849.34	-77.778
849.63	-94.737
849.93	0.000
850.23	-100.000
850.53	-38.095
850.82	-40.000
851.12	-36.842
851.42	-950.000
851.71	-85.714
852.01	-108.333
852.31	0.000
852.61	-66.667
852.90	-57.143
853.20	-133.333
853.50	-61.111
853.79	-63.158
854.09	-100.000
854.39	-28.571
854.68	-34.783
854.98	-200.000
855.28	3.448
855.57	-75.000
855.87	-70.000
856.17	-126.667
856.46	-3.448
856.76	6.667
857.05	-76.471
857.35	-192.308
857.65	-45.455
857.94	-14.815
858.24	-114.286
858.53	-71.429
858.83	-125.000
859.13	-177.778
859.42	4.762
859.72	-175.000
860.01	-666.667
860.31	-175.000
860.60	-460.000
860.90	-200.000
861.20	-112.500
861.49	-142.857
861.79	-88.235
862.08	-1200.000
862.38	-125.000
862.67	-53.846
862.97	-23.529
863.26	20.000
863.56	-76.471
863.85	600.000
864.15	-260.000
864.44	-100.000
864.74	-25.000
865.03	-200.000
865.33	-250.000
865.62	-58.824
865.92	-675.000
866.21	-92.857
866.51	-150.000
866.80	-1300.000
867.10	-700.000
867.39	11.765
867.69	-8.696
867.98	-242.857
868.27	-260.000
868.57	-118.750
868.86	-172.727
869.16	-35.294
869.45	-200.000
869.75	-271.429
870.04	1600.000
870.33	-75.000
870.63	-280.000
870.92	-133.333
871.22	-141.667
871.51	-9.091
871.80	-125.000
872.10	10.000
>>>>>End Processed Spectral Data<<<<<
