SpectraSuite Data File
++++++++++++++++++++++++++++++++++++
Date: Sat May 16 11:34:15 PDT 2015
User: schluterlab
Dark Spectrum Present: Yes
Reference Spectrum Present: Yes
Number of Sampled Component Spectra: 1
Spectrometers: USB2E3373
Integration Time (usec): 3000 (USB2E3373)
Spectra Averaged: 3 (USB2E3373)
Boxcar Smoothing: 0 (USB2E3373)
Correct for Electrical Dark: No (USB2E3373)
Strobe/Lamp Enabled: No (USB2E3373)
Correct for Detector Non-linearity: No (USB2E3373)
Correct for Stray Light: No (USB2E3373)
Number of Pixels in Processed Spectrum: 2048
>>>>>Begin Processed Spectral Data<<<<<
178.53	0.000
178.91	200.000
179.29	700.000
179.67	-500.000
180.04	-84.615
180.42	600.000
180.80	250.000
181.18	400.000
181.56	-175.000
181.94	400.000
182.31	375.000
182.69	-92.308
183.07	-600.000
183.45	1050.000
183.83	600.000
184.20	-242.857
184.58	-200.000
184.96	-150.000
185.34	75.000
185.72	-550.000
186.09	366.667
186.47	-262.500
186.85	-375.000
187.23	-100.000
187.61	-375.000
187.98	-287.500
188.36	-150.000
188.74	-175.000
189.12	1600.000
189.49	400.000
189.87	-100.000
190.25	250.000
190.63	0.000
191.00	-200.000
191.38	480.000
191.76	-46.667
192.14	460.000
192.51	-320.000
192.89	-300.000
193.27	0.000
193.65	-33.333
194.02	-242.857
194.40	466.667
194.78	-70.000
195.15	-1500.000
195.53	-100.000
195.91	-533.333
196.29	340.000
196.66	-533.333
197.04	2700.000
197.42	-425.000
197.79	-13.333
198.17	-300.000
198.55	-700.000
198.92	-1300.000
199.30	312.500
199.68	-550.000
200.05	-166.667
200.43	-288.889
200.81	-400.000
201.18	-66.667
201.56	157.143
201.94	-6.667
202.31	-18.182
202.69	-20.000
203.07	-130.000
203.44	466.667
203.82	-166.667
204.19	-500.000
204.57	-275.000
204.95	-1600.000
205.32	-37.500
205.70	1100.000
206.08	-2500.000
206.45	-22.222
206.83	-1350.000
207.20	50.000
207.58	-533.333
207.96	-600.000
208.33	-112.500
208.71	-100.000
209.08	160.000
209.46	-228.571
209.84	300.000
210.21	0.000
210.59	55.000
210.96	400.000
211.34	-300.000
211.71	-233.333
212.09	450.000
212.46	1150.000
212.84	-1300.000
213.22	566.667
213.59	175.000
213.97	-133.333
214.34	160.000
214.72	-70.000
215.09	-600.000
215.47	-150.000
215.84	-60.000
216.22	-70.000
216.59	-60.000
216.97	-275.000
217.34	1350.000
217.72	-171.429
218.09	-316.667
218.47	-271.429
218.84	271.429
219.22	-114.286
219.59	0.000
219.97	157.143
220.34	500.000
220.72	312.500
221.09	-15.385
221.47	0.000
221.84	566.667
222.22	-250.000
222.59	1200.000
222.97	-250.000
223.34	-450.000
223.72	-500.000
224.09	-114.286
224.46	-500.000
224.84	-21.429
225.21	-271.429
225.59	-54.545
225.96	-125.000
226.34	-200.000
226.71	-144.444
227.08	-25.000
227.46	2700.000
227.83	-200.000
228.21	-200.000
228.58	600.000
228.95	18.750
229.33	-2100.000
229.70	-200.000
230.08	-550.000
230.45	25.000
230.82	-216.667
231.20	-300.000
231.57	-800.000
231.95	2300.000
232.32	14.286
232.69	-144.444
233.07	-400.000
233.44	-1050.000
233.81	-80.000
234.19	-233.333
234.56	-81.250
234.93	-12.500
235.31	-285.714
235.68	-121.429
236.05	-52.941
236.43	-86.364
236.80	-38.710
237.17	-4.167
237.55	-61.905
237.92	-54.545
238.29	-28.571
238.67	-8.824
239.04	-16.667
239.41	-32.258
239.79	-64.103
240.16	-14.286
240.53	-34.545
240.91	-2.564
241.28	-20.000
241.65	20.000
242.02	8.197
242.40	-18.033
242.77	6.061
243.14	5.085
243.51	-15.714
243.89	-8.861
244.26	-4.494
244.63	-18.947
245.00	-2.105
245.38	3.390
245.75	0.000
246.12	3.200
246.49	0.787
246.87	-7.317
247.24	-12.712
247.61	-12.712
247.98	-1.408
248.36	-5.594
248.73	1.266
249.10	2.548
249.47	2.339
249.84	6.818
250.22	-0.595
250.59	3.955
250.96	0.000
251.33	6.635
251.70	3.365
252.08	6.635
252.45	4.739
252.82	3.333
253.19	7.234
253.56	3.226
253.94	10.127
254.31	0.000
254.68	5.691
255.05	-2.823
255.42	6.746
255.79	2.509
256.16	2.353
256.54	5.882
256.91	2.273
257.28	2.198
257.65	5.319
258.02	9.119
258.39	6.355
258.76	2.027
259.14	6.173
259.51	7.213
259.88	7.012
260.25	9.317
260.62	4.502
260.99	6.528
261.36	8.232
261.73	7.225
262.10	7.500
262.47	7.407
262.85	8.286
263.22	4.011
263.59	4.615
263.96	8.116
264.33	5.691
264.70	5.801
265.07	6.319
265.44	4.910
265.81	6.460
266.18	6.076
266.55	7.598
266.92	7.053
267.29	9.443
267.66	5.432
268.03	8.696
268.40	6.103
268.77	7.470
269.14	6.961
269.51	8.506
269.88	4.587
270.25	3.497
270.62	4.577
270.99	7.432
271.36	7.459
271.73	3.587
272.10	5.492
272.47	5.778
272.84	8.667
273.21	7.339
273.58	7.033
273.95	7.456
274.32	7.014
274.69	9.628
275.06	8.793
275.43	6.473
275.80	8.758
276.17	7.950
276.54	8.147
276.91	4.733
277.28	7.708
277.65	8.884
278.02	5.846
278.39	7.859
278.76	5.378
279.13	6.917
279.50	7.157
279.87	4.017
280.23	6.073
280.60	8.350
280.97	6.214
281.34	6.770
281.71	8.654
282.08	7.661
282.45	4.888
282.82	7.171
283.19	8.909
283.56	11.355
283.92	7.597
284.29	7.249
284.66	6.475
285.03	6.417
285.40	9.041
285.77	7.719
286.14	9.025
286.51	5.684
286.87	6.171
287.24	7.509
287.61	7.273
287.98	5.893
288.35	5.950
288.72	5.433
289.08	6.441
289.45	7.407
289.82	5.536
290.19	5.747
290.56	4.793
290.93	7.313
291.29	3.890
291.66	5.153
292.03	5.495
292.40	7.380
292.77	6.366
293.13	6.341
293.50	5.201
293.87	7.515
294.24	7.994
294.60	4.697
294.97	6.373
295.34	5.185
295.71	8.631
296.08	5.223
296.44	5.866
296.81	5.840
297.18	5.352
297.55	6.356
297.91	6.555
298.28	5.205
298.65	5.858
299.02	6.952
299.38	5.882
299.75	6.658
300.12	5.769
300.48	6.394
300.85	5.374
301.22	4.657
301.59	5.592
301.95	6.675
302.32	3.390
302.69	5.998
303.05	4.762
303.42	5.000
303.79	7.177
304.15	4.265
304.52	5.834
304.89	4.014
305.25	4.274
305.62	6.463
305.99	6.243
306.35	6.659
306.72	4.556
307.09	5.789
307.45	4.767
307.82	5.140
308.19	4.698
308.55	4.575
308.92	3.222
309.29	4.000
309.65	5.196
310.02	5.508
310.38	4.432
310.75	5.123
311.12	5.682
311.48	5.741
311.85	5.252
312.22	4.531
312.58	5.799
312.95	5.708
313.31	5.894
313.68	6.131
314.05	6.133
314.41	3.320
314.78	5.095
315.14	5.331
315.51	5.876
315.87	5.324
316.24	5.831
316.61	6.526
316.97	6.667
317.34	4.239
317.70	4.824
318.07	5.410
318.43	5.243
318.80	4.883
319.16	5.253
319.53	5.451
319.89	4.986
320.26	5.000
320.62	4.038
320.99	5.473
321.35	3.842
321.72	3.480
322.08	5.440
322.45	4.059
322.81	4.995
323.18	5.379
323.54	5.823
323.91	5.561
324.27	5.798
324.64	5.210
325.00	5.934
325.37	6.154
325.73	6.124
326.10	5.580
326.46	5.342
326.83	5.277
327.19	6.505
327.56	7.070
327.92	5.862
328.29	6.494
328.65	4.636
329.01	5.742
329.38	4.996
329.74	6.136
330.11	5.440
330.47	4.269
330.84	5.866
331.20	4.783
331.56	5.196
331.93	6.039
332.29	5.571
332.66	5.531
333.02	4.796
333.38	6.093
333.75	6.233
334.11	5.778
334.48	6.002
334.84	5.862
335.20	5.230
335.57	5.325
335.93	6.625
336.29	4.606
336.66	4.493
337.02	5.856
337.38	5.882
337.75	4.653
338.11	5.367
338.47	5.694
338.84	5.354
339.20	5.185
339.56	5.348
339.93	5.908
340.29	5.049
340.65	5.070
341.02	5.649
341.38	5.981
341.74	6.012
342.11	5.290
342.47	5.579
342.83	5.038
343.20	5.124
343.56	4.735
343.92	5.676
344.28	6.224
344.65	5.858
345.01	5.210
345.37	6.312
345.73	4.746
346.10	4.088
346.46	5.037
346.82	4.972
347.19	5.177
347.55	5.297
347.91	5.276
348.27	4.773
348.63	6.704
349.00	5.410
349.36	3.279
349.72	5.732
350.08	4.972
350.45	4.965
350.81	5.812
351.17	4.904
351.53	3.898
351.89	4.689
352.26	5.891
352.62	5.684
352.98	5.696
353.34	4.556
353.70	5.019
354.07	5.665
354.43	5.375
354.79	5.388
355.15	4.473
355.51	4.922
355.87	4.506
356.24	4.448
356.60	5.802
356.96	5.389
357.32	5.622
357.68	4.981
358.04	5.774
358.40	5.182
358.77	4.482
359.13	4.055
359.49	5.442
359.85	5.030
360.21	5.479
360.57	6.024
360.93	5.259
361.29	5.755
361.66	5.183
362.02	3.920
362.38	5.136
362.74	5.275
363.10	4.950
363.46	5.912
363.82	5.466
364.18	6.151
364.54	5.861
364.90	5.660
365.26	3.994
365.62	6.130
365.98	5.405
366.35	5.423
366.71	4.792
367.07	5.575
367.43	6.177
367.79	5.636
368.15	4.410
368.51	5.944
368.87	6.593
369.23	5.053
369.59	5.625
369.95	5.426
370.31	5.063
370.67	5.134
371.03	4.592
371.39	4.385
371.75	5.079
372.11	4.161
372.47	4.700
372.83	4.729
373.19	5.071
373.55	6.052
373.91	5.477
374.27	4.449
374.63	5.245
374.99	5.981
375.35	4.913
375.71	6.752
376.07	5.270
376.42	5.166
376.78	5.556
377.14	5.017
377.50	5.416
377.86	4.421
378.22	4.962
378.58	4.756
378.94	4.871
379.30	6.094
379.66	5.829
380.02	5.229
380.38	4.350
380.74	5.041
381.09	5.624
381.45	5.847
381.81	5.505
382.17	4.950
382.53	4.681
382.89	4.964
383.25	6.020
383.61	5.719
383.97	4.960
384.32	5.757
384.68	5.502
385.04	5.978
385.40	5.782
385.76	5.427
386.12	5.497
386.48	5.074
386.83	5.215
387.19	5.858
387.55	6.178
387.91	5.987
388.27	5.066
388.62	5.769
388.98	5.451
389.34	5.324
389.70	5.907
390.06	5.345
390.42	5.000
390.77	5.110
391.13	5.963
391.49	5.427
391.85	5.798
392.20	5.400
392.56	5.070
392.92	5.705
393.28	5.683
393.64	5.713
393.99	6.338
394.35	6.387
394.71	6.177
395.07	6.529
395.42	4.708
395.78	5.468
396.14	6.106
396.50	5.566
396.85	6.231
397.21	5.832
397.57	6.018
397.92	6.089
398.28	6.000
398.64	5.711
399.00	6.236
399.35	5.355
399.71	6.446
400.07	6.030
400.42	6.509
400.78	5.486
401.14	5.689
401.49	5.601
401.85	5.613
402.21	6.138
402.57	6.189
402.92	6.356
403.28	5.760
403.63	5.632
403.99	5.718
404.35	6.582
404.70	6.261
405.06	6.863
405.42	5.843
405.77	5.656
406.13	5.906
406.49	5.992
406.84	5.519
407.20	6.714
407.55	6.333
407.91	5.246
408.27	6.434
408.62	6.434
408.98	6.549
409.34	6.581
409.69	6.049
410.05	5.579
410.40	6.499
410.76	6.698
411.11	5.985
411.47	5.818
411.83	6.174
412.18	5.755
412.54	5.918
412.89	6.683
413.25	5.785
413.60	6.015
413.96	6.161
414.31	6.422
414.67	5.460
415.03	6.210
415.38	6.897
415.74	7.088
416.09	6.138
416.45	5.688
416.80	7.022
417.16	5.847
417.51	7.091
417.87	5.890
418.22	6.511
418.58	6.547
418.93	6.560
419.29	5.897
419.64	5.779
420.00	6.561
420.35	5.973
420.71	6.843
421.06	6.509
421.42	5.679
421.77	5.918
422.12	6.883
422.48	6.681
422.83	7.175
423.19	6.236
423.54	6.455
423.90	6.015
424.25	6.222
424.61	6.393
424.96	6.378
425.31	6.764
425.67	6.476
426.02	5.795
426.38	6.231
426.73	6.604
427.09	6.495
427.44	7.273
427.79	5.930
428.15	7.421
428.50	6.862
428.85	6.295
429.21	6.253
429.56	6.146
429.92	6.563
430.27	6.879
430.62	7.001
430.98	6.952
431.33	7.044
431.68	7.078
432.04	6.995
432.39	7.009
432.74	7.074
433.10	6.809
433.45	6.793
433.80	6.943
434.16	7.523
434.51	6.575
434.86	6.737
435.22	7.294
435.57	6.426
435.92	7.093
436.28	6.825
436.63	6.727
436.98	6.586
437.34	7.147
437.69	7.643
438.04	6.977
438.39	6.980
438.75	6.752
439.10	7.329
439.45	6.337
439.81	7.470
440.16	7.496
440.51	7.882
440.86	6.998
441.22	6.247
441.57	7.579
441.92	6.854
442.27	6.818
442.63	6.545
442.98	6.941
443.33	6.864
443.68	7.035
444.03	7.024
444.39	7.244
444.74	6.443
445.09	6.908
445.44	7.034
445.79	7.751
446.15	7.284
446.50	7.131
446.85	6.978
447.20	7.610
447.55	7.348
447.91	7.468
448.26	6.872
448.61	7.131
448.96	7.619
449.31	7.723
449.66	7.613
450.02	6.870
450.37	7.014
450.72	7.797
451.07	7.228
451.42	6.753
451.77	7.181
452.12	7.390
452.47	7.620
452.83	7.979
453.18	7.590
453.53	7.711
453.88	8.553
454.23	7.376
454.58	7.644
454.93	7.494
455.28	7.393
455.63	7.064
455.98	8.072
456.34	6.607
456.69	7.942
457.04	8.359
457.39	7.237
457.74	7.679
458.09	8.005
458.44	7.737
458.79	7.960
459.14	7.815
459.49	7.697
459.84	7.926
460.19	7.757
460.54	6.715
460.89	7.287
461.24	7.529
461.59	7.796
461.94	7.638
462.29	8.457
462.64	7.444
462.99	7.898
463.34	7.765
463.69	7.443
464.04	7.440
464.39	7.646
464.74	8.038
465.09	7.276
465.44	7.783
465.79	8.235
466.14	7.135
466.49	7.714
466.84	7.503
467.19	8.229
467.54	6.582
467.89	8.200
468.24	7.363
468.59	7.620
468.94	7.846
469.29	8.057
469.64	8.895
469.99	7.968
470.34	7.482
470.68	8.430
471.03	8.878
471.38	6.875
471.73	8.531
472.08	7.898
472.43	8.172
472.78	7.667
473.13	7.290
473.48	8.105
473.83	7.816
474.17	7.707
474.52	9.207
474.87	8.333
475.22	7.847
475.57	8.278
475.92	8.207
476.27	7.371
476.61	8.000
476.96	8.273
477.31	8.181
477.66	7.914
478.01	8.320
478.36	8.381
478.70	8.436
479.05	8.221
479.40	8.446
479.75	7.951
480.10	7.887
480.45	7.689
480.79	8.440
481.14	8.329
481.49	8.519
481.84	7.952
482.19	8.451
482.53	8.570
482.88	8.258
483.23	8.357
483.58	9.297
483.92	8.409
484.27	7.887
484.62	7.819
484.97	8.184
485.31	7.904
485.66	7.840
486.01	7.610
486.36	7.898
486.70	8.710
487.05	8.392
487.40	8.467
487.75	8.591
488.09	7.844
488.44	8.593
488.79	8.631
489.13	8.254
489.48	9.135
489.83	9.127
490.17	8.315
490.52	8.424
490.87	8.268
491.22	8.080
491.56	8.426
491.91	8.445
492.26	8.396
492.60	8.421
492.95	8.901
493.30	8.528
493.64	8.933
493.99	8.843
494.34	9.286
494.68	9.316
495.03	9.273
495.37	8.014
495.72	8.595
496.07	9.338
496.41	8.847
496.76	8.584
497.11	8.950
497.45	9.339
497.80	8.554
498.14	9.381
498.49	8.338
498.84	8.398
499.18	9.162
499.53	8.768
499.87	8.687
500.22	8.676
500.56	9.305
500.91	9.261
501.26	9.413
501.60	8.666
501.95	9.517
502.29	8.880
502.64	9.665
502.98	8.289
503.33	8.929
503.67	8.764
504.02	8.547
504.36	9.902
504.71	8.561
505.06	8.637
505.40	8.932
505.75	8.943
506.09	8.999
506.44	9.373
506.78	9.483
507.13	9.063
507.47	9.390
507.82	9.293
508.16	9.067
508.51	9.171
508.85	9.213
509.19	8.948
509.54	9.461
509.88	9.468
510.23	9.539
510.57	9.577
510.92	10.473
511.26	9.729
511.61	9.287
511.95	10.345
512.30	9.621
512.64	8.514
512.98	10.011
513.33	10.159
513.67	9.659
514.02	9.620
514.36	10.416
514.70	9.394
515.05	9.720
515.39	9.919
515.74	10.529
516.08	10.778
516.42	9.632
516.77	10.514
517.11	10.870
517.46	9.809
517.80	9.928
518.14	9.783
518.49	9.863
518.83	9.555
519.17	10.361
519.52	10.237
519.86	10.932
520.20	10.147
520.55	10.954
520.89	9.956
521.23	11.355
521.58	10.721
521.92	10.323
522.26	10.413
522.61	10.013
522.95	10.019
523.29	10.721
523.64	10.056
523.98	10.567
524.32	11.062
524.66	9.565
525.01	10.276
525.35	10.567
525.69	10.020
526.04	10.183
526.38	11.203
526.72	9.642
527.06	10.482
527.41	10.759
527.75	9.637
528.09	10.126
528.43	10.820
528.78	10.302
529.12	11.076
529.46	10.245
529.80	10.394
530.15	10.431
530.49	10.802
530.83	11.853
531.17	10.438
531.51	10.382
531.86	10.467
532.20	9.649
532.54	10.896
532.88	10.474
533.22	9.158
533.57	10.836
533.91	10.362
534.25	10.622
534.59	9.869
534.93	9.956
535.27	10.699
535.62	10.806
535.96	10.343
536.30	10.209
536.64	11.421
536.98	10.664
537.32	10.090
537.66	10.726
538.01	10.172
538.35	11.081
538.69	10.294
539.03	10.494
539.37	9.514
539.71	11.141
540.05	10.350
540.39	10.596
540.73	11.265
541.07	11.202
541.42	9.926
541.76	10.963
542.10	10.736
542.44	10.793
542.78	10.787
543.12	10.794
543.46	10.000
543.80	10.167
544.14	10.208
544.48	11.614
544.82	10.352
545.16	10.396
545.50	10.229
545.84	10.709
546.18	11.304
546.52	11.024
546.86	10.684
547.20	10.759
547.54	9.298
547.88	11.015
548.22	9.436
548.56	9.686
548.90	10.782
549.24	10.582
549.58	10.656
549.92	11.095
550.26	11.199
550.60	11.166
550.94	10.438
551.28	10.835
551.62	10.635
551.96	11.577
552.30	11.080
552.64	10.345
552.98	11.282
553.32	10.895
553.66	11.536
554.00	10.519
554.34	10.325
554.68	10.746
555.02	11.939
555.36	10.927
555.69	10.172
556.03	10.667
556.37	11.522
556.71	10.809
557.05	10.939
557.39	11.136
557.73	11.816
558.07	10.399
558.41	10.845
558.75	10.494
559.08	9.183
559.42	11.103
559.76	11.810
560.10	11.111
560.44	11.416
560.78	10.090
561.12	10.628
561.45	11.438
561.79	11.150
562.13	9.888
562.47	11.134
562.81	9.689
563.15	11.686
563.48	11.126
563.82	9.804
564.16	10.751
564.50	11.089
564.84	11.243
565.17	10.411
565.51	10.365
565.85	11.562
566.19	10.343
566.52	10.828
566.86	10.240
567.20	11.562
567.54	11.577
567.88	10.553
568.21	10.459
568.55	10.392
568.89	9.742
569.23	10.504
569.56	9.962
569.90	10.543
570.24	10.372
570.57	9.877
570.91	9.691
571.25	10.052
571.59	9.897
571.92	10.000
572.26	10.246
572.60	10.022
572.93	9.322
573.27	9.543
573.61	9.292
573.95	9.952
574.28	9.322
574.62	9.558
574.96	9.746
575.29	9.629
575.63	9.796
575.97	9.628
576.30	9.509
576.64	9.765
576.98	9.181
577.31	8.987
577.65	9.819
577.98	9.570
578.32	9.303
578.66	9.308
578.99	9.386
579.33	9.797
579.67	9.561
580.00	9.350
580.34	9.834
580.67	9.733
581.01	9.461
581.35	9.489
581.68	9.447
582.02	9.106
582.35	9.160
582.69	9.358
583.02	9.770
583.36	9.318
583.70	9.396
584.03	9.833
584.37	9.581
584.70	9.754
585.04	9.570
585.37	9.189
585.71	9.434
586.04	9.321
586.38	9.570
586.72	10.090
587.05	10.054
587.39	9.342
587.72	9.955
588.06	9.354
588.39	9.285
588.73	9.958
589.06	10.134
589.40	10.443
589.73	10.163
590.07	9.723
590.40	10.258
590.73	9.836
591.07	10.164
591.40	10.312
591.74	10.035
592.07	9.595
592.41	10.403
592.74	10.261
593.08	10.161
593.41	9.868
593.75	9.627
594.08	9.849
594.41	10.277
594.75	10.344
595.08	9.662
595.42	10.152
595.75	9.960
596.09	9.740
596.42	10.393
596.75	9.659
597.09	10.419
597.42	9.996
597.75	9.920
598.09	9.761
598.42	10.429
598.76	10.008
599.09	9.905
599.42	9.919
599.76	9.928
600.09	10.000
600.42	10.444
600.76	10.358
601.09	9.495
601.42	9.379
601.76	10.047
602.09	10.020
602.42	10.082
602.76	9.680
603.09	10.081
603.42	10.234
603.76	9.932
604.09	10.132
604.42	10.075
604.76	10.249
605.09	9.855
605.42	10.904
605.75	9.702
606.09	10.170
606.42	9.552
606.75	10.176
607.09	9.881
607.42	10.079
607.75	10.684
608.08	10.619
608.42	10.218
608.75	10.280
609.08	9.547
609.41	10.463
609.75	10.288
610.08	9.853
610.41	10.072
610.74	10.445
611.07	10.091
611.41	9.279
611.74	11.105
612.07	10.956
612.40	9.648
612.73	9.908
613.07	9.741
613.40	10.837
613.73	10.518
614.06	10.214
614.39	10.485
614.72	9.218
615.06	10.272
615.39	10.743
615.72	10.212
616.05	9.277
616.38	10.215
616.71	9.910
617.05	10.374
617.38	10.217
617.71	9.951
618.04	10.311
618.37	10.063
618.70	10.495
619.03	10.833
619.36	10.994
619.69	12.060
620.03	10.399
620.36	10.127
620.69	9.835
621.02	10.350
621.35	10.081
621.68	10.410
622.01	10.275
622.34	11.258
622.67	9.688
623.00	11.018
623.33	11.716
623.66	10.414
623.99	10.526
624.32	9.003
624.65	10.522
624.99	10.157
625.32	9.805
625.65	10.490
625.98	10.563
626.31	11.175
626.64	10.962
626.97	10.788
627.30	11.149
627.63	9.240
627.96	10.792
628.29	11.029
628.62	10.029
628.95	11.713
629.28	10.996
629.61	10.206
629.94	11.059
630.26	9.642
630.59	11.859
630.92	9.910
631.25	10.988
631.58	10.794
631.91	9.894
632.24	10.222
632.57	11.333
632.90	11.839
633.23	11.215
633.56	9.708
633.89	11.085
634.22	10.153
634.55	11.538
634.88	11.125
635.20	9.738
635.53	10.814
635.86	10.327
636.19	10.134
636.52	10.394
636.85	9.627
637.18	9.875
637.51	13.507
637.83	11.451
638.16	10.263
638.49	11.172
638.82	9.910
639.15	11.803
639.48	9.987
639.81	10.373
640.13	11.351
640.46	12.536
640.79	12.325
641.12	11.848
641.45	9.756
641.77	10.329
642.10	10.272
642.43	11.229
642.76	10.709
643.09	10.476
643.41	11.746
643.74	11.129
644.07	12.324
644.40	11.831
644.73	12.046
645.05	9.182
645.38	12.086
645.71	12.199
646.04	12.101
646.36	9.424
646.69	11.419
647.02	12.094
647.35	11.372
647.67	11.496
648.00	12.830
648.33	13.153
648.66	9.677
648.98	11.624
649.31	11.385
649.64	12.500
649.96	10.361
650.29	10.000
650.62	11.704
650.94	9.949
651.27	12.305
651.60	11.765
651.92	13.014
652.25	10.184
652.58	9.199
652.90	10.915
653.23	12.903
653.56	10.702
653.88	10.820
654.21	11.577
654.54	12.791
654.86	11.557
655.19	9.456
655.52	10.431
655.84	8.535
656.17	9.073
656.49	12.680
656.82	13.448
657.15	10.290
657.47	7.653
657.80	5.737
658.13	6.741
658.45	9.072
658.78	8.440
659.10	8.717
659.43	8.389
659.75	9.009
660.08	8.438
660.41	8.327
660.73	8.471
661.06	11.014
661.38	10.893
661.71	12.428
662.03	12.500
662.36	10.448
662.68	12.025
663.01	11.465
663.33	12.925
663.66	11.159
663.98	7.366
664.31	10.291
664.63	12.389
664.96	10.629
665.28	12.148
665.61	8.245
665.93	11.934
666.26	10.931
666.58	11.642
666.91	10.468
667.23	12.061
667.56	10.431
667.88	11.538
668.21	11.751
668.53	9.112
668.86	10.855
669.18	10.502
669.50	10.748
669.83	9.489
670.15	9.193
670.48	9.112
670.80	10.023
671.13	9.481
671.45	10.135
671.77	11.135
672.10	11.045
672.42	9.779
672.75	8.545
673.07	8.468
673.39	9.836
673.72	12.598
674.04	9.342
674.37	6.392
674.69	10.861
675.01	7.021
675.34	9.111
675.66	13.607
675.98	10.573
676.31	10.181
676.63	8.966
676.95	10.619
677.28	9.977
677.60	10.633
677.92	14.537
678.25	12.691
678.57	11.728
678.89	8.176
679.22	11.321
679.54	10.454
679.86	8.800
680.18	10.456
680.51	9.311
680.83	10.667
681.15	10.790
681.48	10.345
681.80	8.669
682.12	10.664
682.44	10.216
682.77	8.009
683.09	9.015
683.41	9.513
683.73	7.534
684.06	10.538
684.38	11.297
684.70	9.053
685.02	10.039
685.34	9.357
685.67	8.523
685.99	6.805
686.31	7.002
686.63	8.688
686.96	9.982
687.28	8.092
687.60	11.328
687.92	5.837
688.24	11.024
688.56	8.016
688.89	7.906
689.21	10.941
689.53	9.655
689.85	11.804
690.17	7.848
690.49	9.931
690.82	7.952
691.14	7.547
691.46	11.530
691.78	6.828
692.10	11.017
692.42	7.111
692.74	10.515
693.06	8.989
693.39	8.725
693.71	11.512
694.03	10.583
694.35	6.546
694.67	7.801
694.99	5.627
695.31	9.439
695.63	7.398
695.95	10.174
696.27	9.227
696.59	13.636
696.91	9.270
697.23	8.854
697.56	8.654
697.88	7.207
698.20	5.782
698.52	6.951
698.84	11.408
699.16	7.619
699.48	5.250
699.80	7.018
700.12	12.846
700.44	7.542
700.76	7.580
701.08	7.849
701.40	3.927
701.72	10.185
702.04	11.859
702.36	10.241
702.68	8.683
703.00	8.406
703.32	7.450
703.64	9.412
703.96	9.593
704.28	8.580
704.60	6.013
704.91	7.937
705.23	10.356
705.55	5.405
705.87	7.167
706.19	6.597
706.51	8.333
706.83	10.164
707.15	6.688
707.47	8.264
707.79	6.701
708.11	4.326
708.43	11.721
708.74	3.117
709.06	5.014
709.38	5.747
709.70	5.312
710.02	7.055
710.34	5.611
710.66	8.254
710.98	6.309
711.29	5.161
711.61	5.751
711.93	9.180
712.25	6.645
712.57	2.787
712.89	10.791
713.20	9.278
713.52	3.731
713.84	7.829
714.16	7.869
714.48	10.159
714.80	6.462
715.11	8.646
715.43	11.747
715.75	6.231
716.07	5.246
716.39	9.030
716.70	7.317
717.02	7.778
717.34	9.924
717.66	12.863
717.97	4.918
718.29	6.723
718.61	5.556
718.93	6.452
719.24	2.941
719.56	1.887
719.88	8.000
720.20	7.116
720.51	8.271
720.83	4.819
721.15	5.328
721.46	7.059
721.78	4.598
722.10	7.600
722.42	-0.413
722.73	3.187
723.05	8.434
723.37	5.882
723.68	4.858
724.00	9.756
724.32	6.996
724.63	3.320
724.95	9.091
725.27	6.140
725.58	0.000
725.90	1.984
726.22	14.760
726.53	8.745
726.85	1.176
727.16	3.008
727.48	6.538
727.80	4.098
728.11	2.941
728.43	6.198
728.74	7.031
729.06	8.333
729.38	8.949
729.69	0.787
730.01	12.205
730.32	-1.195
730.64	6.593
730.96	6.716
731.27	2.500
731.59	7.717
731.90	3.681
732.22	7.669
732.53	7.616
732.85	4.362
733.16	5.797
733.48	1.742
733.80	6.406
734.11	6.897
734.43	6.122
734.74	7.715
735.06	2.821
735.37	3.976
735.69	4.194
736.00	4.377
736.32	6.291
736.63	4.483
736.95	4.710
737.26	7.947
737.58	6.475
737.89	8.244
738.21	2.256
738.52	8.077
738.83	6.641
739.15	3.419
739.46	6.048
739.78	7.343
740.09	6.643
740.41	5.944
740.72	10.584
741.04	4.762
741.35	-0.866
741.66	6.019
741.98	1.905
742.29	7.981
742.61	1.070
742.92	9.813
743.23	7.456
743.55	2.703
743.86	10.667
744.18	0.952
744.49	5.419
744.80	6.091
745.12	6.701
745.43	4.523
745.74	7.767
746.06	1.463
746.37	8.811
746.68	4.975
747.00	6.806
747.31	3.365
747.62	8.295
747.94	3.057
748.25	6.512
748.56	8.571
748.88	-5.978
749.19	10.798
749.50	10.784
749.82	8.889
750.13	7.048
750.44	1.220
750.75	5.200
751.07	6.429
751.38	0.738
751.69	3.053
752.01	7.308
752.32	5.447
752.63	-0.769
752.94	3.968
753.26	5.217
753.57	8.036
753.88	4.310
754.19	5.394
754.51	3.125
754.82	9.091
755.13	0.412
755.44	6.198
755.75	6.996
756.07	-0.402
756.38	-1.953
756.69	7.942
757.00	3.136
757.31	6.376
757.63	7.788
757.94	5.491
758.25	4.360
758.56	7.547
758.87	7.955
759.18	2.333
759.50	8.185
759.81	-0.365
760.12	3.378
760.43	7.120
760.74	6.562
761.05	7.865
761.36	5.689
761.67	6.805
761.99	4.194
762.30	5.797
762.61	9.434
762.92	5.830
763.23	2.844
763.54	6.667
763.85	7.173
764.16	3.673
764.47	7.627
764.78	3.745
765.10	8.273
765.41	2.581
765.72	4.717
766.03	2.120
766.34	4.135
766.65	0.000
766.96	2.000
767.27	3.125
767.58	5.233
767.89	6.452
768.20	6.135
768.51	7.650
768.82	1.081
769.13	0.500
769.44	3.947
769.75	7.359
770.06	8.716
770.37	3.756
770.68	0.521
770.99	5.941
771.30	0.485
771.61	4.630
771.92	1.732
772.23	0.935
772.54	3.723
772.85	-1.775
773.16	-1.220
773.47	10.241
773.78	10.989
774.09	3.333
774.39	5.556
774.70	-0.671
775.01	2.899
775.32	8.209
775.63	-10.744
775.94	3.008
776.25	9.286
776.56	0.000
776.87	2.655
777.18	10.619
777.48	-0.909
777.79	-8.696
778.10	-1.835
778.41	-11.864
778.72	0.826
779.03	0.000
779.34	0.752
779.65	5.882
779.95	-0.725
780.26	-2.721
780.57	-13.793
780.88	1.852
781.19	-16.162
781.50	0.800
781.80	1.307
782.11	10.256
782.42	7.229
782.73	-8.759
783.04	9.459
783.34	-5.303
783.65	-6.202
783.96	-5.691
784.27	-11.111
784.57	-7.317
784.88	-3.252
785.19	7.018
785.50	-17.526
785.81	-13.333
786.11	-6.863
786.42	-9.091
786.73	-1.802
787.04	4.950
787.34	3.810
787.65	-0.952
787.96	-10.784
788.26	-3.604
788.57	3.226
788.88	-3.906
789.19	-11.111
789.49	0.000
789.80	-0.855
790.11	-0.885
790.41	-2.020
790.72	4.717
791.03	-18.056
791.33	-1.316
791.64	3.226
791.95	-5.333
792.25	-21.429
792.56	-14.634
792.87	3.061
793.17	-1.316
793.48	-16.216
793.79	-7.042
794.09	-15.190
794.40	-3.191
794.70	-7.477
795.01	-14.035
795.32	-10.000
795.62	0.000
795.93	-3.093
796.23	-16.484
796.54	8.421
796.85	0.000
797.15	-16.667
797.46	-12.329
797.76	-5.634
798.07	8.750
798.37	-13.235
798.68	-8.571
798.99	-14.286
799.29	6.579
799.60	-8.333
799.90	-25.000
800.21	0.000
800.51	-3.175
800.82	-14.754
801.12	-31.579
801.43	-11.268
801.73	-18.644
802.04	-4.918
802.34	-23.636
802.65	-15.385
802.95	-16.667
803.26	-12.500
803.56	3.846
803.87	-57.895
804.17	6.452
804.48	-9.231
804.78	-43.590
805.09	-23.256
805.39	-71.875
805.70	-24.528
806.00	10.526
806.30	-6.757
806.61	-2.941
806.91	8.642
807.22	-6.667
807.52	-8.955
807.83	-6.452
808.13	-20.635
808.43	-34.545
808.74	-19.697
809.04	-5.660
809.35	-13.699
809.65	-1.754
809.95	10.294
810.26	-1.961
810.56	-30.000
810.86	-12.245
811.17	-51.429
811.47	-21.154
811.77	-29.032
812.08	-60.526
812.38	-9.524
812.69	-30.435
812.99	-19.355
813.29	-23.810
813.59	-96.296
813.90	-21.277
814.20	-60.465
814.50	-20.833
814.81	-20.000
815.11	-29.268
815.41	-46.667
815.72	0.000
816.02	-47.222
816.32	17.949
816.62	5.405
816.93	-26.471
817.23	-15.217
817.53	-20.588
817.84	-29.412
818.14	-65.625
818.44	-41.379
818.74	-41.935
819.04	-22.222
819.35	-33.333
819.65	-64.000
819.95	-40.000
820.25	-40.000
820.56	-44.737
820.86	-35.000
821.16	-25.532
821.46	8.621
821.76	-33.333
822.07	-45.000
822.37	-9.302
822.67	-43.333
822.97	-29.730
823.27	-10.811
823.57	-28.000
823.88	-13.514
824.18	-76.190
824.48	-30.769
824.78	-192.308
825.08	-43.478
825.38	-83.333
825.69	-70.833
825.99	-100.000
826.29	-43.243
826.59	-55.882
826.89	-56.000
827.19	-54.286
827.49	-2.632
827.79	-25.000
828.09	-53.333
828.39	-21.739
828.70	-96.552
829.00	-48.276
829.30	5.556
829.60	12.500
829.90	-94.444
830.20	-34.615
830.50	-123.810
830.80	-64.286
831.10	-48.718
831.40	-52.381
831.70	-11.765
832.00	-50.000
832.30	-78.947
832.60	-93.750
832.90	-58.333
833.20	-117.647
833.50	-146.667
833.80	-86.667
834.10	-70.000
834.40	-41.667
834.70	-72.222
835.00	-50.000
835.30	-79.167
835.60	-27.586
835.90	-100.000
836.20	-154.545
836.50	-91.667
836.80	5.714
837.10	42.857
837.40	-47.059
837.70	-254.545
838.00	-16.667
838.30	-118.750
838.60	-23.810
838.90	-45.000
839.19	-69.565
839.49	-69.565
839.79	-116.667
840.09	-108.696
840.39	-68.182
840.69	-137.500
840.99	-57.895
841.29	-87.500
841.59	-78.571
841.88	-116.667
842.18	-66.667
842.48	-94.118
842.78	-27.586
843.08	-21.429
843.38	-46.154
843.68	-322.222
843.97	-146.154
844.27	-109.091
844.57	-340.000
844.87	4.000
845.17	-260.000
845.47	-100.000
845.76	-266.667
846.06	0.000
846.36	-450.000
846.66	-160.000
846.96	-63.158
847.25	-25.000
847.55	-133.333
847.85	-100.000
848.15	-200.000
848.44	65.385
848.74	-73.684
849.04	566.667
849.34	-155.556
849.63	-121.053
849.93	0.000
850.23	-95.000
850.53	19.048
850.82	-40.000
851.12	-57.895
851.42	-500.000
851.71	-64.286
852.01	-158.333
852.31	-64.706
852.61	-60.000
852.90	-14.286
853.20	-216.667
853.50	-44.444
853.79	-57.895
854.09	-126.667
854.39	-71.429
854.68	-30.435
854.98	-166.667
855.28	-31.034
855.57	-112.500
855.87	-45.000
856.17	-146.667
856.46	-17.241
856.76	-86.667
857.05	-129.412
857.35	-230.769
857.65	-109.091
857.94	-14.815
858.24	-128.571
858.53	-92.857
858.83	-91.667
859.13	-122.222
859.42	-33.333
859.72	-262.500
860.01	-766.667
860.31	-225.000
860.60	-280.000
860.90	-44.444
861.20	-225.000
861.49	-157.143
861.79	-70.588
862.08	-1200.000
862.38	-116.667
862.67	-38.462
862.97	-52.941
863.26	-25.000
863.56	-35.294
863.85	500.000
864.15	-180.000
864.44	-123.077
864.74	20.000
865.03	-400.000
865.33	-300.000
865.62	-88.235
865.92	-650.000
866.21	-114.286
866.51	-150.000
866.80	-1400.000
867.10	-233.333
867.39	-11.765
867.69	34.783
867.98	-85.714
868.27	-200.000
868.57	-137.500
868.86	-90.909
869.16	-5.882
869.45	-250.000
869.75	-171.429
870.04	1900.000
870.33	-50.000
870.63	-300.000
870.92	-211.111
871.22	-58.333
871.51	-145.455
871.80	-25.000
872.10	-10.000
>>>>>End Processed Spectral Data<<<<<
