SpectraSuite Data File
++++++++++++++++++++++++++++++++++++
Date: Sat May 16 11:19:07 PDT 2015
User: schluterlab
Dark Spectrum Present: Yes
Reference Spectrum Present: Yes
Number of Sampled Component Spectra: 1
Spectrometers: USB2E3373
Integration Time (usec): 3000 (USB2E3373)
Spectra Averaged: 3 (USB2E3373)
Boxcar Smoothing: 0 (USB2E3373)
Correct for Electrical Dark: No (USB2E3373)
Strobe/Lamp Enabled: No (USB2E3373)
Correct for Detector Non-linearity: No (USB2E3373)
Correct for Stray Light: No (USB2E3373)
Number of Pixels in Processed Spectrum: 2048
>>>>>Begin Processed Spectral Data<<<<<
178.53	0.000
178.91	93.333
179.29	533.333
179.67	-700.000
180.04	-123.077
180.42	1300.000
180.80	225.000
181.18	275.000
181.56	-162.500
181.94	500.000
182.31	350.000
182.69	-30.769
183.07	-366.667
183.45	1650.000
183.83	300.000
184.20	-128.571
184.58	-237.500
184.96	-75.000
185.34	37.500
185.72	-400.000
186.09	-0.000
186.47	-62.500
186.85	-100.000
187.23	125.000
187.61	-275.000
187.98	-250.000
188.36	-112.500
188.74	-37.500
189.12	1400.000
189.49	328.571
189.87	-25.000
190.25	200.000
190.63	-78.571
191.00	-22.222
191.38	300.000
191.76	60.000
192.14	500.000
192.51	-180.000
192.89	-333.333
193.27	0.000
193.65	-88.889
194.02	-157.143
194.40	466.667
194.78	-100.000
195.15	-1300.000
195.53	-27.273
195.91	-350.000
196.29	300.000
196.66	-600.000
197.04	1900.000
197.42	100.000
197.79	46.667
198.17	-300.000
198.55	-650.000
198.92	-1000.000
199.30	100.000
199.68	-650.000
200.05	-111.111
200.43	-211.111
200.81	-900.000
201.18	-108.333
201.56	71.429
201.94	0.000
202.31	22.727
202.69	10.000
203.07	-50.000
203.44	433.333
203.82	-100.000
204.19	-250.000
204.57	-75.000
204.95	-800.000
205.32	31.250
205.70	900.000
206.08	-1700.000
206.45	-22.222
206.83	-400.000
207.20	250.000
207.58	-500.000
207.96	-366.667
208.33	75.000
208.71	-100.000
209.08	150.000
209.46	14.286
209.84	700.000
210.21	0.000
210.59	10.000
210.96	400.000
211.34	-83.333
211.71	-266.667
212.09	300.000
212.46	500.000
212.84	-2300.000
213.22	300.000
213.59	91.667
213.97	-55.556
214.34	170.000
214.72	-60.000
215.09	-266.667
215.47	-66.667
215.84	-80.000
216.22	20.000
216.59	20.000
216.97	-475.000
217.34	400.000
217.72	-71.429
218.09	-33.333
218.47	-214.286
218.84	228.571
219.22	-71.429
219.59	0.000
219.97	285.714
220.34	425.000
220.72	50.000
221.09	-7.692
221.47	0.000
221.84	466.667
222.22	-350.000
222.59	900.000
222.97	-12.500
223.34	-100.000
223.72	-133.333
224.09	7.143
224.46	-200.000
224.84	0.000
225.21	-157.143
225.59	9.091
225.96	-37.500
226.34	0.000
226.71	-200.000
227.08	30.000
227.46	1600.000
227.83	-71.429
228.21	-237.500
228.58	-0.000
228.95	-18.750
229.33	-1100.000
229.70	-140.000
230.08	-1150.000
230.45	66.667
230.82	-233.333
231.20	-1700.000
231.57	-500.000
231.95	800.000
232.32	0.000
232.69	-33.333
233.07	-71.429
233.44	-700.000
233.81	-13.333
234.19	-155.556
234.56	0.000
234.93	21.875
235.31	-228.571
235.68	-57.143
236.05	-17.647
236.43	-50.000
236.80	45.161
237.17	-4.167
237.55	-47.619
237.92	-63.636
238.29	-2.857
238.67	14.706
239.04	16.667
239.41	12.903
239.79	-30.769
240.16	-21.429
240.53	1.818
240.91	12.821
241.28	12.727
241.65	21.538
242.02	14.754
242.40	1.639
242.77	9.091
243.14	15.254
243.51	8.571
243.89	-1.266
244.26	10.112
244.63	15.789
245.00	21.053
245.38	20.339
245.75	21.239
246.12	23.200
246.49	7.087
246.87	3.252
247.24	14.407
247.61	11.017
247.98	15.493
248.36	3.497
248.73	12.025
249.10	10.191
249.47	16.959
249.84	20.455
250.22	11.310
250.59	21.469
250.96	15.707
251.33	18.957
251.70	15.865
252.08	12.322
252.45	17.536
252.82	18.571
253.19	15.745
253.56	18.548
253.94	13.080
254.31	16.738
254.68	19.919
255.05	12.097
255.42	16.270
255.79	16.846
256.16	14.510
256.54	20.221
256.91	18.182
257.28	17.216
257.65	14.539
258.02	18.553
258.39	15.385
258.76	13.851
259.14	13.272
259.51	16.721
259.88	18.902
260.25	17.702
260.62	12.862
260.99	17.507
261.36	15.854
261.73	20.231
262.10	19.167
262.47	16.809
262.85	22.000
263.22	16.619
263.59	15.077
263.96	15.362
264.33	20.054
264.70	19.061
265.07	18.407
265.44	17.571
265.81	17.054
266.18	15.190
266.55	15.196
266.92	19.899
267.29	17.676
267.66	17.037
268.03	17.874
268.40	19.014
268.77	17.349
269.14	17.633
269.51	17.931
269.88	15.367
270.25	13.287
270.62	16.476
270.99	17.568
271.36	19.114
271.73	16.368
272.10	17.849
272.47	19.111
272.84	17.111
273.21	18.807
273.58	18.022
273.95	16.447
274.32	18.326
274.69	18.162
275.06	19.018
275.43	18.527
275.80	18.126
276.17	16.109
276.54	17.923
276.91	18.519
277.28	16.430
277.65	18.182
278.02	17.537
278.39	17.485
278.76	18.526
279.13	19.960
279.50	16.899
279.87	17.336
280.23	19.028
280.60	16.700
280.97	17.476
281.34	17.021
281.71	19.038
282.08	19.153
282.45	15.275
282.82	16.473
283.19	17.091
283.56	19.414
283.92	18.375
284.29	16.171
284.66	16.727
285.03	20.143
285.40	17.712
285.77	16.491
286.14	16.606
286.51	17.584
286.87	18.330
287.24	17.235
287.61	17.190
287.98	14.905
288.35	15.868
288.72	14.601
289.08	15.085
289.45	16.162
289.82	14.879
290.19	16.913
290.56	13.719
290.93	14.308
291.29	15.397
291.66	14.010
292.03	15.542
292.40	14.608
292.77	15.839
293.13	16.585
293.50	14.859
293.87	15.644
294.24	17.044
294.60	14.394
294.97	18.665
295.34	12.444
295.71	16.369
296.08	15.361
296.44	13.877
296.81	16.097
297.18	14.930
297.55	15.254
297.91	16.039
298.28	15.205
298.65	13.668
299.02	15.642
299.38	14.439
299.75	13.723
300.12	13.846
300.48	15.217
300.85	14.024
301.22	13.842
301.59	13.524
301.95	15.617
302.32	13.299
302.69	14.565
303.05	13.797
303.42	13.000
303.79	14.593
304.15	14.455
304.52	14.469
304.89	13.223
305.25	14.530
305.62	12.691
305.99	15.548
306.35	14.095
306.72	13.667
307.09	15.551
307.45	14.529
307.82	13.631
308.19	14.765
308.55	15.142
308.92	14.071
309.29	14.595
309.65	14.634
310.02	14.471
310.38	13.730
310.75	15.984
311.12	14.773
311.48	15.762
311.85	15.860
312.22	15.036
312.58	15.870
312.95	14.577
313.31	15.584
313.68	15.980
314.05	17.310
314.41	15.795
314.78	15.784
315.14	16.288
315.51	16.413
315.87	16.747
316.24	17.201
316.61	17.658
316.97	16.617
317.34	17.052
317.70	17.254
318.07	17.444
318.43	16.760
318.80	18.873
319.16	16.323
319.53	18.045
319.89	17.404
320.26	18.431
320.62	18.269
320.99	19.005
321.35	18.325
321.72	18.424
322.08	19.585
322.45	18.416
322.81	19.885
323.18	20.653
323.54	20.610
323.91	19.833
324.27	21.008
324.64	20.841
325.00	20.593
325.37	20.905
325.73	23.272
326.10	21.435
326.46	22.855
326.83	23.404
327.19	23.269
327.56	24.191
327.92	23.789
328.29	24.416
328.65	23.545
329.01	25.883
329.38	25.513
329.74	25.916
330.11	24.932
330.47	25.795
330.84	27.314
331.20	26.444
331.56	26.527
331.93	26.909
332.29	28.128
332.66	26.866
333.02	26.697
333.38	28.315
333.75	27.427
334.11	26.311
334.48	26.214
334.84	28.171
335.20	27.926
335.57	27.166
335.93	27.753
336.29	27.015
336.66	26.872
337.02	27.568
337.38	27.362
337.75	27.305
338.11	26.655
338.47	27.402
338.84	27.042
339.20	27.592
339.56	28.342
339.93	27.160
340.29	27.104
340.65	27.797
341.02	26.981
341.38	27.211
341.74	26.926
342.11	26.962
342.47	27.811
342.83	26.364
343.20	27.498
343.56	26.041
343.92	28.297
344.28	27.586
344.65	26.485
345.01	27.395
345.37	26.910
345.73	26.023
346.10	25.756
346.46	28.026
346.82	27.025
347.19	27.362
347.55	25.682
347.91	26.614
348.27	26.730
348.63	28.191
349.00	27.605
349.36	25.527
349.72	27.787
350.08	27.827
350.45	26.635
350.81	28.025
351.17	28.215
351.53	26.412
351.89	27.405
352.26	26.357
352.62	27.957
352.98	27.532
353.34	27.578
353.70	27.181
354.07	27.931
354.43	27.036
354.79	27.496
355.15	27.796
355.51	26.563
355.87	27.036
356.24	26.767
356.60	28.606
356.96	26.867
357.32	26.207
357.68	27.663
358.04	27.329
358.40	27.378
358.77	26.893
359.13	27.238
359.49	27.135
359.85	27.058
360.21	28.082
360.57	28.840
360.93	28.667
361.29	27.354
361.66	26.982
362.02	27.293
362.38	28.613
362.74	28.059
363.10	28.192
363.46	28.704
363.82	28.571
364.18	28.799
364.54	29.521
364.90	28.372
365.26	27.675
365.62	28.867
365.98	28.876
366.35	29.366
366.71	28.541
367.07	29.076
367.43	29.719
367.79	29.897
368.15	29.303
368.51	28.741
368.87	29.190
369.23	29.614
369.59	29.306
369.95	28.330
370.31	30.098
370.67	28.995
371.03	30.394
371.39	28.713
371.75	28.970
372.11	30.775
372.47	29.863
372.83	30.111
373.19	30.286
373.55	29.205
373.91	29.516
374.27	30.185
374.63	30.987
374.99	30.737
375.35	30.552
375.71	31.938
376.07	30.459
376.42	30.662
376.78	31.438
377.14	31.593
377.50	32.366
377.86	30.624
378.22	32.224
378.58	31.872
378.94	31.936
379.30	32.054
379.66	32.240
380.02	31.967
380.38	32.991
380.74	31.419
381.09	33.040
381.45	32.757
381.81	32.607
382.17	33.020
382.53	33.495
382.89	33.014
383.25	32.571
383.61	33.962
383.97	33.925
384.32	33.980
384.68	35.248
385.04	33.514
385.40	33.658
385.76	34.390
386.12	32.979
386.48	35.272
386.83	34.049
387.19	34.190
387.55	33.737
387.91	34.499
388.27	34.680
388.62	35.216
388.98	35.736
389.34	34.333
389.70	35.871
390.06	35.674
390.42	35.769
390.77	34.637
391.13	36.398
391.49	36.619
391.85	35.474
392.20	35.437
392.56	36.042
392.92	34.912
393.28	36.567
393.64	37.462
393.99	35.877
394.35	37.044
394.71	35.578
395.07	37.414
395.42	35.936
395.78	35.072
396.14	36.947
396.50	36.391
396.85	36.644
397.21	37.363
397.57	36.109
397.92	37.354
398.28	37.167
398.64	37.894
399.00	37.472
399.35	36.359
399.71	37.921
400.07	37.075
400.42	37.165
400.78	36.613
401.14	36.287
401.49	37.028
401.85	37.157
402.21	37.962
402.57	37.015
402.92	37.256
403.28	37.377
403.63	37.028
403.99	38.658
404.35	37.379
404.70	37.741
405.06	37.774
405.42	37.146
405.77	37.500
406.13	38.047
406.49	37.208
406.84	38.032
407.20	38.045
407.55	37.112
407.91	38.277
408.27	38.113
408.62	37.523
408.98	37.659
409.34	37.477
409.69	36.673
410.05	37.477
410.40	37.646
410.76	37.819
411.11	37.968
411.47	37.980
411.83	39.425
412.18	37.686
412.54	37.462
412.89	38.153
413.25	37.780
413.60	38.457
413.96	36.784
414.31	37.798
414.67	37.651
415.03	38.745
415.38	39.102
415.74	39.175
416.09	37.596
416.45	38.360
416.80	38.036
417.16	39.601
417.51	38.477
417.87	37.735
418.22	39.317
418.58	39.281
418.93	39.240
419.29	38.833
419.64	38.191
420.00	39.733
420.35	39.030
420.71	38.956
421.06	39.941
421.42	38.115
421.77	40.034
422.12	39.396
422.48	38.055
422.83	39.636
423.19	39.588
423.54	39.020
423.90	38.809
424.25	39.253
424.61	40.109
424.96	40.140
425.31	38.904
425.67	39.828
426.02	39.702
426.38	40.048
426.73	40.561
427.09	39.767
427.44	39.773
427.79	40.291
428.15	39.797
428.50	40.762
428.85	39.448
429.21	39.956
429.56	40.156
429.92	40.531
430.27	39.880
430.62	40.073
430.98	41.140
431.33	40.555
431.68	40.804
432.04	40.683
432.39	41.083
432.74	40.707
433.10	40.461
433.45	40.875
433.80	41.433
434.16	41.537
434.51	41.205
434.86	41.125
435.22	41.258
435.57	41.187
435.92	41.676
436.28	40.415
436.63	41.210
436.98	40.092
437.34	41.347
437.69	41.074
438.04	41.577
438.39	41.576
438.75	40.105
439.10	40.866
439.45	40.978
439.81	41.807
440.16	40.772
440.51	41.824
440.86	42.163
441.22	40.409
441.57	41.579
441.92	41.074
442.27	41.991
442.63	41.845
442.98	41.535
443.33	41.955
443.68	42.574
444.03	41.945
444.39	41.703
444.74	42.291
445.09	41.447
445.44	41.868
445.79	43.090
446.15	43.428
446.50	42.079
446.85	42.227
447.20	42.339
447.55	42.099
447.91	43.122
448.26	42.570
448.61	42.671
448.96	43.249
449.31	42.108
449.66	41.385
450.02	41.108
450.37	42.957
450.72	42.203
451.07	42.363
451.42	41.698
451.77	42.370
452.12	42.431
452.47	42.065
452.83	42.167
453.18	43.011
453.53	43.159
453.88	42.883
454.23	43.108
454.58	44.065
454.93	42.191
455.28	43.977
455.63	43.735
455.98	43.253
456.34	43.901
456.69	43.652
457.04	43.147
457.39	43.481
457.74	41.996
458.09	42.865
458.44	42.552
458.79	42.321
459.14	43.925
459.49	43.398
459.84	42.721
460.19	42.124
460.54	42.710
460.89	43.610
461.24	42.562
461.59	43.611
461.94	43.857
462.29	43.478
462.64	44.401
462.99	44.177
463.34	42.269
463.69	43.575
464.04	43.058
464.39	43.489
464.74	43.262
465.09	43.355
465.44	43.429
465.79	43.542
466.14	44.189
466.49	43.293
466.84	43.758
467.19	43.641
467.54	43.038
467.89	43.033
468.24	43.943
468.59	42.911
468.94	43.408
469.29	43.405
469.64	43.261
469.99	45.240
470.34	44.088
470.68	45.640
471.03	44.873
471.38	44.028
471.73	45.524
472.08	43.909
472.43	43.629
472.78	43.067
473.13	43.207
473.48	43.969
473.83	44.851
474.17	44.841
474.52	44.118
474.87	43.706
475.22	44.307
475.57	44.778
475.92	44.924
476.27	43.886
476.61	43.831
476.96	44.550
477.31	44.133
477.66	43.331
478.01	45.381
478.36	43.112
478.70	44.367
479.05	44.835
479.40	45.181
479.75	44.190
480.10	43.403
480.45	43.810
480.79	44.817
481.14	44.957
481.49	44.530
481.84	44.799
482.19	44.358
482.53	45.455
482.88	43.379
483.23	43.991
483.58	44.681
483.92	45.437
484.27	43.952
484.62	43.844
484.97	43.609
485.31	42.816
485.66	41.884
486.01	41.801
486.36	42.892
486.70	43.406
487.05	43.153
487.40	43.323
487.75	43.543
488.09	44.225
488.44	43.369
488.79	43.191
489.13	43.971
489.48	44.780
489.83	45.066
490.17	43.535
490.52	44.565
490.87	43.788
491.22	45.166
491.56	44.028
491.91	44.418
492.26	43.962
492.60	42.864
492.95	43.979
493.30	44.212
493.64	44.006
493.99	43.881
494.34	44.286
494.68	45.178
495.03	43.834
495.37	45.428
495.72	44.597
496.07	43.688
496.41	44.141
496.76	44.110
497.11	44.560
497.45	44.540
497.80	43.172
498.14	44.204
498.49	43.898
498.84	43.932
499.18	43.908
499.53	44.520
499.87	44.112
500.22	43.725
500.56	44.572
500.91	44.729
501.26	45.366
501.60	43.765
501.95	45.362
502.29	42.560
502.64	44.602
502.98	43.316
503.33	43.703
503.67	43.008
504.02	44.278
504.36	44.412
504.71	44.022
505.06	44.383
505.40	45.110
505.75	44.563
506.09	44.590
506.44	43.810
506.78	44.706
507.13	44.284
507.47	45.227
507.82	44.399
508.16	44.922
508.51	44.668
508.85	45.031
509.19	44.165
509.54	44.503
509.88	44.628
510.23	43.973
510.57	45.556
510.92	45.704
511.26	44.551
511.61	44.114
511.95	43.534
512.30	44.585
512.64	44.741
512.98	44.994
513.33	45.470
513.67	44.779
514.02	45.078
514.36	44.377
514.70	45.161
515.05	45.683
515.39	45.040
515.74	45.841
516.08	45.764
516.42	45.156
516.77	46.043
517.11	46.281
517.46	47.069
517.80	45.848
518.14	45.471
518.49	45.965
518.83	46.113
519.17	45.648
519.52	44.419
519.86	45.460
520.20	45.782
520.55	45.108
520.89	45.210
521.23	45.543
521.58	45.643
521.92	45.915
522.26	46.032
522.61	46.768
522.95	45.692
523.29	45.517
523.64	46.159
523.98	46.085
524.32	45.506
524.66	44.969
525.01	45.087
525.35	45.619
525.69	45.153
526.04	46.214
526.38	46.340
526.72	45.913
527.06	46.940
527.41	45.677
527.75	45.347
528.09	44.474
528.43	44.000
528.78	46.294
529.12	46.159
529.46	45.876
529.80	45.965
530.15	45.718
530.49	45.149
530.83	45.972
531.17	44.848
531.51	45.010
531.86	44.503
532.20	45.277
532.54	44.987
532.88	45.916
533.22	45.521
533.57	45.953
533.91	43.009
534.25	44.626
534.59	43.223
534.93	44.555
535.27	46.130
535.62	44.309
535.96	44.021
536.30	45.157
536.64	46.082
536.98	45.692
537.32	44.299
537.66	45.418
538.01	44.399
538.35	45.203
538.69	43.516
539.03	44.279
539.37	44.711
539.71	44.430
540.05	44.551
540.39	44.737
540.73	44.160
541.07	45.355
541.42	43.957
541.76	42.658
542.10	44.092
542.44	43.238
542.78	44.776
543.12	44.467
543.46	41.849
543.80	44.080
544.14	44.929
544.48	44.160
544.82	44.723
545.16	44.534
545.50	42.867
545.84	44.019
546.18	43.481
546.52	44.310
546.86	45.085
547.20	44.655
547.54	42.424
547.88	42.070
548.22	42.988
548.56	42.619
548.90	43.935
549.24	43.097
549.58	43.049
549.92	42.615
550.26	42.991
550.60	42.532
550.94	43.504
551.28	43.190
551.62	42.614
551.96	42.547
552.30	42.718
552.64	41.942
552.98	43.308
553.32	41.991
553.66	42.394
554.00	42.786
554.34	42.527
554.68	40.789
555.02	42.981
555.36	42.631
555.69	42.479
556.03	42.246
556.37	41.892
556.71	42.806
557.05	41.981
557.39	41.648
557.73	42.086
558.07	43.029
558.41	42.558
558.75	42.053
559.08	41.401
559.42	41.807
559.76	41.718
560.10	42.580
560.44	41.618
560.78	41.267
561.12	41.477
561.45	41.575
561.79	41.672
562.13	42.006
562.47	40.896
562.81	41.867
563.15	41.008
563.48	40.083
563.82	42.529
564.16	42.258
564.50	40.995
564.84	40.344
565.17	39.655
565.51	40.678
565.85	41.447
566.19	40.909
566.52	40.248
566.86	40.013
567.20	40.133
567.54	41.583
567.88	39.866
568.21	39.877
568.55	39.926
568.89	38.320
569.23	39.102
569.56	38.083
569.90	38.474
570.24	38.294
570.57	36.485
570.91	37.300
571.25	37.711
571.59	38.183
571.92	36.964
572.26	37.418
572.60	37.481
572.93	37.132
573.27	36.707
573.61	37.023
573.95	36.456
574.28	35.888
574.62	36.807
574.96	36.341
575.29	36.890
575.63	36.342
575.97	36.084
576.30	35.900
576.64	36.397
576.98	35.855
577.31	35.948
577.65	36.144
577.98	35.894
578.32	35.824
578.66	36.060
578.99	36.255
579.33	36.222
579.67	35.582
580.00	36.161
580.34	36.130
580.67	36.381
581.01	35.352
581.35	35.914
581.68	35.363
582.02	35.763
582.35	35.449
582.69	35.742
583.02	35.986
583.36	35.724
583.70	35.996
584.03	36.503
584.37	36.049
584.70	35.845
585.04	35.215
585.37	35.036
585.71	35.486
586.04	35.461
586.38	35.739
586.72	35.541
587.05	35.911
587.39	35.045
587.72	35.625
588.06	35.516
588.39	35.602
588.73	36.301
589.06	36.157
589.40	36.551
589.73	35.729
590.07	35.543
590.40	35.756
590.73	36.066
591.07	36.311
591.40	37.002
591.74	36.620
592.07	35.495
592.41	36.773
592.74	35.665
593.08	35.668
593.41	35.493
593.75	35.147
594.08	36.413
594.41	36.155
594.75	35.334
595.08	35.338
595.42	35.621
595.75	35.538
596.09	36.088
596.42	36.252
596.75	35.748
597.09	36.509
597.42	36.185
597.75	36.271
598.09	36.783
598.42	35.484
598.76	35.507
599.09	34.767
599.42	35.063
599.76	35.145
600.09	35.840
600.42	35.397
600.76	36.121
601.09	34.751
601.42	35.378
601.76	35.903
602.09	35.787
602.42	36.420
602.76	35.688
603.09	35.484
603.42	35.375
603.76	35.102
604.09	35.402
604.42	34.221
604.76	35.150
605.09	36.031
605.42	35.550
605.75	35.274
606.09	34.994
606.42	34.814
606.75	34.693
607.09	35.554
607.42	36.004
607.75	35.364
608.08	36.195
608.42	35.951
608.75	34.953
609.08	35.119
609.41	35.277
609.75	34.130
610.08	35.294
610.41	35.036
610.74	36.605
611.07	36.105
611.41	35.451
611.74	36.710
612.07	36.251
612.40	36.354
612.73	35.918
613.07	35.883
613.40	35.796
613.73	36.621
614.06	34.487
614.39	36.302
614.72	34.804
615.06	35.054
615.39	35.160
615.72	35.796
616.05	34.953
616.38	36.448
616.71	35.976
617.05	35.283
617.38	36.099
617.71	36.057
618.04	35.776
618.37	35.660
618.70	37.744
619.03	36.222
619.36	36.152
619.69	37.186
620.03	34.986
620.36	35.513
620.69	36.396
621.02	37.747
621.35	36.855
621.68	35.820
622.01	37.783
622.34	36.568
622.67	35.781
623.00	37.337
623.33	36.493
623.66	36.263
623.99	38.120
624.32	34.970
624.65	35.909
624.99	36.072
625.32	36.003
625.65	35.897
625.98	36.072
626.31	36.949
626.64	36.067
626.97	37.243
627.30	37.447
627.63	36.356
627.96	36.554
628.29	35.938
628.62	37.440
628.95	38.287
629.28	36.560
629.61	37.782
629.94	38.091
630.26	37.475
630.59	38.492
630.92	37.437
631.25	37.198
631.58	39.471
631.91	36.064
632.24	38.333
632.57	39.111
632.90	39.080
633.23	38.668
633.56	38.246
633.89	38.443
634.22	38.135
634.55	37.620
634.88	37.727
635.20	37.453
635.53	38.041
635.86	36.902
636.19	37.485
636.52	36.559
636.85	35.620
637.18	37.000
637.51	40.397
637.83	39.414
638.16	37.763
638.49	38.621
638.82	38.353
639.15	37.743
639.48	35.927
639.81	40.664
640.13	39.054
640.46	39.601
640.79	39.356
641.12	38.646
641.45	38.307
641.77	37.725
642.10	39.577
642.43	39.302
642.76	39.370
643.09	36.508
643.41	40.476
643.74	38.474
644.07	40.562
644.40	37.925
644.73	38.944
645.05	37.896
645.38	39.238
645.71	39.691
646.04	40.840
646.36	39.267
646.69	40.138
647.02	41.697
647.35	38.989
647.67	42.883
648.00	40.598
648.33	40.135
648.66	36.613
648.98	37.420
649.31	38.615
649.64	39.375
649.96	37.991
650.29	36.557
650.62	37.866
650.94	40.472
651.27	38.475
651.60	40.138
651.92	39.726
652.25	38.397
652.58	37.819
652.90	37.079
653.23	37.742
653.56	38.796
653.88	38.525
654.21	40.436
654.54	37.542
654.86	38.202
655.19	36.963
655.52	34.240
655.84	32.438
656.17	35.024
656.49	47.714
656.82	49.401
657.15	37.679
657.47	28.174
657.80	21.671
658.13	24.838
658.45	33.648
658.78	33.174
659.10	33.848
659.43	33.650
659.75	34.776
660.08	34.115
660.41	33.747
660.73	34.873
661.06	36.377
661.38	39.464
661.71	38.815
662.03	39.516
662.36	39.019
662.68	37.342
663.01	38.004
663.33	40.590
663.66	40.987
663.98	41.071
664.31	38.031
664.63	45.575
664.96	40.347
665.28	38.178
665.61	38.689
665.93	39.918
666.26	38.866
666.58	39.709
666.91	40.312
667.23	39.035
667.56	40.590
667.88	40.045
668.21	39.401
668.53	39.019
668.86	39.030
669.18	42.694
669.50	39.252
669.83	41.849
670.15	37.892
670.48	39.252
670.80	38.041
671.13	36.117
671.45	39.189
671.77	37.687
672.10	39.448
672.42	38.376
672.75	38.545
673.07	36.396
673.39	40.073
673.72	39.764
674.04	37.580
674.37	37.526
674.69	40.574
675.01	37.021
675.34	39.696
675.66	40.389
675.98	36.564
676.31	38.914
676.63	39.770
676.95	39.823
677.28	38.979
677.60	40.271
677.92	38.546
678.25	40.044
678.57	40.535
678.89	36.478
679.22	37.945
679.54	39.250
679.86	35.400
680.18	38.213
680.51	35.754
680.83	39.810
681.15	36.416
681.48	39.959
681.80	39.315
682.12	38.833
682.44	37.328
682.77	34.848
683.09	41.090
683.41	41.372
683.73	36.301
684.06	38.495
684.38	38.703
684.70	38.066
685.02	37.402
685.34	37.817
685.67	35.985
685.99	35.161
686.31	37.163
686.63	37.589
686.96	37.523
687.28	37.380
687.60	37.695
687.92	35.214
688.24	39.567
688.56	36.273
688.89	35.897
689.21	38.074
689.53	41.149
689.85	38.753
690.17	36.323
690.49	37.644
690.82	37.108
691.14	38.915
691.46	39.690
691.78	39.427
692.10	38.136
692.42	38.444
692.74	36.266
693.06	35.730
693.39	38.255
693.71	35.666
694.03	38.661
694.35	36.569
694.67	38.771
694.99	36.317
695.31	39.286
695.63	36.224
695.95	40.447
696.27	39.651
696.59	39.840
696.91	37.360
697.23	38.542
697.56	39.423
697.88	39.189
698.20	35.760
698.52	36.099
698.84	37.621
699.16	36.190
699.48	39.000
699.80	38.346
700.12	38.035
700.44	35.475
700.76	38.484
701.08	37.500
701.40	39.577
701.72	41.049
702.04	40.705
702.36	38.855
702.68	36.228
703.00	34.493
703.32	36.103
703.64	39.412
703.96	40.116
704.28	38.757
704.60	37.342
704.91	39.048
705.23	41.424
705.55	37.500
705.87	39.932
706.19	37.500
706.51	38.889
706.83	42.295
707.15	37.898
707.47	34.711
707.79	34.278
708.11	36.641
708.43	37.905
708.74	34.286
709.06	39.554
709.38	37.356
709.70	37.812
710.02	37.423
710.34	37.294
710.66	38.095
710.98	36.278
711.29	35.806
711.61	33.546
711.93	37.705
712.25	37.209
712.57	40.767
712.89	43.525
713.20	38.832
713.52	38.806
713.84	40.569
714.16	37.049
714.48	38.095
714.80	36.000
715.11	40.346
715.43	38.253
715.75	38.629
716.07	39.672
716.39	35.117
716.70	39.721
717.02	36.667
717.34	45.420
717.66	40.664
717.97	38.525
718.29	42.017
718.61	44.048
718.93	34.050
719.24	36.397
719.56	32.830
719.88	40.000
720.20	36.330
720.51	39.474
720.83	40.964
721.15	40.164
721.46	36.471
721.78	36.015
722.10	40.000
722.42	37.603
722.73	45.418
723.05	39.759
723.37	40.784
723.68	32.794
724.00	40.244
724.32	41.564
724.63	38.589
724.95	41.322
725.27	39.474
725.58	34.914
725.90	38.095
726.22	42.066
726.53	38.783
726.85	34.902
727.16	44.361
727.48	35.385
727.80	33.607
728.11	40.336
728.43	35.537
728.74	42.187
729.06	36.364
729.38	36.965
729.69	34.646
730.01	40.945
730.32	33.466
730.64	40.293
730.96	42.537
731.27	32.500
731.59	35.370
731.90	34.356
732.22	34.049
732.53	38.411
732.85	33.893
733.16	36.594
733.48	40.418
733.80	36.299
734.11	32.759
734.43	34.354
734.74	37.982
735.06	34.796
735.37	39.755
735.69	36.452
736.00	31.987
736.32	35.099
736.63	35.862
736.95	32.246
737.26	36.093
737.58	37.410
737.89	39.068
738.21	40.977
738.52	38.462
738.83	36.328
739.15	43.162
739.46	34.274
739.78	32.867
740.09	37.063
740.41	36.713
740.72	42.701
741.04	30.556
741.35	28.571
741.66	36.574
741.98	39.048
742.29	36.150
742.61	49.733
742.92	44.393
743.23	32.895
743.55	36.486
743.86	40.889
744.18	42.857
744.49	39.409
744.80	36.041
745.12	42.784
745.43	37.688
745.74	41.262
746.06	33.171
746.37	37.004
746.68	35.821
747.00	39.267
747.31	36.058
747.62	40.553
747.94	38.865
748.25	38.605
748.56	42.857
748.88	33.696
749.19	37.559
749.50	41.667
749.82	35.111
750.13	42.291
750.44	37.805
750.75	38.800
751.07	36.429
751.38	33.948
751.69	31.298
752.01	40.000
752.32	34.630
752.63	32.308
752.94	36.905
753.26	37.826
753.57	42.857
753.88	37.931
754.19	34.025
754.51	35.937
754.82	34.387
755.13	32.099
755.44	35.124
755.75	41.152
756.07	34.940
756.38	41.797
756.69	36.101
757.00	39.373
757.31	38.591
757.63	37.383
757.94	35.549
758.25	36.919
758.56	39.623
758.87	33.807
759.18	36.000
759.50	33.096
759.81	35.036
760.12	31.419
760.43	34.951
760.74	42.187
761.05	36.236
761.36	36.228
761.67	34.911
761.99	33.871
762.30	38.043
762.61	38.113
762.92	36.771
763.23	42.180
763.54	34.222
763.85	42.194
764.16	38.367
764.47	38.136
764.78	36.330
765.10	40.288
765.41	32.581
765.72	35.535
766.03	30.389
766.34	38.346
766.65	34.008
766.96	37.000
767.27	39.062
767.58	38.372
767.89	32.903
768.20	31.288
768.51	38.798
768.82	36.757
769.13	36.000
769.44	33.772
769.75	36.364
770.06	37.615
770.37	31.925
770.68	36.458
770.99	29.208
771.30	34.951
771.61	37.963
771.92	34.199
772.23	31.776
772.54	43.617
772.85	32.544
773.16	39.634
773.47	40.964
773.78	40.110
774.09	36.000
774.39	29.630
774.70	34.899
775.01	34.783
775.32	30.597
775.63	32.231
775.94	36.842
776.25	38.571
776.56	34.426
776.87	40.708
777.18	35.398
777.48	32.727
777.79	33.913
778.10	29.358
778.41	36.441
778.72	34.711
779.03	37.313
779.34	35.338
779.65	35.948
779.95	34.783
780.26	31.293
780.57	28.448
780.88	33.333
781.19	27.273
781.50	36.000
781.80	38.562
782.11	35.897
782.42	31.928
782.73	27.007
783.04	34.459
783.34	29.545
783.65	32.558
783.96	29.268
784.27	34.188
784.57	38.211
784.88	33.333
785.19	37.719
785.50	29.897
785.81	44.762
786.11	18.627
786.42	31.818
786.73	38.739
787.04	37.624
787.34	38.095
787.65	23.810
787.96	29.412
788.26	31.532
788.57	37.903
788.88	31.250
789.19	31.624
789.49	36.134
789.80	26.496
790.11	34.513
790.41	22.222
790.72	42.453
791.03	31.944
791.33	23.684
791.64	25.806
791.95	46.667
792.25	41.429
792.56	32.927
792.87	45.918
793.17	27.632
793.48	28.378
793.79	23.944
794.09	22.785
794.40	30.851
794.70	27.103
795.01	27.193
795.32	25.455
795.62	29.464
795.93	36.082
796.23	27.473
796.54	45.263
796.85	39.726
797.15	29.167
797.46	32.877
797.76	30.986
798.07	42.500
798.37	33.824
798.68	50.000
798.99	8.571
799.29	35.526
799.60	30.000
799.90	26.389
800.21	29.687
800.51	38.095
800.82	22.951
801.12	19.298
801.43	22.535
801.73	20.339
802.04	36.066
802.34	41.818
802.65	23.077
802.95	27.778
803.26	30.000
803.56	34.615
803.87	21.053
804.17	14.516
804.48	33.846
804.78	41.026
805.09	46.512
805.39	0.000
805.70	-1.887
806.00	57.895
806.30	45.946
806.61	38.235
806.91	28.395
807.22	29.333
807.52	31.343
807.83	27.419
808.13	26.984
808.43	30.909
808.74	33.333
809.04	24.528
809.35	27.397
809.65	28.070
809.95	47.059
810.26	29.412
810.56	26.000
810.86	14.286
811.17	42.857
811.47	19.231
811.77	3.226
812.08	5.263
812.38	28.571
812.69	4.348
812.99	22.581
813.29	9.524
813.59	-18.519
813.90	8.511
814.20	-6.977
814.50	22.917
814.81	25.000
815.11	26.829
815.41	-6.667
815.72	28.571
816.02	25.000
816.32	23.077
816.62	-10.811
816.93	-11.765
817.23	15.217
817.53	-14.706
817.84	44.118
818.14	18.750
818.44	13.793
818.74	32.258
819.04	-11.111
819.35	0.000
819.65	28.000
819.95	26.667
820.25	52.000
820.56	10.526
820.86	10.000
821.16	34.043
821.46	22.414
821.76	17.949
822.07	5.000
822.37	11.628
822.67	26.667
822.97	2.703
823.27	13.514
823.57	-8.000
823.88	18.919
824.18	-71.429
824.48	23.077
824.78	-69.231
825.08	8.696
825.38	25.000
825.69	16.667
825.99	0.000
826.29	5.405
826.59	2.941
826.89	64.000
827.19	-17.143
827.49	23.684
827.79	15.625
828.09	-20.000
828.39	21.739
828.70	3.448
829.00	0.000
829.30	11.111
829.60	62.500
829.90	16.667
830.20	-7.692
830.50	-33.333
830.80	7.143
831.10	-7.692
831.40	-4.762
831.70	41.176
832.00	25.000
832.30	-26.316
832.60	-18.750
832.90	-25.000
833.20	-17.647
833.50	-6.667
833.80	13.333
834.10	-10.000
834.40	12.500
834.70	33.333
835.00	26.923
835.30	-29.167
835.60	3.448
835.90	-100.000
836.20	-27.273
836.50	-8.333
836.80	11.429
837.10	65.714
837.40	-47.059
837.70	-54.545
838.00	16.667
838.30	18.750
838.60	0.000
838.90	20.000
839.19	-8.696
839.49	4.348
839.79	-38.889
840.09	21.739
840.39	-18.182
840.69	-56.250
840.99	-26.316
841.29	6.250
841.59	14.286
841.88	-16.667
842.18	16.667
842.48	-17.647
842.78	0.000
843.08	64.286
843.38	7.692
843.68	-111.111
843.97	-46.154
844.27	9.091
844.57	-20.000
844.87	16.000
845.17	-40.000
845.47	-64.286
845.76	-177.778
846.06	0.000
846.36	-300.000
846.66	-10.000
846.96	0.000
847.25	-50.000
847.55	-91.667
847.85	53.333
848.15	-40.000
848.44	19.231
848.74	-21.053
849.04	466.667
849.34	-55.556
849.63	10.526
849.93	0.000
850.23	-50.000
850.53	38.095
850.82	-28.000
851.12	26.316
851.42	-350.000
851.71	-57.143
852.01	8.333
852.31	-5.882
852.61	13.333
852.90	-57.143
853.20	-150.000
853.50	-44.444
853.79	-36.842
854.09	13.333
854.39	-3.571
854.68	-17.391
854.98	-125.000
855.28	17.241
855.57	-18.750
855.87	-5.000
856.17	-53.333
856.46	-6.897
856.76	46.667
857.05	-52.941
857.35	-61.538
857.65	-54.545
857.94	14.815
858.24	-35.714
858.53	-21.429
858.83	-75.000
859.13	-88.889
859.42	0.000
859.72	-75.000
860.01	-33.333
860.31	-125.000
860.60	-320.000
860.90	-144.444
861.20	-175.000
861.49	-185.714
861.79	-41.176
862.08	-350.000
862.38	-83.333
862.67	-61.538
862.97	35.294
863.26	-35.000
863.56	-23.529
863.85	166.667
864.15	-140.000
864.44	7.692
864.74	45.000
865.03	-87.500
865.33	-200.000
865.62	-35.294
865.92	-775.000
866.21	-64.286
866.51	25.000
866.80	-1000.000
867.10	33.333
867.39	29.412
867.69	26.087
867.98	42.857
868.27	-240.000
868.57	-56.250
868.86	-63.636
869.16	0.000
869.45	-366.667
869.75	-171.429
870.04	1400.000
870.33	41.667
870.63	-220.000
870.92	-122.222
871.22	-91.667
871.51	-45.455
871.80	-33.333
872.10	100.000
>>>>>End Processed Spectral Data<<<<<
