SpectraSuite Data File
++++++++++++++++++++++++++++++++++++
Date: Sat May 16 11:28:13 PDT 2015
User: schluterlab
Dark Spectrum Present: Yes
Reference Spectrum Present: Yes
Number of Sampled Component Spectra: 1
Spectrometers: USB2E3373
Integration Time (usec): 3000 (USB2E3373)
Spectra Averaged: 3 (USB2E3373)
Boxcar Smoothing: 0 (USB2E3373)
Correct for Electrical Dark: No (USB2E3373)
Strobe/Lamp Enabled: No (USB2E3373)
Correct for Detector Non-linearity: No (USB2E3373)
Correct for Stray Light: No (USB2E3373)
Number of Pixels in Processed Spectrum: 2048
>>>>>Begin Processed Spectral Data<<<<<
178.53	0.000
178.91	106.667
179.29	766.667
179.67	-1400.000
180.04	-30.769
180.42	800.000
180.80	400.000
181.18	475.000
181.56	-150.000
181.94	700.000
182.31	300.000
182.69	-53.846
183.07	-500.000
183.45	1250.000
183.83	400.000
184.20	-242.857
184.58	-175.000
184.96	-275.000
185.34	37.500
185.72	-500.000
186.09	350.000
186.47	-175.000
186.85	-150.000
187.23	-37.500
187.61	-175.000
187.98	-300.000
188.36	-137.500
188.74	-225.000
189.12	900.000
189.49	314.286
189.87	-41.667
190.25	600.000
190.63	-57.143
191.00	-211.111
191.38	220.000
191.76	33.333
192.14	340.000
192.51	-260.000
192.89	-633.333
193.27	0.000
193.65	-133.333
194.02	-114.286
194.40	266.667
194.78	-190.000
195.15	-1600.000
195.53	-45.455
195.91	-366.667
196.29	-80.000
196.66	-700.000
197.04	2400.000
197.42	-25.000
197.79	6.667
198.17	-233.333
198.55	-1000.000
198.92	-500.000
199.30	287.500
199.68	-500.000
200.05	-55.556
200.43	-133.333
200.81	-1200.000
201.18	-75.000
201.56	57.143
201.94	-93.333
202.31	13.636
202.69	-20.000
203.07	-60.000
203.44	466.667
203.82	-216.667
204.19	-300.000
204.57	-225.000
204.95	-1400.000
205.32	-31.250
205.70	500.000
206.08	-2200.000
206.45	-22.222
206.83	-1100.000
207.20	100.000
207.58	-433.333
207.96	-300.000
208.33	-150.000
208.71	-133.333
209.08	170.000
209.46	-257.143
209.84	550.000
210.21	0.000
210.59	15.000
210.96	800.000
211.34	-250.000
211.71	-200.000
212.09	375.000
212.46	800.000
212.84	-1900.000
213.22	666.667
213.59	141.667
213.97	-133.333
214.34	150.000
214.72	-80.000
215.09	-366.667
215.47	-116.667
215.84	-50.000
216.22	-60.000
216.59	-20.000
216.97	-275.000
217.34	1100.000
217.72	-57.143
218.09	-216.667
218.47	-157.143
218.84	228.571
219.22	-142.857
219.59	0.000
219.97	285.714
220.34	350.000
220.72	250.000
221.09	-76.923
221.47	0.000
221.84	266.667
222.22	-250.000
222.59	1400.000
222.97	-112.500
223.34	-400.000
223.72	-500.000
224.09	-78.571
224.46	-125.000
224.84	-50.000
225.21	-185.714
225.59	-45.455
225.96	-237.500
226.34	85.714
226.71	-177.778
227.08	-20.000
227.46	1600.000
227.83	-200.000
228.21	-337.500
228.58	350.000
228.95	-6.250
229.33	-2100.000
229.70	-280.000
230.08	-700.000
230.45	25.000
230.82	-83.333
231.20	-900.000
231.57	-850.000
231.95	1500.000
232.32	52.381
232.69	-111.111
233.07	-200.000
233.44	-600.000
233.81	-93.333
234.19	-211.111
234.56	-6.250
234.93	18.750
235.31	-57.143
235.68	-178.571
236.05	-88.235
236.43	-77.273
236.80	-25.806
237.17	-58.333
237.55	-42.857
237.92	-95.455
238.29	-22.857
238.67	-29.412
239.04	-30.556
239.41	-61.290
239.79	-56.410
240.16	-11.905
240.53	-29.091
240.91	-12.821
241.28	-5.455
241.65	9.231
242.02	1.639
242.40	-1.639
242.77	-4.545
243.14	-10.169
243.51	-20.000
243.89	-13.924
244.26	-7.865
244.63	-4.211
245.00	-10.526
245.38	3.390
245.75	-13.274
246.12	-0.800
246.49	-9.449
246.87	-4.065
247.24	-11.864
247.61	-15.254
247.98	-7.042
248.36	-2.797
248.73	1.266
249.10	-7.006
249.47	0.585
249.84	-3.409
250.22	-11.310
250.59	2.825
250.96	-3.141
251.33	1.896
251.70	0.481
252.08	-2.844
252.45	0.948
252.82	0.952
253.19	0.426
253.56	7.258
253.94	-0.422
254.31	0.858
254.68	-0.407
255.05	-3.629
255.42	5.556
255.79	-1.434
256.16	-0.784
256.54	0.735
256.91	-1.136
257.28	-1.832
257.65	-3.191
258.02	1.258
258.39	-2.007
258.76	2.365
259.14	0.309
259.51	3.934
259.88	1.220
260.25	1.863
260.62	-1.929
260.99	0.593
261.36	6.707
261.73	2.890
262.10	2.222
262.47	0.855
262.85	4.286
263.22	1.719
263.59	-3.385
263.96	0.290
264.33	2.710
264.70	2.486
265.07	0.275
265.44	1.809
265.81	-0.517
266.18	0.506
266.55	1.225
266.92	2.519
267.29	-1.211
267.66	0.494
268.03	2.899
268.40	1.878
268.77	0.000
269.14	0.000
269.51	2.989
269.88	-1.606
270.25	2.098
270.62	4.119
270.99	2.027
271.36	1.399
271.73	0.673
272.10	1.831
272.47	1.556
272.84	3.333
273.21	2.752
273.58	2.198
273.95	0.219
274.32	-0.452
274.69	3.063
275.06	2.658
275.43	-0.670
275.80	4.684
276.17	4.184
276.54	3.870
276.91	0.206
277.28	2.434
277.65	0.826
278.02	2.505
278.39	2.947
278.76	2.988
279.13	3.162
279.50	3.579
279.87	1.480
280.23	2.429
280.60	1.193
280.97	2.330
281.34	1.741
281.71	0.192
282.08	3.024
282.45	0.815
282.82	3.101
283.19	2.000
283.56	5.311
283.92	3.710
284.29	0.372
284.66	3.058
285.03	2.496
285.40	1.661
285.77	3.860
286.14	1.264
286.51	0.710
286.87	2.178
287.24	4.608
287.61	4.132
287.98	0.173
288.35	0.165
288.72	2.377
289.08	1.017
289.45	2.525
289.82	0.346
290.19	3.612
290.56	0.992
290.93	1.113
291.29	0.000
291.66	1.449
292.03	2.983
292.40	4.217
292.77	0.932
293.13	0.325
293.50	1.932
293.87	3.681
294.24	4.525
294.60	2.121
294.97	4.704
295.34	1.630
295.71	2.232
296.08	0.000
296.44	1.144
296.81	2.707
297.18	1.408
297.55	1.695
297.91	4.463
298.28	1.918
298.65	3.347
299.02	4.813
299.38	2.807
299.75	2.717
300.12	1.538
300.48	2.558
300.85	2.359
301.22	2.975
301.59	1.821
301.95	4.912
302.32	1.043
302.69	2.938
303.05	2.198
303.42	1.625
303.79	1.794
304.15	2.962
304.52	1.750
304.89	2.834
305.25	2.808
305.62	2.938
305.99	3.534
306.35	1.776
306.72	3.189
307.09	3.746
307.45	2.838
307.82	2.346
308.19	3.691
308.55	2.614
308.92	2.470
309.29	3.135
309.65	2.969
310.02	4.104
310.38	1.946
310.75	3.996
311.12	4.752
311.48	4.593
311.85	4.737
312.22	4.531
312.58	4.883
312.95	3.568
313.31	5.195
313.68	5.327
314.05	6.034
314.41	4.225
314.78	3.197
315.14	5.726
315.51	4.863
315.87	6.292
316.24	6.025
316.61	6.526
316.97	6.269
317.34	5.010
317.70	4.360
318.07	7.369
318.43	5.993
318.80	7.606
319.16	5.629
319.53	6.673
319.89	6.491
320.26	7.549
320.62	6.731
320.99	6.766
321.35	7.094
321.72	7.369
322.08	7.517
322.45	7.228
322.81	8.261
323.18	8.357
323.54	9.797
323.91	8.897
324.27	9.316
324.64	8.410
325.00	9.773
325.37	10.407
325.73	11.199
326.10	9.389
326.46	10.858
326.83	9.702
327.19	12.344
327.56	13.458
327.92	11.895
328.29	12.641
328.65	11.000
329.01	12.898
329.38	12.667
329.74	14.835
330.11	14.778
330.47	13.442
330.84	15.857
331.20	15.072
331.56	14.494
331.93	14.654
332.29	15.342
332.66	15.540
333.02	16.109
333.38	15.591
333.75	14.693
334.11	15.200
334.48	15.887
334.84	16.010
335.20	17.465
335.57	15.884
335.93	17.189
336.29	15.943
336.66	15.947
337.02	17.207
337.38	17.201
337.75	16.330
338.11	17.710
338.47	17.082
338.84	17.786
339.20	16.872
339.56	19.430
339.93	16.314
340.29	16.829
340.65	17.483
341.02	17.538
341.38	17.270
341.74	17.189
342.11	17.918
342.47	16.652
342.83	17.464
343.20	17.677
343.56	16.735
343.92	17.696
344.28	19.260
344.65	17.492
345.01	16.723
345.37	18.189
345.73	16.939
346.10	16.762
346.46	17.141
346.82	17.081
347.19	16.352
347.55	17.576
347.91	17.402
348.27	18.059
348.63	17.690
349.00	18.457
349.36	16.159
349.72	18.790
350.08	17.642
350.45	17.258
350.81	19.347
351.17	17.042
351.53	15.990
351.89	17.381
352.26	17.674
352.62	18.510
352.98	17.563
353.34	18.145
353.70	16.988
354.07	18.253
354.43	18.182
354.79	18.146
355.15	17.971
355.51	17.969
355.87	17.549
356.24	17.712
356.60	18.936
356.96	18.091
357.32	18.606
357.68	17.931
358.04	17.552
358.40	18.252
358.77	18.702
359.13	18.057
359.49	18.216
359.85	17.530
360.21	18.798
360.57	18.825
360.93	19.481
361.29	18.535
361.66	18.521
362.02	18.269
362.38	19.296
362.74	19.780
363.10	18.795
363.46	19.373
363.82	18.805
364.18	19.609
364.54	20.300
364.90	19.078
365.26	18.616
365.62	19.815
365.98	19.701
366.35	19.648
366.71	19.309
367.07	20.325
367.43	20.522
367.79	20.550
368.15	18.919
368.51	20.490
368.87	21.360
369.23	20.211
369.59	20.208
369.95	20.437
370.31	21.378
370.67	20.246
371.03	21.137
371.39	20.085
371.75	20.672
372.11	20.301
372.47	20.246
372.83	20.723
373.19	21.571
373.55	21.182
373.91	21.266
374.27	21.766
374.63	21.739
374.99	22.045
375.35	20.861
375.71	22.890
376.07	21.492
376.42	21.656
376.78	21.634
377.14	22.441
377.50	23.920
377.86	22.562
378.22	22.864
378.58	22.668
378.94	21.455
379.30	22.486
379.66	24.044
380.02	22.341
380.38	22.900
380.74	23.154
381.09	24.077
381.45	24.344
381.81	22.686
382.17	23.997
382.53	23.465
382.89	22.907
383.25	23.901
383.61	23.998
383.97	24.617
384.32	24.280
384.68	24.728
385.04	23.853
385.40	23.981
385.76	24.634
386.12	24.672
386.48	25.248
386.83	25.337
387.19	25.762
387.55	25.863
387.91	25.252
388.27	23.884
388.62	25.060
388.98	24.955
389.34	24.541
389.70	25.396
390.06	24.736
390.42	25.513
390.77	25.489
391.13	26.211
391.49	25.328
391.85	25.374
392.20	25.425
392.56	25.535
392.92	25.727
393.28	26.521
393.64	26.699
393.99	25.785
394.35	25.912
394.71	26.436
395.07	26.177
395.42	25.030
395.78	25.707
396.14	26.542
396.50	26.239
396.85	26.959
397.21	26.245
397.57	27.538
397.92	26.932
398.28	26.333
398.64	26.413
399.00	26.742
399.35	26.832
399.71	26.423
400.07	28.060
400.42	26.825
400.78	26.058
401.14	25.988
401.49	26.946
401.85	26.663
402.21	26.996
402.57	26.274
402.92	27.124
403.28	25.919
403.63	25.345
403.99	27.408
404.35	26.630
404.70	25.453
405.06	27.509
405.42	26.814
405.77	25.452
406.13	26.462
406.49	26.423
406.84	26.755
407.20	26.561
407.55	27.169
407.91	25.777
408.27	26.900
408.62	27.901
408.98	27.714
409.34	26.386
409.69	26.465
410.05	26.683
410.40	27.100
410.76	27.030
411.11	26.309
411.47	26.023
411.83	27.078
412.18	26.547
412.54	25.808
412.89	26.792
413.25	26.033
413.60	26.488
413.96	25.693
414.31	27.095
414.67	27.048
415.03	26.520
415.38	27.716
415.74	27.255
416.09	27.877
416.45	26.918
416.80	27.958
417.16	27.043
417.51	27.774
417.87	26.796
418.22	28.129
418.58	28.113
418.93	28.817
419.29	26.662
419.64	26.759
420.00	28.372
420.35	28.740
420.71	28.872
421.06	28.935
421.42	28.747
421.77	28.364
422.12	28.483
422.48	27.686
422.83	28.132
423.19	28.174
423.54	28.703
423.90	28.167
424.25	28.959
424.61	29.976
424.96	30.193
425.31	29.122
425.67	29.685
426.02	29.088
426.38	29.704
426.73	29.982
427.09	30.270
427.44	29.318
427.79	29.302
428.15	31.179
428.50	31.320
428.85	30.276
429.21	29.662
429.56	31.198
429.92	30.160
430.27	31.107
430.62	30.564
430.98	31.051
431.33	31.590
431.68	32.172
432.04	31.841
432.39	32.137
432.74	31.715
433.10	31.232
433.45	32.412
433.80	32.139
434.16	32.294
434.51	33.479
434.86	33.978
435.22	32.405
435.57	32.252
435.92	32.649
436.28	33.412
436.63	32.504
436.98	32.589
437.34	33.314
437.69	33.022
438.04	33.466
438.39	33.394
438.75	33.353
439.10	33.981
439.45	34.460
439.81	33.434
440.16	33.844
440.51	35.000
440.86	34.066
441.22	33.720
441.57	34.474
441.92	35.038
442.27	35.065
442.63	34.335
442.98	32.957
443.33	34.871
443.68	34.393
444.03	35.069
444.39	34.949
444.74	34.912
445.09	34.485
445.44	35.509
445.79	34.574
446.15	35.323
446.50	34.295
446.85	35.095
447.20	34.270
447.55	35.359
447.91	34.868
448.26	34.637
448.61	34.012
448.96	36.583
449.31	35.344
449.66	35.203
450.02	34.238
450.37	35.246
450.72	35.311
451.07	35.512
451.42	34.758
451.77	36.445
452.12	36.114
452.47	35.957
452.83	35.644
453.18	36.180
453.53	34.888
453.88	36.005
454.23	36.215
454.58	37.290
454.93	36.398
455.28	36.138
455.63	36.609
455.98	37.048
456.34	35.769
456.69	37.023
457.04	37.001
457.39	36.304
457.74	36.267
458.09	37.355
458.44	37.471
458.79	36.155
459.14	37.136
459.49	36.708
459.84	37.493
460.19	36.098
460.54	35.935
460.89	36.547
461.24	36.430
461.59	36.811
461.94	36.856
462.29	37.165
462.64	37.813
462.99	36.412
463.34	37.947
463.69	37.659
464.04	36.145
464.39	36.858
464.74	37.234
465.09	36.320
465.44	36.266
465.79	36.887
466.14	37.399
466.49	35.982
466.84	38.055
467.19	36.347
467.54	37.278
467.89	36.868
468.24	36.876
468.59	37.601
468.94	37.814
469.29	37.622
469.64	37.062
469.99	37.475
470.34	37.609
470.68	38.735
471.03	38.679
471.38	36.944
471.73	38.531
472.08	37.684
472.43	38.417
472.78	37.600
473.13	37.707
473.48	38.290
473.83	38.027
474.17	38.153
474.52	38.491
474.87	38.170
475.22	38.230
475.57	37.389
475.92	39.039
476.27	36.971
476.61	38.028
476.96	37.283
477.31	37.944
477.66	37.687
478.01	39.276
478.36	37.402
478.70	38.441
479.05	38.021
479.40	37.772
479.75	37.920
480.10	37.996
480.45	37.186
480.79	38.500
481.14	38.133
481.49	38.771
481.84	37.772
482.19	38.922
482.53	38.447
482.88	37.731
483.23	37.793
483.58	38.622
483.92	38.318
484.27	37.173
484.62	37.019
484.97	36.984
485.31	35.776
485.66	35.122
486.01	35.515
486.36	35.931
486.70	36.791
487.05	36.342
487.40	36.218
487.75	35.991
488.09	36.813
488.44	37.009
488.79	37.213
489.13	38.037
489.48	38.458
489.83	38.035
490.17	38.224
490.52	38.995
490.87	38.753
491.22	39.608
491.56	38.472
491.91	37.882
492.26	37.642
492.60	39.153
492.95	38.267
493.30	37.256
493.64	37.894
493.99	38.193
494.34	38.571
494.68	38.670
495.03	37.954
495.37	38.889
495.72	38.949
496.07	38.667
496.41	38.907
496.76	38.630
497.11	38.672
497.45	39.416
497.80	37.919
498.14	38.261
498.49	39.227
498.84	38.544
499.18	38.353
499.53	38.919
499.87	37.983
500.22	38.186
500.56	38.819
500.91	39.409
501.26	38.671
501.60	38.180
501.95	39.372
502.29	38.214
502.64	38.850
502.98	38.285
503.33	38.534
503.67	38.889
504.02	38.387
504.36	38.873
504.71	39.666
505.06	39.541
505.40	39.870
505.75	39.482
506.09	39.636
506.44	38.797
506.78	39.940
507.13	38.826
507.47	39.071
507.82	39.081
508.16	39.326
508.51	39.825
508.85	39.700
509.19	39.508
509.54	39.746
509.88	39.362
510.23	39.990
510.57	40.370
510.92	40.011
511.26	39.713
511.61	39.255
511.95	40.787
512.30	40.297
512.64	39.399
512.98	40.374
513.33	39.649
513.67	40.536
514.02	39.821
514.36	41.607
514.70	40.464
515.05	40.652
515.39	40.138
515.74	41.070
516.08	40.634
516.42	41.190
516.77	41.537
517.11	41.590
517.46	41.029
517.80	41.877
518.14	42.271
518.49	41.303
518.83	41.009
519.17	41.504
519.52	40.544
519.86	42.593
520.20	41.932
520.55	41.538
520.89	42.267
521.23	41.270
521.58	41.442
521.92	42.242
522.26	42.032
522.61	42.332
522.95	41.353
523.29	42.821
523.64	42.411
523.98	42.966
524.32	42.238
524.66	41.925
525.01	41.490
525.35	42.655
525.69	41.640
526.04	42.950
526.38	42.903
526.72	41.699
527.06	42.253
527.41	42.508
527.75	41.452
528.09	43.283
528.43	43.607
528.78	42.274
529.12	43.214
529.46	42.655
529.80	42.221
530.15	42.627
530.49	41.915
530.83	42.436
531.17	42.559
531.51	41.862
531.86	40.882
532.20	42.443
532.54	42.981
532.88	41.765
533.22	43.115
533.57	42.559
533.91	41.885
534.25	41.672
534.59	41.786
534.93	41.444
535.27	42.354
535.62	41.944
535.96	42.211
536.30	41.885
536.64	42.829
536.98	43.432
537.32	42.156
537.66	42.363
538.01	42.749
538.35	43.176
538.69	42.313
539.03	43.331
539.37	43.313
539.71	41.361
540.05	42.495
540.39	42.105
540.73	42.502
541.07	43.443
541.42	42.201
541.76	38.738
542.10	44.024
542.44	41.506
542.78	42.198
543.12	43.720
543.46	41.164
543.80	41.739
544.14	42.512
544.48	41.667
544.82	41.610
545.16	41.784
545.50	40.915
545.84	41.446
546.18	42.510
546.52	42.105
546.86	42.308
547.20	42.475
547.54	41.116
547.88	41.274
548.22	40.367
548.56	42.418
548.90	41.307
549.24	42.537
549.58	42.837
549.92	42.686
550.26	42.052
550.60	42.034
550.94	42.847
551.28	43.266
551.62	41.950
551.96	42.475
552.30	41.394
552.64	42.153
552.98	43.027
553.32	42.424
553.66	42.322
554.00	42.786
554.34	41.949
554.68	43.129
555.02	43.198
555.36	41.553
555.69	41.117
556.03	42.526
556.37	42.959
556.71	43.021
557.05	42.720
557.39	43.207
557.73	44.274
558.07	44.687
558.41	41.511
558.75	42.966
559.08	41.556
559.42	43.109
559.76	43.328
560.10	43.550
560.44	42.775
560.78	43.285
561.12	42.788
561.45	42.123
561.79	42.509
562.13	42.146
562.47	42.297
562.81	42.433
563.15	41.777
563.48	41.189
563.82	41.853
564.16	41.785
564.50	41.398
564.84	41.468
565.17	41.114
565.51	42.503
565.85	43.205
566.19	43.017
566.52	41.422
566.86	41.277
567.20	42.070
567.54	41.583
567.88	40.089
568.21	41.443
568.55	40.615
568.89	39.761
569.23	40.213
569.56	37.999
569.90	38.592
570.24	38.482
570.57	37.996
570.91	37.368
571.25	37.743
571.59	37.184
571.92	37.054
572.26	37.088
572.60	36.674
572.93	36.575
573.27	36.982
573.61	36.306
573.95	36.110
574.28	36.069
574.62	35.841
574.96	35.494
575.29	35.950
575.63	36.130
575.97	35.761
576.30	35.845
576.64	36.345
576.98	35.357
577.31	35.542
577.65	36.547
577.98	35.479
578.32	35.508
578.66	35.463
578.99	35.921
579.33	36.624
579.67	36.368
580.00	35.392
580.34	36.081
580.67	35.793
581.01	35.283
581.35	35.641
581.68	35.305
582.02	35.634
582.35	35.694
582.69	36.406
583.02	36.936
583.36	36.797
583.70	35.970
584.03	37.096
584.37	36.861
584.70	36.875
585.04	36.633
585.37	35.609
585.71	35.728
586.04	36.803
586.38	36.568
586.72	36.697
587.05	37.468
587.39	36.657
587.72	36.767
588.06	37.139
588.39	37.226
588.73	37.568
589.06	38.779
589.40	38.337
589.73	38.314
590.07	38.310
590.40	38.561
590.73	38.665
591.07	37.992
591.40	38.995
591.74	39.314
592.07	39.685
592.41	39.236
592.74	38.970
593.08	38.174
593.41	38.355
593.75	37.224
594.08	38.713
594.41	39.224
594.75	38.279
595.08	39.398
595.42	38.403
595.75	38.699
596.09	38.106
596.42	40.303
596.75	39.845
597.09	39.626
597.42	38.629
597.75	39.283
598.09	40.624
598.42	38.886
598.76	39.327
599.09	38.043
599.42	38.485
599.76	38.505
600.09	39.122
600.42	38.815
600.76	38.983
601.09	38.739
601.42	38.346
601.76	38.785
602.09	39.264
602.42	38.642
602.76	38.720
603.09	39.435
603.42	38.920
603.76	39.649
604.09	38.646
604.42	38.968
604.76	39.468
605.09	39.150
605.42	38.741
605.75	39.112
606.09	38.813
606.42	39.631
606.75	38.429
607.09	39.921
607.42	39.305
607.75	39.205
608.08	39.765
608.42	39.735
608.75	39.019
609.08	40.088
609.41	40.807
609.75	38.908
610.08	40.490
610.41	39.518
610.74	40.087
611.07	40.314
611.41	39.687
611.74	40.103
612.07	41.246
612.40	40.565
612.73	40.388
613.07	40.506
613.40	41.817
613.73	40.981
614.06	39.209
614.39	42.446
614.72	40.391
615.06	40.217
615.39	41.183
615.72	40.630
616.05	41.193
616.38	41.149
616.71	40.961
617.05	42.400
617.38	41.548
617.71	41.032
618.04	42.422
618.37	42.264
618.70	42.503
619.03	42.248
619.36	43.481
619.69	43.431
620.03	42.631
620.36	42.194
620.69	43.431
621.02	44.521
621.35	43.387
621.68	44.836
622.01	43.528
622.34	43.866
622.67	43.125
623.00	44.759
623.33	43.060
623.66	43.501
623.99	43.308
624.32	42.857
624.65	44.077
624.99	43.540
625.32	43.338
625.65	44.678
625.98	42.175
626.31	44.046
626.64	43.264
626.97	45.377
627.30	44.766
627.63	42.919
627.96	43.603
628.29	46.599
628.62	46.132
628.95	46.850
629.28	45.865
629.61	45.240
629.94	45.369
630.26	47.416
630.59	46.231
630.92	46.046
631.25	46.371
631.58	45.714
631.91	46.489
632.24	49.444
632.57	47.222
632.90	48.506
633.23	48.364
633.56	47.836
633.89	49.410
634.22	47.816
634.55	48.437
634.88	48.126
635.20	48.315
635.53	50.891
635.86	50.378
636.19	47.375
636.52	49.104
636.85	46.691
637.18	47.000
637.51	47.460
637.83	48.069
638.16	47.237
638.49	50.621
638.82	47.362
639.15	48.119
639.48	46.563
639.81	50.761
640.13	47.973
640.46	50.570
640.79	50.000
641.12	49.788
641.45	49.067
641.77	50.749
642.10	48.489
642.43	50.835
642.76	49.449
643.09	50.635
643.41	51.111
643.74	50.238
644.07	50.078
644.40	49.757
644.73	53.465
645.05	48.414
645.38	51.821
645.71	53.608
646.04	51.933
646.36	52.705
646.69	53.287
647.02	53.249
647.35	51.444
647.67	54.015
648.00	52.373
648.33	53.288
648.66	48.871
648.98	51.115
649.31	49.538
649.64	50.781
649.96	50.863
650.29	49.672
650.62	51.635
650.94	49.578
651.27	51.127
651.60	51.384
651.92	51.884
652.25	50.083
652.58	50.256
652.90	47.512
653.23	50.323
653.56	49.164
653.88	49.016
654.21	51.342
654.54	51.495
654.86	49.438
655.19	48.854
655.52	42.782
655.84	37.730
656.17	40.233
656.49	53.151
656.82	55.110
657.15	41.399
657.47	30.468
657.80	23.726
658.13	27.305
658.45	36.967
658.78	37.123
659.10	37.360
659.43	37.201
659.75	39.103
660.08	39.323
660.41	40.394
660.73	44.994
661.06	50.000
661.38	51.607
661.71	48.948
662.03	53.831
662.36	54.797
662.68	52.743
663.01	54.777
663.33	53.741
663.66	54.506
663.98	56.027
664.31	53.691
664.63	53.540
664.96	52.061
665.28	50.325
665.61	54.334
665.93	52.263
666.26	52.632
666.58	50.312
666.91	52.784
667.23	54.386
667.56	53.515
667.88	53.846
668.21	54.147
668.53	51.636
668.86	56.813
669.18	53.653
669.50	51.869
669.83	54.745
670.15	55.157
670.48	55.140
670.80	53.303
671.13	52.822
671.45	52.703
671.77	51.392
672.10	49.704
672.42	50.000
672.75	49.818
673.07	48.649
673.39	47.723
673.72	52.756
674.04	53.928
674.37	49.691
674.69	52.254
675.01	52.766
675.34	52.278
675.66	52.268
675.98	51.322
676.31	55.430
676.63	54.713
676.95	53.319
677.28	54.060
677.60	54.977
677.92	54.626
678.25	51.860
678.57	51.440
678.89	51.153
679.22	51.572
679.54	50.493
679.86	50.800
680.18	51.711
680.51	48.045
680.83	52.381
681.15	51.060
681.48	52.333
681.80	49.194
682.12	48.893
682.44	48.134
682.77	49.134
683.09	49.895
683.41	53.097
683.73	50.685
684.06	48.172
684.38	53.347
684.70	49.177
685.02	46.850
685.34	49.318
685.67	49.053
685.99	48.015
686.31	48.294
686.63	46.454
686.96	47.689
687.28	47.784
687.60	50.195
687.92	47.082
688.24	50.984
688.56	48.898
688.89	49.573
689.21	50.766
689.53	51.724
689.85	49.666
690.17	48.655
690.49	49.423
690.82	50.361
691.14	50.943
691.46	50.111
691.78	48.899
692.10	50.424
692.42	49.556
692.74	49.356
693.06	50.337
693.39	48.098
693.71	49.210
694.03	50.540
694.35	46.953
694.67	49.173
694.99	48.849
695.31	51.276
695.63	50.000
695.95	52.109
696.27	51.372
696.59	51.337
696.91	52.528
697.23	51.823
697.56	48.317
697.88	48.649
698.20	47.109
698.52	48.655
698.84	49.515
699.16	48.333
699.48	50.250
699.80	48.371
700.12	49.370
700.44	50.838
700.76	49.563
701.08	52.035
701.40	55.891
701.72	51.852
702.04	52.564
702.36	55.422
702.68	53.593
703.00	52.174
703.32	48.711
703.64	55.000
703.96	50.000
704.28	49.408
704.60	45.570
704.91	48.889
705.23	53.074
705.55	53.041
705.87	50.171
706.19	47.569
706.51	48.958
706.83	54.426
707.15	51.592
707.47	52.342
707.79	50.000
708.11	46.310
708.43	47.382
708.74	44.935
709.06	50.139
709.38	47.701
709.70	52.813
710.02	53.374
710.34	49.505
710.66	51.746
710.98	47.634
711.29	48.710
711.61	50.479
711.93	49.508
712.25	52.824
712.57	46.690
712.89	51.799
713.20	56.014
713.52	50.746
713.84	49.822
714.16	50.492
714.48	49.524
714.80	46.462
715.11	46.974
715.43	52.711
715.75	52.336
716.07	46.230
716.39	51.839
716.70	54.355
717.02	49.630
717.34	48.855
717.66	51.867
717.97	52.459
718.29	55.042
718.61	56.746
718.93	49.462
719.24	43.750
719.56	47.547
719.88	49.091
720.20	48.315
720.51	52.632
720.83	53.414
721.15	52.049
721.46	48.235
721.78	48.659
722.10	51.600
722.42	54.959
722.73	53.386
723.05	48.193
723.37	47.451
723.68	46.154
724.00	57.317
724.32	51.440
724.63	48.548
724.95	47.934
725.27	50.000
725.58	50.431
725.90	46.825
726.22	51.292
726.53	49.430
726.85	47.059
727.16	47.368
727.48	47.308
727.80	43.852
728.11	47.479
728.43	48.347
728.74	48.438
729.06	50.379
729.38	49.416
729.69	51.969
730.01	51.181
730.32	47.809
730.64	51.648
730.96	49.254
731.27	44.643
731.59	45.981
731.90	46.626
732.22	48.160
732.53	47.682
732.85	47.315
733.16	47.826
733.48	43.206
733.80	42.705
734.11	43.793
734.43	48.980
734.74	49.258
735.06	48.903
735.37	48.012
735.69	40.968
736.00	49.495
736.32	47.020
736.63	44.483
736.95	44.565
737.26	48.013
737.58	47.122
737.89	46.595
738.21	40.602
738.52	50.769
738.83	48.047
739.15	49.145
739.46	48.387
739.78	46.154
740.09	47.203
740.41	48.601
740.72	46.350
741.04	40.873
741.35	46.753
741.66	49.537
741.98	44.286
742.29	51.174
742.61	49.733
742.92	55.607
743.23	48.684
743.55	54.505
743.86	50.667
744.18	48.095
744.49	59.113
744.80	50.761
745.12	56.186
745.43	51.759
745.74	47.087
746.06	52.683
746.37	53.744
746.68	50.249
747.00	56.545
747.31	42.788
747.62	52.074
747.94	44.105
748.25	55.349
748.56	51.429
748.88	51.087
749.19	52.582
749.50	53.922
749.82	51.111
750.13	52.423
750.44	47.561
750.75	54.000
751.07	50.357
751.38	44.649
751.69	47.328
752.01	50.385
752.32	45.136
752.63	45.000
752.94	48.810
753.26	52.609
753.57	49.554
753.88	55.603
754.19	47.303
754.51	48.828
754.82	48.221
755.13	49.383
755.44	52.479
755.75	49.383
756.07	50.602
756.38	48.828
756.69	48.375
757.00	46.690
757.31	51.007
757.63	45.794
757.94	43.353
758.25	46.512
758.56	48.787
758.87	44.034
759.18	44.667
759.50	49.822
759.81	47.445
760.12	44.932
760.43	49.838
760.74	48.750
761.05	42.697
761.36	47.605
761.67	47.633
761.99	44.516
762.30	48.551
762.61	45.660
762.92	53.812
763.23	50.711
763.54	46.222
763.85	50.633
764.16	44.490
764.47	47.034
764.78	47.191
765.10	47.122
765.41	43.548
765.72	45.597
766.03	41.343
766.34	48.872
766.65	46.964
766.96	46.500
767.27	52.604
767.58	47.674
767.89	58.710
768.20	56.442
768.51	56.284
768.82	50.270
769.13	52.500
769.44	49.561
769.75	48.485
770.06	49.541
770.37	53.521
770.68	52.604
770.99	43.069
771.30	50.485
771.61	45.370
771.92	42.424
772.23	40.654
772.54	45.213
772.85	52.071
773.16	53.659
773.47	48.193
773.78	52.747
774.09	48.000
774.39	53.704
774.70	53.020
775.01	46.377
775.32	47.761
775.63	49.587
775.94	55.639
776.25	50.000
776.56	50.820
776.87	50.442
777.18	55.752
777.48	46.364
777.79	48.696
778.10	46.789
778.41	58.475
778.72	44.628
779.03	50.746
779.34	54.887
779.65	61.438
779.95	52.899
780.26	49.660
780.57	50.000
780.88	54.630
781.19	51.515
781.50	44.800
781.80	45.752
782.11	46.795
782.42	42.771
782.73	45.255
783.04	42.568
783.34	52.273
783.65	50.388
783.96	47.154
784.27	52.991
784.57	51.220
784.88	44.715
785.19	47.368
785.50	40.206
785.81	53.333
786.11	44.118
786.42	38.182
786.73	54.955
787.04	57.426
787.34	56.190
787.65	36.190
787.96	51.961
788.26	45.045
788.57	43.548
788.88	37.500
789.19	47.863
789.49	41.176
789.80	41.880
790.11	46.018
790.41	42.424
790.72	43.396
791.03	48.611
791.33	47.368
791.64	44.086
791.95	50.667
792.25	40.000
792.56	54.878
792.87	42.857
793.17	43.421
793.48	31.081
793.79	29.577
794.09	50.633
794.40	48.936
794.70	38.318
795.01	37.719
795.32	38.182
795.62	46.429
795.93	37.113
796.23	39.560
796.54	32.632
796.85	46.575
797.15	36.111
797.46	28.767
797.76	50.704
798.07	57.500
798.37	52.941
798.68	44.286
798.99	51.429
799.29	44.737
799.60	36.667
799.90	11.111
800.21	62.500
800.51	49.206
800.82	49.180
801.12	50.877
801.43	36.620
801.73	37.288
802.04	40.984
802.34	36.364
802.65	53.846
802.95	57.407
803.26	35.000
803.56	55.769
803.87	7.895
804.17	38.710
804.48	47.692
804.78	28.205
805.09	48.837
805.39	56.250
805.70	32.075
806.00	73.684
806.30	33.784
806.61	25.000
806.91	41.975
807.22	44.000
807.52	44.776
807.83	37.097
808.13	49.206
808.43	21.818
808.74	36.364
809.04	33.962
809.35	52.055
809.65	54.386
809.95	51.471
810.26	52.941
810.56	32.000
810.86	22.449
811.17	37.143
811.47	44.231
811.77	22.581
812.08	21.053
812.38	42.857
812.69	28.261
812.99	35.484
813.29	9.524
813.59	-22.222
813.90	23.404
814.20	13.953
814.50	39.583
814.81	30.000
815.11	14.634
815.41	53.333
815.72	71.429
816.02	2.778
816.32	46.154
816.62	27.027
816.93	20.588
817.23	45.652
817.53	11.765
817.84	41.176
818.14	28.125
818.44	37.931
818.74	9.677
819.04	-3.704
819.35	60.000
819.65	40.000
819.95	40.000
820.25	16.000
820.56	34.211
820.86	32.500
821.16	27.660
821.46	43.103
821.76	5.128
822.07	-17.500
822.37	27.907
822.67	-13.333
822.97	32.432
823.27	56.757
823.57	76.000
823.88	32.432
824.18	-9.524
824.48	38.462
824.78	-115.385
825.08	39.130
825.38	29.167
825.69	25.000
825.99	0.000
826.29	-8.108
826.59	32.353
826.89	52.000
827.19	25.714
827.49	47.368
827.79	12.500
828.09	13.333
828.39	113.043
828.70	-27.586
829.00	24.138
829.30	30.556
829.60	84.375
829.90	5.556
830.20	19.231
830.50	4.762
830.80	-7.143
831.10	20.513
831.40	-9.524
831.70	-8.824
832.00	33.333
832.30	-26.316
832.60	50.000
832.90	-66.667
833.20	-76.471
833.50	20.000
833.80	33.333
834.10	5.000
834.40	-16.667
834.70	44.444
835.00	-3.846
835.30	12.500
835.60	20.690
835.90	-27.778
836.20	-45.455
836.50	-150.000
836.80	0.000
837.10	62.857
837.40	35.294
837.70	0.000
838.00	45.833
838.30	12.500
838.60	28.571
838.90	35.000
839.19	-4.348
839.49	43.478
839.79	16.667
840.09	-30.435
840.39	-13.636
840.69	12.500
840.99	-10.526
841.29	-50.000
841.59	-35.714
841.88	-11.111
842.18	41.667
842.48	-52.941
842.78	3.448
843.08	21.429
843.38	38.462
843.68	-188.889
843.97	-61.538
844.27	-45.455
844.57	-200.000
844.87	24.000
845.17	220.000
845.47	-7.143
845.76	-100.000
846.06	0.000
846.36	-225.000
846.66	-60.000
846.96	-15.789
847.25	4.167
847.55	-25.000
847.85	0.000
848.15	-60.000
848.44	80.769
848.74	26.316
849.04	300.000
849.34	11.111
849.63	-26.316
849.93	0.000
850.23	-35.000
850.53	9.524
850.82	-36.000
851.12	-68.421
851.42	-400.000
851.71	35.714
852.01	-83.333
852.31	-23.529
852.61	-6.667
852.90	-23.810
853.20	-166.667
853.50	-27.778
853.79	-26.316
854.09	20.000
854.39	32.143
854.68	39.130
854.98	-150.000
855.28	24.138
855.57	-6.250
855.87	5.000
856.17	-33.333
856.46	31.034
856.76	-60.000
857.05	-11.765
857.35	-92.308
857.65	-54.545
857.94	3.704
858.24	-57.143
858.53	-50.000
858.83	-25.000
859.13	-133.333
859.42	28.571
859.72	-87.500
860.01	0.000
860.31	12.500
860.60	-320.000
860.90	-88.889
861.20	-50.000
861.49	-228.571
861.79	35.294
862.08	-800.000
862.38	-75.000
862.67	-15.385
862.97	11.765
863.26	15.000
863.56	-29.412
863.85	266.667
864.15	-150.000
864.44	-30.769
864.74	15.000
865.03	-200.000
865.33	-266.667
865.62	-35.294
865.92	-400.000
866.21	-135.714
866.51	-58.333
866.80	-600.000
867.10	-66.667
867.39	-11.765
867.69	13.043
867.98	-85.714
868.27	-300.000
868.57	-56.250
868.86	-136.364
869.16	-35.294
869.45	-100.000
869.75	-71.429
870.04	300.000
870.33	-41.667
870.63	-80.000
870.92	-22.222
871.22	8.333
871.51	-54.545
871.80	33.333
872.10	-20.000
>>>>>End Processed Spectral Data<<<<<
