SpectraSuite Data File
++++++++++++++++++++++++++++++++++++
Date: Sat May 16 11:08:27 PDT 2015
User: schluterlab
Dark Spectrum Present: Yes
Reference Spectrum Present: Yes
Number of Sampled Component Spectra: 1
Spectrometers: USB2E3373
Integration Time (usec): 3000 (USB2E3373)
Spectra Averaged: 3 (USB2E3373)
Boxcar Smoothing: 0 (USB2E3373)
Correct for Electrical Dark: No (USB2E3373)
Strobe/Lamp Enabled: No (USB2E3373)
Correct for Detector Non-linearity: No (USB2E3373)
Correct for Stray Light: No (USB2E3373)
Number of Pixels in Processed Spectrum: 2048
>>>>>Begin Processed Spectral Data<<<<<
178.53	0.000
178.91	53.333
179.29	133.333
179.67	500.000
180.04	53.846
180.42	-1400.000
180.80	350.000
181.18	350.000
181.56	162.500
181.94	300.000
182.31	125.000
182.69	61.538
183.07	-200.000
183.45	600.000
183.83	66.667
184.20	-114.286
184.58	-37.500
184.96	-150.000
185.34	37.500
185.72	0.000
186.09	-66.667
186.47	25.000
186.85	112.500
187.23	162.500
187.61	225.000
187.98	-175.000
188.36	75.000
188.74	-162.500
189.12	400.000
189.49	114.286
189.87	-33.333
190.25	100.000
190.63	-57.143
191.00	-55.556
191.38	200.000
191.76	80.000
192.14	180.000
192.51	40.000
192.89	-166.667
193.27	0.000
193.65	44.444
194.02	71.429
194.40	-0.000
194.78	40.000
195.15	500.000
195.53	-127.273
195.91	-166.667
196.29	60.000
196.66	-233.333
197.04	1000.000
197.42	75.000
197.79	73.333
198.17	-200.000
198.55	350.000
198.92	700.000
199.30	25.000
199.68	250.000
200.05	-44.444
200.43	-44.444
200.81	-900.000
201.18	33.333
201.56	14.286
201.94	-13.333
202.31	4.545
202.69	110.000
203.07	50.000
203.44	-133.333
203.82	-66.667
204.19	-150.000
204.57	25.000
204.95	0.000
205.32	68.750
205.70	-300.000
206.08	-300.000
206.45	33.333
206.83	450.000
207.20	450.000
207.58	0.000
207.96	-133.333
208.33	-112.500
208.71	11.111
209.08	70.000
209.46	71.429
209.84	-400.000
210.21	0.000
210.59	80.000
210.96	400.000
211.34	0.000
211.71	200.000
212.09	200.000
212.46	100.000
212.84	-500.000
213.22	66.667
213.59	-16.667
213.97	100.000
214.34	-10.000
214.72	80.000
215.09	-33.333
215.47	66.667
215.84	0.000
216.22	-10.000
216.59	60.000
216.97	-25.000
217.34	250.000
217.72	185.714
218.09	-50.000
218.47	-85.714
218.84	-42.857
219.22	85.714
219.59	0.000
219.97	85.714
220.34	225.000
220.72	200.000
221.09	92.308
221.47	0.000
221.84	-133.333
222.22	50.000
222.59	-0.000
222.97	-12.500
223.34	50.000
223.72	333.333
224.09	21.429
224.46	75.000
224.84	57.143
225.21	100.000
225.59	-45.455
225.96	50.000
226.34	-57.143
226.71	44.444
227.08	45.000
227.46	-600.000
227.83	71.429
228.21	-100.000
228.58	50.000
228.95	-12.500
229.33	-1300.000
229.70	-20.000
230.08	50.000
230.45	58.333
230.82	116.667
231.20	500.000
231.57	150.000
231.95	700.000
232.32	85.714
232.69	111.111
233.07	-100.000
233.44	-350.000
233.81	-33.333
234.19	100.000
234.56	75.000
234.93	31.250
235.31	-28.571
235.68	-128.571
236.05	23.529
236.43	13.636
236.80	54.839
237.17	16.667
237.55	38.095
237.92	36.364
238.29	0.000
238.67	76.471
239.04	38.889
239.41	29.032
239.79	-12.821
240.16	33.333
240.53	36.364
240.91	82.051
241.28	30.909
241.65	40.000
242.02	47.541
242.40	40.984
242.77	31.818
243.14	38.983
243.51	40.000
243.89	48.101
244.26	48.315
244.63	46.316
245.00	48.421
245.38	38.983
245.75	33.628
246.12	42.400
246.49	37.008
246.87	36.585
247.24	44.068
247.61	45.763
247.98	38.732
248.36	34.965
248.73	31.013
249.10	35.669
249.47	44.444
249.84	43.182
250.22	33.333
250.59	46.893
250.96	43.455
251.33	42.654
251.70	39.423
252.08	41.706
252.45	39.810
252.82	43.333
253.19	36.170
253.56	34.677
253.94	42.616
254.31	42.060
254.68	45.122
255.05	41.532
255.42	40.079
255.79	37.634
256.16	44.706
256.54	42.647
256.91	43.561
257.28	40.659
257.65	41.135
258.02	41.195
258.39	43.478
258.76	37.500
259.14	37.037
259.51	43.934
259.88	37.805
260.25	44.410
260.62	40.514
260.99	35.312
261.36	39.634
261.73	39.306
262.10	39.722
262.47	37.037
262.85	42.286
263.22	38.395
263.59	39.692
263.96	40.000
264.33	37.127
264.70	40.055
265.07	40.934
265.44	38.501
265.81	36.951
266.18	37.975
266.55	36.029
266.92	42.065
267.29	38.257
267.66	41.481
268.03	39.855
268.40	38.263
268.77	40.723
269.14	38.747
269.51	37.701
269.88	36.468
270.25	36.830
270.62	37.757
270.99	38.739
271.36	37.995
271.73	39.686
272.10	38.444
272.47	37.556
272.84	41.333
273.21	38.532
273.58	38.242
273.95	38.377
274.32	38.009
274.69	39.168
275.06	37.014
275.43	40.402
275.80	40.326
276.17	37.029
276.54	40.530
276.91	37.860
277.28	37.120
277.65	36.364
278.02	37.996
278.39	36.346
278.76	36.255
279.13	38.142
279.50	35.984
279.87	35.518
280.23	38.057
280.60	39.165
280.97	35.728
281.34	38.298
281.71	37.308
282.08	40.121
282.45	39.511
282.82	37.984
283.19	36.727
283.56	39.011
283.92	37.279
284.29	37.732
284.66	35.072
285.03	38.681
285.40	38.930
285.77	37.719
286.14	37.545
286.51	36.057
286.87	38.657
287.24	35.324
287.61	34.545
287.98	35.875
288.35	34.050
288.72	36.333
289.08	35.424
289.45	35.017
289.82	35.813
290.19	36.782
290.56	32.562
290.93	35.453
291.29	35.818
291.66	34.461
292.03	35.479
292.40	34.940
292.77	35.404
293.13	36.260
293.50	34.324
293.87	35.276
294.24	34.540
294.60	31.818
294.97	33.991
295.34	33.481
295.71	32.589
296.08	30.108
296.44	31.903
296.81	34.188
297.18	30.845
297.55	33.898
297.91	35.007
298.28	29.726
298.65	31.660
299.02	31.684
299.38	32.353
299.75	32.473
300.12	32.051
300.48	31.586
300.85	31.193
301.22	30.530
301.59	30.949
301.95	30.227
302.32	30.248
302.69	29.131
303.05	30.037
303.42	30.750
303.79	31.100
304.15	29.384
304.52	28.821
304.89	29.280
305.25	29.182
305.62	29.612
305.99	31.449
306.35	28.968
306.72	28.018
307.09	30.647
307.45	28.490
307.82	27.486
308.19	29.530
308.55	29.303
308.92	27.390
309.29	30.054
309.65	28.208
310.02	29.698
310.38	28.432
310.75	28.074
311.12	28.306
311.48	28.079
311.85	27.394
312.22	28.424
312.58	28.891
312.95	26.606
313.31	26.973
313.68	28.040
314.05	29.278
314.41	28.672
314.78	28.072
315.14	26.950
315.51	28.267
315.87	28.945
316.24	27.308
316.61	28.599
316.97	27.761
317.34	27.842
317.70	28.015
318.07	27.425
318.43	27.154
318.80	28.451
319.16	27.955
319.53	27.350
319.89	28.598
320.26	27.255
320.62	26.731
320.99	28.458
321.35	26.207
321.72	29.069
322.08	29.476
322.45	27.129
322.81	28.915
323.18	29.299
323.54	29.760
323.91	28.360
324.27	29.658
324.64	27.788
325.00	27.923
325.37	28.869
325.73	29.134
326.10	27.192
326.46	27.846
326.83	28.000
327.19	27.189
327.56	30.153
327.92	28.632
328.29	29.957
328.65	28.455
329.01	29.859
329.38	28.457
329.74	29.762
330.11	27.833
330.47	29.609
330.84	31.164
331.20	29.332
331.56	28.532
331.93	29.840
332.29	31.142
332.66	29.851
333.02	29.231
333.38	30.556
333.75	29.386
334.11	29.600
334.48	30.803
334.84	29.484
335.20	29.965
335.57	30.144
335.93	33.124
336.29	29.318
336.66	29.780
337.02	30.721
337.38	29.055
337.75	30.202
338.11	29.875
338.47	30.249
338.84	30.218
339.20	29.789
339.56	31.462
339.93	30.511
340.29	28.875
340.65	29.458
341.02	29.595
341.38	29.907
341.74	29.297
342.11	29.352
342.47	29.099
342.83	30.479
343.20	30.145
343.56	28.980
343.92	30.217
344.28	29.605
344.65	29.868
345.01	29.748
345.37	30.066
345.73	28.969
346.10	29.681
346.46	28.920
346.82	29.431
347.19	29.088
347.55	29.695
347.91	29.291
348.27	29.356
348.63	30.048
349.00	30.231
349.36	29.430
349.72	30.494
350.08	29.511
350.45	30.024
350.81	30.812
351.17	29.100
351.53	28.799
351.89	28.698
352.26	29.922
352.62	30.261
352.98	28.718
353.34	30.376
353.70	28.031
354.07	29.426
354.43	30.119
354.79	29.002
355.15	29.153
355.51	28.359
355.87	29.170
356.24	29.627
356.60	30.620
356.96	30.485
357.32	30.166
357.68	29.119
358.04	29.561
358.40	29.776
358.77	29.289
359.13	29.610
359.49	28.118
359.85	30.259
360.21	30.213
360.57	30.798
360.93	29.630
361.29	29.073
361.66	29.040
362.02	28.772
362.38	29.714
362.74	29.451
363.10	27.905
363.46	30.912
363.82	29.956
364.18	29.233
364.54	29.736
364.90	29.839
365.26	29.957
365.62	31.005
365.98	31.010
366.35	29.930
366.71	29.387
367.07	29.287
367.43	30.885
367.79	29.072
368.15	29.303
368.51	29.860
368.87	30.220
369.23	29.754
369.59	28.472
369.95	30.021
370.31	31.013
370.67	28.561
371.03	30.539
371.39	29.137
371.75	30.114
372.11	30.488
372.47	30.152
372.83	30.598
373.19	30.571
373.55	29.697
373.91	30.583
374.27	28.884
374.63	30.918
374.99	30.529
375.35	30.081
375.71	31.060
376.07	30.938
376.42	29.338
376.78	31.569
377.14	30.644
377.50	30.496
377.86	30.754
378.22	31.219
378.58	30.266
378.94	29.778
379.30	30.408
379.66	31.330
380.02	30.303
380.38	30.091
380.74	28.898
381.09	30.170
381.45	30.728
381.81	29.643
382.17	29.574
382.53	30.821
382.89	30.443
383.25	31.186
383.61	30.366
383.97	30.741
384.32	30.914
384.68	30.593
385.04	29.952
385.40	30.554
385.76	29.817
386.12	30.294
386.48	31.374
386.83	30.920
387.19	30.544
387.55	30.648
387.91	29.876
388.27	29.976
388.62	30.709
388.98	30.709
389.34	31.212
389.70	30.451
390.06	29.956
390.42	30.705
390.77	31.167
391.13	31.304
391.49	31.129
391.85	30.112
392.20	30.643
392.56	30.360
392.92	30.633
393.28	30.482
393.64	30.607
393.99	30.954
394.35	31.083
394.71	30.451
395.07	31.890
395.42	30.215
395.78	30.610
396.14	30.530
396.50	31.193
396.85	31.585
397.21	30.316
397.57	31.429
397.92	31.206
398.28	30.778
398.64	31.053
399.00	30.730
399.35	31.285
399.71	30.546
400.07	31.224
400.42	31.448
400.78	29.696
401.14	31.377
401.49	31.014
401.85	30.079
402.21	30.453
402.57	31.311
402.92	31.907
403.28	29.350
403.63	30.138
403.99	30.640
404.35	30.072
404.70	31.129
405.06	31.373
405.42	30.935
405.77	30.882
406.13	30.608
406.49	30.377
406.84	29.934
407.20	31.920
407.55	31.286
407.91	29.987
408.27	30.944
408.62	30.607
408.98	30.382
409.34	30.347
409.69	31.254
410.05	30.200
410.40	31.024
410.76	31.002
411.11	31.858
411.47	31.777
411.83	31.663
412.18	31.002
412.54	30.445
412.89	31.106
413.25	29.870
413.60	30.923
413.96	29.390
414.31	31.193
414.67	29.778
415.03	29.819
415.38	30.709
415.74	31.443
416.09	31.777
416.45	30.026
416.80	30.364
417.16	30.033
417.51	30.991
417.87	31.521
418.22	31.226
418.58	30.488
418.93	31.330
419.29	30.489
419.64	30.339
420.00	30.923
420.35	31.342
420.71	31.032
421.06	30.947
421.42	29.859
421.77	30.765
422.12	31.785
422.48	30.037
422.83	30.866
423.19	30.958
423.54	31.988
423.90	30.943
424.25	31.561
424.61	31.484
424.96	32.007
425.31	31.191
425.67	31.633
426.02	29.891
426.38	31.821
426.73	30.859
427.09	31.556
427.44	30.966
427.79	30.174
428.15	31.418
428.50	30.909
428.85	31.715
429.21	31.157
429.56	32.083
429.92	30.711
430.27	31.206
430.62	31.191
430.98	30.998
431.33	31.430
431.68	31.475
432.04	32.065
432.39	32.080
432.74	31.655
433.10	31.908
433.45	31.721
433.80	32.083
434.16	31.220
434.51	31.178
434.86	32.455
435.22	31.292
435.57	31.457
435.92	32.532
436.28	31.810
436.63	31.713
436.98	31.501
437.34	32.191
437.69	33.081
438.04	31.651
438.39	33.694
438.75	31.374
439.10	32.704
439.45	31.442
439.81	32.410
440.16	32.368
440.51	33.353
440.86	32.736
441.22	31.564
441.57	31.947
441.92	31.867
442.27	32.143
442.63	32.457
442.98	32.111
443.33	31.686
443.68	31.944
444.03	32.269
444.39	31.522
444.74	32.269
445.09	31.524
445.44	33.258
445.79	32.534
446.15	31.544
446.50	31.410
446.85	31.811
447.20	32.840
447.55	32.044
447.91	32.734
448.26	31.899
448.61	32.371
448.96	32.325
449.31	32.244
449.66	32.341
450.02	32.022
450.37	32.696
450.72	32.203
451.07	32.998
451.42	31.413
451.77	32.555
452.12	31.883
452.47	31.864
452.83	32.848
453.18	33.966
453.53	33.458
453.88	33.672
454.23	32.769
454.58	34.245
454.93	33.438
455.28	33.270
455.63	33.047
455.98	33.675
456.34	31.258
456.69	33.208
457.04	33.559
457.39	32.476
457.74	33.196
458.09	33.759
458.44	33.834
458.79	32.679
459.14	33.314
459.49	33.570
459.84	33.446
460.19	33.353
460.54	33.212
460.89	33.800
461.24	32.908
461.59	32.649
461.94	33.736
462.29	32.877
462.64	34.321
462.99	34.739
463.34	33.491
463.69	34.669
464.04	31.693
464.39	32.437
464.74	33.747
465.09	32.411
465.44	33.728
465.79	33.785
466.14	34.120
466.49	32.527
466.84	33.854
467.19	33.728
467.54	32.595
467.89	34.525
468.24	33.314
468.59	35.041
468.94	33.698
469.29	33.853
469.64	34.434
469.99	34.774
470.34	34.937
470.68	34.593
471.03	34.687
471.38	34.167
471.73	35.944
472.08	33.869
472.43	33.912
472.78	33.933
473.13	33.598
473.48	33.950
473.83	34.119
474.17	33.758
474.52	35.230
474.87	34.848
475.22	34.808
475.57	33.722
475.92	35.421
476.27	33.486
476.61	34.310
476.96	35.215
477.31	34.822
477.66	35.086
478.01	34.630
478.36	34.730
478.70	34.917
479.05	35.208
479.40	35.285
479.75	33.894
480.10	33.333
480.45	33.752
480.79	34.501
481.14	34.320
481.49	34.802
481.84	33.749
482.19	34.262
482.53	35.133
482.88	34.124
483.23	33.803
483.58	35.384
483.92	34.783
484.27	34.293
484.62	34.298
484.97	34.489
485.31	33.344
485.66	32.875
486.01	31.930
486.36	32.824
486.70	33.402
487.05	32.766
487.40	33.681
487.75	33.324
488.09	33.292
488.44	34.134
488.79	34.312
489.13	34.804
489.48	35.237
489.83	35.284
490.17	34.697
490.52	35.598
490.87	34.827
491.22	34.750
491.56	35.509
491.91	35.544
492.26	34.292
492.60	35.728
492.95	34.507
493.30	34.778
493.64	34.744
493.99	34.178
494.34	35.476
494.68	35.440
495.03	34.417
495.37	35.005
495.72	35.167
496.07	35.852
496.41	35.572
496.76	35.434
497.11	35.139
497.45	35.297
497.80	35.968
498.14	35.904
498.49	34.957
498.84	34.515
499.18	36.111
499.53	36.191
499.87	35.569
500.22	36.078
500.56	35.618
500.91	35.025
501.26	36.002
501.60	35.532
501.95	36.280
502.29	35.286
502.64	36.162
502.98	35.410
503.33	36.278
503.67	35.297
504.02	35.780
504.36	36.471
504.71	36.525
505.06	35.097
505.40	36.876
505.75	36.992
506.09	36.249
506.44	35.689
506.78	35.675
507.13	35.685
507.47	37.246
507.82	36.087
508.16	36.995
508.51	37.094
508.85	36.387
509.19	36.787
509.54	36.575
509.88	36.968
510.23	37.212
510.57	36.825
510.92	37.057
511.26	37.161
511.61	37.257
511.95	37.231
512.30	37.768
512.64	36.728
512.98	37.679
513.33	37.672
513.67	37.968
514.02	37.248
514.36	36.842
514.70	37.974
515.05	38.193
515.39	38.408
515.74	39.325
516.08	38.444
516.42	37.507
516.77	38.244
517.11	38.844
517.46	39.055
517.80	38.628
518.14	38.164
518.49	39.390
518.83	39.110
519.17	38.307
519.52	38.404
519.86	39.606
520.20	39.303
520.55	39.815
520.89	38.698
521.23	39.683
521.58	39.498
521.92	40.215
522.26	39.683
522.61	40.304
522.95	39.949
523.29	39.373
523.64	39.663
523.98	40.102
524.32	38.655
524.66	39.317
525.01	39.371
525.35	40.657
525.69	39.753
526.04	40.535
526.38	39.911
526.72	39.719
527.06	40.365
527.41	40.462
527.75	39.472
528.09	41.628
528.43	41.508
528.78	40.327
529.12	40.845
529.46	39.497
529.80	40.930
530.15	40.116
530.49	40.168
530.83	40.930
531.17	40.741
531.51	40.388
531.86	41.738
532.20	41.768
532.54	41.444
532.88	40.448
533.22	41.110
533.57	41.384
533.91	39.139
534.25	40.101
534.59	40.162
534.93	39.577
535.27	40.151
535.62	41.368
535.96	39.948
536.30	39.725
536.64	40.770
536.98	42.020
537.32	40.843
537.66	41.548
538.01	41.856
538.35	40.946
538.69	40.241
539.03	40.420
539.37	41.051
539.71	40.827
540.05	41.330
540.39	41.551
540.73	42.018
541.07	41.189
541.42	40.783
541.76	40.930
542.10	41.931
542.44	40.173
542.78	41.791
543.12	41.955
543.46	39.247
543.80	40.936
544.14	41.572
544.48	41.667
544.82	41.001
545.16	41.985
545.50	40.040
545.84	40.821
546.18	40.777
546.52	42.603
546.86	41.952
547.20	41.842
547.54	41.116
547.88	40.478
548.22	40.105
548.56	40.481
548.90	40.364
549.24	41.065
549.58	41.426
549.92	41.413
550.26	42.269
550.60	41.181
550.94	41.387
551.28	42.287
551.62	41.802
551.96	42.764
552.30	41.672
552.64	41.731
552.98	41.205
553.32	42.929
553.66	42.538
554.00	43.213
554.34	42.455
554.68	41.594
555.02	42.258
555.36	41.409
555.69	41.834
556.03	40.982
556.37	42.034
556.71	42.591
557.05	41.981
557.39	42.316
557.73	42.451
558.07	41.372
558.41	42.184
558.75	42.281
559.08	40.934
559.42	41.577
559.76	42.331
560.10	42.506
560.44	41.402
560.78	42.171
561.12	40.994
561.45	41.575
561.79	41.812
562.13	41.585
562.47	43.137
562.81	41.726
563.15	41.707
563.48	41.811
563.82	40.703
564.16	41.515
564.50	40.457
564.84	41.402
565.17	40.782
565.51	41.069
565.85	41.244
566.19	42.885
566.52	40.965
566.86	40.961
567.20	41.586
567.54	42.233
567.88	39.698
568.21	40.157
568.55	40.297
568.89	39.612
569.23	39.426
569.56	37.747
569.90	38.985
570.24	38.031
570.57	37.293
570.91	37.640
571.25	38.067
571.59	38.152
571.92	37.351
572.26	37.238
572.60	36.798
572.93	36.854
573.27	36.646
573.61	36.536
573.95	36.562
574.28	36.872
574.62	36.528
574.96	36.815
575.29	36.408
575.63	37.351
575.97	36.219
576.30	36.832
576.64	37.389
576.98	36.327
577.31	36.663
577.65	37.083
577.98	36.413
578.32	36.498
578.66	36.524
578.99	36.995
579.33	36.624
579.67	36.520
580.00	36.334
580.34	36.815
580.67	36.700
581.01	36.357
581.35	36.545
581.68	36.107
582.02	36.020
582.35	36.223
582.69	36.164
583.02	36.715
583.36	35.939
583.70	36.201
584.03	36.422
584.37	37.240
584.70	37.536
585.04	36.759
585.37	36.205
585.71	36.575
586.04	36.803
586.38	36.782
586.72	36.950
587.05	36.958
587.39	36.739
587.72	37.218
588.06	37.056
588.39	37.112
588.73	37.598
589.06	38.107
589.40	38.063
589.73	37.712
590.07	38.055
590.40	37.269
590.73	38.065
591.07	38.033
591.40	39.645
591.74	38.358
592.07	39.009
592.41	38.344
592.74	38.624
593.08	38.277
593.41	37.829
593.75	37.356
594.08	37.850
594.41	38.336
594.75	37.826
595.08	37.895
595.42	37.861
595.75	37.155
596.09	37.796
596.42	38.871
596.75	38.637
597.09	38.958
597.42	38.411
597.75	39.061
598.09	39.765
598.42	38.842
598.76	37.957
599.09	37.569
599.42	37.486
599.76	37.524
600.09	38.092
600.42	37.676
600.76	38.079
601.09	37.600
601.42	37.871
601.76	38.863
602.09	38.405
602.42	38.148
602.76	38.471
603.09	38.629
603.42	38.678
603.76	38.971
604.09	38.446
604.42	38.010
604.76	38.509
605.09	39.195
605.42	38.830
605.75	38.853
606.09	38.522
606.42	38.039
606.75	38.042
607.09	38.862
607.42	37.720
607.75	39.558
608.08	38.726
608.42	40.208
608.75	38.178
609.08	38.529
609.41	38.615
609.75	38.518
610.08	39.167
610.41	39.952
610.74	39.507
611.07	38.945
611.41	39.183
611.74	39.589
612.07	40.172
612.40	39.552
612.73	38.880
613.07	39.571
613.40	40.449
613.73	40.109
614.06	39.923
614.39	39.628
614.72	39.609
615.06	38.261
615.39	38.958
615.72	39.978
616.05	38.487
616.38	40.104
616.71	40.120
617.05	40.169
617.38	41.486
617.71	40.479
618.04	40.621
618.37	40.943
618.70	40.874
619.03	40.623
619.36	42.495
619.69	41.924
620.03	40.496
620.36	40.717
620.69	42.211
621.02	41.857
621.35	41.694
621.68	42.541
622.01	41.262
622.34	42.391
622.67	42.656
623.00	42.005
623.33	41.642
623.66	41.285
623.99	41.805
624.32	42.336
624.65	41.428
624.99	42.046
625.32	41.617
625.65	43.046
625.98	41.471
626.31	42.088
626.64	42.678
626.97	42.123
627.30	42.809
627.63	41.969
627.96	42.211
628.29	43.934
628.62	42.216
628.95	44.587
629.28	43.327
629.61	43.278
629.94	43.384
630.26	45.030
630.59	45.729
630.92	43.544
631.25	46.169
631.58	45.608
631.91	43.511
632.24	45.000
632.57	45.889
632.90	44.828
633.23	44.393
633.56	45.263
633.89	46.698
634.22	44.982
634.55	46.034
634.88	45.466
635.20	44.819
635.53	47.201
635.86	45.844
636.19	44.322
636.52	44.922
636.85	44.765
637.18	45.125
637.51	46.221
637.83	47.403
638.16	45.921
638.49	47.310
638.82	46.075
639.15	45.914
639.48	45.006
639.81	46.888
640.13	47.703
640.46	48.148
640.79	47.479
641.12	46.968
641.45	46.485
641.77	48.353
642.10	47.281
642.43	47.041
642.76	48.346
643.09	48.413
643.41	49.365
643.74	48.967
644.07	46.490
644.40	48.460
644.73	46.370
645.05	45.576
645.38	49.172
645.71	51.546
646.04	49.412
646.36	47.469
646.69	47.924
647.02	49.458
647.35	47.292
647.67	49.818
648.00	51.670
648.33	50.422
648.66	48.387
648.98	46.975
649.31	45.538
649.64	46.562
649.96	47.253
650.29	46.393
650.62	48.537
650.94	48.904
651.27	46.794
651.60	45.156
651.92	48.630
652.25	46.077
652.58	45.656
652.90	44.623
653.23	46.774
653.56	48.161
653.88	45.410
654.21	45.805
654.54	46.844
654.86	45.746
655.19	44.269
655.52	40.741
655.84	36.141
656.17	38.948
656.49	52.320
656.82	54.015
657.15	40.818
657.47	29.980
657.80	23.624
658.13	26.998
658.45	36.496
658.78	36.516
659.10	36.986
659.43	37.263
659.75	38.316
660.08	39.479
660.41	40.614
660.73	44.114
661.06	46.087
661.38	50.357
661.71	48.184
662.03	50.202
662.36	50.533
662.68	49.789
663.01	50.743
663.33	52.381
663.66	49.142
663.98	52.902
664.31	50.112
664.63	50.885
664.96	50.325
665.28	49.024
665.61	46.089
665.93	49.794
666.26	51.012
666.58	47.193
666.91	49.666
667.23	52.412
667.56	51.927
667.88	52.036
668.21	48.387
668.53	49.299
668.86	50.577
669.18	53.196
669.50	49.533
669.83	48.175
670.15	50.000
670.48	48.598
670.80	50.569
671.13	48.533
671.45	48.423
671.77	49.036
672.10	50.296
672.42	46.679
672.75	47.818
673.07	46.306
673.39	47.541
673.72	48.425
674.04	48.832
674.37	47.835
674.69	49.180
675.01	46.170
675.34	48.807
675.66	50.756
675.98	50.000
676.31	51.810
676.63	51.954
676.95	47.345
677.28	50.116
677.60	50.000
677.92	52.863
678.25	47.702
678.57	49.794
678.89	49.266
679.22	49.057
679.54	49.704
679.86	46.000
680.18	47.719
680.51	45.810
680.83	49.143
681.15	45.857
681.48	48.479
681.80	47.177
682.12	48.089
682.44	45.187
682.77	45.887
683.09	48.847
683.41	51.327
683.73	49.315
684.06	49.032
684.38	48.745
684.70	47.119
685.02	45.079
685.34	46.199
685.67	45.265
685.99	42.911
686.31	46.140
686.63	43.617
686.96	44.732
687.28	46.243
687.60	45.703
687.92	42.802
688.24	45.472
688.56	45.691
688.89	46.581
689.21	46.827
689.53	47.816
689.85	49.220
690.17	43.274
690.49	48.499
690.82	45.542
691.14	49.764
691.46	47.450
691.78	47.797
692.10	46.610
692.42	48.889
692.74	48.283
693.06	47.416
693.39	46.085
693.71	46.275
694.03	47.948
694.35	46.275
694.67	46.099
694.99	44.757
695.31	47.704
695.63	47.959
695.95	48.883
696.27	49.377
696.59	47.861
696.91	49.157
697.23	48.698
697.56	45.673
697.88	46.396
698.20	45.182
698.52	45.964
698.84	49.515
699.16	50.000
699.48	44.750
699.80	47.118
700.12	47.607
700.44	45.531
700.76	49.854
701.08	48.256
701.40	46.224
701.72	50.309
702.04	53.526
702.36	50.904
702.68	48.204
703.00	51.014
703.32	48.711
703.64	52.941
703.96	49.419
704.28	48.225
704.60	44.937
704.91	46.667
705.23	51.456
705.55	50.676
705.87	52.901
706.19	47.917
706.51	48.264
706.83	50.492
707.15	50.318
707.47	49.036
707.79	48.196
708.11	45.038
708.43	45.885
708.74	44.935
709.06	45.125
709.38	43.966
709.70	50.938
710.02	45.092
710.34	47.195
710.66	47.302
710.98	47.319
711.29	42.581
711.61	50.160
711.93	45.246
712.25	46.179
712.57	48.432
712.89	47.482
713.20	52.577
713.52	50.746
713.84	47.331
714.16	49.180
714.48	46.667
714.80	45.231
715.11	46.686
715.43	50.301
715.75	47.975
716.07	49.836
716.39	49.164
716.70	50.174
717.02	48.889
717.34	45.802
717.66	53.112
717.97	45.902
718.29	48.319
718.61	51.587
718.93	47.312
719.24	48.529
719.56	44.528
719.88	48.000
720.20	46.816
720.51	52.632
720.83	51.406
721.15	50.820
721.46	49.020
721.78	48.659
722.10	49.600
722.42	48.347
722.73	49.801
723.05	49.799
723.37	47.059
723.68	46.559
724.00	47.967
724.32	51.852
724.63	43.568
724.95	50.413
725.27	45.614
725.58	49.138
725.90	41.270
726.22	50.923
726.53	50.190
726.85	40.392
727.16	51.128
727.48	45.769
727.80	45.082
728.11	51.681
728.43	46.694
728.74	51.172
729.06	48.106
729.38	47.471
729.69	44.882
730.01	46.457
730.32	50.199
730.64	48.718
730.96	51.866
731.27	46.071
731.59	38.907
731.90	45.092
732.22	39.571
732.53	49.338
732.85	45.302
733.16	48.188
733.48	43.902
733.80	45.196
734.11	48.276
734.43	44.218
734.74	45.401
735.06	42.947
735.37	43.731
735.69	42.581
736.00	40.741
736.32	46.026
736.63	42.414
736.95	41.667
737.26	44.371
737.58	43.525
737.89	51.971
738.21	50.752
738.52	46.923
738.83	48.828
739.15	46.581
739.46	47.177
739.78	46.503
740.09	44.755
740.41	45.105
740.72	43.796
741.04	44.444
741.35	49.784
741.66	47.222
741.98	47.143
742.29	47.418
742.61	52.941
742.92	52.336
743.23	46.930
743.55	50.000
743.86	53.333
744.18	49.048
744.49	55.172
744.80	53.299
745.12	58.763
745.43	51.759
745.74	51.456
746.06	50.732
746.37	49.780
746.68	49.751
747.00	47.644
747.31	47.596
747.62	49.309
747.94	48.472
748.25	51.163
748.56	50.952
748.88	44.565
749.19	49.296
749.50	52.451
749.82	51.556
750.13	50.661
750.44	47.561
750.75	44.400
751.07	48.929
751.38	41.328
751.69	45.420
752.01	46.923
752.32	44.747
752.63	41.154
752.94	46.429
753.26	57.391
753.57	52.232
753.88	50.000
754.19	47.303
754.51	42.969
754.82	47.826
755.13	39.918
755.44	49.174
755.75	45.267
756.07	47.791
756.38	46.484
756.69	47.292
757.00	50.523
757.31	48.322
757.63	46.729
757.94	39.595
758.25	43.605
758.56	43.396
758.87	44.318
759.18	46.333
759.50	46.975
759.81	46.350
760.12	44.932
760.43	45.307
760.74	45.937
761.05	45.506
761.36	42.515
761.67	42.308
761.99	42.903
762.30	46.377
762.61	46.415
762.92	49.776
763.23	45.972
763.54	47.111
763.85	48.945
764.16	39.184
764.47	55.508
764.78	48.315
765.10	44.964
765.41	38.387
765.72	39.937
766.03	45.583
766.34	47.744
766.65	42.105
766.96	42.000
767.27	43.229
767.58	48.256
767.89	49.677
768.20	51.534
768.51	45.355
768.82	40.000
769.13	49.000
769.44	43.860
769.75	45.887
770.06	44.495
770.37	41.315
770.68	45.312
770.99	43.069
771.30	42.718
771.61	40.278
771.92	42.424
772.23	51.869
772.54	42.553
772.85	44.379
773.16	50.000
773.47	51.205
773.78	53.297
774.09	43.333
774.39	53.704
774.70	42.282
775.01	50.725
775.32	52.239
775.63	45.455
775.94	45.865
776.25	47.857
776.56	59.016
776.87	57.522
777.18	53.982
777.48	45.455
777.79	44.348
778.10	43.119
778.41	50.847
778.72	45.455
779.03	55.224
779.34	52.632
779.65	45.098
779.95	52.899
780.26	47.619
780.57	44.828
780.88	48.148
781.19	41.414
781.50	40.800
781.80	49.020
782.11	40.385
782.42	42.771
782.73	32.847
783.04	53.378
783.34	46.212
783.65	40.310
783.96	51.220
784.27	53.846
784.57	44.715
784.88	39.024
785.19	46.491
785.50	36.082
785.81	34.286
786.11	38.235
786.42	46.364
786.73	61.261
787.04	46.535
787.34	44.762
787.65	47.619
787.96	39.216
788.26	45.946
788.57	45.161
788.88	42.188
789.19	56.410
789.49	39.496
789.80	48.718
790.11	50.442
790.41	43.434
790.72	46.226
791.03	48.611
791.33	59.211
791.64	45.161
791.95	64.000
792.25	54.286
792.56	47.561
792.87	46.939
793.17	55.263
793.48	25.676
793.79	53.521
794.09	46.835
794.40	51.064
794.70	43.925
795.01	43.860
795.32	40.909
795.62	39.286
795.93	46.392
796.23	37.363
796.54	58.947
796.85	47.945
797.15	43.056
797.46	46.575
797.76	43.662
798.07	45.000
798.37	57.353
798.68	60.000
798.99	55.714
799.29	44.737
799.60	58.333
799.90	26.389
800.21	39.062
800.51	52.381
800.82	52.459
801.12	42.105
801.43	33.803
801.73	44.068
802.04	63.934
802.34	40.000
802.65	51.923
802.95	57.407
803.26	35.000
803.56	48.077
803.87	52.632
804.17	53.226
804.48	63.077
804.78	69.231
805.09	81.395
805.39	34.375
805.70	13.208
806.00	80.702
806.30	59.459
806.61	45.588
806.91	54.321
807.22	53.333
807.52	47.761
807.83	51.613
808.13	42.857
808.43	23.636
808.74	59.091
809.04	56.604
809.35	50.685
809.65	59.649
809.95	52.941
810.26	64.706
810.56	42.000
810.86	48.980
811.17	54.286
811.47	40.385
811.77	48.387
812.08	18.421
812.38	66.667
812.69	52.174
812.99	87.097
813.29	40.476
813.59	44.444
813.90	48.936
814.20	48.837
814.50	37.500
814.81	40.000
815.11	29.268
815.41	60.000
815.72	71.429
816.02	13.889
816.32	51.282
816.62	62.162
816.93	26.471
817.23	32.609
817.53	70.588
817.84	35.294
818.14	15.625
818.44	65.517
818.74	51.613
819.04	25.926
819.35	63.333
819.65	12.000
819.95	36.667
820.25	36.000
820.56	52.632
820.86	37.500
821.16	51.064
821.46	41.379
821.76	30.769
822.07	30.000
822.37	53.488
822.67	30.000
822.97	24.324
823.27	48.649
823.57	128.000
823.88	40.541
824.18	4.762
824.48	30.769
824.78	-15.385
825.08	69.565
825.38	45.833
825.69	45.833
825.99	60.000
826.29	21.622
826.59	47.059
826.89	128.000
827.19	22.857
827.49	52.632
827.79	40.625
828.09	6.667
828.39	69.565
828.70	34.483
829.00	20.690
829.30	41.667
829.60	71.875
829.90	88.889
830.20	50.000
830.50	57.143
830.80	25.000
831.10	61.538
831.40	19.048
831.70	55.882
832.00	79.167
832.30	-10.526
832.60	31.250
832.90	41.667
833.20	0.000
833.50	93.333
833.80	60.000
834.10	-5.000
834.40	41.667
834.70	111.111
835.00	50.000
835.30	20.833
835.60	62.069
835.90	27.778
836.20	-27.273
836.50	-66.667
836.80	74.286
837.10	88.571
837.40	88.235
837.70	27.273
838.00	41.667
838.30	0.000
838.60	38.095
838.90	30.000
839.19	21.739
839.49	26.087
839.79	50.000
840.09	-26.087
840.39	36.364
840.69	68.750
840.99	36.842
841.29	81.250
841.59	64.286
841.88	27.778
842.18	-8.333
842.48	47.059
842.78	17.241
843.08	35.714
843.38	30.769
843.68	-144.444
843.97	30.769
844.27	118.182
844.57	80.000
844.87	100.000
845.17	160.000
845.47	-14.286
845.76	88.889
846.06	0.000
846.36	-150.000
846.66	30.000
846.96	84.211
847.25	29.167
847.55	-8.333
847.85	73.333
848.15	30.000
848.44	103.846
848.74	89.474
849.04	133.333
849.34	200.000
849.63	15.789
849.93	0.000
850.23	-35.000
850.53	28.571
850.82	88.000
851.12	68.421
851.42	0.000
851.71	71.429
852.01	8.333
852.31	47.059
852.61	13.333
852.90	52.381
853.20	50.000
853.50	0.000
853.79	63.158
854.09	33.333
854.39	-21.429
854.68	39.130
854.98	-75.000
855.28	75.862
855.57	25.000
855.87	80.000
856.17	46.667
856.46	58.621
856.76	26.667
857.05	64.706
857.35	-84.615
857.65	0.000
857.94	40.741
858.24	71.429
858.53	85.714
858.83	-16.667
859.13	33.333
859.42	61.905
859.72	0.000
860.01	-33.333
860.31	12.500
860.60	-60.000
860.90	-11.111
861.20	-37.500
861.49	14.286
861.79	52.941
862.08	150.000
862.38	-66.667
862.67	0.000
862.97	100.000
863.26	40.000
863.56	0.000
863.85	-66.667
864.15	-20.000
864.44	100.000
864.74	100.000
865.03	-150.000
865.33	0.000
865.62	-11.765
865.92	-150.000
866.21	-71.429
866.51	-25.000
866.80	200.000
867.10	-33.333
867.39	5.882
867.69	17.391
867.98	257.143
868.27	100.000
868.57	25.000
868.86	-72.727
869.16	64.706
869.45	0.000
869.75	85.714
870.04	-200.000
870.33	58.333
870.63	80.000
870.92	166.667
871.22	58.333
871.51	36.364
871.80	83.333
872.10	110.000
>>>>>End Processed Spectral Data<<<<<
