SpectraSuite Data File
++++++++++++++++++++++++++++++++++++
Date: Sat May 16 11:15:15 PDT 2015
User: schluterlab
Dark Spectrum Present: Yes
Reference Spectrum Present: Yes
Number of Sampled Component Spectra: 1
Spectrometers: USB2E3373
Integration Time (usec): 3000 (USB2E3373)
Spectra Averaged: 3 (USB2E3373)
Boxcar Smoothing: 0 (USB2E3373)
Correct for Electrical Dark: No (USB2E3373)
Strobe/Lamp Enabled: No (USB2E3373)
Correct for Detector Non-linearity: No (USB2E3373)
Correct for Stray Light: No (USB2E3373)
Number of Pixels in Processed Spectrum: 2048
>>>>>Begin Processed Spectral Data<<<<<
178.53	0.000
178.91	126.667
179.29	433.333
179.67	-300.000
180.04	-84.615
180.42	-0.000
180.80	50.000
181.18	425.000
181.56	-62.500
181.94	1600.000
182.31	550.000
182.69	61.538
183.07	-333.333
183.45	650.000
183.83	466.667
184.20	-57.143
184.58	-125.000
184.96	-400.000
185.34	56.250
185.72	-300.000
186.09	-0.000
186.47	-75.000
186.85	12.500
187.23	-87.500
187.61	-50.000
187.98	-125.000
188.36	-75.000
188.74	-112.500
189.12	1300.000
189.49	171.429
189.87	-50.000
190.25	350.000
190.63	-42.857
191.00	0.000
191.38	140.000
191.76	46.667
192.14	540.000
192.51	-120.000
192.89	-566.667
193.27	0.000
193.65	-22.222
194.02	-171.429
194.40	233.333
194.78	-20.000
195.15	-1100.000
195.53	-18.182
195.91	-383.333
196.29	120.000
196.66	-366.667
197.04	2000.000
197.42	-75.000
197.79	33.333
198.17	-100.000
198.55	-550.000
198.92	-1100.000
199.30	162.500
199.68	-550.000
200.05	-66.667
200.43	-77.778
200.81	-1100.000
201.18	-75.000
201.56	57.143
201.94	-26.667
202.31	59.091
202.69	0.000
203.07	-70.000
203.44	566.667
203.82	-216.667
204.19	-575.000
204.57	-75.000
204.95	-800.000
205.32	-12.500
205.70	700.000
206.08	-1100.000
206.45	22.222
206.83	-900.000
207.20	450.000
207.58	-400.000
207.96	-200.000
208.33	-150.000
208.71	-133.333
209.08	200.000
209.46	-28.571
209.84	550.000
210.21	0.000
210.59	50.000
210.96	-100.000
211.34	-166.667
211.71	-266.667
212.09	275.000
212.46	800.000
212.84	-1900.000
213.22	600.000
213.59	150.000
213.97	33.333
214.34	50.000
214.72	-180.000
215.09	-233.333
215.47	16.667
215.84	-100.000
216.22	-130.000
216.59	0.000
216.97	-475.000
217.34	350.000
217.72	-14.286
218.09	-266.667
218.47	-214.286
218.84	214.286
219.22	0.000
219.59	0.000
219.97	314.286
220.34	275.000
220.72	175.000
221.09	-30.769
221.47	0.000
221.84	366.667
222.22	-500.000
222.59	900.000
222.97	-175.000
223.34	-550.000
223.72	-233.333
224.09	0.000
224.46	-75.000
224.84	78.571
225.21	-85.714
225.59	-118.182
225.96	-87.500
226.34	-85.714
226.71	-111.111
227.08	25.000
227.46	2000.000
227.83	-185.714
228.21	-237.500
228.58	-450.000
228.95	6.250
229.33	-1900.000
229.70	-120.000
230.08	-300.000
230.45	33.333
230.82	-16.667
231.20	-100.000
231.57	-200.000
231.95	400.000
232.32	76.190
232.69	-88.889
233.07	-85.714
233.44	-1000.000
233.81	-46.667
234.19	-11.111
234.56	-62.500
234.93	12.500
235.31	-314.286
235.68	-64.286
236.05	0.000
236.43	-72.727
236.80	-29.032
237.17	-8.333
237.55	-19.048
237.92	-100.000
238.29	-28.571
238.67	-20.588
239.04	-16.667
239.41	-19.355
239.79	-33.333
240.16	-19.048
240.53	-16.364
240.91	0.000
241.28	-21.818
241.65	-1.538
242.02	1.639
242.40	-6.557
242.77	-1.515
243.14	-25.424
243.51	-25.714
243.89	-16.456
244.26	-16.854
244.63	0.000
245.00	-8.421
245.38	0.847
245.75	5.310
246.12	-4.800
246.49	-14.173
246.87	-7.317
247.24	-13.559
247.61	-11.864
247.98	-4.930
248.36	-6.993
248.73	-3.797
249.10	-5.096
249.47	-2.924
249.84	3.977
250.22	-10.119
250.59	-5.650
250.96	-4.712
251.33	-2.370
251.70	-0.962
252.08	-2.370
252.45	-3.318
252.82	-4.762
253.19	-2.553
253.56	-4.435
253.94	0.844
254.31	-4.292
254.68	-1.220
255.05	-6.452
255.42	2.381
255.79	-4.301
256.16	0.000
256.54	-0.735
256.91	1.894
257.28	-3.663
257.65	-0.355
258.02	0.629
258.39	-5.017
258.76	-0.676
259.14	0.617
259.51	-2.623
259.88	-2.744
260.25	0.621
260.62	-2.894
260.99	-4.154
261.36	-0.610
261.73	-0.867
262.10	0.000
262.47	-1.709
262.85	5.143
263.22	-1.719
263.59	-4.000
263.96	-2.899
264.33	-0.813
264.70	-2.762
265.07	-0.824
265.44	-1.550
265.81	-1.034
266.18	-3.038
266.55	0.490
266.92	1.008
267.29	1.695
267.66	-0.988
268.03	2.174
268.40	-0.939
268.77	0.964
269.14	-0.464
269.51	-0.230
269.88	-2.982
270.25	-3.497
270.62	-1.144
270.99	-1.802
271.36	-1.865
271.73	-0.224
272.10	1.602
272.47	-1.556
272.84	0.444
273.21	0.459
273.58	-0.659
273.95	-3.509
274.32	-3.846
274.69	1.094
275.06	2.249
275.43	-4.018
275.80	-0.611
276.17	-1.464
276.54	1.018
276.91	-1.029
277.28	0.203
277.65	1.033
278.02	-1.044
278.39	1.375
278.76	0.199
279.13	-1.383
279.50	-0.398
279.87	0.211
280.23	-0.810
280.60	-0.596
280.97	-0.194
281.34	-3.095
281.71	0.769
282.08	-0.202
282.45	-0.611
282.82	-1.938
283.19	0.545
283.56	0.916
283.92	0.000
284.29	-1.115
284.66	-0.360
285.03	0.178
285.40	-1.476
285.77	1.053
286.14	0.903
286.51	-0.533
286.87	0.000
287.24	-0.683
287.61	-1.157
287.98	-1.560
288.35	-0.992
288.72	-1.698
289.08	-1.356
289.45	0.168
289.82	-1.384
290.19	2.463
290.56	-0.661
290.93	-1.272
291.29	-0.972
291.66	0.161
292.03	0.785
292.40	0.753
292.77	-0.155
293.13	0.325
293.50	0.446
293.87	1.074
294.24	1.508
294.60	-1.515
294.97	0.759
295.34	-1.037
295.71	1.488
296.08	-1.843
296.44	-2.146
296.81	-0.142
297.18	-0.282
297.55	1.271
297.91	1.255
298.28	-2.192
298.65	-0.279
299.02	1.070
299.38	-0.267
299.75	-0.272
300.12	0.128
300.48	1.407
300.85	-0.262
301.22	1.811
301.59	-1.430
301.95	1.763
302.32	-0.913
302.69	0.000
303.05	-0.611
303.42	-0.250
303.79	0.718
304.15	1.303
304.52	1.050
304.89	0.590
305.25	-0.488
305.62	0.000
305.99	1.413
306.35	1.221
306.72	0.000
307.09	1.476
307.45	0.908
307.82	0.112
308.19	0.895
308.55	0.763
308.92	-0.322
309.29	0.216
309.65	0.106
310.02	-0.108
310.38	-0.324
310.75	0.410
311.12	1.136
311.48	0.835
311.85	0.721
312.22	2.060
312.58	2.136
312.95	1.325
313.31	1.898
313.68	2.211
314.05	2.868
314.41	1.107
314.78	1.898
315.14	2.863
315.51	2.229
315.87	2.807
316.24	2.721
316.61	3.359
316.97	3.781
317.34	4.143
317.70	2.968
318.07	3.358
318.43	3.464
318.80	5.258
319.16	4.128
319.53	4.605
319.89	5.550
320.26	4.804
320.62	3.750
320.99	5.174
321.35	4.532
321.72	4.401
322.08	5.242
322.45	4.950
322.81	5.283
323.18	5.764
323.54	6.007
323.91	6.395
324.27	6.274
324.64	6.764
325.00	5.410
325.37	7.330
325.73	7.087
326.10	5.934
326.46	6.918
326.83	6.979
327.19	7.423
327.56	8.688
327.92	7.562
328.29	8.139
328.65	7.818
329.01	9.011
329.38	7.939
329.74	8.150
330.11	8.160
330.47	7.811
330.84	8.708
331.20	9.477
331.56	7.293
331.93	9.059
332.29	9.863
332.66	8.516
333.02	9.321
333.38	10.125
333.75	8.816
334.11	8.889
334.48	8.914
334.84	11.549
335.20	9.752
335.57	8.935
335.93	10.654
336.29	10.186
336.66	9.780
337.02	10.450
337.38	8.734
337.75	9.219
338.11	9.302
338.47	9.609
338.84	9.347
339.20	10.369
339.56	11.230
339.93	9.877
340.29	9.566
340.65	10.315
341.02	11.130
341.38	9.604
341.74	9.822
342.11	10.751
342.47	9.871
342.83	9.236
343.20	9.650
343.56	9.959
343.92	11.519
344.28	10.597
344.65	9.488
345.01	10.168
345.37	10.548
345.73	9.738
346.10	8.258
346.46	10.398
346.82	10.666
347.19	9.942
347.55	10.273
347.91	10.866
348.27	8.831
348.63	10.097
349.00	9.547
349.36	9.368
349.72	10.510
350.08	9.783
350.45	9.377
350.81	10.271
351.17	9.968
351.53	9.308
351.89	10.267
352.26	11.318
352.62	11.137
352.98	9.968
353.34	9.273
353.70	9.498
354.07	10.622
354.43	10.356
354.79	10.697
355.15	9.185
355.51	10.000
355.87	9.723
356.24	11.199
356.60	10.556
356.96	10.701
357.32	8.947
357.68	10.805
358.04	10.931
358.40	10.441
358.77	9.969
359.13	10.788
359.49	10.355
359.85	10.366
360.21	11.111
360.57	10.392
360.93	11.185
361.29	11.286
361.66	9.527
362.02	10.873
362.38	10.125
362.74	10.769
363.10	9.900
363.46	12.037
363.82	11.079
364.18	11.577
364.54	11.866
364.90	10.622
365.26	10.628
365.62	10.834
365.98	11.166
366.35	10.915
366.71	11.064
367.07	11.362
367.43	12.080
367.79	11.203
368.15	10.740
368.51	11.119
368.87	11.745
369.23	11.158
369.59	11.042
369.95	11.628
370.31	11.814
370.67	10.484
371.03	12.172
371.39	10.396
371.75	10.658
372.11	11.836
372.47	11.063
372.83	11.961
373.19	11.143
373.55	11.400
373.91	11.664
374.27	11.157
374.63	11.456
374.99	11.544
375.35	12.315
375.71	12.559
376.07	11.225
376.42	10.265
376.78	12.026
377.14	11.593
377.50	11.412
377.86	11.964
378.22	11.872
378.58	11.797
378.94	11.406
379.30	11.517
379.66	12.265
380.02	12.478
380.38	12.205
380.74	12.720
381.09	12.185
381.45	12.709
381.81	12.462
382.17	12.469
382.53	12.097
382.89	12.201
383.25	12.523
383.61	12.677
383.97	13.411
384.32	12.954
384.68	13.845
385.04	12.138
385.40	12.416
385.76	13.171
386.12	12.430
386.48	13.490
386.83	11.534
387.19	13.030
387.55	13.022
387.91	13.159
388.27	11.761
388.62	12.981
388.98	13.083
389.34	12.362
389.70	13.398
390.06	12.679
390.42	12.628
390.77	13.312
391.13	12.981
391.49	13.475
391.85	12.968
392.20	12.925
392.56	13.256
392.92	13.463
393.28	14.294
393.64	13.710
393.99	14.031
394.35	13.686
394.71	14.145
395.07	13.371
395.42	12.634
395.78	12.319
396.14	13.396
396.50	13.150
396.85	13.140
397.21	13.366
397.57	13.982
397.92	13.700
398.28	13.556
398.64	14.218
399.00	13.933
399.35	13.247
399.71	14.170
400.07	14.269
400.42	13.139
400.78	13.476
401.14	13.593
401.49	13.031
401.85	13.667
402.21	13.468
402.57	13.167
402.92	14.034
403.28	13.909
403.63	13.541
403.99	14.730
404.35	13.527
404.70	14.336
405.06	13.033
405.42	13.407
405.77	12.896
406.13	13.174
406.49	13.781
406.84	13.137
407.20	13.192
407.55	14.123
407.91	12.824
408.27	13.113
408.62	14.131
408.98	13.463
409.34	14.199
409.69	13.548
410.05	13.523
410.40	13.427
410.76	13.693
411.11	13.716
411.47	13.683
411.83	14.120
412.18	14.109
412.54	13.606
412.89	14.520
413.25	12.751
413.60	13.123
413.96	13.617
414.31	14.434
414.67	13.714
415.03	14.230
415.38	13.273
415.74	13.982
416.09	13.235
416.45	13.161
416.80	14.434
417.16	13.754
417.51	14.576
417.87	14.110
418.22	14.159
418.58	13.158
418.93	14.408
419.29	14.868
419.64	13.317
420.00	14.095
420.35	14.134
420.71	15.066
421.06	14.083
421.42	14.227
421.77	14.294
422.12	14.941
422.48	13.736
422.83	14.123
423.19	14.310
423.54	14.006
423.90	13.881
424.25	13.688
424.61	15.259
424.96	15.506
425.31	14.254
425.67	14.728
426.02	13.196
426.38	14.338
426.73	14.611
427.09	14.338
427.44	14.489
427.79	14.942
428.15	15.021
428.50	14.428
428.85	14.269
429.21	14.776
429.56	14.323
429.92	14.529
430.27	14.357
430.62	15.569
430.98	14.689
431.33	14.621
431.68	14.531
432.04	15.221
432.39	14.530
432.74	14.808
433.10	15.082
433.45	14.796
433.80	14.222
434.16	15.422
434.51	14.630
434.86	15.290
435.22	15.423
435.57	14.994
435.92	14.889
436.28	14.303
436.63	14.076
436.98	14.433
437.34	15.003
437.69	14.819
438.04	15.031
438.39	15.102
438.75	14.552
439.10	15.214
439.45	14.725
439.81	15.060
440.16	14.424
440.51	14.353
440.86	14.401
441.22	14.594
441.57	15.368
441.92	15.243
442.27	14.232
442.63	14.646
442.98	14.729
443.33	15.870
443.68	15.320
444.03	15.717
444.39	15.321
444.74	14.978
445.09	15.186
445.44	15.813
445.79	14.686
446.15	15.717
446.50	15.079
446.85	15.136
447.20	14.913
447.55	14.972
447.91	14.992
448.26	15.028
448.61	15.393
448.96	16.022
449.31	14.994
449.66	14.997
450.02	14.958
450.37	14.667
450.72	14.915
451.07	15.022
451.42	15.799
451.77	15.260
452.12	14.899
452.47	15.680
452.83	15.259
453.18	15.876
453.53	16.294
453.88	16.089
454.23	15.780
454.58	16.408
454.93	15.302
455.28	14.723
455.63	15.725
455.98	16.024
456.34	14.358
456.69	15.447
457.04	16.349
457.39	15.670
457.74	15.416
458.09	15.777
458.44	15.878
458.79	14.574
459.14	16.144
459.49	15.927
459.84	16.414
460.19	15.931
460.54	15.426
460.89	15.863
461.24	15.726
461.59	15.944
461.94	15.977
462.29	16.617
462.64	15.481
462.99	16.332
463.34	15.665
463.69	15.331
464.04	15.524
464.39	14.994
464.74	15.898
465.09	15.574
465.44	16.413
465.79	16.638
466.14	15.823
466.49	16.120
466.84	16.206
467.19	17.332
467.54	15.380
467.89	15.783
468.24	16.390
468.59	16.302
468.94	16.399
469.29	15.010
469.64	16.509
469.99	15.868
470.34	15.564
470.68	16.788
471.03	16.724
471.38	16.111
471.73	17.203
472.08	15.261
472.43	16.409
472.78	16.133
473.13	15.639
473.48	16.082
473.83	16.501
474.17	15.287
474.52	17.263
474.87	16.200
475.22	15.339
475.57	16.333
475.92	16.307
476.27	15.600
476.61	15.662
476.96	15.539
477.31	16.146
477.66	15.938
478.01	17.126
478.36	16.082
478.70	16.284
479.05	16.225
479.40	16.373
479.75	16.922
480.10	16.567
480.45	14.845
480.79	15.943
481.14	16.207
481.49	15.876
481.84	17.013
482.19	16.857
482.53	17.140
482.88	16.089
483.23	16.244
483.58	17.068
483.92	16.436
484.27	15.950
484.62	16.501
484.97	16.017
485.31	15.904
485.66	16.116
486.01	16.140
486.36	16.438
486.70	16.680
487.05	16.444
487.40	16.560
487.75	16.143
488.09	16.059
488.44	16.441
488.79	16.342
489.13	16.318
489.48	16.272
489.83	17.031
490.17	16.282
490.52	16.304
490.87	16.166
491.22	16.207
491.56	16.389
491.91	16.794
492.26	16.321
492.60	16.794
492.95	16.849
493.30	16.627
493.64	16.126
493.99	16.061
494.34	16.857
494.68	16.948
495.03	16.300
495.37	16.421
495.72	16.798
496.07	16.800
496.41	17.508
496.76	17.215
497.11	16.439
497.45	17.241
497.80	16.708
498.14	16.945
498.49	16.474
498.84	16.748
499.18	17.203
499.53	16.805
499.87	16.409
500.22	16.667
500.56	16.908
500.91	16.946
501.26	16.934
501.60	16.273
501.95	17.391
502.29	16.816
502.64	17.162
502.98	17.202
503.33	17.058
503.67	16.858
504.02	16.224
504.36	16.716
504.71	16.008
505.06	16.625
505.40	18.064
505.75	17.124
506.09	17.492
506.44	16.541
506.78	17.060
507.13	17.044
507.47	18.101
507.82	16.830
508.16	16.943
508.51	17.053
508.85	17.340
509.19	16.745
509.54	16.808
509.88	17.500
510.23	17.400
510.57	17.407
510.92	18.045
511.26	17.810
511.61	17.063
511.95	16.649
512.30	17.262
512.64	17.585
512.98	16.887
513.33	17.133
513.67	17.085
514.02	17.506
514.36	17.729
514.70	16.978
515.05	17.896
515.39	16.378
515.74	17.627
516.08	16.830
516.42	17.450
516.77	18.198
517.11	17.792
517.46	18.361
517.80	17.930
518.14	17.271
518.49	17.753
518.83	17.329
519.17	18.591
519.52	18.161
519.86	18.638
520.20	17.910
520.55	18.031
520.89	17.345
521.23	18.193
521.58	17.555
521.92	17.796
522.26	18.159
522.61	17.934
522.95	17.869
523.29	18.370
523.64	18.176
523.98	17.823
524.32	17.599
524.66	17.329
525.01	17.148
525.35	18.943
525.69	18.478
526.04	17.624
526.38	19.223
526.72	17.497
527.06	17.839
527.41	17.426
527.75	16.502
528.09	18.465
528.43	18.164
528.78	18.216
529.12	18.118
529.46	17.719
529.80	17.495
530.15	18.738
530.49	18.564
530.83	19.450
531.17	18.384
531.51	18.084
531.86	17.709
532.20	18.286
532.54	18.316
532.88	18.511
533.22	18.850
533.57	18.995
533.91	18.414
534.25	18.668
534.59	18.488
534.93	17.922
535.27	19.006
535.62	18.670
535.96	18.423
536.30	18.455
536.64	18.393
536.98	18.220
537.32	17.277
537.66	18.194
538.01	17.663
538.35	19.392
538.69	18.048
539.03	18.348
539.37	18.629
539.71	18.813
540.05	17.752
540.39	18.698
540.73	18.314
541.07	19.194
541.42	18.636
541.76	17.409
542.10	18.974
542.44	18.787
542.78	18.114
543.12	19.552
543.46	17.055
543.80	18.863
544.14	17.864
544.48	18.504
544.82	19.012
545.16	18.578
545.50	17.631
545.84	18.846
546.18	19.417
546.52	19.061
546.86	19.444
547.20	19.058
547.54	18.182
547.88	18.315
548.22	17.431
548.56	17.635
548.90	18.801
549.24	18.430
549.58	18.843
549.92	18.516
550.26	19.509
550.60	18.563
550.94	18.540
551.28	19.037
551.62	18.316
551.96	18.452
552.30	18.885
552.64	18.086
552.98	18.290
553.32	18.110
553.66	18.169
554.00	18.408
554.34	17.617
554.68	18.567
555.02	18.669
555.36	18.404
555.69	19.341
556.03	18.526
556.37	19.417
556.71	19.256
557.05	17.960
557.39	18.189
557.73	18.600
558.07	18.161
558.41	17.203
558.75	19.163
559.08	17.977
559.42	18.377
559.76	19.632
560.10	18.867
560.44	18.931
560.78	18.441
561.12	18.496
561.45	18.836
561.79	18.815
562.13	18.022
562.47	18.207
562.81	18.388
563.15	18.824
563.48	18.314
563.82	18.796
564.16	19.270
564.50	19.019
564.84	19.511
565.17	18.236
565.51	17.992
565.85	18.932
566.19	18.972
566.52	18.526
566.86	18.710
567.20	20.218
567.54	19.256
567.88	18.425
568.21	18.680
568.55	19.088
568.89	18.091
569.23	18.186
569.56	18.621
569.90	18.647
570.24	19.091
570.57	18.383
570.91	18.123
571.25	18.418
571.59	18.857
571.92	18.690
572.26	18.574
572.60	19.082
572.93	18.148
573.27	18.384
573.61	17.895
573.95	18.574
574.28	18.643
574.62	18.582
574.96	18.594
575.29	18.394
575.63	18.529
575.97	18.474
576.30	18.334
576.64	18.407
576.98	18.587
577.31	18.403
577.65	18.408
577.98	18.518
578.32	18.438
578.66	18.572
578.99	18.581
579.33	18.714
579.67	18.260
580.00	17.857
580.34	18.542
580.67	18.338
581.01	17.665
581.35	18.325
581.68	18.454
582.02	18.524
582.35	18.338
582.69	19.018
583.02	18.700
583.36	18.851
583.70	18.689
584.03	19.019
584.37	18.484
584.70	18.345
585.04	18.405
585.37	18.305
585.71	18.360
586.04	18.668
586.38	18.391
586.72	18.602
587.05	17.984
587.39	18.492
587.72	18.689
588.06	18.184
588.39	18.399
588.73	18.769
589.06	18.862
589.40	18.688
589.73	18.803
590.07	18.463
590.40	18.450
590.73	18.593
591.07	18.238
591.40	19.584
591.74	19.070
592.07	18.919
592.41	18.386
592.74	18.678
593.08	18.881
593.41	18.717
593.75	18.134
594.08	18.260
594.41	18.891
594.75	18.837
595.08	18.797
595.42	18.858
595.75	18.817
596.09	18.743
596.42	18.985
596.75	18.801
597.09	19.234
597.42	18.551
597.75	18.512
598.09	18.843
598.42	18.913
598.76	18.397
599.09	18.942
599.42	19.262
599.76	18.762
600.09	19.008
600.42	18.458
600.76	19.021
601.09	19.066
601.42	18.322
601.76	18.536
602.09	19.018
602.42	18.889
602.76	18.986
603.09	19.073
603.42	19.541
603.76	19.705
604.09	19.383
604.42	18.776
604.76	18.360
605.09	19.394
605.42	18.661
605.75	19.146
606.09	18.514
606.42	19.187
606.75	19.107
607.09	19.188
607.42	19.102
607.75	19.117
608.08	19.792
608.42	19.442
608.75	18.645
609.08	18.948
609.41	18.834
609.75	19.210
610.08	19.216
610.41	19.133
610.74	19.342
611.07	19.675
611.41	18.860
611.74	19.589
612.07	19.603
612.40	18.497
612.73	19.278
613.07	19.207
613.40	20.088
613.73	19.619
614.06	18.122
614.39	18.884
614.72	18.883
615.06	18.913
615.39	18.774
615.72	19.283
616.05	19.161
616.38	19.617
616.71	19.219
617.05	19.059
617.38	19.443
617.71	18.243
618.04	20.311
618.37	19.245
618.70	19.948
619.03	19.499
619.36	20.578
619.69	19.742
620.03	20.455
620.36	19.409
620.69	20.101
621.02	19.559
621.35	19.677
621.68	20.738
622.01	19.013
622.34	19.720
622.67	19.766
623.00	20.199
623.33	20.448
623.66	19.424
623.99	19.023
624.32	18.973
624.65	19.647
624.99	20.090
625.32	19.611
625.65	20.901
625.98	19.484
626.31	20.065
626.64	19.163
626.97	20.291
627.30	20.170
627.63	18.566
627.96	20.017
628.29	19.118
628.62	19.771
628.95	20.768
629.28	19.643
629.61	19.529
629.94	20.888
630.26	21.571
630.59	19.799
630.92	20.220
631.25	20.161
631.58	19.683
631.91	18.085
632.24	20.556
632.57	21.222
632.90	20.460
633.23	20.444
633.56	19.064
633.89	21.462
634.22	21.370
634.55	19.471
634.88	20.435
635.20	19.101
635.53	20.483
635.86	18.766
636.19	19.292
636.52	19.833
636.85	19.615
637.18	19.875
637.51	20.942
637.83	19.441
638.16	17.632
638.49	21.517
638.82	17.632
639.15	22.049
639.48	18.288
639.81	20.609
640.13	20.000
640.46	22.650
640.79	19.748
641.12	20.733
641.45	21.090
641.77	20.210
642.10	19.789
642.43	20.486
642.76	18.425
643.09	19.206
643.41	18.254
643.74	22.099
644.07	20.125
644.40	19.287
644.73	20.462
645.05	18.531
645.38	18.377
645.71	21.478
646.04	20.672
646.36	19.197
646.69	20.415
647.02	20.939
647.35	19.495
647.67	19.891
648.00	18.981
648.33	24.115
648.66	17.742
648.98	19.586
649.31	20.308
649.64	19.844
649.96	19.780
650.29	18.689
650.62	22.031
650.94	22.091
651.27	19.584
651.60	20.415
651.92	21.747
652.25	20.534
652.58	20.102
652.90	20.706
653.23	20.323
653.56	18.896
653.88	18.197
654.21	21.477
654.54	20.598
654.86	20.064
655.19	18.481
655.52	19.955
655.84	19.406
656.17	21.821
656.49	29.521
656.82	30.372
657.15	22.428
657.47	16.394
657.80	12.647
658.13	14.378
658.45	19.313
658.78	18.681
659.10	18.829
659.43	18.616
659.75	18.686
660.08	17.865
660.41	18.115
660.73	18.592
661.06	21.304
661.38	19.643
661.71	18.738
662.03	20.968
662.36	20.469
662.68	18.143
663.01	24.628
663.33	19.274
663.66	21.030
663.98	20.536
664.31	18.568
664.63	20.354
664.96	18.438
665.28	20.174
665.61	18.393
665.93	21.605
666.26	19.838
666.58	20.790
666.91	20.490
667.23	19.737
667.56	18.594
667.88	19.910
668.21	18.664
668.53	21.729
668.86	21.940
669.18	19.406
669.50	15.187
669.83	17.518
670.15	19.731
670.48	18.692
670.80	18.679
671.13	18.510
671.45	22.523
671.77	22.056
672.10	19.527
672.42	20.480
672.75	19.273
673.07	16.937
673.39	19.854
673.72	22.638
674.04	19.533
674.37	19.794
674.69	20.697
675.01	17.447
675.34	18.221
675.66	21.382
675.98	20.705
676.31	19.231
676.63	20.230
676.95	20.354
677.28	19.026
677.60	21.719
677.92	19.824
678.25	22.538
678.57	20.988
678.89	18.449
679.22	19.497
679.54	20.907
679.86	18.200
680.18	21.103
680.51	19.181
680.83	20.571
681.15	20.617
681.48	21.095
681.80	19.556
682.12	19.316
682.44	20.236
682.77	18.398
683.09	20.964
683.41	21.018
683.73	19.406
684.06	21.290
684.38	21.548
684.70	18.107
685.02	19.882
685.34	19.298
685.67	18.561
685.99	18.904
686.31	19.210
686.63	20.390
686.96	19.409
687.28	20.231
687.60	19.922
687.92	21.595
688.24	20.669
688.56	18.437
688.89	16.880
689.21	21.444
689.53	21.149
689.85	22.049
690.17	19.507
690.49	17.321
690.82	18.795
691.14	19.575
691.46	23.282
691.78	21.366
692.10	20.975
692.42	17.333
692.74	21.888
693.06	20.225
693.39	17.897
693.71	19.413
694.03	21.598
694.35	20.993
694.67	19.622
694.99	18.414
695.31	19.643
695.63	17.092
695.95	20.844
696.27	20.948
696.59	17.647
696.91	23.315
697.23	23.177
697.56	20.433
697.88	17.117
698.20	19.914
698.52	18.161
698.84	18.932
699.16	21.190
699.48	18.250
699.80	21.805
700.12	22.166
700.44	16.760
700.76	17.784
701.08	17.733
701.40	16.012
701.72	22.222
702.04	21.795
702.36	20.482
702.68	19.760
703.00	21.159
703.32	18.052
703.64	22.647
703.96	20.930
704.28	23.669
704.60	18.354
704.91	17.460
705.23	18.447
705.55	16.554
705.87	18.430
706.19	13.542
706.51	19.792
706.83	20.328
707.15	17.516
707.47	21.763
707.79	21.134
708.11	19.847
708.43	22.195
708.74	19.481
709.06	20.334
709.38	21.552
709.70	19.375
710.02	22.086
710.34	18.812
710.66	20.000
710.98	21.451
711.29	17.742
711.61	18.211
711.93	20.000
712.25	19.934
712.57	17.422
712.89	19.065
713.20	21.649
713.52	15.299
713.84	19.573
714.16	20.656
714.48	19.683
714.80	17.538
715.11	20.749
715.43	24.096
715.75	23.053
716.07	18.689
716.39	17.726
716.70	20.209
717.02	21.481
717.34	21.374
717.66	21.577
717.97	17.213
718.29	19.328
718.61	20.238
718.93	20.789
719.24	14.706
719.56	18.113
719.88	21.455
720.20	16.854
720.51	22.932
720.83	16.867
721.15	15.984
721.46	17.255
721.78	22.989
722.10	21.200
722.42	19.835
722.73	21.912
723.05	19.679
723.37	18.431
723.68	16.599
724.00	21.951
724.32	20.576
724.63	15.353
724.95	22.727
725.27	17.982
725.58	18.103
725.90	19.841
726.22	24.723
726.53	18.251
726.85	12.157
727.16	19.925
727.48	18.462
727.80	16.393
728.11	14.286
728.43	16.942
728.74	21.094
729.06	19.318
729.38	15.953
729.69	17.323
730.01	20.079
730.32	19.522
730.64	22.344
730.96	20.149
731.27	21.071
731.59	21.543
731.90	18.405
732.22	20.859
732.53	23.510
732.85	18.456
733.16	18.478
733.48	14.983
733.80	15.658
734.11	19.310
734.43	18.707
734.74	19.585
735.06	17.241
735.37	17.737
735.69	16.129
736.00	16.835
736.32	21.192
736.63	16.552
736.95	18.478
737.26	19.536
737.58	20.144
737.89	21.147
738.21	15.789
738.52	20.385
738.83	19.531
739.15	15.812
739.46	21.774
739.78	22.378
740.09	17.483
740.41	18.881
740.72	18.248
741.04	17.063
741.35	16.883
741.66	19.444
741.98	16.190
742.29	19.249
742.61	16.043
742.92	20.093
743.23	16.667
743.55	18.468
743.86	27.111
744.18	18.571
744.49	19.704
744.80	20.305
745.12	17.010
745.43	18.090
745.74	21.359
746.06	18.049
746.37	23.348
746.68	17.910
747.00	15.707
747.31	14.423
747.62	16.129
747.94	19.214
748.25	18.140
748.56	20.476
748.88	10.326
749.19	16.432
749.50	20.098
749.82	16.889
750.13	19.383
750.44	19.512
750.75	23.600
751.07	18.571
751.38	16.974
751.69	15.649
752.01	22.692
752.32	13.230
752.63	17.692
752.94	18.651
753.26	20.435
753.57	19.196
753.88	14.655
754.19	18.257
754.51	14.453
754.82	20.158
755.13	13.580
755.44	21.074
755.75	21.399
756.07	12.851
756.38	15.234
756.69	16.968
757.00	18.815
757.31	16.779
757.63	21.495
757.94	16.185
758.25	20.058
758.56	21.833
758.87	17.614
759.18	11.333
759.50	17.438
759.81	14.599
760.12	14.527
760.43	18.123
760.74	23.437
761.05	17.978
761.36	21.257
761.67	19.822
761.99	17.097
762.30	22.101
762.61	16.981
762.92	18.834
763.23	19.431
763.54	14.667
763.85	24.895
764.16	19.592
764.47	22.458
764.78	26.592
765.10	19.424
765.41	18.387
765.72	21.698
766.03	11.661
766.34	19.925
766.65	18.219
766.96	16.500
767.27	22.917
767.58	19.186
767.89	13.548
768.20	19.632
768.51	15.847
768.82	17.838
769.13	16.500
769.44	17.982
769.75	23.810
770.06	18.807
770.37	23.005
770.68	17.708
770.99	19.307
771.30	13.107
771.61	18.056
771.92	18.615
772.23	22.430
772.54	17.553
772.85	16.568
773.16	16.463
773.47	23.494
773.78	24.176
774.09	20.000
774.39	17.284
774.70	16.107
775.01	20.290
775.32	8.209
775.63	5.785
775.94	17.293
776.25	20.000
776.56	13.934
776.87	17.699
777.18	25.664
777.48	10.909
777.79	5.217
778.10	9.174
778.41	15.254
778.72	17.355
779.03	18.657
779.34	12.030
779.65	26.144
779.95	13.043
780.26	11.565
780.57	6.034
780.88	7.407
781.19	3.030
781.50	17.600
781.80	20.261
782.11	19.231
782.42	23.494
782.73	2.920
783.04	17.568
783.34	9.091
783.65	6.977
783.96	20.325
784.27	1.709
784.57	8.130
784.88	17.073
785.19	18.421
785.50	2.062
785.81	18.095
786.11	11.765
786.42	1.818
786.73	21.622
787.04	13.861
787.34	5.714
787.65	5.714
787.96	11.765
788.26	12.613
788.57	16.935
788.88	12.500
789.19	10.256
789.49	19.328
789.80	7.692
790.11	17.699
790.41	10.101
790.72	26.415
791.03	18.056
791.33	6.579
791.64	25.806
791.95	26.667
792.25	4.286
792.56	7.317
792.87	21.429
793.17	10.526
793.48	-4.054
793.79	2.817
794.09	2.532
794.40	13.830
794.70	15.888
795.01	7.018
795.32	8.182
795.62	16.964
795.93	9.278
796.23	2.198
796.54	13.684
796.85	6.849
797.15	-6.944
797.46	21.918
797.76	30.986
798.07	5.000
798.37	7.353
798.68	18.571
798.99	20.000
799.29	14.474
799.60	13.333
799.90	-9.722
800.21	1.562
800.51	14.286
800.82	19.672
801.12	3.509
801.43	5.634
801.73	5.085
802.04	6.557
802.34	12.727
802.65	17.308
802.95	9.259
803.26	-15.000
803.56	13.462
803.87	13.158
804.17	14.516
804.48	9.231
804.78	-41.026
805.09	23.256
805.39	-18.750
805.70	-22.642
806.00	17.544
806.30	16.216
806.61	-1.471
806.91	16.049
807.22	4.000
807.52	5.970
807.83	-1.613
808.13	6.349
808.43	-7.273
808.74	19.697
809.04	-7.547
809.35	19.178
809.65	42.105
809.95	22.059
810.26	19.608
810.56	2.000
810.86	2.041
811.17	14.286
811.47	5.769
811.77	0.000
812.08	-26.316
812.38	26.190
812.69	13.043
812.99	6.452
813.29	-7.143
813.59	-88.889
813.90	-17.021
814.20	-16.279
814.50	-18.750
814.81	-6.667
815.11	-12.195
815.41	6.667
815.72	-11.429
816.02	16.667
816.32	-2.564
816.62	-2.703
816.93	-11.765
817.23	-17.391
817.53	0.000
817.84	-20.588
818.14	-21.875
818.44	-34.483
818.74	-38.710
819.04	-33.333
819.35	0.000
819.65	-20.000
819.95	0.000
820.25	-16.000
820.56	-7.895
820.86	0.000
821.16	4.255
821.46	0.000
821.76	-28.205
822.07	-12.500
822.37	16.279
822.67	-16.667
822.97	-29.730
823.27	2.703
823.57	36.000
823.88	-21.622
824.18	-66.667
824.48	19.231
824.78	-100.000
825.08	30.435
825.38	-25.000
825.69	16.667
825.99	-95.000
826.29	13.514
826.59	-29.412
826.89	8.000
827.19	11.429
827.49	10.526
827.79	0.000
828.09	6.667
828.39	47.826
828.70	-13.793
829.00	6.897
829.30	-5.556
829.60	50.000
829.90	16.667
830.20	-73.077
830.50	-38.095
830.80	-28.571
831.10	12.821
831.40	-33.333
831.70	0.000
832.00	-20.833
832.30	-26.316
832.60	-81.250
832.90	-75.000
833.20	-94.118
833.50	-26.667
833.80	-33.333
834.10	-20.000
834.40	12.500
834.70	-50.000
835.00	30.769
835.30	-54.167
835.60	-27.586
835.90	-38.889
836.20	-209.091
836.50	-66.667
836.80	11.429
837.10	-14.286
837.40	-41.176
837.70	-109.091
838.00	8.333
838.30	-12.500
838.60	-38.095
838.90	55.000
839.19	-26.087
839.49	4.348
839.79	-11.111
840.09	-21.739
840.39	-45.455
840.69	0.000
840.99	-89.474
841.29	-50.000
841.59	-50.000
841.88	-27.778
842.18	-16.667
842.48	-29.412
842.78	-41.379
843.08	-28.571
843.38	-46.154
843.68	-177.778
843.97	-115.385
844.27	18.182
844.57	-240.000
844.87	8.000
845.17	-120.000
845.47	-107.143
845.76	-111.111
846.06	0.000
846.36	-350.000
846.66	-50.000
846.96	15.789
847.25	20.833
847.55	-41.667
847.85	6.667
848.15	-110.000
848.44	57.692
848.74	-26.316
849.04	600.000
849.34	-133.333
849.63	-63.158
849.93	0.000
850.23	-50.000
850.53	-23.810
850.82	4.000
851.12	15.789
851.42	-550.000
851.71	-21.429
852.01	-91.667
852.31	-29.412
852.61	-20.000
852.90	-19.048
853.20	-200.000
853.50	-11.111
853.79	-63.158
854.09	-46.667
854.39	3.571
854.68	-8.696
854.98	-125.000
855.28	10.345
855.57	-43.750
855.87	-20.000
856.17	-80.000
856.46	-17.241
856.76	-20.000
857.05	-58.824
857.35	-107.692
857.65	36.364
857.94	14.815
858.24	-128.571
858.53	21.429
858.83	-83.333
859.13	-11.111
859.42	19.048
859.72	-137.500
860.01	-366.667
860.31	-12.500
860.60	-280.000
860.90	-133.333
861.20	-125.000
861.49	-200.000
861.79	23.529
862.08	-250.000
862.38	-50.000
862.67	-138.462
862.97	17.647
863.26	70.000
863.56	-11.765
863.85	300.000
864.15	-70.000
864.44	-92.308
864.74	-15.000
865.03	-75.000
865.33	-266.667
865.62	17.647
865.92	-475.000
866.21	-28.571
866.51	-100.000
866.80	-300.000
867.10	-33.333
867.39	-47.059
867.69	-30.435
867.98	-71.429
868.27	-260.000
868.57	-50.000
868.86	-181.818
869.16	11.765
869.45	-100.000
869.75	-57.143
870.04	400.000
870.33	-41.667
870.63	-180.000
870.92	-166.667
871.22	-50.000
871.51	-54.545
871.80	-8.333
872.10	-20.000
>>>>>End Processed Spectral Data<<<<<
