SpectraSuite Data File
++++++++++++++++++++++++++++++++++++
Date: Sat May 16 11:24:27 PDT 2015
User: schluterlab
Dark Spectrum Present: Yes
Reference Spectrum Present: Yes
Number of Sampled Component Spectra: 1
Spectrometers: USB2E3373
Integration Time (usec): 3000 (USB2E3373)
Spectra Averaged: 3 (USB2E3373)
Boxcar Smoothing: 0 (USB2E3373)
Correct for Electrical Dark: No (USB2E3373)
Strobe/Lamp Enabled: No (USB2E3373)
Correct for Detector Non-linearity: No (USB2E3373)
Correct for Stray Light: No (USB2E3373)
Number of Pixels in Processed Spectrum: 2048
>>>>>Begin Processed Spectral Data<<<<<
178.53	0.000
178.91	173.333
179.29	733.333
179.67	-600.000
180.04	-84.615
180.42	1300.000
180.80	525.000
181.18	350.000
181.56	0.000
181.94	1200.000
182.31	500.000
182.69	-7.692
183.07	-666.667
183.45	1200.000
183.83	233.333
184.20	-200.000
184.58	-187.500
184.96	-400.000
185.34	106.250
185.72	-275.000
186.09	116.667
186.47	-137.500
186.85	-112.500
187.23	-50.000
187.61	0.000
187.98	-262.500
188.36	-100.000
188.74	-112.500
189.12	1000.000
189.49	200.000
189.87	-100.000
190.25	200.000
190.63	-64.286
191.00	-144.444
191.38	280.000
191.76	0.000
192.14	480.000
192.51	-400.000
192.89	-533.333
193.27	0.000
193.65	-133.333
194.02	-328.571
194.40	500.000
194.78	-90.000
195.15	-1800.000
195.53	-145.455
195.91	-400.000
196.29	160.000
196.66	-333.333
197.04	1100.000
197.42	100.000
197.79	13.333
198.17	-366.667
198.55	-200.000
198.92	-1100.000
199.30	150.000
199.68	-900.000
200.05	-100.000
200.43	-177.778
200.81	-1200.000
201.18	-158.333
201.56	285.714
201.94	-106.667
202.31	-13.636
202.69	-120.000
203.07	-100.000
203.44	666.667
203.82	-383.333
204.19	-550.000
204.57	-150.000
204.95	-1400.000
205.32	-31.250
205.70	1200.000
206.08	-2200.000
206.45	-38.889
206.83	-550.000
207.20	0.000
207.58	-800.000
207.96	-500.000
208.33	-187.500
208.71	-155.556
209.08	280.000
209.46	-228.571
209.84	300.000
210.21	0.000
210.59	10.000
210.96	1100.000
211.34	-116.667
211.71	-466.667
212.09	275.000
212.46	950.000
212.84	-2000.000
213.22	600.000
213.59	158.333
213.97	-55.556
214.34	100.000
214.72	-100.000
215.09	-200.000
215.47	-266.667
215.84	0.000
216.22	-80.000
216.59	-20.000
216.97	-600.000
217.34	400.000
217.72	-128.571
218.09	-416.667
218.47	-271.429
218.84	-0.000
219.22	-85.714
219.59	0.000
219.97	228.571
220.34	675.000
220.72	137.500
221.09	-61.538
221.47	0.000
221.84	233.333
222.22	-300.000
222.59	2100.000
222.97	-237.500
223.34	-600.000
223.72	-166.667
224.09	-114.286
224.46	-450.000
224.84	42.857
225.21	-142.857
225.59	-81.818
225.96	-237.500
226.34	-128.571
226.71	-211.111
227.08	40.000
227.46	2000.000
227.83	-114.286
228.21	-225.000
228.58	1000.000
228.95	-31.250
229.33	-1800.000
229.70	-180.000
230.08	-900.000
230.45	-100.000
230.82	-266.667
231.20	-1300.000
231.57	-900.000
231.95	1800.000
232.32	-33.333
232.69	-177.778
233.07	-142.857
233.44	-800.000
233.81	-120.000
234.19	-66.667
234.56	0.000
234.93	-21.875
235.31	-300.000
235.68	-135.714
236.05	-94.118
236.43	-40.909
236.80	-35.484
237.17	-58.333
237.55	-42.857
237.92	-63.636
238.29	-62.857
238.67	-29.412
239.04	-22.222
239.41	-67.742
239.79	-43.590
240.16	-33.333
240.53	-18.182
240.91	-25.641
241.28	-9.091
241.65	-7.692
242.02	-6.557
242.40	-29.508
242.77	-9.091
243.14	-33.898
243.51	-31.429
243.89	-16.456
244.26	-12.360
244.63	-9.474
245.00	-11.579
245.38	-1.695
245.75	-6.195
246.12	-16.000
246.49	-10.236
246.87	-6.504
247.24	-16.949
247.61	-18.644
247.98	-10.563
248.36	-11.888
248.73	-5.696
249.10	-10.191
249.47	1.170
249.84	-6.250
250.22	-13.690
250.59	-3.955
250.96	-6.806
251.33	-0.948
251.70	-3.365
252.08	-0.948
252.45	-5.687
252.82	-7.143
253.19	-2.553
253.56	-1.210
253.94	-4.641
254.31	-4.292
254.68	-3.659
255.05	-9.274
255.42	-1.984
255.79	-4.659
256.16	2.745
256.54	-0.735
256.91	-5.682
257.28	-5.861
257.65	-2.128
258.02	0.314
258.39	-2.341
258.76	-3.041
259.14	-3.704
259.51	0.656
259.88	-4.573
260.25	0.311
260.62	-4.823
260.99	-3.561
261.36	1.829
261.73	-2.023
262.10	0.278
262.47	0.000
262.85	2.857
263.22	-4.011
263.59	-4.923
263.96	-4.058
264.33	0.271
264.70	-4.696
265.07	-1.099
265.44	0.258
265.81	-1.034
266.18	-1.772
266.55	-2.696
266.92	0.756
267.29	-0.484
267.66	-3.951
268.03	-0.966
268.40	-0.939
268.77	-0.964
269.14	-3.248
269.51	3.448
269.88	-2.064
270.25	-5.361
270.62	-1.144
270.99	-1.351
271.36	-2.564
271.73	0.673
272.10	-2.975
272.47	-2.222
272.84	0.000
273.21	-1.606
273.58	-2.198
273.95	-0.877
274.32	-2.262
274.69	-0.656
275.06	0.818
275.43	-0.446
275.80	1.629
276.17	0.000
276.54	2.037
276.91	-2.263
277.28	-0.406
277.65	-1.240
278.02	0.209
278.39	-1.572
278.76	-1.992
279.13	0.000
279.50	-2.187
279.87	-1.057
280.23	1.619
280.60	-0.199
280.97	-1.748
281.34	-1.934
281.71	1.346
282.08	-0.806
282.45	-3.259
282.82	0.194
283.19	0.909
283.56	1.832
283.92	-0.530
284.29	-1.301
284.66	-0.180
285.03	2.496
285.40	-0.554
285.77	0.000
286.14	-0.903
286.51	-1.243
286.87	0.726
287.24	1.195
287.61	0.331
287.98	-0.347
288.35	-0.496
288.72	-1.528
289.08	-2.881
289.45	0.000
289.82	-2.422
290.19	1.149
290.56	-0.992
290.93	2.385
291.29	-0.972
291.66	-0.805
292.03	2.512
292.40	1.054
292.77	0.932
293.13	0.650
293.50	0.149
293.87	0.920
294.24	0.603
294.60	-1.515
294.97	1.062
295.34	0.593
295.71	1.042
296.08	-1.075
296.44	-0.143
296.81	0.427
297.18	0.986
297.55	0.424
297.91	-0.139
298.28	-0.548
298.65	-0.697
299.02	2.005
299.38	0.000
299.75	-0.272
300.12	2.051
300.48	0.256
300.85	0.655
301.22	1.164
301.59	0.130
301.95	3.149
302.32	-0.913
302.69	2.203
303.05	0.855
303.42	1.000
303.79	1.077
304.15	0.948
304.52	2.334
304.89	2.007
305.25	0.000
305.62	1.058
305.99	3.416
306.35	2.553
306.72	1.139
307.09	2.838
307.45	2.270
307.82	0.782
308.19	1.790
308.55	2.179
308.92	0.537
309.29	2.811
309.65	1.803
310.02	1.944
310.38	0.216
310.75	2.254
311.12	2.479
311.48	1.983
311.85	2.987
312.22	1.751
312.58	3.764
312.95	4.587
313.31	2.098
313.68	3.618
314.05	4.352
314.41	1.207
314.78	2.498
315.14	3.455
315.51	3.141
315.87	3.388
316.24	4.082
316.61	5.182
316.97	5.373
317.34	4.335
317.70	4.267
318.07	5.970
318.43	4.775
318.80	6.385
319.16	4.878
319.53	5.733
319.89	5.268
320.26	5.784
320.62	5.096
320.99	5.672
321.35	4.729
321.72	4.913
322.08	6.429
322.45	5.446
322.81	7.012
323.18	7.012
323.54	6.377
323.91	7.044
324.27	7.034
324.64	7.130
325.00	7.243
325.37	8.326
325.73	9.361
326.10	6.466
326.46	7.793
326.83	8.340
327.19	9.091
327.56	9.796
327.92	8.921
328.29	9.437
328.65	7.818
329.01	9.187
329.38	9.634
329.74	10.440
330.11	9.338
330.47	9.628
330.84	10.174
331.20	9.747
331.56	9.207
331.93	10.568
332.29	11.233
332.66	9.833
333.02	10.317
333.38	9.767
333.75	10.686
334.11	10.311
334.48	9.885
334.84	11.286
335.20	11.436
335.57	11.011
335.93	11.728
336.29	11.160
336.66	10.308
337.02	10.541
337.38	11.408
337.75	10.975
338.11	11.360
338.47	10.854
338.84	11.162
339.20	11.511
339.56	12.389
339.93	9.965
340.29	10.629
340.65	10.839
341.02	11.973
341.38	10.531
341.74	10.415
342.11	11.433
342.47	10.215
342.83	9.992
343.20	10.931
343.56	9.959
343.92	12.437
344.28	11.606
344.65	9.901
345.01	11.092
345.37	12.292
345.73	10.311
346.10	9.648
346.46	9.829
346.82	10.265
347.19	10.518
347.55	10.594
347.91	10.945
348.27	9.626
348.63	11.551
349.00	10.979
349.36	10.695
349.72	11.146
350.08	11.307
350.45	11.190
350.81	11.545
351.17	9.405
351.53	9.387
351.89	9.701
352.26	10.620
352.62	12.212
352.98	11.392
353.34	11.431
353.70	9.884
354.07	11.094
354.43	11.858
354.79	11.727
355.15	10.863
355.51	10.859
355.87	9.565
356.24	10.405
356.60	10.717
356.96	12.317
357.32	10.689
357.68	10.805
358.04	10.778
358.40	10.209
358.77	10.819
359.13	10.788
359.49	11.187
359.85	10.671
360.21	11.492
360.57	11.596
360.93	11.111
361.29	11.360
361.66	10.290
362.02	11.169
362.38	12.399
362.74	11.575
363.10	10.904
363.46	11.966
363.82	12.026
364.18	11.650
364.54	13.081
364.90	11.321
365.26	11.769
365.62	12.188
365.98	12.233
366.35	12.042
366.71	11.487
367.07	12.562
367.43	13.384
367.79	12.784
368.15	11.024
368.51	12.587
368.87	12.637
369.23	12.982
369.59	13.194
369.95	12.121
370.31	13.221
370.67	11.714
371.03	13.557
371.39	13.013
371.75	13.090
372.11	13.558
372.47	13.015
372.83	13.282
373.19	13.786
373.55	13.512
373.91	13.869
374.27	12.731
374.63	12.974
374.99	13.839
375.35	13.122
375.71	13.842
376.07	14.511
376.42	12.252
376.78	13.987
377.14	13.966
377.50	13.346
377.86	13.329
378.22	13.379
378.58	13.527
378.94	13.748
379.30	13.711
379.66	14.268
380.02	14.439
380.38	14.079
380.74	13.951
381.09	14.470
381.45	15.215
381.81	13.612
382.17	14.160
382.53	14.529
382.89	15.132
383.25	15.111
383.61	14.917
383.97	15.126
384.32	15.957
384.68	15.175
385.04	15.821
385.40	15.033
385.76	16.341
386.12	15.490
386.48	15.223
386.83	15.583
387.19	16.139
387.55	15.748
387.91	15.649
388.27	15.501
388.62	14.724
388.98	15.385
389.34	15.789
389.70	16.626
390.06	15.538
390.42	16.218
390.77	15.205
391.13	16.646
391.49	15.908
391.85	16.209
392.20	16.262
392.56	15.211
392.92	16.372
393.28	16.131
393.64	16.236
393.99	16.554
394.35	16.545
394.71	16.306
395.07	16.573
395.42	16.508
395.78	15.588
396.14	16.137
396.50	16.636
396.85	16.163
397.21	16.889
397.57	16.535
397.92	16.511
398.28	16.444
398.64	16.776
399.00	17.360
399.35	16.234
399.71	16.609
400.07	16.060
400.42	16.910
400.78	15.504
401.14	16.467
401.49	16.097
401.85	16.656
402.21	16.150
402.57	16.990
402.92	16.614
403.28	17.034
403.63	15.698
403.99	17.029
404.35	16.002
404.70	16.501
405.06	16.897
405.42	15.867
405.77	15.498
406.13	15.786
406.49	17.076
406.84	15.657
407.20	16.667
407.55	16.339
407.91	14.896
408.27	16.115
408.62	16.416
408.98	16.495
409.34	16.453
409.69	16.761
410.05	16.434
410.40	16.125
410.76	16.894
411.11	16.147
411.47	16.560
411.83	17.054
412.18	16.399
412.54	15.802
412.89	17.132
413.25	16.234
413.60	15.371
413.96	16.143
414.31	16.208
414.67	15.683
415.03	16.947
415.38	16.005
415.74	16.237
416.09	17.391
416.45	16.667
416.80	16.840
417.16	16.944
417.51	17.203
417.87	16.311
418.22	17.826
418.58	16.816
418.93	17.167
419.29	17.315
419.64	16.332
420.00	17.132
420.35	17.445
420.71	17.407
421.06	17.337
421.42	17.740
421.77	18.314
422.12	17.292
422.48	17.477
422.83	17.483
423.19	17.539
423.54	17.579
423.90	17.756
424.25	18.269
424.61	18.335
424.96	18.432
425.31	17.943
425.67	18.739
426.02	18.072
426.38	18.512
426.73	18.644
427.09	18.444
427.44	19.148
427.79	18.779
428.15	19.689
428.50	18.710
428.85	18.765
429.21	18.539
429.56	19.583
429.92	18.637
430.27	18.694
430.62	19.906
430.98	19.132
431.33	19.530
431.68	20.322
432.04	20.593
432.39	20.114
432.74	19.904
433.10	20.484
433.45	19.171
433.80	19.709
434.16	20.258
434.51	20.932
434.86	20.504
435.22	19.989
435.57	19.767
435.92	20.281
436.28	20.356
436.63	19.446
436.98	19.473
437.34	21.087
437.69	20.653
438.04	20.363
438.39	20.878
438.75	21.013
439.10	21.877
439.45	20.278
439.81	20.361
440.16	21.806
440.51	21.588
440.86	20.648
441.22	20.287
441.57	22.000
441.92	21.944
442.27	21.050
442.63	21.996
442.98	20.767
443.33	21.691
443.68	20.948
444.03	21.611
444.39	21.292
444.74	22.137
445.09	21.656
445.44	21.441
445.79	21.163
446.15	22.070
446.50	20.958
446.85	22.422
447.20	21.757
447.55	21.989
447.91	22.347
448.26	22.458
448.61	22.128
448.96	22.857
449.31	21.646
449.66	21.981
450.02	21.717
450.37	22.087
450.72	22.034
451.07	23.382
451.42	22.305
451.77	22.561
452.12	22.646
452.47	22.985
452.83	22.365
453.18	22.391
453.53	22.264
453.88	22.907
454.23	22.068
454.58	22.312
454.93	22.670
455.28	22.180
455.63	22.727
455.98	23.072
456.34	22.109
456.69	23.765
457.04	23.417
457.39	21.830
457.74	23.095
458.09	22.506
458.44	23.614
458.79	22.814
459.14	23.103
459.49	22.795
459.84	22.709
460.19	23.389
460.54	21.779
460.89	23.038
461.24	23.012
461.59	23.505
461.94	23.425
462.29	22.752
462.64	22.859
462.99	23.293
463.34	23.295
463.69	22.837
464.04	22.203
464.39	22.700
464.74	22.754
465.09	22.730
465.44	23.519
465.79	23.407
466.14	23.188
466.49	22.913
466.84	22.989
467.19	23.566
467.54	21.646
467.89	24.414
468.24	23.100
468.59	23.173
468.94	22.315
469.29	22.287
469.64	24.124
469.99	24.240
470.34	23.113
470.68	23.547
471.03	23.813
471.38	23.056
471.73	23.357
472.08	23.896
472.43	22.909
472.78	23.400
473.13	22.531
473.48	23.038
473.83	24.069
474.17	23.631
474.52	24.297
474.87	23.252
475.22	23.068
475.57	22.667
475.92	24.082
476.27	23.543
476.61	23.437
476.96	23.309
477.31	22.659
477.66	23.243
478.01	23.123
478.36	23.049
478.70	24.026
479.05	22.985
479.40	23.005
479.75	23.242
480.10	23.661
480.45	22.679
480.79	23.692
481.14	23.683
481.49	23.136
481.84	23.486
482.19	23.390
482.53	22.869
482.88	22.639
483.23	23.427
483.58	24.006
483.92	23.841
484.27	22.818
484.62	22.808
484.97	23.383
485.31	22.688
485.66	22.329
486.01	22.316
486.36	23.225
486.70	24.055
487.05	23.401
487.40	23.317
487.75	22.965
488.09	22.514
488.44	23.342
488.79	23.488
489.13	23.051
489.48	23.002
489.83	23.100
490.17	23.465
490.52	23.958
490.87	22.864
491.22	23.027
491.56	22.917
491.91	23.950
492.26	23.349
492.60	23.739
492.95	22.941
493.30	23.154
493.64	22.238
493.99	22.610
494.34	23.667
494.68	23.736
495.03	23.040
495.37	23.009
495.72	22.593
496.07	23.229
496.41	23.205
496.76	23.242
497.11	23.363
497.45	23.228
497.80	23.612
498.14	23.477
498.49	22.903
498.84	22.767
499.18	23.294
499.53	23.088
499.87	22.442
500.22	23.186
500.56	23.162
500.91	23.153
501.26	23.241
501.60	22.773
501.95	23.285
502.29	22.390
502.64	23.810
502.98	22.472
503.33	22.979
503.67	22.701
504.02	23.081
504.36	23.529
504.71	22.391
505.06	22.716
505.40	23.852
505.75	23.120
506.09	23.812
506.44	22.957
506.78	24.084
507.13	22.863
507.47	23.526
507.82	23.438
508.16	23.731
508.51	23.442
508.85	23.447
509.19	22.606
509.54	23.097
509.88	22.713
510.23	23.532
510.57	24.021
510.92	23.147
511.26	22.807
511.61	23.434
511.95	22.953
512.30	22.760
512.64	21.925
512.98	23.817
513.33	23.613
513.67	23.841
514.02	22.819
514.36	23.934
514.70	23.316
515.05	23.556
515.39	23.472
515.74	24.258
516.08	22.939
516.42	23.003
516.77	23.686
517.11	23.627
517.46	24.821
517.80	23.345
518.14	23.913
518.49	23.013
518.83	22.730
519.17	23.623
519.52	22.267
519.86	23.059
520.20	23.533
520.55	23.262
520.89	23.920
521.23	23.932
521.58	23.135
521.92	24.129
522.26	23.302
522.61	24.018
522.95	22.974
523.29	23.699
523.64	23.548
523.98	23.361
524.32	23.130
524.66	22.857
525.01	23.057
525.35	23.518
525.69	24.073
526.04	23.825
526.38	23.297
526.72	21.903
527.06	24.284
527.41	23.234
527.75	22.244
528.09	22.766
528.43	23.148
528.78	24.121
529.12	24.200
529.46	22.809
529.80	23.112
530.15	24.340
530.49	24.191
530.83	24.231
531.17	23.569
531.51	22.639
531.86	22.976
532.20	23.077
532.54	23.529
532.88	23.123
533.22	23.529
533.57	23.760
533.91	23.783
534.25	21.873
534.59	22.049
534.93	22.402
535.27	22.907
535.62	23.210
535.96	22.431
536.30	22.055
536.64	23.307
536.98	23.517
537.32	23.220
537.66	21.860
538.01	23.299
538.35	23.108
538.69	23.061
539.03	23.629
539.37	23.021
539.71	22.949
540.05	22.755
540.39	23.338
540.73	23.359
541.07	23.019
541.42	22.890
541.76	22.591
542.10	22.890
542.44	23.251
542.78	23.202
543.12	23.693
543.46	22.466
543.80	23.077
544.14	21.760
544.48	23.031
544.82	22.530
545.16	22.938
545.50	22.140
545.84	23.088
546.18	23.162
546.52	22.902
546.86	23.291
547.20	23.277
547.54	21.763
547.88	22.827
548.22	21.822
548.56	21.977
548.90	22.978
549.24	22.845
549.58	22.653
549.92	23.251
550.26	23.194
550.60	22.475
550.94	22.628
551.28	23.552
551.62	22.526
551.96	23.878
552.30	22.927
552.64	23.645
552.98	23.686
553.32	22.799
553.66	23.216
554.00	22.317
554.34	22.094
554.68	22.807
555.02	24.240
555.36	21.783
555.69	22.421
556.03	22.807
556.37	22.973
556.71	23.336
557.05	22.690
557.39	23.088
557.73	24.070
558.07	23.964
558.41	22.812
558.75	23.498
559.08	21.556
559.42	23.277
559.76	22.546
560.10	23.639
560.44	22.832
560.78	22.269
561.12	22.843
561.45	22.877
561.79	23.066
562.13	23.142
562.47	23.109
562.81	22.207
563.15	23.583
563.48	22.460
563.82	22.921
564.16	22.312
564.50	22.648
564.84	22.354
565.17	22.082
565.51	23.272
565.85	24.003
566.19	23.518
566.52	22.635
566.86	22.882
567.20	23.366
567.54	22.918
567.88	22.166
568.21	23.154
568.55	21.898
568.89	21.918
569.23	21.657
569.56	21.732
569.90	22.227
570.24	21.984
570.57	21.265
570.91	22.237
571.25	21.920
571.59	22.416
571.92	21.726
572.26	22.229
572.60	21.440
572.93	21.771
573.27	21.280
573.61	21.279
573.95	21.767
574.28	21.129
574.62	21.454
574.96	21.186
575.29	21.672
575.63	21.927
575.97	21.278
576.30	21.513
576.64	21.514
576.98	21.174
577.31	21.597
577.65	21.315
577.98	20.947
578.32	21.385
578.66	21.291
578.99	20.802
579.33	21.326
579.67	21.227
580.00	21.081
580.34	21.600
580.67	21.574
581.01	20.887
581.35	20.913
581.68	21.412
582.02	21.682
582.35	21.624
582.69	22.157
583.02	21.640
583.36	21.687
583.70	21.582
584.03	21.579
584.37	21.651
584.70	21.597
585.04	22.152
585.37	21.790
585.71	21.916
586.04	22.036
586.38	21.759
586.72	22.097
587.05	22.062
587.39	22.070
587.72	22.060
588.06	22.613
588.39	22.130
588.73	22.480
589.06	22.730
589.40	22.879
589.73	21.919
590.07	22.068
590.40	21.956
590.73	22.591
591.07	22.049
591.40	22.747
591.74	23.110
592.07	22.387
592.41	22.548
592.74	22.867
593.08	23.000
593.41	22.303
593.75	22.057
594.08	22.502
594.41	22.847
594.75	22.877
595.08	22.820
595.42	23.085
595.75	22.712
596.09	22.429
596.42	22.545
596.75	22.941
597.09	22.974
597.42	22.959
597.75	23.384
598.09	23.362
598.42	22.448
598.76	21.844
599.09	22.494
599.42	22.491
599.76	22.914
600.09	22.710
600.42	23.319
600.76	22.486
601.09	22.256
601.42	22.319
601.76	22.936
602.09	22.372
602.42	22.881
602.76	22.767
603.09	22.661
603.42	22.965
603.76	22.417
604.09	22.827
604.42	22.065
604.76	22.678
605.09	23.237
605.42	23.537
605.75	22.337
606.09	23.205
606.42	22.371
606.75	22.885
607.09	22.982
607.42	22.491
607.75	22.693
608.08	23.814
608.42	23.368
608.75	22.430
609.08	22.942
609.41	21.923
609.75	23.013
610.08	23.235
610.41	22.217
610.74	23.646
611.07	23.124
611.41	22.138
611.74	23.496
612.07	24.060
612.40	23.454
612.73	23.748
613.07	22.124
613.40	22.879
613.73	23.869
614.06	22.735
614.39	24.070
614.72	23.128
615.06	22.880
615.39	23.006
615.72	23.683
616.05	22.363
616.38	23.447
616.71	23.483
617.05	22.919
617.38	24.272
617.71	22.604
618.04	24.348
618.37	23.711
618.70	23.533
619.03	22.817
619.36	23.749
619.69	23.762
620.03	23.691
620.36	23.699
620.69	22.900
621.02	22.907
621.35	23.468
621.68	22.869
622.01	24.515
622.34	24.457
622.67	23.594
623.00	23.259
623.33	23.881
623.66	22.600
623.99	23.534
624.32	23.140
624.65	23.547
624.99	23.301
625.32	24.326
625.65	24.165
625.98	23.787
626.31	23.491
626.64	23.013
626.97	24.144
627.30	24.000
627.63	21.934
627.96	24.108
628.29	25.092
628.62	24.164
628.95	24.803
629.28	24.060
629.61	24.828
629.94	24.197
630.26	24.553
630.59	24.121
630.92	23.524
631.25	25.101
631.58	23.704
631.91	23.085
632.24	24.667
632.57	23.556
632.90	24.483
633.23	23.832
633.56	23.275
633.89	24.410
634.22	24.321
634.55	24.159
634.88	23.821
635.20	22.347
635.53	24.173
635.86	23.678
636.19	23.565
636.52	25.448
636.85	22.744
637.18	24.000
637.51	24.659
637.83	23.302
638.16	23.421
638.49	24.000
638.82	25.097
639.15	26.459
639.48	23.217
639.81	26.833
640.13	24.054
640.46	24.217
640.79	25.630
641.12	25.247
641.45	23.529
641.77	25.599
642.10	23.414
642.43	25.948
642.76	24.724
643.09	25.556
643.41	25.556
643.74	24.483
644.07	23.869
644.40	26.094
644.73	24.917
645.05	26.043
645.38	25.331
645.71	26.976
646.04	25.210
646.36	23.211
646.69	25.779
647.02	25.812
647.35	25.451
647.67	23.723
648.00	25.659
648.33	25.801
648.66	23.065
648.98	25.159
649.31	24.462
649.64	26.875
649.96	23.705
650.29	22.131
650.62	25.129
650.94	25.126
651.27	24.263
651.60	24.221
651.92	25.514
652.25	22.871
652.58	24.702
652.90	24.238
653.23	24.677
653.56	23.913
653.88	24.426
654.21	25.000
654.54	23.754
654.86	24.398
655.19	22.063
655.52	23.885
655.84	23.109
656.17	25.060
656.49	34.332
656.82	35.242
657.15	27.046
657.47	19.699
657.80	15.053
658.13	16.881
658.45	23.142
658.78	22.608
659.10	22.690
659.43	21.892
659.75	22.187
660.08	23.437
660.41	21.841
660.73	22.442
661.06	26.232
661.38	25.179
661.71	22.945
662.03	25.806
662.36	25.586
662.68	24.473
663.01	27.389
663.33	27.438
663.66	26.609
663.98	25.893
664.31	26.622
664.63	27.212
664.96	22.777
665.28	24.295
665.61	21.353
665.93	27.572
666.26	24.494
666.58	24.324
666.91	24.722
667.23	25.219
667.56	26.304
667.88	27.376
668.21	25.346
668.53	25.935
668.86	26.097
669.18	24.201
669.50	26.402
669.83	26.277
670.15	26.009
670.48	23.598
670.80	23.918
671.13	25.508
671.45	23.198
671.77	25.482
672.10	25.641
672.42	26.568
672.75	23.091
673.07	25.586
673.39	23.133
673.72	23.819
674.04	23.992
674.37	23.093
674.69	26.639
675.01	23.404
675.34	23.644
675.66	28.726
675.98	22.907
676.31	27.828
676.63	22.759
676.95	23.451
677.28	23.898
677.60	24.208
677.92	25.771
678.25	26.915
678.57	27.366
678.89	24.738
679.22	24.948
679.54	25.641
679.86	23.600
680.18	24.525
680.51	22.905
680.83	22.476
681.15	26.204
681.48	26.978
681.80	26.613
682.12	24.950
682.44	24.361
682.77	23.593
683.09	27.254
683.41	23.894
683.73	24.429
684.06	22.151
684.38	26.151
684.70	24.897
685.02	24.213
685.34	28.460
685.67	25.568
685.99	24.386
686.31	25.494
686.63	26.773
686.96	21.811
687.28	21.580
687.60	26.367
687.92	21.984
688.24	25.787
688.56	25.251
688.89	25.000
689.21	26.696
689.53	25.747
689.85	24.276
690.17	25.785
690.49	25.173
690.82	26.024
691.14	24.292
691.46	25.942
691.78	25.110
692.10	24.153
692.42	23.778
692.74	27.253
693.06	27.416
693.39	25.503
693.71	25.959
694.03	25.486
694.35	22.348
694.67	24.823
694.99	23.018
695.31	26.786
695.63	21.684
695.95	26.303
696.27	23.441
696.59	28.342
696.91	26.404
697.23	25.000
697.56	22.356
697.88	21.622
698.20	22.912
698.52	23.991
698.84	26.699
699.16	26.190
699.48	23.500
699.80	26.566
700.12	25.945
700.44	22.905
700.76	26.239
701.08	22.965
701.40	21.752
701.72	23.457
702.04	28.526
702.36	27.410
702.68	22.754
703.00	25.507
703.32	21.490
703.64	29.118
703.96	28.488
704.28	23.964
704.60	22.468
704.91	26.349
705.23	26.861
705.55	26.689
705.87	24.573
706.19	23.958
706.51	21.875
706.83	23.607
707.15	23.567
707.47	27.548
707.79	25.000
708.11	23.664
708.43	24.688
708.74	23.117
709.06	26.184
709.38	20.690
709.70	25.313
710.02	24.233
710.34	23.432
710.66	22.540
710.98	24.606
711.29	19.677
711.61	23.642
711.93	22.951
712.25	27.243
712.57	26.132
712.89	30.576
713.20	28.179
713.52	21.642
713.84	24.199
714.16	22.623
714.48	25.714
714.80	22.154
715.11	25.648
715.43	25.602
715.75	23.053
716.07	24.590
716.39	28.094
716.70	23.345
717.02	23.704
717.34	26.718
717.66	26.556
717.97	26.639
718.29	23.529
718.61	26.587
718.93	26.523
719.24	20.956
719.56	20.755
719.88	21.455
720.20	24.345
720.51	27.444
720.83	22.892
721.15	24.590
721.46	25.490
721.78	24.904
722.10	26.000
722.42	21.901
722.73	20.717
723.05	22.490
723.37	23.922
723.68	20.648
724.00	30.081
724.32	25.926
724.63	24.066
724.95	25.620
725.27	25.439
725.58	25.000
725.90	23.016
726.22	25.461
726.53	28.517
726.85	18.824
727.16	23.684
727.48	24.615
727.80	21.311
728.11	23.529
728.43	24.380
728.74	28.906
729.06	23.864
729.38	27.237
729.69	24.409
730.01	26.378
730.32	24.303
730.64	27.473
730.96	25.000
731.27	25.714
731.59	24.116
731.90	24.847
732.22	23.926
732.53	28.146
732.85	18.121
733.16	22.826
733.48	25.087
733.80	22.420
734.11	21.034
734.43	26.190
734.74	24.036
735.06	22.884
735.37	25.382
735.69	22.258
736.00	23.569
736.32	23.510
736.63	21.034
736.95	22.464
737.26	23.841
737.58	27.338
737.89	31.183
738.21	23.308
738.52	22.308
738.83	23.437
739.15	23.077
739.46	29.435
739.78	24.476
740.09	22.727
740.41	25.874
740.72	25.912
741.04	20.635
741.35	20.346
741.66	31.019
741.98	25.238
742.29	27.230
742.61	21.925
742.92	27.103
743.23	20.614
743.55	25.676
743.86	29.333
744.18	23.810
744.49	30.049
744.80	23.350
745.12	31.443
745.43	18.090
745.74	27.670
746.06	22.927
746.37	24.229
746.68	28.856
747.00	27.225
747.31	25.962
747.62	24.424
747.94	20.961
748.25	23.721
748.56	29.524
748.88	14.674
749.19	30.986
749.50	27.941
749.82	26.222
750.13	21.145
750.44	23.171
750.75	22.400
751.07	28.929
751.38	24.354
751.69	20.229
752.01	22.308
752.32	21.401
752.63	20.385
752.94	24.206
753.26	23.043
753.57	26.786
753.88	24.138
754.19	22.407
754.51	19.141
754.82	22.530
755.13	22.634
755.44	27.686
755.75	27.572
756.07	21.285
756.38	21.094
756.69	28.159
757.00	21.951
757.31	26.510
757.63	25.234
757.94	23.988
758.25	23.547
758.56	26.954
758.87	25.852
759.18	20.667
759.50	25.267
759.81	24.088
760.12	22.973
760.43	23.948
760.74	30.937
761.05	25.281
761.36	26.347
761.67	18.935
761.99	22.581
762.30	26.449
762.61	19.623
762.92	26.906
763.23	21.327
763.54	23.556
763.85	24.473
764.16	26.122
764.47	24.153
764.78	27.341
765.10	26.978
765.41	22.903
765.72	26.101
766.03	19.435
766.34	24.436
766.65	19.028
766.96	21.500
767.27	30.729
767.58	18.605
767.89	23.226
768.20	23.926
768.51	24.044
768.82	22.162
769.13	21.500
769.44	24.561
769.75	20.779
770.06	24.771
770.37	19.718
770.68	28.646
770.99	24.752
771.30	25.728
771.61	25.926
771.92	21.645
772.23	21.495
772.54	23.404
772.85	14.793
773.16	24.390
773.47	27.711
773.78	26.923
774.09	23.333
774.39	18.519
774.70	23.490
775.01	22.464
775.32	19.403
775.63	14.050
775.94	26.316
776.25	20.714
776.56	28.689
776.87	32.743
777.18	25.664
777.48	27.273
777.79	12.174
778.10	16.514
778.41	15.254
778.72	19.835
779.03	17.164
779.34	16.541
779.65	18.954
779.95	24.638
780.26	18.367
780.57	11.207
780.88	24.074
781.19	10.101
781.50	10.400
781.80	18.954
782.11	17.308
782.42	24.096
782.73	19.708
783.04	29.054
783.34	22.727
783.65	18.605
783.96	24.390
784.27	17.949
784.57	23.577
784.88	13.821
785.19	19.298
785.50	4.124
785.81	24.762
786.11	20.588
786.42	13.636
786.73	27.027
787.04	26.733
787.34	20.952
787.65	16.190
787.96	20.588
788.26	18.018
788.57	19.355
788.88	15.625
789.19	20.513
789.49	21.849
789.80	24.786
790.11	24.779
790.41	21.212
790.72	35.849
791.03	16.667
791.33	18.421
791.64	22.581
791.95	14.667
792.25	5.714
792.56	13.415
792.87	21.429
793.17	1.316
793.48	-1.351
793.79	-7.042
794.09	12.658
794.40	15.957
794.70	14.019
795.01	8.772
795.32	11.818
795.62	20.536
795.93	14.433
796.23	10.989
796.54	21.053
796.85	10.959
797.15	2.778
797.46	13.699
797.76	35.211
798.07	27.500
798.37	11.765
798.68	20.000
798.99	22.857
799.29	15.789
799.60	20.000
799.90	-1.389
800.21	15.625
800.51	30.159
800.82	11.475
801.12	-3.509
801.43	0.000
801.73	-3.390
802.04	1.639
802.34	-9.091
802.65	7.692
802.95	25.926
803.26	-7.500
803.56	17.308
803.87	23.684
804.17	16.129
804.48	12.308
804.78	-5.128
805.09	11.628
805.39	-43.750
805.70	-3.774
806.00	29.825
806.30	21.622
806.61	11.765
806.91	16.049
807.22	6.667
807.52	16.418
807.83	16.129
808.13	3.175
808.43	3.636
808.74	7.576
809.04	15.094
809.35	28.767
809.65	10.526
809.95	17.647
810.26	9.804
810.56	-18.000
810.86	-16.327
811.17	0.000
811.47	0.000
811.77	0.000
812.08	-23.684
812.38	26.190
812.69	6.522
812.99	-9.677
813.29	-28.571
813.59	-22.222
813.90	-17.021
814.20	-34.884
814.50	16.667
814.81	5.000
815.11	-17.073
815.41	-36.667
815.72	22.857
816.02	-8.333
816.32	2.564
816.62	-13.514
816.93	-29.412
817.23	-2.174
817.53	0.000
817.84	-26.471
818.14	-12.500
818.44	-20.690
818.74	-22.581
819.04	-14.815
819.35	-3.333
819.65	-76.000
819.95	10.000
820.25	-32.000
820.56	-23.684
820.86	-15.000
821.16	0.000
821.46	20.690
821.76	5.128
822.07	-15.000
822.37	-9.302
822.67	-10.000
822.97	-16.216
823.27	-5.405
823.57	32.000
823.88	10.811
824.18	-71.429
824.48	-19.231
824.78	-23.077
825.08	-73.913
825.38	4.167
825.69	-4.167
825.99	-60.000
826.29	-27.027
826.59	-20.588
826.89	4.000
827.19	5.714
827.49	42.105
827.79	-12.500
828.09	-26.667
828.39	4.348
828.70	-48.276
829.00	0.000
829.30	-19.444
829.60	0.000
829.90	-27.778
830.20	-34.615
830.50	-4.762
830.80	-25.000
831.10	25.641
831.40	-33.333
831.70	23.529
832.00	-16.667
832.30	-57.895
832.60	-37.500
832.90	-66.667
833.20	-76.471
833.50	-133.333
833.80	-33.333
834.10	-40.000
834.40	-4.167
834.70	-27.778
835.00	3.846
835.30	-66.667
835.60	-6.897
835.90	-27.778
836.20	-218.182
836.50	-91.667
836.80	2.857
837.10	20.000
837.40	-64.706
837.70	-172.727
838.00	-4.167
838.30	-43.750
838.60	-28.571
838.90	0.000
839.19	-13.043
839.49	-17.391
839.79	-44.444
840.09	-26.087
840.39	-31.818
840.69	-81.250
840.99	-36.842
841.29	6.250
841.59	-71.429
841.88	-66.667
842.18	-37.500
842.48	-82.353
842.78	-6.897
843.08	-50.000
843.38	-7.692
843.68	-211.111
843.97	-23.077
844.27	-181.818
844.57	-120.000
844.87	-16.000
845.17	-20.000
845.47	7.143
845.76	-211.111
846.06	0.000
846.36	-700.000
846.66	-160.000
846.96	-26.316
847.25	-8.333
847.55	-66.667
847.85	13.333
848.15	-120.000
848.44	42.308
848.74	-31.579
849.04	800.000
849.34	-122.222
849.63	-42.105
849.93	0.000
850.23	-30.000
850.53	4.762
850.82	-24.000
851.12	-36.842
851.42	-450.000
851.71	-42.857
852.01	-116.667
852.31	-64.706
852.61	-53.333
852.90	4.762
853.20	-183.333
853.50	-11.111
853.79	-57.895
854.09	-86.667
854.39	-25.000
854.68	13.043
854.98	-141.667
855.28	-17.241
855.57	-43.750
855.87	-35.000
856.17	-40.000
856.46	10.345
856.76	-100.000
857.05	-58.824
857.35	-161.538
857.65	-27.273
857.94	-44.444
858.24	-107.143
858.53	-92.857
858.83	-183.333
859.13	-188.889
859.42	4.762
859.72	-150.000
860.01	-333.333
860.31	-100.000
860.60	-260.000
860.90	-255.556
861.20	-75.000
861.49	-200.000
861.79	-11.765
862.08	-1000.000
862.38	-100.000
862.67	-15.385
862.97	-29.412
863.26	10.000
863.56	-41.176
863.85	533.333
864.15	-190.000
864.44	-115.385
864.74	-15.000
865.03	-137.500
865.33	-316.667
865.62	-35.294
865.92	-375.000
866.21	-128.571
866.51	-66.667
866.80	-1700.000
867.10	-233.333
867.39	-23.529
867.69	-8.696
867.98	-71.429
868.27	-320.000
868.57	-81.250
868.86	-181.818
869.16	47.059
869.45	-116.667
869.75	-228.571
870.04	900.000
870.33	-91.667
870.63	-180.000
870.92	-66.667
871.22	-50.000
871.51	-72.727
871.80	-58.333
872.10	-20.000
>>>>>End Processed Spectral Data<<<<<
