SpectraSuite Data File
++++++++++++++++++++++++++++++++++++
Date: Sat May 16 11:31:54 PDT 2015
User: schluterlab
Dark Spectrum Present: Yes
Reference Spectrum Present: Yes
Number of Sampled Component Spectra: 1
Spectrometers: USB2E3373
Integration Time (usec): 3000 (USB2E3373)
Spectra Averaged: 3 (USB2E3373)
Boxcar Smoothing: 0 (USB2E3373)
Correct for Electrical Dark: No (USB2E3373)
Strobe/Lamp Enabled: No (USB2E3373)
Correct for Detector Non-linearity: No (USB2E3373)
Correct for Stray Light: No (USB2E3373)
Number of Pixels in Processed Spectrum: 2048
>>>>>Begin Processed Spectral Data<<<<<
178.53	0.000
178.91	120.000
179.29	666.667
179.67	-800.000
180.04	-61.538
180.42	600.000
180.80	100.000
181.18	475.000
181.56	-162.500
181.94	1800.000
182.31	425.000
182.69	-100.000
183.07	-700.000
183.45	1350.000
183.83	633.333
184.20	-142.857
184.58	-150.000
184.96	-550.000
185.34	112.500
185.72	-650.000
186.09	366.667
186.47	-187.500
186.85	-262.500
187.23	25.000
187.61	-275.000
187.98	-300.000
188.36	-187.500
188.74	-275.000
189.12	1400.000
189.49	314.286
189.87	-16.667
190.25	200.000
190.63	-92.857
191.00	-155.556
191.38	380.000
191.76	-33.333
192.14	680.000
192.51	-360.000
192.89	-233.333
193.27	0.000
193.65	-22.222
194.02	-314.286
194.40	700.000
194.78	-40.000
195.15	-700.000
195.53	-163.636
195.91	-450.000
196.29	260.000
196.66	-433.333
197.04	2500.000
197.42	-75.000
197.79	20.000
198.17	-533.333
198.55	-700.000
198.92	-1600.000
199.30	150.000
199.68	-450.000
200.05	-88.889
200.43	-177.778
200.81	-1100.000
201.18	-91.667
201.56	228.571
201.94	-60.000
202.31	13.636
202.69	-50.000
203.07	-150.000
203.44	633.333
203.82	-366.667
204.19	-325.000
204.57	-275.000
204.95	-700.000
205.32	6.250
205.70	1500.000
206.08	-1600.000
206.45	-33.333
206.83	-850.000
207.20	-150.000
207.58	-466.667
207.96	-433.333
208.33	-87.500
208.71	-144.444
209.08	270.000
209.46	-257.143
209.84	1200.000
210.21	0.000
210.59	0.000
210.96	1500.000
211.34	-283.333
211.71	-433.333
212.09	200.000
212.46	1050.000
212.84	-2100.000
213.22	733.333
213.59	100.000
213.97	-22.222
214.34	130.000
214.72	-170.000
215.09	-433.333
215.47	-166.667
215.84	-170.000
216.22	-90.000
216.59	13.333
216.97	-600.000
217.34	450.000
217.72	-214.286
218.09	-383.333
218.47	-214.286
218.84	242.857
219.22	28.571
219.59	0.000
219.97	328.571
220.34	300.000
220.72	162.500
221.09	-30.769
221.47	0.000
221.84	466.667
222.22	-650.000
222.59	900.000
222.97	-275.000
223.34	-700.000
223.72	-666.667
224.09	-142.857
224.46	-400.000
224.84	-28.571
225.21	-142.857
225.59	-90.909
225.96	-125.000
226.34	0.000
226.71	-122.222
227.08	-55.000
227.46	1200.000
227.83	-200.000
228.21	-250.000
228.58	650.000
228.95	-100.000
229.33	-900.000
229.70	-40.000
230.08	-1000.000
230.45	-16.667
230.82	-200.000
231.20	-800.000
231.57	-600.000
231.95	1900.000
232.32	14.286
232.69	-144.444
233.07	-57.143
233.44	-1300.000
233.81	-53.333
234.19	-111.111
234.56	-31.250
234.93	21.875
235.31	-385.714
235.68	-157.143
236.05	-47.059
236.43	-100.000
236.80	3.226
237.17	-8.333
237.55	-33.333
237.92	-86.364
238.29	-40.000
238.67	2.941
239.04	16.667
239.41	-38.710
239.79	-48.718
240.16	-30.952
240.53	-18.182
240.91	2.564
241.28	-16.364
241.65	-4.615
242.02	-1.639
242.40	-14.754
242.77	1.515
243.14	5.085
243.51	7.143
243.89	8.861
244.26	2.247
244.63	14.737
245.00	-3.158
245.38	5.932
245.75	3.540
246.12	-2.400
246.49	7.874
246.87	-0.813
247.24	6.780
247.61	3.390
247.98	5.634
248.36	6.294
248.73	18.354
249.10	9.554
249.47	14.035
249.84	13.636
250.22	4.167
250.59	13.559
250.96	13.613
251.33	15.166
251.70	7.692
252.08	9.953
252.45	11.848
252.82	15.238
253.19	12.340
253.56	10.484
253.94	13.080
254.31	6.867
254.68	13.821
255.05	13.710
255.42	14.286
255.79	11.828
256.16	17.255
256.54	14.706
256.91	9.848
257.28	12.088
257.65	11.348
258.02	15.409
258.39	12.375
258.76	11.149
259.14	12.346
259.51	17.049
259.88	17.683
260.25	14.596
260.62	10.611
260.99	14.540
261.36	15.549
261.73	15.318
262.10	17.500
262.47	12.536
262.85	18.286
263.22	13.467
263.59	15.385
263.96	11.884
264.33	14.092
264.70	14.088
265.07	18.132
265.44	12.403
265.81	11.628
266.18	13.924
266.55	16.176
266.92	15.617
267.29	17.191
267.66	11.852
268.03	15.217
268.40	15.023
268.77	16.386
269.14	13.457
269.51	15.862
269.88	11.697
270.25	11.189
270.62	15.561
270.99	12.162
271.36	16.317
271.73	15.247
272.10	15.332
272.47	14.222
272.84	16.000
273.21	16.055
273.58	12.308
273.95	14.474
274.32	16.742
274.69	14.880
275.06	15.133
275.43	13.170
275.80	17.719
276.17	14.435
276.54	18.126
276.91	14.609
277.28	15.416
277.65	15.909
278.02	15.449
278.39	14.931
278.76	13.745
279.13	12.648
279.50	12.326
279.87	14.165
280.23	14.980
280.60	15.109
280.97	14.175
281.34	14.313
281.71	13.654
282.08	15.121
282.45	12.831
282.82	15.504
283.19	14.545
283.56	16.484
283.92	13.251
284.29	14.684
284.66	14.209
285.03	13.369
285.40	14.022
285.77	15.614
286.14	14.260
286.51	12.256
286.87	14.519
287.24	13.652
287.61	13.554
287.98	14.038
288.35	14.876
288.72	13.752
289.08	10.678
289.45	14.815
289.82	13.149
290.19	14.778
290.56	13.719
290.93	12.719
291.29	14.263
291.66	13.688
292.03	13.344
292.40	12.952
292.77	14.130
293.13	13.171
293.50	13.670
293.87	11.810
294.24	14.480
294.60	11.212
294.97	13.657
295.34	14.074
295.71	13.244
296.08	10.906
296.44	11.159
296.81	13.818
297.18	10.845
297.55	13.559
297.91	13.389
298.28	10.685
298.65	11.855
299.02	13.369
299.38	12.834
299.75	11.277
300.12	12.949
300.48	10.870
300.85	9.961
301.22	12.031
301.59	10.273
301.95	11.461
302.32	10.039
302.69	11.016
303.05	11.233
303.42	9.625
303.79	10.766
304.15	13.033
304.52	11.202
304.89	12.279
305.25	11.477
305.62	10.341
305.99	12.839
306.35	11.654
306.72	12.415
307.09	11.691
307.45	10.897
307.82	11.061
308.19	11.745
308.55	10.893
308.92	10.741
309.29	12.000
309.65	10.392
310.02	11.231
310.38	10.595
310.75	11.680
311.12	11.260
311.48	12.004
311.85	12.255
312.22	11.123
312.58	12.208
312.95	11.009
313.31	12.488
313.68	11.055
314.05	12.067
314.41	10.362
314.78	9.890
315.14	12.636
315.51	11.753
315.87	11.520
316.24	11.273
316.61	12.380
316.97	11.343
317.34	10.983
317.70	10.668
318.07	10.821
318.43	11.049
318.80	11.455
319.16	10.507
319.53	10.338
319.89	10.442
320.26	11.176
320.62	9.327
320.99	11.741
321.35	9.951
321.72	10.133
322.08	11.276
322.45	10.396
322.81	10.759
323.18	11.143
323.54	11.738
323.91	10.936
324.27	11.597
324.64	11.883
325.00	11.606
325.37	10.679
325.73	13.736
326.10	10.097
326.46	11.909
326.83	12.426
327.19	11.510
327.56	13.118
327.92	11.300
328.29	12.727
328.65	11.091
329.01	12.721
329.38	12.043
329.74	12.912
330.11	12.693
330.47	13.079
330.84	12.466
331.20	12.365
331.56	11.212
331.93	12.522
332.29	12.785
332.66	12.643
333.02	11.855
333.38	11.649
333.75	12.912
334.11	11.200
334.48	12.004
334.84	14.086
335.20	13.298
335.57	12.545
335.93	14.324
336.29	12.312
336.66	10.749
337.02	12.523
337.38	12.121
337.75	11.940
338.11	10.644
338.47	12.456
338.84	12.704
339.20	12.478
339.56	14.171
339.93	12.787
340.29	11.603
340.65	12.238
341.02	11.973
341.38	13.142
341.74	12.024
342.11	12.372
342.47	12.275
342.83	12.175
343.20	12.126
343.56	11.673
343.92	13.272
344.28	12.784
344.65	11.221
345.01	11.345
345.37	12.874
345.73	10.802
346.10	12.020
346.46	11.942
346.82	12.109
347.19	11.257
347.55	12.440
347.91	11.890
348.27	11.774
348.63	11.632
349.00	11.933
349.36	10.851
349.72	14.092
350.08	12.831
350.45	11.899
350.81	11.226
351.17	11.736
351.53	11.535
351.89	12.854
352.26	12.636
352.62	13.057
352.98	12.896
353.34	12.470
353.70	11.892
354.07	12.825
354.43	13.281
354.79	13.154
355.15	11.981
355.51	11.719
355.87	12.490
356.24	12.153
356.60	12.732
356.96	12.548
357.32	11.876
357.68	12.644
358.04	12.163
358.40	12.684
358.77	11.669
359.13	11.553
359.49	12.320
359.85	12.500
360.21	11.948
360.57	12.801
360.93	13.481
361.29	11.958
361.66	11.738
362.02	12.056
362.38	12.252
362.74	12.527
363.10	12.626
363.46	13.390
363.82	12.974
364.18	12.808
364.54	13.295
364.90	12.020
365.26	12.054
365.62	13.828
365.98	13.371
366.35	12.535
366.71	11.769
367.07	13.691
367.43	13.521
367.79	13.540
368.15	12.020
368.51	13.147
368.87	13.255
369.23	13.684
369.59	13.889
369.95	12.896
370.31	13.643
370.67	13.087
371.03	12.828
371.39	12.518
371.75	12.732
372.11	13.845
372.47	12.726
372.83	13.700
373.19	12.714
373.55	13.441
373.91	12.945
374.27	14.168
374.63	13.458
374.99	13.769
375.35	13.728
375.71	14.382
376.07	13.552
376.42	12.781
376.78	13.725
377.14	13.492
377.50	14.120
377.86	13.654
378.22	14.196
378.58	13.403
378.94	13.995
379.30	13.406
379.66	14.208
380.02	13.785
380.38	13.293
380.74	14.361
381.09	14.880
381.45	15.394
381.81	14.035
382.17	14.223
382.53	14.347
382.89	13.636
383.25	14.991
383.61	14.858
383.97	14.452
384.32	14.706
384.68	14.933
385.04	15.217
385.40	14.607
385.76	14.756
386.12	15.428
386.48	15.656
386.83	15.337
387.19	14.525
387.55	15.385
387.91	15.945
388.27	14.174
388.62	14.904
388.98	15.263
389.34	14.933
389.70	15.347
390.06	14.730
390.42	15.641
390.77	15.710
391.13	15.901
391.49	15.596
391.85	15.087
392.20	15.049
392.56	16.005
392.92	15.973
393.28	16.418
393.64	16.176
393.99	16.431
394.35	15.085
394.71	14.947
395.07	15.631
395.42	16.031
395.78	15.085
396.14	16.199
396.50	16.024
396.85	15.052
397.21	15.917
397.57	15.745
397.92	16.218
398.28	15.611
398.64	16.359
399.00	17.135
399.35	15.558
399.71	16.202
400.07	16.179
400.42	15.815
400.78	15.981
401.14	15.868
401.49	15.684
401.85	16.290
402.21	15.137
402.57	16.323
402.92	16.237
403.28	16.422
403.63	16.058
403.99	15.911
404.35	15.882
404.70	15.857
405.06	15.859
405.42	15.806
405.77	16.007
406.13	15.616
406.49	16.357
406.84	16.077
407.20	16.608
407.55	16.403
407.91	15.415
408.27	16.912
408.62	16.837
408.98	16.070
409.34	16.636
409.69	16.635
410.05	15.828
410.40	16.186
410.76	16.538
411.11	15.524
411.47	15.793
411.83	16.259
412.18	16.089
412.54	15.619
412.89	16.768
413.25	15.525
413.60	16.403
413.96	15.219
414.31	16.147
414.67	15.810
415.03	16.559
415.38	16.265
415.74	16.946
416.09	15.409
416.45	15.608
416.80	16.255
417.16	16.080
417.51	16.546
417.87	15.599
418.22	16.877
418.58	16.881
418.93	16.309
419.29	16.311
419.64	16.332
420.00	17.011
420.35	16.085
420.71	16.987
421.06	17.633
421.42	16.159
421.77	17.253
422.12	16.900
422.48	16.836
422.83	16.686
423.19	16.759
423.54	17.579
423.90	16.426
424.25	16.233
424.61	16.466
424.96	16.969
425.31	16.937
425.67	16.734
426.02	16.122
426.38	17.362
426.73	17.066
427.09	16.605
427.44	16.818
427.79	16.337
428.15	17.175
428.50	17.595
428.85	17.146
429.21	16.657
429.56	16.875
429.92	17.385
430.27	17.448
430.62	17.555
430.98	17.094
431.33	17.609
431.68	17.265
432.04	18.019
432.39	17.721
432.74	17.266
433.10	17.107
433.45	17.041
433.80	17.413
434.16	17.571
434.51	17.479
434.86	18.395
435.22	17.428
435.57	17.197
435.92	18.406
436.28	17.389
436.63	17.241
436.98	16.667
437.34	18.547
437.69	17.736
438.04	17.187
438.39	18.051
438.75	17.171
439.10	18.268
439.45	18.105
439.81	17.771
440.16	17.093
440.51	18.412
440.86	17.698
441.22	17.137
441.57	18.158
441.92	18.312
442.27	17.803
442.63	18.079
442.98	16.930
443.33	18.396
443.68	18.030
444.03	17.829
444.39	17.719
444.74	18.007
445.09	17.325
445.44	17.614
445.79	18.460
446.15	18.620
446.50	17.148
446.85	17.394
447.20	17.263
447.55	19.006
447.91	18.304
448.26	17.486
448.61	17.714
448.96	19.216
449.31	17.926
449.66	18.890
450.02	17.895
450.37	17.739
450.72	18.136
451.07	18.228
451.42	17.844
451.77	18.013
452.12	17.938
452.47	19.458
452.83	17.997
453.18	18.406
453.53	18.221
453.88	18.840
454.23	17.715
454.58	18.583
454.93	18.766
455.28	18.164
455.63	18.489
455.98	18.133
456.34	17.726
456.69	18.074
457.04	19.299
457.39	17.883
457.74	17.425
458.09	19.606
458.44	19.342
458.79	17.545
459.14	19.224
459.49	18.532
459.84	18.494
460.19	18.914
460.54	18.875
460.89	18.442
461.24	18.033
461.59	18.171
461.94	18.460
462.29	18.344
462.64	19.104
462.99	19.545
463.34	18.906
463.69	18.257
464.04	17.458
464.39	17.682
464.74	18.499
465.09	18.400
465.44	18.500
465.79	18.387
466.14	19.160
466.49	18.250
466.84	19.268
467.19	18.516
467.54	17.848
467.89	19.174
468.24	18.349
468.59	18.801
468.94	19.100
469.29	18.324
469.64	19.272
469.99	19.851
470.34	19.038
470.68	19.404
471.03	20.647
471.38	17.917
471.73	19.091
472.08	18.942
472.43	19.112
472.78	18.933
473.13	18.887
473.48	18.571
473.83	19.045
474.17	19.554
474.52	19.437
474.87	18.881
475.22	18.112
475.57	18.722
475.92	20.248
476.27	19.143
476.61	18.986
476.96	19.788
477.31	19.752
477.66	18.539
478.01	19.233
478.36	18.596
478.70	19.968
479.05	19.416
479.40	19.585
479.75	19.470
480.10	19.048
480.45	18.520
480.79	19.398
481.14	19.669
481.49	19.361
481.84	19.001
482.19	19.415
482.53	19.318
482.88	19.364
483.23	19.484
483.58	19.334
483.92	20.067
484.27	19.451
484.62	18.920
484.97	18.745
485.31	18.304
485.66	18.157
486.01	17.960
486.36	18.643
486.70	19.104
487.05	18.146
487.40	18.670
487.75	18.585
488.09	18.901
488.44	18.911
488.79	19.349
489.13	18.752
489.48	19.657
489.83	19.825
490.17	19.983
490.52	19.475
490.87	19.400
491.22	19.664
491.56	19.954
491.91	20.134
492.26	19.387
492.60	19.696
492.95	19.705
493.30	20.295
493.64	19.229
493.99	19.359
494.34	19.810
494.68	19.897
495.03	19.790
495.37	19.961
495.72	20.039
496.07	19.991
496.41	19.592
496.76	20.091
497.11	19.407
497.45	19.828
497.80	19.960
498.14	20.236
498.49	19.086
498.84	19.515
499.18	20.760
499.53	20.117
499.87	20.125
500.22	21.127
500.56	20.360
500.91	19.606
501.26	20.184
501.60	19.451
501.95	20.821
502.29	20.217
502.64	20.556
502.98	21.179
503.33	19.878
503.67	19.971
504.02	20.473
504.36	20.441
504.71	20.770
505.06	19.820
505.40	21.158
505.75	20.173
506.09	20.981
506.44	21.203
506.78	20.723
507.13	20.906
507.47	21.492
507.82	21.064
508.16	20.725
508.51	20.299
508.85	21.429
509.19	21.036
509.54	21.195
509.88	20.798
510.23	21.960
510.57	21.164
510.92	21.106
511.26	21.106
511.61	21.436
511.95	21.013
512.30	21.165
512.64	20.757
512.98	22.277
513.33	21.527
513.67	22.334
514.02	21.085
514.36	22.161
514.70	22.354
515.05	22.470
515.39	20.934
515.74	22.920
516.08	22.651
516.42	21.926
516.77	21.895
517.11	22.368
517.46	22.608
517.80	22.142
518.14	21.860
518.49	22.534
518.83	22.315
519.17	23.031
519.52	22.209
519.86	23.238
520.20	23.350
520.55	22.831
520.89	22.480
521.23	22.589
521.58	22.194
521.92	22.863
522.26	22.667
522.61	22.433
522.95	22.208
523.29	23.135
523.64	21.861
523.98	21.770
524.32	22.942
524.66	21.739
525.01	22.800
525.35	23.196
525.69	23.748
526.04	22.389
526.38	23.361
526.72	22.478
527.06	23.047
527.41	23.036
527.75	23.168
528.09	23.428
528.43	23.410
528.78	23.618
529.12	23.496
529.46	23.003
529.80	22.531
530.15	23.439
530.49	22.574
530.83	23.772
531.17	22.357
531.51	23.510
531.86	23.831
532.20	23.549
532.54	23.864
532.88	23.123
533.22	23.529
533.57	22.520
533.91	23.783
534.25	22.376
534.59	21.986
534.93	22.029
535.27	23.726
535.62	24.297
535.96	23.271
536.30	22.579
536.64	22.908
536.98	25.141
537.32	23.359
537.66	23.965
538.01	22.955
538.35	22.905
538.69	22.660
539.03	22.072
539.37	22.555
539.71	23.082
540.05	23.235
540.39	23.476
540.73	23.290
541.07	23.087
541.42	22.620
541.76	21.262
542.10	24.038
542.44	23.584
542.78	22.524
543.12	22.607
543.46	22.466
543.80	21.806
544.14	22.767
544.48	23.228
544.82	22.192
545.16	22.938
545.50	22.948
545.84	22.253
546.18	23.786
546.52	23.044
546.86	23.006
547.20	23.136
547.54	21.350
547.88	22.827
548.22	22.280
548.56	22.846
548.90	22.978
549.24	23.266
549.58	22.865
549.92	22.756
550.26	23.194
550.60	21.835
550.94	23.139
551.28	23.476
551.62	23.191
551.96	24.457
552.30	23.275
552.64	22.942
552.98	23.616
553.32	23.232
553.66	24.297
554.00	23.810
554.34	22.816
554.68	24.196
555.02	22.576
555.36	23.149
555.69	22.851
556.03	23.930
556.37	24.111
556.71	23.765
557.05	22.912
557.39	22.791
557.73	23.341
558.07	23.286
558.41	23.710
558.75	23.118
559.08	22.179
559.42	24.196
559.76	23.926
560.10	23.341
560.44	24.422
560.78	22.895
561.12	22.912
561.45	23.562
561.79	23.206
562.13	22.651
562.47	23.459
562.81	22.348
563.15	24.143
563.48	23.151
563.82	23.124
564.16	23.597
564.50	22.648
564.84	23.611
565.17	22.812
565.51	23.272
565.85	23.259
566.19	23.123
566.52	22.701
566.86	23.009
567.20	22.760
567.54	22.682
567.88	21.999
568.21	22.148
568.55	22.587
568.89	20.924
569.23	21.657
569.56	21.017
569.90	21.951
570.24	21.684
570.57	20.879
570.91	20.469
571.25	21.109
571.59	20.793
571.92	20.238
572.26	20.401
572.60	20.757
572.93	20.471
573.27	20.427
573.61	20.275
573.95	20.303
574.28	20.249
574.62	20.005
574.96	19.915
575.29	20.071
575.63	20.096
575.97	19.444
576.30	20.334
576.64	20.131
576.98	19.632
577.31	20.095
577.65	20.376
577.98	19.784
578.32	19.680
578.66	19.323
578.99	19.919
579.33	19.920
579.67	19.833
580.00	19.618
580.34	19.741
580.67	19.711
581.01	19.059
581.35	19.651
581.68	19.294
582.02	19.625
582.35	19.566
582.69	20.004
583.02	19.739
583.36	19.638
583.70	20.123
584.03	19.881
584.37	19.973
584.70	19.958
585.04	20.430
585.37	19.547
585.71	19.424
586.04	19.934
586.38	19.620
586.72	20.265
587.05	20.306
587.39	19.995
587.72	20.520
588.06	19.807
588.39	19.681
588.73	20.519
589.06	20.364
589.40	21.299
589.73	21.105
590.07	20.503
590.40	20.738
590.73	20.632
591.07	21.311
591.40	21.317
591.74	20.982
592.07	21.396
592.41	20.977
592.74	21.099
593.08	20.941
593.41	20.329
593.75	20.310
594.08	21.028
594.41	20.702
594.75	20.763
595.08	20.602
595.42	20.882
595.75	20.434
596.09	20.993
596.42	21.358
596.75	20.742
597.09	21.817
597.42	21.039
597.75	21.568
598.09	21.283
598.42	21.122
598.76	19.934
599.09	20.639
599.42	20.223
599.76	21.253
600.09	20.725
600.42	20.775
600.76	20.942
601.09	20.775
601.42	20.380
601.76	21.262
602.09	20.777
602.42	20.905
602.76	19.734
603.09	20.363
603.42	20.588
603.76	20.782
604.09	20.144
604.42	20.400
604.76	21.413
605.09	21.022
605.42	21.498
605.75	20.914
606.09	20.631
606.42	19.983
606.75	20.824
607.09	20.997
607.42	20.951
607.75	20.883
608.08	21.012
608.42	21.570
608.75	20.748
609.08	21.189
609.41	21.475
609.75	20.673
610.08	20.882
610.41	21.157
610.74	21.470
611.07	21.400
611.41	20.575
611.74	22.211
612.07	22.771
612.40	20.522
612.73	22.079
613.07	20.914
613.40	22.003
613.73	21.471
614.06	22.186
614.39	22.266
614.72	20.894
615.06	21.196
615.39	20.836
615.72	21.782
616.05	20.099
616.38	21.706
616.71	20.721
617.05	21.713
617.38	23.344
617.71	21.929
618.04	21.491
618.37	21.447
618.70	23.012
619.03	21.666
619.36	22.199
619.69	22.900
620.03	22.314
620.36	22.082
620.69	22.398
621.02	22.146
621.35	22.177
621.68	21.967
622.01	23.220
622.34	22.593
622.67	23.047
623.00	22.571
623.33	22.761
623.66	21.270
623.99	22.857
624.32	22.470
624.65	23.326
624.99	21.957
625.32	22.305
625.65	22.922
625.98	21.909
626.31	23.409
626.64	22.762
626.97	22.432
627.30	22.723
627.63	21.244
627.96	22.628
628.29	23.346
628.62	23.400
628.95	24.016
629.28	23.026
629.61	23.553
629.94	23.819
630.26	25.149
630.59	23.719
630.92	23.924
631.25	24.294
631.58	23.598
631.91	23.723
632.24	24.222
632.57	24.000
632.90	24.253
633.23	24.416
633.56	23.626
633.89	24.528
634.22	24.675
634.55	23.197
634.88	24.788
635.20	23.596
635.53	24.555
635.86	23.678
636.19	23.687
636.52	24.970
636.85	23.345
637.18	22.250
637.51	25.155
637.83	24.501
638.16	23.816
638.49	25.655
638.82	23.938
639.15	25.422
639.48	22.957
639.81	24.066
640.13	24.595
640.46	25.356
640.79	23.950
641.12	23.272
641.45	25.108
641.77	23.802
642.10	25.076
642.43	25.341
642.76	25.039
643.09	24.444
643.41	25.079
643.74	24.960
644.07	25.585
644.40	26.580
644.73	24.092
645.05	24.207
645.38	25.662
645.71	25.430
646.04	27.731
646.36	25.305
646.69	26.298
647.02	26.173
647.35	25.090
647.67	24.270
648.00	27.065
648.33	26.476
648.66	23.387
648.98	25.159
649.31	25.385
649.64	25.313
649.96	24.961
650.29	23.770
650.62	25.818
650.94	24.452
651.27	25.823
651.60	27.682
651.92	24.658
652.25	22.705
652.58	24.702
652.90	24.719
653.23	23.226
653.56	23.913
653.88	25.246
654.21	25.000
654.54	24.086
654.86	26.806
655.19	22.350
655.52	21.466
655.84	19.374
656.17	20.905
656.49	27.774
656.82	28.822
657.15	21.906
657.47	16.120
657.80	12.159
658.13	13.835
658.45	18.899
658.78	18.616
659.10	19.153
659.43	18.983
659.75	19.394
660.08	19.479
660.41	19.211
660.73	20.792
661.06	23.188
661.38	25.714
661.71	25.621
662.03	28.427
662.36	23.241
662.68	23.840
663.01	25.478
663.33	26.077
663.66	27.897
663.98	22.545
664.31	24.832
664.63	25.221
664.96	23.861
665.28	24.295
665.61	23.890
665.93	26.337
666.26	26.113
666.58	25.988
666.91	26.281
667.23	25.658
667.56	23.356
667.88	25.792
668.21	25.576
668.53	24.065
668.86	27.021
669.18	26.027
669.50	26.636
669.83	27.251
670.15	25.561
670.48	24.533
670.80	21.185
671.13	23.702
671.45	23.198
671.77	22.484
672.10	24.655
672.42	24.539
672.75	22.545
673.07	22.162
673.39	24.590
673.72	24.213
674.04	26.115
674.37	22.887
674.69	24.590
675.01	23.404
675.34	21.909
675.66	28.510
675.98	25.771
676.31	26.018
676.63	24.368
676.95	24.336
677.28	22.970
677.60	24.434
677.92	26.211
678.25	24.508
678.57	26.543
678.89	21.174
679.22	24.948
679.54	25.247
679.86	22.600
680.18	25.665
680.51	24.953
680.83	24.190
681.15	24.663
681.48	26.572
681.80	22.379
682.12	22.938
682.44	22.200
682.77	23.160
683.09	25.157
683.41	25.885
683.73	21.689
684.06	23.011
684.38	25.523
684.70	25.309
685.02	21.850
685.34	21.637
685.67	21.591
685.99	19.660
686.31	24.237
686.63	23.050
686.96	23.290
687.28	20.809
687.60	24.023
687.92	18.872
688.24	22.047
688.56	21.844
688.89	22.650
689.21	24.070
689.53	25.517
689.85	23.608
690.17	21.973
690.49	23.326
690.82	23.373
691.14	23.113
691.46	25.055
691.78	24.890
692.10	23.941
692.42	19.556
692.74	23.176
693.06	25.169
693.39	23.490
693.71	21.670
694.03	25.054
694.35	20.090
694.67	22.222
694.99	19.949
695.31	25.000
695.63	24.235
695.95	24.814
696.27	20.948
696.59	22.460
696.91	24.438
697.23	25.260
697.56	22.115
697.88	19.820
698.20	19.914
698.52	20.852
698.84	24.515
699.16	20.714
699.48	20.500
699.80	22.556
700.12	24.433
700.44	18.994
700.76	26.239
701.08	23.837
701.40	21.752
701.72	23.148
702.04	21.154
702.36	26.506
702.68	22.156
703.00	23.478
703.32	20.630
703.64	24.706
703.96	25.872
704.28	23.373
704.60	23.101
704.91	20.317
705.23	21.683
705.55	24.662
705.87	22.867
706.19	23.264
706.51	20.139
706.83	25.246
707.15	24.841
707.47	22.590
707.79	21.649
708.11	18.575
708.43	24.190
708.74	19.740
709.06	20.334
709.38	21.839
709.70	21.250
710.02	22.393
710.34	23.432
710.66	20.952
710.98	19.874
711.29	19.355
711.61	19.489
711.93	21.311
712.25	21.595
712.57	22.997
712.89	23.022
713.20	28.179
713.52	21.269
713.84	22.064
714.16	24.262
714.48	21.587
714.80	21.231
715.11	21.614
715.43	25.000
715.75	24.299
716.07	21.967
716.39	21.405
716.70	24.739
717.02	23.333
717.34	19.847
717.66	25.311
717.97	22.541
718.29	25.630
718.61	20.635
718.93	24.014
719.24	18.015
719.56	16.604
719.88	18.909
720.20	21.723
720.51	22.556
720.83	22.088
721.15	19.262
721.46	22.353
721.78	22.222
722.10	25.200
722.42	19.008
722.73	23.108
723.05	23.293
723.37	25.098
723.68	21.457
724.00	19.919
724.32	22.222
724.63	22.407
724.95	22.314
725.27	21.491
725.58	19.397
725.90	19.841
726.22	19.926
726.53	23.574
726.85	17.255
727.16	19.549
727.48	23.077
727.80	16.393
728.11	17.647
728.43	21.488
728.74	23.047
729.06	23.864
729.38	22.957
729.69	17.717
730.01	20.079
730.32	18.327
730.64	21.978
730.96	21.642
731.27	19.643
731.59	18.650
731.90	21.472
732.22	20.245
732.53	23.179
732.85	21.141
733.16	19.928
733.48	19.512
733.80	15.658
734.11	21.379
734.43	20.408
734.74	20.178
735.06	20.376
735.37	23.547
735.69	20.000
736.00	22.222
736.32	22.848
736.63	15.172
736.95	19.565
737.26	19.536
737.58	20.144
737.89	20.789
738.21	18.797
738.52	19.615
738.83	21.484
739.15	17.949
739.46	20.565
739.78	20.280
740.09	19.231
740.41	16.084
740.72	20.073
741.04	17.063
741.35	15.152
741.66	21.759
741.98	14.762
742.29	16.901
742.61	28.342
742.92	21.495
743.23	14.474
743.55	19.369
743.86	28.889
744.18	21.905
744.49	23.645
744.80	16.244
745.12	22.680
745.43	23.618
745.74	25.243
746.06	18.537
746.37	27.313
746.68	24.378
747.00	18.848
747.31	18.750
747.62	21.198
747.94	23.144
748.25	20.465
748.56	18.095
748.88	20.109
749.19	20.657
749.50	25.980
749.82	22.222
750.13	24.229
750.44	21.545
750.75	18.000
751.07	23.929
751.38	17.343
751.69	14.122
752.01	19.231
752.32	15.564
752.63	16.154
752.94	23.413
753.26	21.304
753.57	20.982
753.88	19.397
754.19	17.427
754.51	21.094
754.82	21.344
755.13	20.988
755.44	19.835
755.75	22.222
756.07	16.867
756.38	17.187
756.69	23.105
757.00	21.603
757.31	20.470
757.63	23.676
757.94	13.295
758.25	19.186
758.56	19.946
758.87	15.341
759.18	16.000
759.50	22.064
759.81	16.058
760.12	15.541
760.43	20.388
760.74	17.812
761.05	20.225
761.36	19.162
761.67	17.160
761.99	19.032
762.30	21.014
762.61	17.736
762.92	23.767
763.23	14.218
763.54	20.444
763.85	21.941
764.16	16.735
764.47	23.305
764.78	19.476
765.10	23.741
765.41	16.452
765.72	19.182
766.03	12.014
766.34	16.165
766.65	19.433
766.96	14.500
767.27	15.104
767.58	18.605
767.89	18.710
768.20	24.540
768.51	19.672
768.82	21.081
769.13	14.500
769.44	16.228
769.75	16.883
770.06	16.972
770.37	14.085
770.68	17.708
770.99	19.307
771.30	14.563
771.61	18.056
771.92	16.017
772.23	16.822
772.54	14.894
772.85	10.651
773.16	21.341
773.47	16.867
773.78	19.780
774.09	19.333
774.39	20.988
774.70	20.134
775.01	14.493
775.32	12.687
775.63	11.570
775.94	16.541
776.25	20.714
776.56	23.770
776.87	20.354
777.18	31.858
777.48	9.091
777.79	9.565
778.10	11.927
778.41	11.864
778.72	12.397
779.03	24.627
779.34	12.782
779.65	20.915
779.95	11.594
780.26	10.884
780.57	8.621
780.88	7.407
781.19	9.091
781.50	8.800
781.80	10.458
782.11	18.590
782.42	12.048
782.73	10.949
783.04	22.973
783.34	10.606
783.65	16.279
783.96	10.569
784.27	12.821
784.57	15.447
784.88	13.008
785.19	20.175
785.50	3.093
785.81	15.238
786.11	11.765
786.42	5.455
786.73	18.018
787.04	25.743
787.34	11.429
787.65	8.571
787.96	14.706
788.26	12.613
788.57	17.742
788.88	7.812
789.19	18.803
789.49	10.084
789.80	14.530
790.11	18.584
790.41	9.091
790.72	13.208
791.03	8.333
791.33	7.895
791.64	15.054
791.95	2.667
792.25	2.857
792.56	23.171
792.87	14.286
793.17	2.632
793.48	-5.405
793.79	-1.408
794.09	11.392
794.40	17.021
794.70	13.084
795.01	4.386
795.32	-6.364
795.62	1.786
795.93	6.186
796.23	3.297
796.54	14.737
796.85	10.959
797.15	-6.944
797.46	-1.370
797.76	16.901
798.07	15.000
798.37	7.353
798.68	2.857
798.99	14.286
799.29	7.895
799.60	3.333
799.90	-1.389
800.21	25.000
800.51	15.873
800.82	-9.836
801.12	-5.263
801.43	-2.817
801.73	-5.085
802.04	6.557
802.34	14.545
802.65	-3.846
802.95	5.556
803.26	-10.000
803.56	-13.462
803.87	-13.158
804.17	20.968
804.48	12.308
804.78	-17.949
805.09	11.628
805.39	-46.875
805.70	-16.981
806.00	31.579
806.30	16.216
806.61	7.353
806.91	9.877
807.22	-8.000
807.52	4.478
807.83	0.000
808.13	17.460
808.43	-1.818
808.74	6.061
809.04	-7.547
809.35	4.110
809.65	10.526
809.95	5.882
810.26	9.804
810.56	-16.000
810.86	12.245
811.17	-2.857
811.47	15.385
811.77	-29.032
812.08	-52.632
812.38	9.524
812.69	-36.957
812.99	3.226
813.29	-23.810
813.59	-62.963
813.90	8.511
814.20	-39.535
814.50	10.417
814.81	18.333
815.11	2.439
815.41	-40.000
815.72	-2.857
816.02	-25.000
816.32	-2.564
816.62	-18.919
816.93	-20.588
817.23	-15.217
817.53	-38.235
817.84	-11.765
818.14	-25.000
818.44	-31.034
818.74	-70.968
819.04	-14.815
819.35	0.000
819.65	-60.000
819.95	13.333
820.25	-36.000
820.56	-10.526
820.86	-37.500
821.16	17.021
821.46	13.793
821.76	-17.949
822.07	-30.000
822.37	-11.628
822.67	-33.333
822.97	-5.405
823.27	10.811
823.57	16.000
823.88	-37.838
824.18	-38.095
824.48	-15.385
824.78	-184.615
825.08	-34.783
825.38	20.833
825.69	-20.833
825.99	-80.000
826.29	-45.946
826.59	2.941
826.89	-20.000
827.19	8.571
827.49	-5.263
827.79	-43.750
828.09	-46.667
828.39	-30.435
828.70	-58.621
829.00	-13.793
829.30	-8.333
829.60	-12.500
829.90	0.000
830.20	-50.000
830.50	-95.238
830.80	-10.714
831.10	-5.128
831.40	-104.762
831.70	0.000
832.00	-8.333
832.30	-26.316
832.60	-18.750
832.90	-58.333
833.20	-70.588
833.50	-140.000
833.80	-26.667
834.10	-40.000
834.40	-29.167
834.70	-55.556
835.00	15.385
835.30	-20.833
835.60	-10.345
835.90	-27.778
836.20	-154.545
836.50	-50.000
836.80	-34.286
837.10	20.000
837.40	-76.471
837.70	-18.182
838.00	-25.000
838.30	-62.500
838.60	4.762
838.90	-5.000
839.19	-82.609
839.49	21.739
839.79	-61.111
840.09	-43.478
840.39	-95.455
840.69	-81.250
840.99	-15.789
841.29	-81.250
841.59	-85.714
841.88	-66.667
842.18	-37.500
842.48	-94.118
842.78	-13.793
843.08	-42.857
843.38	-23.077
843.68	-166.667
843.97	-115.385
844.27	-72.727
844.57	-220.000
844.87	0.000
845.17	-400.000
845.47	-114.286
845.76	-133.333
846.06	0.000
846.36	-450.000
846.66	-150.000
846.96	-10.526
847.25	-33.333
847.55	-100.000
847.85	-20.000
848.15	-160.000
848.44	-15.385
848.74	-10.526
849.04	666.667
849.34	-66.667
849.63	-57.895
849.93	0.000
850.23	-95.000
850.53	-57.143
850.82	0.000
851.12	-78.947
851.42	-450.000
851.71	-142.857
852.01	-116.667
852.31	-70.588
852.61	-60.000
852.90	-57.143
853.20	-266.667
853.50	-55.556
853.79	-63.158
854.09	-80.000
854.39	-39.286
854.68	-43.478
854.98	-175.000
855.28	20.690
855.57	-25.000
855.87	-50.000
856.17	-106.667
856.46	-27.586
856.76	-40.000
857.05	-70.588
857.35	-138.462
857.65	45.455
857.94	-14.815
858.24	-64.286
858.53	-57.143
858.83	-41.667
859.13	-211.111
859.42	0.000
859.72	-137.500
860.01	-533.333
860.31	-50.000
860.60	-520.000
860.90	-122.222
861.20	-200.000
861.49	-228.571
861.79	-17.647
862.08	-700.000
862.38	-116.667
862.67	-69.231
862.97	0.000
863.26	-10.000
863.56	-41.176
863.85	600.000
864.15	-160.000
864.44	-61.538
864.74	-25.000
865.03	-225.000
865.33	-300.000
865.62	-70.588
865.92	-675.000
866.21	-178.571
866.51	-141.667
866.80	-900.000
867.10	-400.000
867.39	35.294
867.69	13.043
867.98	-85.714
868.27	-400.000
868.57	-106.250
868.86	-181.818
869.16	-11.765
869.45	-166.667
869.75	-128.571
870.04	1200.000
870.33	-150.000
870.63	-140.000
870.92	-55.556
871.22	-125.000
871.51	-90.909
871.80	-125.000
872.10	-210.000
>>>>>End Processed Spectral Data<<<<<
