SpectraSuite Data File
++++++++++++++++++++++++++++++++++++
Date: Sat May 16 11:47:50 PDT 2015
User: schluterlab
Dark Spectrum Present: Yes
Reference Spectrum Present: Yes
Number of Sampled Component Spectra: 1
Spectrometers: USB2E3373
Integration Time (usec): 3000 (USB2E3373)
Spectra Averaged: 3 (USB2E3373)
Boxcar Smoothing: 0 (USB2E3373)
Correct for Electrical Dark: No (USB2E3373)
Strobe/Lamp Enabled: No (USB2E3373)
Correct for Detector Non-linearity: No (USB2E3373)
Correct for Stray Light: No (USB2E3373)
Number of Pixels in Processed Spectrum: 2048
>>>>>Begin Processed Spectral Data<<<<<
178.53	0.000
178.91	100.000
179.29	766.667
179.67	-1800.000
180.04	-84.615
180.42	1100.000
180.80	300.000
181.18	350.000
181.56	-187.500
181.94	1400.000
182.31	475.000
182.69	-23.077
183.07	-700.000
183.45	1800.000
183.83	300.000
184.20	-42.857
184.58	-125.000
184.96	-150.000
185.34	156.250
185.72	-425.000
186.09	100.000
186.47	-137.500
186.85	-150.000
187.23	-25.000
187.61	-425.000
187.98	-250.000
188.36	-87.500
188.74	-162.500
189.12	1400.000
189.49	371.429
189.87	-33.333
190.25	300.000
190.63	-21.429
191.00	-266.667
191.38	260.000
191.76	0.000
192.14	540.000
192.51	-340.000
192.89	-266.667
193.27	0.000
193.65	-55.556
194.02	-300.000
194.40	700.000
194.78	-180.000
195.15	-900.000
195.53	-90.909
195.91	-366.667
196.29	340.000
196.66	-633.333
197.04	1900.000
197.42	-200.000
197.79	-33.333
198.17	-433.333
198.55	-550.000
198.92	-1400.000
199.30	162.500
199.68	-50.000
200.05	-188.889
200.43	-77.778
200.81	-1400.000
201.18	-108.333
201.56	257.143
201.94	-53.333
202.31	27.273
202.69	10.000
203.07	-20.000
203.44	433.333
203.82	-83.333
204.19	-525.000
204.57	-300.000
204.95	-900.000
205.32	-37.500
205.70	1700.000
206.08	-1200.000
206.45	22.222
206.83	-750.000
207.20	550.000
207.58	-366.667
207.96	-566.667
208.33	-75.000
208.71	-122.222
209.08	280.000
209.46	-128.571
209.84	850.000
210.21	0.000
210.59	10.000
210.96	1000.000
211.34	116.667
211.71	-433.333
212.09	325.000
212.46	1100.000
212.84	-2100.000
213.22	400.000
213.59	141.667
213.97	0.000
214.34	130.000
214.72	-100.000
215.09	-400.000
215.47	0.000
215.84	-220.000
216.22	0.000
216.59	-13.333
216.97	-200.000
217.34	1100.000
217.72	-57.143
218.09	-50.000
218.47	-42.857
218.84	271.429
219.22	-57.143
219.59	0.000
219.97	85.714
220.34	175.000
220.72	187.500
221.09	-61.538
221.47	0.000
221.84	166.667
222.22	-700.000
222.59	900.000
222.97	-175.000
223.34	-600.000
223.72	-233.333
224.09	-57.143
224.46	-225.000
224.84	-7.143
225.21	-171.429
225.59	-18.182
225.96	-200.000
226.34	85.714
226.71	-188.889
227.08	10.000
227.46	1900.000
227.83	-128.571
228.21	-225.000
228.58	250.000
228.95	43.750
229.33	-2200.000
229.70	-200.000
230.08	-650.000
230.45	-41.667
230.82	-116.667
231.20	-1800.000
231.57	-750.000
231.95	600.000
232.32	-4.762
232.69	-66.667
233.07	-71.429
233.44	-650.000
233.81	-86.667
234.19	-33.333
234.56	-75.000
234.93	28.125
235.31	-185.714
235.68	-100.000
236.05	-41.176
236.43	-72.727
236.80	-12.903
237.17	-12.500
237.55	-14.286
237.92	-13.636
238.29	-2.857
238.67	61.765
239.04	-5.556
239.41	19.355
239.79	-25.641
240.16	-2.381
240.53	0.000
240.91	23.077
241.28	16.364
241.65	12.308
242.02	27.869
242.40	21.311
242.77	28.788
243.14	11.864
243.51	25.714
243.89	16.456
244.26	17.978
244.63	35.789
245.00	34.737
245.38	26.271
245.75	20.354
246.12	23.200
246.49	17.323
246.87	26.016
247.24	33.051
247.61	26.271
247.98	35.211
248.36	28.671
248.73	28.481
249.10	17.834
249.47	33.333
249.84	27.841
250.22	19.643
250.59	28.249
250.96	30.366
251.33	38.863
251.70	26.923
252.08	27.962
252.45	26.066
252.82	30.476
253.19	26.809
253.56	30.242
253.94	27.426
254.31	32.618
254.68	34.959
255.05	26.210
255.42	31.349
255.79	24.731
256.16	32.941
256.54	29.412
256.91	31.818
257.28	28.938
257.65	30.851
258.02	34.277
258.39	32.441
258.76	23.649
259.14	26.235
259.51	32.459
259.88	29.268
260.25	34.472
260.62	30.225
260.99	29.080
261.36	29.573
261.73	32.948
262.10	31.667
262.47	31.624
262.85	29.714
263.22	30.659
263.59	27.385
263.96	29.855
264.33	28.726
264.70	29.834
265.07	32.967
265.44	29.716
265.81	29.974
266.18	28.608
266.55	29.902
266.92	31.486
267.29	31.477
267.66	30.370
268.03	32.609
268.40	28.404
268.77	32.530
269.14	29.466
269.51	28.966
269.88	26.147
270.25	28.671
270.62	31.121
270.99	31.081
271.36	30.769
271.73	29.148
272.10	34.096
272.47	29.556
272.84	30.667
273.21	29.358
273.58	28.791
273.95	29.605
274.32	29.864
274.69	32.385
275.06	30.061
275.43	26.786
275.80	30.957
276.17	31.799
276.54	30.957
276.91	29.835
277.28	30.832
277.65	28.099
278.02	29.019
278.39	30.845
278.76	30.677
279.13	29.249
279.50	29.423
279.87	31.290
280.23	27.935
280.60	29.225
280.97	28.932
281.34	29.014
281.71	29.231
282.08	31.855
282.45	31.365
282.82	31.977
283.19	27.636
283.56	30.952
283.92	30.919
284.29	28.439
284.66	29.137
285.03	31.551
285.40	29.336
285.77	28.947
286.14	29.964
286.51	29.485
286.87	29.764
287.24	28.840
287.61	27.273
287.98	29.636
288.35	27.769
288.72	29.202
289.08	28.305
289.45	30.303
289.82	28.028
290.19	28.079
290.56	27.107
290.93	27.981
291.29	29.335
291.66	27.375
292.03	28.100
292.40	28.012
292.77	26.398
293.13	27.642
293.50	27.935
293.87	28.374
294.24	25.339
294.60	26.212
294.97	26.859
295.34	27.259
295.71	28.869
296.08	23.656
296.44	26.180
296.81	25.926
297.18	25.352
297.55	26.412
297.91	26.639
298.28	26.027
298.65	23.710
299.02	27.674
299.38	25.134
299.75	25.136
300.12	26.154
300.48	26.215
300.85	25.033
301.22	25.226
301.59	26.398
301.95	26.826
302.32	23.990
302.69	25.092
303.05	24.664
303.42	25.000
303.79	26.196
304.15	24.171
304.52	24.504
304.89	26.092
305.25	24.176
305.62	22.327
305.99	26.031
306.35	25.194
306.72	25.171
307.09	25.880
307.45	25.312
307.82	24.246
308.19	24.832
308.55	25.381
308.92	25.242
309.29	25.838
309.65	25.345
310.02	25.054
310.38	25.297
310.75	26.742
311.12	26.136
311.48	26.305
311.85	26.056
312.22	26.365
312.58	26.958
312.95	24.873
313.31	28.372
313.68	28.543
314.05	28.388
314.41	25.956
314.78	26.074
315.14	27.739
315.51	27.356
315.87	27.686
316.24	27.794
316.61	29.367
316.97	29.453
317.34	28.998
317.70	28.942
318.07	29.198
318.43	29.213
318.80	31.174
319.16	29.831
319.53	28.383
319.89	29.257
320.26	31.078
320.62	31.058
320.99	30.448
321.35	29.557
321.72	31.423
322.08	31.454
322.45	31.980
322.81	31.412
323.18	32.469
323.54	32.440
323.91	32.067
324.27	34.411
324.64	32.998
325.00	32.199
325.37	35.294
325.73	36.133
326.10	34.455
326.46	36.865
326.83	36.681
327.19	38.866
327.56	38.075
327.92	37.213
328.29	38.615
328.65	38.182
329.01	41.519
329.38	38.983
329.74	42.033
330.11	41.432
330.47	40.690
330.84	42.621
331.20	42.599
331.56	41.203
331.93	42.540
332.29	43.927
332.66	43.284
333.02	45.701
333.38	45.072
333.75	44.256
334.11	45.067
334.48	44.131
334.84	45.057
335.20	46.365
335.57	47.292
335.93	48.612
336.29	46.678
336.66	45.727
337.02	47.928
337.38	47.504
337.75	48.025
338.11	47.764
338.47	49.911
338.84	49.002
339.20	49.121
339.56	50.000
339.93	49.912
340.29	48.096
340.65	49.301
341.02	49.578
341.38	47.178
341.74	49.280
342.11	47.782
342.47	49.185
342.83	48.950
343.20	48.933
343.56	47.510
343.92	48.497
344.28	50.463
344.65	47.360
345.01	50.420
345.37	49.751
345.73	46.972
346.10	47.751
346.46	48.091
346.82	49.238
347.19	50.370
347.55	49.358
347.91	48.504
348.27	48.369
348.63	50.404
349.00	48.926
349.36	46.604
349.72	49.761
350.08	51.644
350.45	49.251
350.81	51.035
351.17	49.357
351.53	50.597
351.89	48.504
352.26	48.682
352.62	49.923
352.98	49.921
353.34	49.960
353.70	47.954
354.07	50.590
354.43	49.012
354.79	49.604
355.15	50.080
355.51	50.391
355.87	49.723
356.24	48.848
356.60	51.652
356.96	51.116
357.32	49.089
357.68	50.268
358.04	49.500
358.40	50.967
358.77	50.077
359.13	49.962
359.49	50.491
359.85	51.143
360.21	50.304
360.57	51.280
360.93	50.222
361.29	50.822
361.66	51.448
362.02	50.888
362.38	49.596
362.74	51.209
363.10	50.717
363.46	51.852
363.82	51.895
364.18	51.881
364.54	52.180
364.90	51.363
365.26	51.498
365.62	54.455
365.98	52.916
366.35	52.535
366.71	52.079
367.07	53.070
367.43	52.780
367.79	51.478
368.15	51.778
368.51	51.538
368.87	52.404
369.23	51.368
369.59	51.597
369.95	52.008
370.31	53.165
370.67	51.988
371.03	52.988
371.39	52.758
371.75	53.219
372.11	54.089
372.47	53.290
372.83	54.242
373.19	53.357
373.55	54.328
373.91	54.623
374.27	52.977
374.63	53.347
374.99	55.424
375.35	53.701
375.71	53.815
376.07	55.236
376.42	53.907
376.78	53.856
377.14	56.271
377.50	54.932
377.86	54.616
378.22	55.088
378.58	54.355
378.94	55.610
379.30	55.332
379.66	54.281
380.02	54.902
380.38	57.039
380.74	55.627
381.09	54.716
381.45	55.609
381.81	56.382
382.17	55.263
382.53	54.833
382.89	55.024
383.25	56.773
383.61	55.896
383.97	56.644
384.32	54.443
384.68	57.013
385.04	55.435
385.40	57.030
385.76	56.585
386.12	57.277
386.48	58.292
386.83	56.933
387.19	56.426
387.55	57.420
387.91	57.261
388.27	56.936
388.62	57.031
388.98	57.238
389.34	56.977
389.70	57.430
390.06	57.178
390.42	57.436
390.77	58.044
391.13	57.578
391.49	58.827
391.85	57.107
392.20	56.007
392.56	56.872
392.92	57.387
393.28	58.037
393.64	58.208
393.99	57.908
394.35	58.394
394.71	57.072
395.07	59.510
395.42	56.675
395.78	57.134
396.14	58.879
396.50	57.431
396.85	58.112
397.21	56.744
397.57	58.298
397.92	57.494
398.28	58.778
398.64	58.834
399.00	58.315
399.35	57.610
399.71	59.059
400.07	57.910
400.42	57.664
400.78	57.066
401.14	57.904
401.49	57.134
401.85	58.694
402.21	57.509
402.57	56.917
402.92	58.402
403.28	57.904
403.63	56.561
403.99	57.178
404.35	56.461
404.70	55.939
405.06	56.978
405.42	55.658
405.77	56.052
406.13	57.240
406.49	56.261
406.84	55.849
407.20	57.715
407.55	59.405
407.91	54.922
408.27	56.924
408.62	55.562
408.98	56.095
409.34	57.465
409.69	56.270
410.05	55.973
410.40	56.898
410.76	56.194
411.11	56.172
411.47	55.243
411.83	57.518
412.18	57.611
412.54	56.864
412.89	56.683
413.25	55.667
413.60	56.440
413.96	55.453
414.31	56.391
414.67	56.190
415.03	56.016
415.38	57.254
415.74	57.281
416.09	55.882
416.45	56.878
416.80	57.477
417.16	55.349
417.51	58.043
417.87	57.282
418.22	57.269
418.58	56.611
418.93	58.553
419.29	58.344
419.64	57.286
420.00	58.566
420.35	58.368
420.71	58.523
421.06	58.284
421.42	57.553
421.77	58.850
422.12	59.037
422.48	58.739
422.83	58.599
423.19	58.630
423.54	59.078
423.90	59.283
424.25	59.785
424.61	61.641
424.96	61.791
425.31	61.096
425.67	61.261
426.02	59.667
426.38	60.617
426.73	62.127
427.09	61.029
427.44	61.364
427.79	61.686
428.15	61.999
428.50	62.522
428.85	62.710
429.21	62.977
429.56	63.073
429.92	62.275
430.27	62.762
430.62	62.696
430.98	62.624
431.33	63.981
431.68	64.558
432.04	63.682
432.39	65.413
432.74	64.568
433.10	64.603
433.45	64.249
433.80	65.454
434.16	65.449
434.51	67.178
434.86	66.081
435.22	65.089
435.57	65.912
435.92	66.002
436.28	66.706
436.63	65.856
436.98	64.719
437.34	65.032
437.69	65.928
438.04	67.328
438.39	66.606
438.75	66.997
439.10	67.463
439.45	66.144
439.81	68.554
440.16	67.973
440.51	69.059
440.86	68.248
441.22	67.717
441.57	68.316
441.92	69.258
442.27	67.532
442.63	69.313
442.98	68.567
443.33	70.456
443.68	68.890
444.03	70.088
444.39	68.918
444.74	70.485
445.09	70.450
445.44	70.231
445.79	70.780
446.15	69.934
446.50	68.753
446.85	68.856
447.20	69.408
447.55	71.326
447.91	72.375
448.26	69.274
448.61	70.119
448.96	71.821
449.31	70.237
449.66	71.036
450.02	70.970
450.37	71.188
450.72	71.412
451.07	72.784
451.42	71.685
451.77	71.993
452.12	71.454
452.47	72.418
452.83	72.394
453.18	73.751
453.53	71.766
453.88	72.847
454.23	71.282
454.58	74.021
454.93	72.418
455.28	74.888
455.63	73.096
455.98	75.241
456.34	72.363
456.69	74.234
457.04	72.157
457.39	72.907
457.74	74.601
458.09	73.260
458.44	73.614
458.79	73.599
459.14	74.273
459.49	74.541
459.84	73.749
460.19	74.045
460.54	75.076
460.89	73.655
461.24	72.860
461.59	74.502
461.94	74.666
462.29	73.794
462.64	75.560
462.99	76.372
463.34	73.531
463.69	75.318
464.04	73.052
464.39	75.090
464.74	73.582
465.09	73.662
465.44	75.183
465.79	75.747
466.14	76.122
466.49	77.432
466.84	76.351
467.19	74.875
467.54	75.253
467.89	75.092
468.24	75.356
468.59	75.765
468.94	77.621
469.29	76.218
469.64	76.887
469.99	76.840
470.34	77.555
470.68	77.326
471.03	77.013
471.38	76.875
471.73	77.902
472.08	77.309
472.43	77.799
472.78	75.467
473.13	78.330
473.48	77.537
473.83	76.923
474.17	77.389
474.52	78.261
474.87	76.748
475.22	76.401
475.57	77.611
475.92	77.322
476.27	77.200
476.61	76.958
476.96	77.697
477.31	77.503
477.66	77.200
478.01	77.742
478.36	77.108
478.70	79.285
479.05	79.448
479.40	78.290
479.75	77.217
480.10	78.819
480.45	76.451
480.79	78.875
481.14	79.227
481.49	80.010
481.84	78.918
482.19	79.306
482.53	79.261
482.88	77.646
483.23	76.714
483.58	77.706
483.92	77.735
484.27	77.625
484.62	78.704
484.97	76.773
485.31	75.936
485.66	74.989
486.01	75.239
486.36	76.549
486.70	78.389
487.05	77.183
487.40	78.178
487.75	76.811
488.09	76.467
488.44	77.334
488.79	76.724
489.13	77.938
489.48	79.649
489.83	78.996
490.17	78.015
490.52	80.072
490.87	79.400
491.22	79.402
491.56	79.676
491.91	80.582
492.26	78.915
492.60	79.543
492.95	79.486
493.30	78.799
493.64	79.690
493.99	79.685
494.34	79.810
494.68	80.805
495.03	80.115
495.37	81.121
495.72	81.434
496.07	80.573
496.41	81.473
496.76	80.320
497.11	81.441
497.45	82.519
497.80	80.890
498.14	81.336
498.49	81.215
498.84	80.243
499.18	81.287
499.53	81.101
499.87	81.564
500.22	83.529
500.56	82.691
500.91	81.675
501.26	82.630
501.60	80.741
501.95	82.560
502.29	80.633
502.64	81.518
502.98	81.025
503.33	80.498
503.67	82.040
504.02	81.072
504.36	80.882
504.71	82.573
505.06	81.378
505.40	81.287
505.75	81.707
506.09	82.356
506.44	82.055
506.78	82.338
507.13	82.080
507.47	82.942
507.82	81.724
508.16	82.539
508.51	82.123
508.85	84.472
509.19	83.673
509.54	83.404
509.88	83.085
510.23	83.438
510.57	83.757
510.92	84.372
511.26	83.466
511.61	84.881
511.95	83.028
512.30	85.871
512.64	84.196
512.98	83.773
513.33	83.031
513.67	83.920
514.02	82.998
514.36	83.047
514.70	84.437
515.05	83.762
515.39	83.795
515.74	84.759
516.08	84.035
516.42	83.513
516.77	86.251
517.11	84.268
517.46	86.782
517.80	85.800
518.14	86.232
518.49	84.758
518.83	84.036
519.17	83.422
519.52	83.921
519.86	86.798
520.20	86.064
520.55	86.585
520.89	86.099
521.23	84.860
521.58	85.329
521.92	85.940
522.26	85.016
522.61	85.425
522.95	86.599
523.29	86.897
523.64	83.698
523.98	86.060
524.32	84.601
524.66	83.665
525.01	85.292
525.35	87.500
525.69	85.751
526.04	87.337
526.38	86.060
526.72	85.121
527.06	86.068
527.41	85.281
527.75	86.139
528.09	85.705
528.43	86.098
528.78	85.113
529.12	85.403
529.46	86.147
529.80	87.347
530.15	84.804
530.49	86.611
530.83	85.462
531.17	85.320
531.51	85.733
531.86	85.714
532.20	85.020
532.54	86.096
532.88	85.046
533.22	86.096
533.57	85.574
533.91	84.082
534.25	83.972
534.59	82.011
534.93	82.950
535.27	83.826
535.62	84.655
535.96	83.516
536.30	84.817
536.64	85.392
536.98	84.605
537.32	84.934
537.66	83.910
538.01	85.292
538.35	83.784
538.69	83.757
539.03	84.022
539.37	84.365
539.71	83.189
540.05	85.195
540.39	84.003
540.73	85.833
541.07	86.817
541.42	84.875
541.76	82.193
542.10	82.714
542.44	83.145
542.78	83.718
543.12	84.250
543.46	83.014
543.80	84.281
544.14	83.949
544.48	83.399
544.82	84.980
545.16	84.306
545.50	82.907
545.84	83.519
546.18	83.356
546.52	84.282
546.86	83.333
547.20	84.318
547.54	82.713
547.88	82.880
548.22	81.651
548.56	85.104
548.90	83.086
549.24	84.933
549.58	84.898
549.92	83.110
550.26	83.887
550.60	81.437
550.94	85.255
551.28	84.048
551.62	84.564
551.96	83.430
552.30	85.017
552.64	84.166
552.98	85.704
553.32	85.281
553.66	85.436
554.00	84.364
554.34	82.094
554.68	85.307
555.02	84.588
555.36	82.890
555.69	82.521
556.03	84.421
556.37	84.780
556.71	84.324
557.05	85.440
557.39	85.152
557.73	85.558
558.07	86.737
558.41	85.939
558.75	83.802
559.08	85.370
559.42	84.686
559.76	84.663
560.10	85.831
560.44	83.887
560.78	84.342
561.12	83.575
561.45	84.726
561.79	84.390
562.13	84.362
562.47	83.894
562.81	83.663
563.15	84.395
563.48	83.207
563.82	83.097
564.16	84.584
564.50	84.409
564.84	81.812
565.17	82.626
565.51	82.920
565.85	84.381
566.19	85.310
566.52	83.757
566.86	83.439
567.20	83.111
567.54	83.934
567.88	81.407
568.21	81.544
568.55	81.389
568.89	80.517
569.23	79.917
569.56	77.974
569.90	80.370
570.24	79.406
570.57	77.856
570.91	77.593
571.25	77.173
571.59	78.052
571.92	76.786
572.26	76.932
572.60	77.102
572.93	76.556
573.27	75.976
573.61	75.394
573.95	75.812
574.28	75.531
574.62	77.021
574.96	75.523
575.29	75.279
575.63	75.179
575.97	74.191
576.30	74.979
576.64	74.961
576.98	73.874
577.31	74.756
577.65	75.151
577.98	75.067
578.32	75.121
578.66	75.636
578.99	74.039
579.33	75.006
579.67	75.197
580.00	75.174
580.34	74.878
580.67	74.553
581.01	73.697
581.35	75.721
581.68	74.141
582.02	74.316
582.35	74.504
582.69	75.911
583.02	75.442
583.36	74.905
583.70	75.474
584.03	75.754
584.37	75.047
584.70	74.914
585.04	75.443
585.37	74.678
585.71	75.036
586.04	75.405
586.38	74.846
586.72	74.746
587.05	76.579
587.39	74.816
587.72	75.843
588.06	76.369
588.39	76.673
588.73	75.679
589.06	76.950
589.40	77.946
589.73	76.487
590.07	76.475
590.40	75.572
590.73	78.009
591.07	76.516
591.40	78.380
591.74	77.541
592.07	78.063
592.41	78.556
592.74	77.517
593.08	76.656
593.41	76.842
593.75	75.239
594.08	78.900
594.41	78.152
594.75	76.519
595.08	78.008
595.42	76.301
595.75	77.766
596.09	77.804
596.42	77.741
596.75	78.611
597.09	77.916
597.42	76.779
597.75	78.211
598.09	78.671
598.42	77.729
598.76	76.744
599.09	76.717
599.42	77.316
599.76	76.633
600.09	77.252
600.42	77.516
600.76	77.815
601.09	76.795
601.42	77.721
601.76	76.480
602.09	76.973
602.42	77.202
602.76	76.651
603.09	76.976
603.42	76.994
603.76	78.261
604.09	77.413
604.42	76.187
604.76	76.799
605.09	76.944
605.42	76.906
605.75	77.016
606.09	77.293
606.42	76.833
606.75	76.385
607.09	78.694
607.42	76.981
607.75	77.483
608.08	78.220
608.42	77.862
608.75	76.916
609.08	77.448
609.41	78.874
609.75	75.719
610.08	78.971
610.41	78.120
610.74	77.756
611.07	77.485
611.41	76.046
611.74	77.018
612.07	80.505
612.40	77.932
612.73	78.460
613.07	77.325
613.40	79.091
613.73	78.474
614.06	77.320
614.39	79.538
614.72	77.989
615.06	77.011
615.39	76.831
615.72	78.599
616.05	76.974
616.38	78.700
616.71	78.198
617.05	79.071
617.38	79.257
617.71	78.808
618.04	79.565
618.37	77.862
618.70	81.226
619.03	79.553
619.36	80.550
619.69	80.330
620.03	78.994
620.36	80.731
620.69	80.258
621.02	81.126
621.35	80.645
621.68	81.803
622.01	83.010
622.34	78.727
622.67	81.953
623.00	81.331
623.33	80.149
623.66	79.690
623.99	80.752
624.32	79.167
624.65	79.838
624.99	81.628
625.32	80.689
625.65	80.886
625.98	80.047
626.31	81.321
626.64	81.255
626.97	82.449
627.30	82.468
627.63	82.729
627.96	81.723
628.29	84.375
628.62	82.235
628.95	83.366
629.28	80.733
629.61	82.826
629.94	81.947
630.26	86.779
630.59	85.025
630.92	83.784
631.25	82.460
631.58	83.492
631.91	83.723
632.24	87.444
632.57	85.000
632.90	85.862
633.23	86.332
633.56	83.743
633.89	86.557
634.22	84.416
634.55	86.298
634.88	82.225
635.20	86.642
635.53	86.514
635.86	86.776
636.19	84.127
636.52	83.871
636.85	84.477
637.18	87.625
637.51	85.874
637.83	86.818
638.16	86.579
638.49	89.655
638.82	86.873
639.15	83.787
639.48	85.992
639.81	86.584
640.13	87.027
640.46	87.179
640.79	83.473
641.12	85.896
641.45	87.518
641.77	88.024
642.10	86.556
642.43	88.012
642.76	88.504
643.09	91.270
643.41	89.683
643.74	89.507
644.07	88.924
644.40	89.627
644.73	88.284
645.05	86.311
645.38	86.755
645.71	91.065
646.04	88.571
646.36	91.798
646.69	87.543
647.02	90.794
647.35	92.238
647.67	90.876
648.00	87.873
648.33	89.882
648.66	84.839
648.98	88.376
649.31	86.308
649.64	85.625
649.96	85.871
650.29	85.902
650.62	89.673
650.94	86.847
651.27	85.615
651.60	88.408
651.92	88.699
652.25	86.477
652.58	89.608
652.90	86.196
653.23	87.581
653.56	87.291
653.88	86.066
654.21	87.919
654.54	92.691
654.86	85.875
655.19	83.668
655.52	79.365
655.84	73.506
656.17	78.230
656.49	100.000
656.82	100.000
657.15	88.803
657.47	60.945
657.80	47.162
658.13	53.606
658.45	71.105
658.78	70.948
659.10	70.087
659.43	69.228
659.75	70.810
660.08	70.417
660.41	70.416
660.73	76.678
661.06	80.145
661.38	86.607
661.71	87.380
662.03	89.516
662.36	91.258
662.68	85.654
663.01	89.384
663.33	95.692
663.66	88.412
663.98	88.393
664.31	90.157
664.63	92.257
664.96	88.286
665.28	90.239
665.61	89.429
665.93	89.918
666.26	88.259
666.58	87.110
666.91	90.869
667.23	87.281
667.56	88.435
667.88	94.796
668.21	90.092
668.53	91.589
668.86	90.069
669.18	90.411
669.50	88.318
669.83	91.971
670.15	89.686
670.48	91.355
670.80	87.016
671.13	86.230
671.45	88.964
671.77	88.223
672.10	87.377
672.42	82.288
672.75	86.000
673.07	81.622
673.39	85.246
673.72	85.039
674.04	92.781
674.37	84.742
674.69	87.705
675.01	86.170
675.34	86.334
675.66	87.041
675.98	85.903
676.31	86.652
676.63	93.103
676.95	85.619
677.28	85.847
677.60	87.330
677.92	87.885
678.25	85.996
678.57	87.037
678.89	84.906
679.22	84.696
679.54	87.377
679.86	85.200
680.18	86.692
680.51	84.544
680.83	80.571
681.15	82.852
681.48	85.801
681.80	84.879
682.12	87.324
682.44	85.658
682.77	83.766
683.09	83.019
683.41	83.850
683.73	87.671
684.06	82.366
684.38	84.728
684.70	86.008
685.02	86.417
685.34	82.846
685.67	85.227
685.99	83.554
686.31	85.458
686.63	78.901
686.96	82.625
687.28	82.466
687.60	84.766
687.92	81.128
688.24	82.283
688.56	81.764
688.89	83.761
689.21	84.464
689.53	84.368
689.85	80.846
690.17	84.305
690.49	81.524
690.82	87.470
691.14	86.557
691.46	83.814
691.78	83.260
692.10	84.958
692.42	85.333
692.74	85.622
693.06	87.191
693.39	85.459
693.71	83.973
694.03	83.369
694.35	83.521
694.67	81.560
694.99	85.934
695.31	86.224
695.63	90.051
695.95	84.864
696.27	86.534
696.59	87.433
696.91	84.831
697.23	84.896
697.56	87.260
697.88	83.108
698.20	80.728
698.52	80.045
698.84	84.951
699.16	82.381
699.48	84.500
699.80	84.962
700.12	82.872
700.44	81.285
700.76	84.840
701.08	86.337
701.40	85.196
701.72	88.889
702.04	91.346
702.36	84.337
702.68	84.132
703.00	82.899
703.32	83.668
703.64	86.176
703.96	87.791
704.28	86.686
704.60	87.025
704.91	81.587
705.23	84.466
705.55	83.784
705.87	86.007
706.19	86.111
706.51	85.417
706.83	88.525
707.15	86.943
707.47	82.645
707.79	80.670
708.11	83.461
708.43	81.297
708.74	79.481
709.06	82.451
709.38	83.046
709.70	85.938
710.02	88.957
710.34	88.779
710.66	81.270
710.98	88.328
711.29	84.839
711.61	83.706
711.93	82.295
712.25	87.708
712.57	86.760
712.89	88.849
713.20	83.505
713.52	87.687
713.84	84.698
714.16	85.246
714.48	80.000
714.80	82.154
715.11	80.980
715.43	86.446
715.75	83.801
716.07	84.590
716.39	83.946
716.70	86.411
717.02	86.667
717.34	83.969
717.66	92.531
717.97	87.295
718.29	86.555
718.61	92.460
718.93	76.344
719.24	77.206
719.56	78.868
719.88	83.636
720.20	87.266
720.51	87.218
720.83	92.369
721.15	88.934
721.46	90.588
721.78	80.843
722.10	86.400
722.42	84.298
722.73	81.673
723.05	80.321
723.37	80.392
723.68	79.757
724.00	88.211
724.32	87.654
724.63	82.988
724.95	81.818
725.27	84.211
725.58	82.328
725.90	80.952
726.22	83.026
726.53	87.833
726.85	83.137
727.16	84.211
727.48	78.846
727.80	84.426
728.11	86.134
728.43	85.124
728.74	85.547
729.06	83.333
729.38	85.992
729.69	85.039
730.01	87.008
730.32	87.649
730.64	80.952
730.96	87.687
731.27	80.714
731.59	80.707
731.90	75.153
732.22	77.914
732.53	82.119
732.85	77.852
733.16	82.246
733.48	78.397
733.80	83.986
734.11	82.069
734.43	83.333
734.74	78.932
735.06	79.624
735.37	76.147
735.69	81.935
736.00	76.431
736.32	84.437
736.63	81.724
736.95	84.420
737.26	76.821
737.58	83.094
737.89	80.645
738.21	75.940
738.52	76.538
738.83	75.391
739.15	83.761
739.46	77.823
739.78	78.671
740.09	67.483
740.41	75.524
740.72	79.927
741.04	80.952
741.35	81.385
741.66	85.648
741.98	74.762
742.29	82.629
742.61	93.583
742.92	87.850
743.23	79.386
743.55	81.982
743.86	84.444
744.18	80.952
744.49	83.744
744.80	80.203
745.12	95.876
745.43	90.452
745.74	84.466
746.06	79.512
746.37	86.344
746.68	85.075
747.00	89.005
747.31	75.962
747.62	86.636
747.94	80.786
748.25	88.837
748.56	84.286
748.88	80.978
749.19	78.404
749.50	82.353
749.82	83.556
750.13	90.749
750.44	84.146
750.75	82.000
751.07	78.929
751.38	78.229
751.69	75.954
752.01	83.077
752.32	78.210
752.63	75.000
752.94	75.794
753.26	87.391
753.57	83.036
753.88	84.052
754.19	75.519
754.51	81.641
754.82	80.632
755.13	81.481
755.44	84.711
755.75	77.366
756.07	77.510
756.38	80.859
756.69	79.783
757.00	79.094
757.31	78.523
757.63	84.112
757.94	76.590
758.25	78.198
758.56	80.054
758.87	72.159
759.18	75.000
759.50	77.580
759.81	77.007
760.12	75.676
760.43	85.761
760.74	78.750
761.05	77.247
761.36	79.641
761.67	73.669
761.99	77.742
762.30	78.261
762.61	75.849
762.92	84.753
763.23	84.360
763.54	75.556
763.85	80.169
764.16	80.408
764.47	77.966
764.78	76.404
765.10	80.935
765.41	79.032
765.72	73.270
766.03	75.972
766.34	82.707
766.65	75.304
766.96	84.500
767.27	77.083
767.58	85.465
767.89	90.968
768.20	79.755
768.51	79.235
768.82	80.541
769.13	85.500
769.44	78.070
769.75	75.325
770.06	81.193
770.37	72.770
770.68	84.896
770.99	75.248
771.30	84.466
771.61	75.000
771.92	70.130
772.23	76.636
772.54	77.128
772.85	74.556
773.16	76.829
773.47	81.928
773.78	78.571
774.09	85.333
774.39	77.160
774.70	78.523
775.01	74.638
775.32	76.119
775.63	76.860
775.94	76.692
776.25	66.429
776.56	80.328
776.87	90.265
777.18	83.186
777.48	77.273
777.79	73.913
778.10	86.239
778.41	77.119
778.72	70.248
779.03	79.104
779.34	80.451
779.65	88.235
779.95	80.435
780.26	74.150
780.57	78.448
780.88	86.111
781.19	82.828
781.50	74.400
781.80	70.588
782.11	78.205
782.42	74.096
782.73	73.723
783.04	76.351
783.34	75.758
783.65	68.992
783.96	81.301
784.27	80.342
784.57	70.732
784.88	70.732
785.19	80.702
785.50	62.887
785.81	75.238
786.11	74.510
786.42	73.636
786.73	78.378
787.04	84.158
787.34	72.381
787.65	77.143
787.96	63.725
788.26	79.279
788.57	70.161
788.88	71.875
789.19	74.359
789.49	71.429
789.80	66.667
790.11	72.566
790.41	78.788
790.72	75.472
791.03	77.778
791.33	78.947
791.64	67.742
791.95	80.000
792.25	91.429
792.56	65.854
792.87	54.082
793.17	80.263
793.48	60.811
793.79	70.423
794.09	74.684
794.40	77.660
794.70	72.897
795.01	73.684
795.32	80.000
795.62	71.429
795.93	68.041
796.23	67.033
796.54	73.684
796.85	67.123
797.15	72.222
797.46	58.904
797.76	81.690
798.07	72.500
798.37	73.529
798.68	75.714
798.99	85.714
799.29	69.737
799.60	85.000
799.90	69.444
800.21	59.375
800.51	69.841
800.82	62.295
801.12	82.456
801.43	61.972
801.73	62.712
802.04	77.049
802.34	61.818
802.65	61.538
802.95	70.370
803.26	85.000
803.56	57.692
803.87	52.632
804.17	66.129
804.48	63.077
804.78	74.359
805.09	74.419
805.39	90.625
805.70	58.491
806.00	71.930
806.30	63.514
806.61	77.941
806.91	55.556
807.22	57.333
807.52	61.194
807.83	56.452
808.13	57.143
808.43	58.182
808.74	63.636
809.04	94.340
809.35	47.945
809.65	80.702
809.95	57.353
810.26	54.902
810.56	44.000
810.86	57.143
811.17	57.143
811.47	65.385
811.77	67.742
812.08	21.053
812.38	71.429
812.69	43.478
812.99	90.323
813.29	47.619
813.59	40.741
813.90	57.447
814.20	48.837
814.50	56.250
814.81	71.667
815.11	58.537
815.41	73.333
815.72	80.000
816.02	33.333
816.32	76.923
816.62	64.865
816.93	38.235
817.23	84.783
817.53	26.471
817.84	91.176
818.14	62.500
818.44	20.690
818.74	70.968
819.04	29.630
819.35	70.000
819.65	24.000
819.95	53.333
820.25	40.000
820.56	34.211
820.86	40.000
821.16	38.298
821.46	37.931
821.76	38.462
822.07	67.500
822.37	32.558
822.67	40.000
822.97	24.324
823.27	62.162
823.57	56.000
823.88	72.973
824.18	0.000
824.48	53.846
824.78	38.462
825.08	56.522
825.38	62.500
825.69	79.167
825.99	95.000
826.29	45.946
826.59	20.588
826.89	84.000
827.19	45.714
827.49	71.053
827.79	40.625
828.09	60.000
828.39	65.217
828.70	24.138
829.00	48.276
829.30	52.778
829.60	75.000
829.90	94.444
830.20	53.846
830.50	28.571
830.80	17.857
831.10	33.333
831.40	4.762
831.70	44.118
832.00	16.667
832.30	57.895
832.60	50.000
832.90	0.000
833.20	-23.529
833.50	-20.000
833.80	66.667
834.10	45.000
834.40	66.667
834.70	38.889
835.00	38.462
835.30	25.000
835.60	44.828
835.90	11.111
836.20	-18.182
836.50	33.333
836.80	51.429
837.10	54.286
837.40	-64.706
837.70	27.273
838.00	70.833
838.30	-37.500
838.60	28.571
838.90	50.000
839.19	47.826
839.49	4.348
839.79	-5.556
840.09	26.087
840.39	27.273
840.69	18.750
840.99	26.316
841.29	-25.000
841.59	92.857
841.88	-44.444
842.18	29.167
842.48	-5.882
842.78	20.690
843.08	57.143
843.38	92.308
843.68	-33.333
843.97	-69.231
844.27	54.545
844.57	-40.000
844.87	28.000
845.17	-240.000
845.47	35.714
845.76	-66.667
846.06	0.000
846.36	-375.000
846.66	-40.000
846.96	-42.105
847.25	-8.333
847.55	-33.333
847.85	66.667
848.15	20.000
848.44	46.154
848.74	42.105
849.04	500.000
849.34	33.333
849.63	-47.368
849.93	0.000
850.23	-10.000
850.53	76.190
850.82	-16.000
851.12	10.526
851.42	-50.000
851.71	35.714
852.01	-66.667
852.31	5.882
852.61	60.000
852.90	19.048
853.20	-83.333
853.50	-33.333
853.79	-5.263
854.09	40.000
854.39	21.429
854.68	8.696
854.98	-50.000
855.28	0.000
855.57	-50.000
855.87	40.000
856.17	46.667
856.46	27.586
856.76	-20.000
857.05	11.765
857.35	-53.846
857.65	-9.091
857.94	3.704
858.24	-28.571
858.53	-21.429
858.83	41.667
859.13	-55.556
859.42	47.619
859.72	-37.500
860.01	-300.000
860.31	-50.000
860.60	-360.000
860.90	-66.667
861.20	0.000
861.49	-85.714
861.79	64.706
862.08	-450.000
862.38	-50.000
862.67	-184.615
862.97	35.294
863.26	80.000
863.56	0.000
863.85	200.000
864.15	-50.000
864.44	-7.692
864.74	15.000
865.03	-150.000
865.33	-83.333
865.62	-11.765
865.92	-575.000
866.21	7.143
866.51	-58.333
866.80	300.000
867.10	66.667
867.39	0.000
867.69	13.043
867.98	0.000
868.27	-460.000
868.57	-62.500
868.86	-36.364
869.16	-11.765
869.45	-166.667
869.75	-271.429
870.04	800.000
870.33	33.333
870.63	20.000
870.92	44.444
871.22	-58.333
871.51	54.545
871.80	-58.333
872.10	-10.000
>>>>>End Processed Spectral Data<<<<<
