SpectraSuite Data File
++++++++++++++++++++++++++++++++++++
Date: Sat May 16 11:14:46 PDT 2015
User: schluterlab
Dark Spectrum Present: Yes
Reference Spectrum Present: Yes
Number of Sampled Component Spectra: 1
Spectrometers: USB2E3373
Integration Time (usec): 3000 (USB2E3373)
Spectra Averaged: 3 (USB2E3373)
Boxcar Smoothing: 0 (USB2E3373)
Correct for Electrical Dark: No (USB2E3373)
Strobe/Lamp Enabled: No (USB2E3373)
Correct for Detector Non-linearity: No (USB2E3373)
Correct for Stray Light: No (USB2E3373)
Number of Pixels in Processed Spectrum: 2048
>>>>>Begin Processed Spectral Data<<<<<
178.53	0.000
178.91	113.333
179.29	166.667
179.67	-500.000
180.04	-23.077
180.42	400.000
180.80	100.000
181.18	375.000
181.56	-12.500
181.94	-1300.000
182.31	375.000
182.69	0.000
183.07	-300.000
183.45	800.000
183.83	300.000
184.20	-142.857
184.58	-87.500
184.96	25.000
185.34	100.000
185.72	-275.000
186.09	50.000
186.47	-175.000
186.85	-100.000
187.23	-150.000
187.61	100.000
187.98	-137.500
188.36	-37.500
188.74	-50.000
189.12	900.000
189.49	357.143
189.87	-8.333
190.25	175.000
190.63	-114.286
191.00	-66.667
191.38	220.000
191.76	46.667
192.14	460.000
192.51	-320.000
192.89	-366.667
193.27	0.000
193.65	33.333
194.02	-142.857
194.40	433.333
194.78	0.000
195.15	-600.000
195.53	-136.364
195.91	-200.000
196.29	200.000
196.66	-366.667
197.04	2200.000
197.42	-25.000
197.79	46.667
198.17	-266.667
198.55	-450.000
198.92	-900.000
199.30	125.000
199.68	-250.000
200.05	-66.667
200.43	-55.556
200.81	-600.000
201.18	0.000
201.56	242.857
201.94	33.333
202.31	4.545
202.69	-10.000
203.07	30.000
203.44	566.667
203.82	-316.667
204.19	-225.000
204.57	-100.000
204.95	-800.000
205.32	-6.250
205.70	200.000
206.08	-800.000
206.45	-11.111
206.83	-750.000
207.20	500.000
207.58	-333.333
207.96	-266.667
208.33	-62.500
208.71	0.000
209.08	150.000
209.46	-14.286
209.84	200.000
210.21	0.000
210.59	65.000
210.96	200.000
211.34	0.000
211.71	-100.000
212.09	225.000
212.46	850.000
212.84	-1900.000
213.22	500.000
213.59	83.333
213.97	100.000
214.34	170.000
214.72	-60.000
215.09	-266.667
215.47	116.667
215.84	40.000
216.22	0.000
216.59	26.667
216.97	-475.000
217.34	450.000
217.72	-228.571
218.09	-50.000
218.47	-185.714
218.84	142.857
219.22	28.571
219.59	0.000
219.97	114.286
220.34	275.000
220.72	200.000
221.09	0.000
221.47	0.000
221.84	300.000
222.22	-100.000
222.59	100.000
222.97	-112.500
223.34	-850.000
223.72	-466.667
224.09	-100.000
224.46	-325.000
224.84	-7.143
225.21	-171.429
225.59	-9.091
225.96	-137.500
226.34	-28.571
226.71	-166.667
227.08	5.000
227.46	1400.000
227.83	-271.429
228.21	-75.000
228.58	-200.000
228.95	-12.500
229.33	-300.000
229.70	-180.000
230.08	-500.000
230.45	16.667
230.82	0.000
231.20	-400.000
231.57	-500.000
231.95	500.000
232.32	47.619
232.69	-122.222
233.07	-185.714
233.44	-1100.000
233.81	-86.667
234.19	-55.556
234.56	-50.000
234.93	12.500
235.31	-128.571
235.68	-28.571
236.05	-11.765
236.43	4.545
236.80	-9.677
237.17	33.333
237.55	-14.286
237.92	-18.182
238.29	2.857
238.67	41.176
239.04	19.444
239.41	-3.226
239.79	-2.564
240.16	30.952
240.53	0.000
240.91	25.641
241.28	14.545
241.65	32.308
242.02	26.230
242.40	24.590
242.77	22.727
243.14	13.559
243.51	15.714
243.89	18.987
244.26	30.337
244.63	37.895
245.00	21.053
245.38	32.203
245.75	39.823
246.12	30.400
246.49	34.646
246.87	19.512
247.24	27.119
247.61	30.508
247.98	28.169
248.36	25.175
248.73	32.278
249.10	28.025
249.47	35.673
249.84	30.114
250.22	22.024
250.59	36.158
250.96	30.366
251.33	35.071
251.70	31.250
252.08	34.597
252.45	31.280
252.82	28.095
253.19	29.787
253.56	31.048
253.94	28.692
254.31	29.185
254.68	32.927
255.05	27.016
255.42	30.952
255.79	29.032
256.16	35.686
256.54	32.353
256.91	32.576
257.28	28.938
257.65	29.433
258.02	35.535
258.39	33.110
258.76	30.405
259.14	33.333
259.51	35.410
259.88	32.012
260.25	34.472
260.62	31.511
260.99	31.157
261.36	36.585
261.73	33.237
262.10	32.500
262.47	31.339
262.85	37.143
263.22	33.238
263.59	33.538
263.96	32.754
264.33	34.146
264.70	37.845
265.07	31.319
265.44	32.041
265.81	29.974
266.18	30.886
266.55	30.637
266.92	34.761
267.29	34.383
267.66	33.580
268.03	32.850
268.40	34.038
268.77	33.976
269.14	34.339
269.51	33.103
269.88	31.422
270.25	31.469
270.62	32.265
270.99	32.883
271.36	34.266
271.73	30.717
272.10	34.554
272.47	31.111
272.84	33.556
273.21	36.697
273.58	33.407
273.95	32.237
274.32	32.127
274.69	31.510
275.06	30.266
275.43	34.375
275.80	34.012
276.17	31.799
276.54	33.809
276.91	33.333
277.28	32.049
277.65	33.884
278.02	30.898
278.39	32.613
278.76	31.474
279.13	31.423
279.50	33.002
279.87	31.501
280.23	33.198
280.60	32.207
280.97	32.621
281.34	33.075
281.71	33.846
282.08	34.476
282.45	31.976
282.82	30.814
283.19	32.909
283.56	33.150
283.92	31.095
284.29	32.528
284.66	27.698
285.03	32.620
285.40	32.103
285.77	32.632
286.14	32.491
286.51	31.794
286.87	35.027
287.24	32.082
287.61	31.736
287.98	30.329
288.35	29.091
288.72	28.862
289.08	27.966
289.45	28.956
289.82	29.066
290.19	30.213
290.56	26.942
290.93	29.094
291.29	28.039
291.66	29.147
292.03	29.984
292.40	28.163
292.77	28.416
293.13	27.805
293.50	26.003
293.87	25.153
294.24	27.753
294.60	26.061
294.97	26.707
295.34	25.037
295.71	26.190
296.08	25.806
296.44	23.891
296.81	26.496
297.18	24.366
297.55	25.565
297.91	24.965
298.28	23.425
298.65	25.802
299.02	25.802
299.38	22.861
299.75	23.641
300.12	25.128
300.48	24.808
300.85	23.591
301.22	23.674
301.59	23.667
301.95	22.796
302.32	22.686
302.69	23.868
303.05	22.222
303.42	23.250
303.79	23.804
304.15	22.749
304.52	21.937
304.89	22.904
305.25	23.932
305.62	21.974
305.99	24.617
306.35	22.420
306.72	22.551
307.09	23.496
307.45	22.474
307.82	22.346
308.19	22.371
308.55	22.767
308.92	20.945
309.29	22.595
309.65	22.163
310.02	21.166
310.38	20.757
310.75	22.234
311.12	22.314
311.48	20.877
311.85	20.494
312.22	21.421
312.58	21.160
312.95	21.916
313.31	22.577
313.68	21.307
314.05	21.761
314.41	21.127
314.78	21.179
315.14	23.593
315.51	20.770
315.87	22.072
316.24	20.311
316.61	21.017
316.97	21.393
317.34	20.039
317.70	20.223
318.07	20.709
318.43	20.318
318.80	22.160
319.16	21.201
319.53	20.489
319.89	18.532
320.26	21.275
320.62	19.615
320.99	21.990
321.35	21.084
321.72	21.392
322.08	21.365
322.45	20.000
322.81	20.269
323.18	19.308
323.54	20.425
323.91	19.648
324.27	20.722
324.64	21.024
325.00	20.681
325.37	21.448
325.73	20.210
326.10	19.486
326.46	20.841
326.83	19.830
327.19	20.851
327.56	20.698
327.92	20.306
328.29	20.000
328.65	20.545
329.01	20.936
329.38	20.339
329.74	21.612
330.11	20.943
330.47	19.800
330.84	20.898
331.20	19.134
331.56	19.143
331.93	19.805
332.29	21.370
332.66	19.140
333.02	20.181
333.38	21.057
333.75	20.570
334.11	20.267
334.48	19.241
334.84	20.560
335.20	19.415
335.57	18.773
335.93	21.576
336.29	20.903
336.66	18.678
337.02	20.811
337.38	19.251
337.75	20.193
338.11	19.589
338.47	19.662
338.84	19.419
339.20	18.893
339.56	18.538
339.93	19.665
340.29	19.575
340.65	19.668
341.02	20.320
341.38	19.966
341.74	19.390
342.11	18.686
342.47	19.142
342.83	19.479
343.20	17.848
343.56	18.612
343.92	19.866
344.28	19.680
344.65	18.977
345.01	18.571
345.37	20.100
345.73	17.594
346.10	18.070
346.46	17.547
346.82	17.803
347.19	19.638
347.55	18.700
347.91	18.661
348.27	18.934
348.63	19.386
349.00	18.298
349.36	17.330
349.72	19.745
350.08	19.006
350.45	17.888
350.81	18.153
351.17	17.444
351.53	17.184
351.89	17.947
352.26	18.992
352.62	19.662
352.98	17.722
353.34	19.025
353.70	18.224
354.07	18.411
354.43	19.130
354.79	18.067
355.15	17.572
355.51	17.734
355.87	18.656
356.24	18.030
356.60	18.775
356.96	18.399
357.32	17.340
357.68	17.854
358.04	18.553
358.40	18.252
358.77	17.852
359.13	17.292
359.49	17.838
359.85	17.912
360.21	18.798
360.57	18.373
360.93	17.556
361.29	18.759
361.66	16.921
362.02	17.086
362.38	17.682
362.74	17.436
363.10	17.217
363.46	18.234
363.82	18.805
364.18	19.103
364.54	18.513
364.90	17.890
365.26	17.261
365.62	18.817
365.98	18.706
366.35	17.887
366.71	17.618
367.07	17.078
367.43	18.394
367.79	16.564
368.15	16.999
368.51	18.811
368.87	18.544
369.23	18.246
369.59	17.708
369.95	18.393
370.31	18.706
370.67	17.209
371.03	18.294
371.39	17.397
371.75	18.240
372.11	17.575
372.47	16.992
372.83	17.385
373.19	17.786
373.55	17.945
373.91	18.350
374.27	17.248
374.63	17.598
374.99	18.359
375.35	17.497
375.71	17.961
376.07	17.728
376.42	16.026
376.78	17.712
377.14	17.966
377.50	17.924
377.86	17.100
378.22	17.651
378.58	16.739
378.94	17.633
379.30	17.611
379.66	17.608
380.02	16.696
380.38	17.160
380.74	17.644
381.09	17.458
381.45	17.959
381.81	17.423
382.17	17.607
382.53	17.143
382.89	17.344
383.25	18.242
383.61	18.101
383.97	18.371
384.32	17.835
384.68	17.836
385.04	16.727
385.40	16.799
385.76	17.744
386.12	17.552
386.48	18.007
386.83	16.687
387.19	17.693
387.55	17.323
387.91	17.605
388.27	16.707
388.62	17.308
388.98	17.505
389.34	17.319
389.70	16.687
390.06	16.408
390.42	17.372
390.77	16.656
391.13	17.702
391.49	18.153
391.85	16.771
392.20	16.626
392.56	16.799
392.92	17.456
393.28	17.738
393.64	16.597
393.99	17.600
394.35	15.937
394.71	16.615
395.07	17.389
395.42	16.567
395.78	16.845
396.14	17.383
396.50	17.003
396.85	17.767
397.21	16.768
397.57	18.237
397.92	17.623
398.28	16.722
398.64	16.657
399.00	17.809
399.35	16.798
399.71	17.305
400.07	17.493
400.42	17.518
400.78	16.995
401.14	17.006
401.49	17.571
401.85	16.901
402.21	16.567
402.57	17.112
402.92	16.929
403.28	17.525
403.63	17.016
403.99	17.651
404.35	16.546
404.70	17.496
405.06	17.416
405.42	16.605
405.77	16.120
406.13	16.638
406.49	17.376
406.84	17.157
407.20	17.256
407.55	16.656
407.91	16.451
408.27	17.096
408.62	16.897
408.98	16.677
409.34	16.941
409.69	17.643
410.05	17.283
410.40	16.800
410.76	17.664
411.11	16.646
411.47	17.136
411.83	17.359
412.18	17.141
412.54	16.656
412.89	17.375
413.25	16.352
413.60	16.343
413.96	16.513
414.31	17.370
414.67	16.508
415.03	16.882
415.38	17.241
415.74	16.688
416.09	17.583
416.45	16.799
416.80	17.685
417.16	16.678
417.51	17.728
417.87	16.634
418.22	17.004
418.58	17.458
418.93	17.351
419.29	16.813
419.64	16.143
420.00	16.464
420.35	17.150
420.71	16.807
421.06	17.456
421.42	15.867
421.77	16.918
422.12	16.956
422.48	16.729
422.83	16.743
423.19	16.537
423.54	16.945
423.90	16.657
424.25	16.855
424.61	16.888
424.96	17.437
425.31	16.881
425.67	17.536
426.02	16.581
426.38	17.241
426.73	16.774
427.09	16.605
427.44	17.102
427.79	16.686
428.15	17.235
428.50	17.361
428.85	17.626
429.21	16.325
429.56	16.563
429.92	18.086
430.27	16.949
430.62	16.562
430.98	17.250
431.33	17.556
431.68	16.783
432.04	17.571
432.39	16.695
432.74	16.847
433.10	16.939
433.45	16.983
433.80	17.469
434.16	16.873
434.51	17.644
434.86	17.340
435.22	16.982
435.57	16.401
435.92	17.585
436.28	17.151
436.63	16.789
436.98	16.724
437.34	16.834
437.69	16.394
438.04	16.109
438.39	17.509
438.75	17.171
439.10	17.157
439.45	16.777
439.81	17.229
440.16	17.320
440.51	17.118
440.86	17.178
441.22	15.920
441.57	17.000
441.92	16.777
442.27	17.045
442.63	16.792
442.98	15.688
443.33	16.529
443.68	17.457
444.03	16.601
444.39	16.936
444.74	18.227
445.09	16.612
445.44	16.770
445.79	16.828
446.15	17.853
446.50	16.549
446.85	16.983
447.20	17.160
447.55	17.459
447.91	16.788
448.26	16.816
448.61	16.186
448.96	17.983
449.31	16.347
449.66	17.745
450.02	16.787
450.37	16.174
450.72	16.893
451.07	17.536
451.42	16.357
451.77	16.936
452.12	16.687
452.47	17.443
452.83	17.239
453.18	16.635
453.53	17.600
453.88	17.763
454.23	16.082
454.58	17.651
454.93	17.128
455.28	17.655
455.63	17.506
455.98	16.988
456.34	16.391
456.69	18.011
457.04	17.517
457.39	16.627
457.74	17.247
458.09	16.995
458.44	17.725
458.79	17.377
459.14	17.969
459.49	17.703
459.84	17.369
460.19	17.124
460.54	16.818
460.89	16.256
461.24	16.879
461.59	16.940
461.94	17.187
462.29	17.272
462.64	17.128
462.99	17.269
463.34	17.286
463.69	17.875
464.04	16.286
464.39	15.830
464.74	17.908
465.09	17.017
465.44	17.202
465.79	18.274
466.14	17.664
466.49	17.501
466.84	16.807
467.19	16.708
467.54	16.203
467.89	16.831
468.24	17.518
468.59	17.427
468.94	16.527
469.29	17.219
469.64	18.059
469.99	18.569
470.34	17.568
470.68	17.587
471.03	16.930
471.38	16.042
471.73	17.273
472.08	15.863
472.43	16.345
472.78	17.867
473.13	16.567
473.48	17.486
473.83	17.184
474.17	16.943
474.52	17.519
474.87	17.191
475.22	16.165
475.57	16.111
475.92	16.847
476.27	16.343
476.61	17.408
476.96	16.769
477.31	17.169
477.66	17.045
478.01	17.612
478.36	17.025
478.70	16.765
479.05	17.523
479.40	17.565
479.75	17.533
480.10	17.113
480.45	16.489
480.79	16.486
481.14	16.708
481.49	17.667
481.84	17.060
482.19	18.045
482.53	17.235
482.88	17.038
483.23	16.573
483.58	18.131
483.92	17.248
484.27	16.837
484.62	16.760
484.97	16.524
485.31	16.480
485.66	17.079
486.01	17.316
486.36	17.497
486.70	17.523
487.05	17.222
487.40	16.640
487.75	16.648
488.09	16.245
488.44	16.543
488.79	16.661
489.13	16.052
489.48	16.966
489.83	16.856
490.17	16.500
490.52	17.346
490.87	16.952
491.22	16.348
491.56	17.037
491.91	17.366
492.26	16.604
492.60	16.556
492.95	17.040
493.30	17.627
493.64	16.925
493.99	17.352
494.34	17.524
494.68	16.994
495.03	18.021
495.37	16.814
495.72	16.601
496.07	17.410
496.41	17.045
496.76	17.032
497.11	17.334
497.45	17.864
497.80	17.159
498.14	17.191
498.49	16.223
498.84	17.282
499.18	17.349
499.53	17.292
499.87	16.458
500.22	16.814
500.56	17.009
500.91	17.340
501.26	17.758
501.60	16.322
501.95	17.971
502.29	16.297
502.64	17.586
502.98	17.298
503.33	17.340
503.67	17.050
504.02	16.610
504.36	17.696
504.71	16.717
505.06	16.575
505.40	17.066
505.75	16.413
506.09	16.936
506.44	16.892
506.78	17.210
507.13	17.044
507.47	17.997
507.82	17.501
508.16	17.824
508.51	17.311
508.85	17.391
509.19	16.850
509.54	17.812
509.88	17.447
510.23	17.034
510.57	17.407
510.92	17.938
511.26	17.597
511.61	17.225
511.95	17.295
512.30	17.372
512.64	17.251
512.98	17.657
513.33	16.749
513.67	17.532
514.02	17.170
514.36	16.787
514.70	17.431
515.05	17.439
515.39	17.186
515.74	17.394
516.08	16.945
516.42	17.677
516.77	17.793
517.11	17.220
517.46	17.464
517.80	16.907
518.14	16.486
518.49	16.438
518.83	17.389
519.17	17.644
519.52	17.525
519.86	17.384
520.20	17.543
520.55	17.231
520.89	16.719
521.23	17.338
521.58	16.991
521.92	17.289
522.26	17.397
522.61	17.744
522.95	17.167
523.29	17.241
523.64	16.677
523.98	17.250
524.32	16.970
524.66	17.143
525.01	17.277
525.35	18.492
525.69	17.437
526.04	16.971
526.38	17.250
526.72	16.603
527.06	17.448
527.41	17.030
527.75	16.568
528.09	16.810
528.43	17.180
528.78	17.776
529.12	18.374
529.46	17.139
529.80	16.075
530.15	17.965
530.49	16.753
530.83	18.599
531.17	16.566
531.51	17.214
531.86	17.643
532.20	17.746
532.54	18.449
532.88	17.457
533.22	17.914
533.57	17.298
533.91	16.792
534.25	16.468
534.59	16.115
534.93	16.553
535.27	16.174
535.62	16.944
535.96	17.324
536.30	16.427
536.64	17.065
536.98	17.373
537.32	16.862
537.66	17.447
538.01	17.457
538.35	18.108
538.69	17.714
539.03	17.468
539.37	16.833
539.71	17.612
540.05	16.450
540.39	17.659
540.73	16.862
541.07	17.350
541.42	16.880
541.76	15.947
542.10	17.083
542.44	17.655
542.78	16.689
543.12	17.651
543.46	16.644
543.80	16.789
544.14	16.320
544.48	17.388
544.82	16.779
545.16	17.304
545.50	15.747
545.84	17.107
546.18	18.724
546.52	17.354
546.86	16.880
547.20	17.792
547.54	16.460
547.88	17.585
548.22	16.448
548.56	17.368
548.90	18.396
549.24	16.608
549.58	16.725
549.92	17.668
550.26	17.775
550.60	17.425
550.94	16.496
551.28	17.081
551.62	17.725
551.96	17.294
552.30	17.282
552.64	17.101
552.98	16.819
553.32	16.522
553.66	18.025
554.00	17.413
554.34	16.968
554.68	16.886
555.02	17.945
555.36	17.469
555.69	17.264
556.03	17.614
556.37	16.501
556.71	17.323
557.05	16.851
557.39	17.075
557.73	17.068
558.07	17.558
558.41	16.679
558.75	16.882
559.08	14.553
559.42	17.458
559.76	16.794
560.10	17.002
560.44	18.136
560.78	16.493
561.12	17.391
561.45	17.260
561.79	16.864
562.13	17.952
562.47	17.017
562.81	16.973
563.15	16.585
563.48	16.517
563.82	16.700
564.16	16.498
564.50	17.339
564.84	17.659
565.17	16.379
565.51	17.536
565.85	17.918
566.19	17.523
566.52	16.960
566.86	17.130
567.20	18.644
567.54	18.074
567.88	16.639
568.21	17.226
568.55	16.490
568.89	17.346
569.23	17.492
569.56	16.141
569.90	17.781
570.24	16.986
570.57	16.801
570.91	17.137
571.25	17.510
571.59	17.608
571.92	16.935
572.26	17.286
572.60	17.003
572.93	16.569
573.27	16.677
573.61	16.863
573.95	17.429
574.28	16.831
574.62	17.438
574.96	16.476
575.29	17.022
575.63	16.857
575.97	16.802
576.30	17.128
576.64	17.180
576.98	16.795
577.31	16.663
577.65	17.200
577.98	16.878
578.32	17.154
578.66	17.157
578.99	16.933
579.33	16.780
579.67	17.119
580.00	16.716
580.34	16.952
580.67	16.793
581.01	16.545
581.35	17.210
581.68	17.214
582.02	17.202
582.35	16.676
582.69	17.267
583.02	17.330
583.36	16.969
583.70	16.974
584.03	17.349
584.37	16.617
584.70	16.574
585.04	16.911
585.37	16.396
585.71	17.030
586.04	16.743
586.38	16.680
586.72	17.334
587.05	16.794
587.39	16.990
587.72	17.467
588.06	16.671
588.39	16.576
588.73	16.717
589.06	16.976
589.40	17.726
589.73	17.139
590.07	16.679
590.40	17.196
590.73	16.873
591.07	16.230
591.40	16.724
591.74	17.376
592.07	16.081
592.41	16.263
592.74	16.987
593.08	17.679
593.41	17.039
593.75	16.485
594.08	16.715
594.41	17.597
594.75	17.629
595.08	16.842
595.42	17.052
595.75	16.942
596.09	16.531
596.42	16.899
596.75	16.688
597.09	17.498
597.42	17.285
597.75	16.829
598.09	16.493
598.42	16.880
598.76	17.027
599.09	16.772
599.42	16.417
599.76	16.950
600.09	17.252
600.42	18.040
600.76	16.949
601.09	17.015
601.42	16.818
601.76	16.900
602.09	17.178
602.42	16.626
602.76	16.369
603.09	16.815
603.42	17.244
603.76	17.232
604.09	17.060
604.42	16.736
604.76	16.398
605.09	16.863
605.42	17.066
605.75	17.033
606.09	17.061
606.42	16.967
606.75	16.574
607.09	17.203
607.42	16.725
607.75	17.439
608.08	17.126
608.42	17.029
608.75	16.308
609.08	16.610
609.41	16.442
609.75	16.919
610.08	17.500
610.41	16.964
610.74	17.602
611.07	17.292
611.41	16.440
611.74	16.864
612.07	17.186
612.40	16.578
612.73	16.855
613.07	15.575
613.40	17.077
613.73	16.621
614.06	15.706
614.39	17.418
614.72	17.039
615.06	16.196
615.39	16.983
615.72	16.730
616.05	16.897
616.38	17.237
616.71	16.216
617.05	17.250
617.38	17.214
617.71	15.725
618.04	16.708
618.37	17.233
618.70	16.688
619.03	16.655
619.36	16.843
619.69	16.655
620.03	16.529
620.36	17.018
620.69	15.937
621.02	16.286
621.35	16.290
621.68	15.738
622.01	15.696
622.34	17.158
622.67	16.797
623.00	16.144
623.33	18.134
623.66	15.953
623.99	16.391
624.32	16.518
624.65	17.145
624.99	16.131
625.32	16.617
625.65	17.172
625.98	16.275
626.31	16.069
626.64	16.234
626.97	16.610
627.30	16.681
627.63	15.630
627.96	17.145
628.29	15.809
628.62	15.950
628.95	17.126
629.28	15.977
629.61	16.389
629.94	16.824
630.26	16.402
630.59	17.588
630.92	17.117
631.25	16.935
631.58	16.720
631.91	14.894
632.24	15.222
632.57	16.889
632.90	17.126
633.23	16.238
633.56	15.789
633.89	17.217
634.22	15.466
634.55	14.784
634.88	15.599
635.20	15.106
635.53	15.903
635.86	15.869
636.19	15.629
636.52	14.934
636.85	16.245
637.18	12.875
637.51	18.216
637.83	15.712
638.16	15.526
638.49	14.207
638.82	15.444
639.15	16.732
639.48	16.342
639.81	17.842
640.13	15.541
640.46	17.664
640.79	15.966
641.12	16.220
641.45	16.212
641.77	15.269
642.10	15.106
642.43	15.478
642.76	15.906
643.09	17.143
643.41	17.302
643.74	17.806
644.07	17.005
644.40	14.911
644.73	16.997
645.05	13.356
645.38	15.563
645.71	17.354
646.04	17.143
646.36	13.264
646.69	15.398
647.02	16.426
647.35	16.065
647.67	14.599
648.00	15.290
648.33	18.718
648.66	14.032
648.98	15.605
649.31	16.769
649.64	15.469
649.96	17.111
650.29	14.754
650.62	16.351
650.94	16.526
651.27	14.038
651.60	15.917
651.92	15.582
652.25	15.359
652.58	16.354
652.90	15.891
653.23	16.129
653.56	15.385
653.88	15.574
654.21	17.114
654.54	17.442
654.86	15.249
655.19	15.616
655.52	16.931
655.84	17.864
656.17	19.234
656.49	26.250
656.82	26.460
657.15	19.767
657.47	14.459
657.80	11.165
658.13	12.277
658.45	15.975
658.78	15.361
659.10	15.268
659.43	14.513
659.75	14.988
660.08	14.479
660.41	13.879
660.73	12.651
661.06	15.942
661.38	18.036
661.71	17.400
662.03	15.726
662.36	16.205
662.68	15.190
663.01	18.047
663.33	13.832
663.66	14.807
663.98	14.955
664.31	13.870
664.63	16.814
664.96	16.052
665.28	15.618
665.61	13.953
665.93	16.049
666.26	13.765
666.58	17.672
666.91	17.149
667.23	18.421
667.56	13.152
667.88	18.778
668.21	15.207
668.53	14.019
668.86	18.014
669.18	15.068
669.50	13.318
669.83	11.679
670.15	15.471
670.48	10.981
670.80	13.440
671.13	13.544
671.45	14.414
671.77	13.276
672.10	17.160
672.42	15.683
672.75	15.455
673.07	12.793
673.39	16.029
673.72	16.732
674.04	15.074
674.37	12.371
674.69	17.828
675.01	13.617
675.34	16.269
675.66	15.335
675.98	14.978
676.31	16.063
676.63	13.563
676.95	17.257
677.28	14.849
677.60	17.421
677.92	16.300
678.25	17.068
678.57	17.284
678.89	12.159
679.22	16.143
679.54	14.596
679.86	15.600
680.18	15.589
680.51	14.153
680.83	16.762
681.15	15.607
681.48	15.822
681.80	13.710
682.12	15.292
682.44	12.770
682.77	12.987
683.09	18.029
683.41	14.823
683.73	13.470
684.06	14.624
684.38	15.272
684.70	14.198
685.02	13.780
685.34	14.815
685.67	13.447
685.99	14.556
686.31	16.158
686.63	15.248
686.96	14.972
687.28	15.607
687.60	14.648
687.92	13.813
688.24	15.551
688.56	13.828
688.89	14.744
689.21	14.442
689.53	13.103
689.85	16.704
690.17	13.229
690.49	11.778
690.82	14.217
691.14	11.557
691.46	18.182
691.78	14.758
692.10	15.678
692.42	13.778
692.74	14.163
693.06	15.056
693.39	15.213
693.71	12.867
694.03	16.847
694.35	15.576
694.67	14.657
694.99	11.253
695.31	14.796
695.63	12.755
695.95	12.655
696.27	16.708
696.59	14.973
696.91	15.169
697.23	14.062
697.56	14.904
697.88	11.486
698.20	11.563
698.52	12.780
698.84	13.350
699.16	14.286
699.48	14.750
699.80	16.040
700.12	14.610
700.44	13.128
700.76	13.703
701.08	15.988
701.40	11.480
701.72	10.802
702.04	14.744
702.36	15.964
702.68	13.772
703.00	13.913
703.32	13.467
703.64	18.235
703.96	18.605
704.28	15.680
704.60	11.709
704.91	11.746
705.23	15.534
705.55	11.149
705.87	12.628
706.19	12.847
706.51	11.458
706.83	15.738
707.15	14.013
707.47	15.152
707.79	13.918
708.11	14.504
708.43	16.708
708.74	13.247
709.06	11.699
709.38	13.793
709.70	14.375
710.02	15.644
710.34	9.241
710.66	12.063
710.98	15.773
711.29	10.000
711.61	14.377
711.93	13.770
712.25	16.944
712.57	13.240
712.89	14.748
713.20	14.089
713.52	10.448
713.84	12.456
714.16	14.754
714.48	13.651
714.80	14.154
715.11	13.833
715.43	17.169
715.75	15.265
716.07	13.443
716.39	11.037
716.70	14.634
717.02	17.037
717.34	12.214
717.66	14.523
717.97	8.197
718.29	10.504
718.61	18.254
718.93	16.129
719.24	11.397
719.56	13.585
719.88	17.091
720.20	13.483
720.51	15.038
720.83	16.867
721.15	14.344
721.46	13.333
721.78	11.877
722.10	20.000
722.42	9.504
722.73	12.351
723.05	20.080
723.37	16.078
723.68	12.955
724.00	21.951
724.32	16.872
724.63	12.863
724.95	15.289
725.27	9.649
725.58	9.483
725.90	12.698
726.22	18.081
726.53	15.589
726.85	9.020
727.16	14.286
727.48	10.385
727.80	11.885
728.11	11.765
728.43	9.504
728.74	17.578
729.06	12.121
729.38	11.673
729.69	8.268
730.01	14.567
730.32	9.960
730.64	15.751
730.96	19.030
731.27	14.286
731.59	15.113
731.90	15.644
732.22	12.270
732.53	17.881
732.85	9.060
733.16	8.696
733.48	12.544
733.80	11.744
734.11	12.759
734.43	12.245
734.74	13.056
735.06	11.912
735.37	14.067
735.69	14.516
736.00	12.458
736.32	16.225
736.63	11.379
736.95	15.580
737.26	17.219
737.58	12.950
737.89	19.355
738.21	9.023
738.52	10.385
738.83	17.578
739.15	15.385
739.46	12.097
739.78	11.189
740.09	13.986
740.41	13.287
740.72	19.343
741.04	15.476
741.35	14.719
741.66	14.815
741.98	12.381
742.29	15.023
742.61	12.299
742.92	13.551
743.23	13.158
743.55	15.315
743.86	16.889
744.18	8.571
744.49	16.256
744.80	16.751
745.12	10.825
745.43	10.050
745.74	16.019
746.06	11.707
746.37	17.181
746.68	11.443
747.00	15.707
747.31	8.654
747.62	12.442
747.94	13.100
748.25	12.093
748.56	15.714
748.88	7.609
749.19	13.146
749.50	17.647
749.82	16.889
750.13	16.300
750.44	14.634
750.75	13.200
751.07	13.571
751.38	12.915
751.69	9.542
752.01	13.846
752.32	11.673
752.63	7.308
752.94	9.524
753.26	17.391
753.57	16.518
753.88	18.103
754.19	8.714
754.51	14.844
754.82	16.206
755.13	13.992
755.44	14.876
755.75	11.523
756.07	12.851
756.38	10.937
756.69	16.968
757.00	14.286
757.31	16.107
757.63	12.773
757.94	14.162
758.25	12.209
758.56	19.677
758.87	14.489
759.18	10.333
759.50	18.149
759.81	12.044
760.12	10.135
760.43	16.828
760.74	12.812
761.05	13.202
761.36	13.772
761.67	10.947
761.99	13.226
762.30	15.580
762.61	16.604
762.92	18.386
763.23	14.218
763.54	12.444
763.85	19.831
764.16	13.878
764.47	16.525
764.78	15.356
765.10	15.827
765.41	13.548
765.72	16.667
766.03	9.541
766.34	12.782
766.65	17.409
766.96	10.500
767.27	13.021
767.58	8.140
767.89	11.613
768.20	19.018
768.51	9.290
768.82	14.054
769.13	8.000
769.44	9.211
769.75	17.316
770.06	17.890
770.37	13.146
770.68	10.417
770.99	16.337
771.30	12.136
771.61	11.574
771.92	10.823
772.23	14.953
772.54	10.106
772.85	17.160
773.16	12.805
773.47	18.072
773.78	14.835
774.09	18.000
774.39	17.901
774.70	8.725
775.01	7.971
775.32	6.716
775.63	12.397
775.94	21.053
776.25	17.143
776.56	18.852
776.87	17.699
777.18	10.619
777.48	3.636
777.79	2.609
778.10	0.000
778.41	12.712
778.72	10.744
779.03	11.940
779.34	10.526
779.65	16.993
779.95	4.348
780.26	6.122
780.57	4.310
780.88	-2.778
781.19	-2.020
781.50	9.600
781.80	17.647
782.11	10.897
782.42	12.651
782.73	8.759
783.04	14.189
783.34	16.667
783.65	13.178
783.96	19.512
784.27	12.821
784.57	11.382
784.88	0.813
785.19	14.035
785.50	2.062
785.81	4.762
786.11	9.804
786.42	0.000
786.73	10.811
787.04	14.851
787.34	16.190
787.65	12.381
787.96	3.922
788.26	4.505
788.57	8.065
788.88	12.500
789.19	5.128
789.49	3.361
789.80	13.675
790.11	19.469
790.41	12.121
790.72	33.019
791.03	-5.556
791.33	3.947
791.64	12.903
791.95	-10.667
792.25	-7.143
792.56	1.220
792.87	22.449
793.17	13.158
793.48	5.405
793.79	1.408
794.09	18.987
794.40	22.340
794.70	9.346
795.01	-4.386
795.32	6.364
795.62	9.821
795.93	9.278
796.23	7.692
796.54	20.000
796.85	0.000
797.15	5.556
797.46	19.178
797.76	-1.408
798.07	15.000
798.37	17.647
798.68	22.857
798.99	1.429
799.29	14.474
799.60	8.333
799.90	-5.556
800.21	-18.750
800.51	-4.762
800.82	9.836
801.12	5.263
801.43	8.451
801.73	0.000
802.04	16.393
802.34	-3.636
802.65	7.692
802.95	20.370
803.26	5.000
803.56	21.154
803.87	-23.684
804.17	11.290
804.48	0.000
804.78	-7.692
805.09	-4.651
805.39	-15.625
805.70	-5.660
806.00	8.772
806.30	24.324
806.61	-1.471
806.91	7.407
807.22	18.667
807.52	-1.493
807.83	-6.452
808.13	4.762
808.43	-16.364
808.74	10.606
809.04	18.868
809.35	4.110
809.65	15.789
809.95	11.765
810.26	7.843
810.56	4.000
810.86	10.204
811.17	22.857
811.47	5.769
811.77	-12.903
812.08	-44.737
812.38	19.048
812.69	-8.696
812.99	-6.452
813.29	-4.762
813.59	-74.074
813.90	0.000
814.20	-25.581
814.50	-18.750
814.81	15.000
815.11	-4.878
815.41	26.667
815.72	17.143
816.02	-8.333
816.32	15.385
816.62	-8.108
816.93	-8.824
817.23	8.696
817.53	8.824
817.84	-2.941
818.14	-21.875
818.44	-68.966
818.74	-25.806
819.04	-29.630
819.35	-13.333
819.65	-64.000
819.95	-3.333
820.25	-4.000
820.56	-26.316
820.86	-2.500
821.16	29.787
821.46	8.621
821.76	-28.205
822.07	-27.500
822.37	-9.302
822.67	-46.667
822.97	-18.919
823.27	16.216
823.57	12.000
823.88	13.514
824.18	-42.857
824.48	-26.923
824.78	-130.769
825.08	-21.739
825.38	4.167
825.69	-16.667
825.99	-65.000
826.29	-18.919
826.59	8.824
826.89	-20.000
827.19	-28.571
827.49	21.053
827.79	-34.375
828.09	-23.333
828.39	4.348
828.70	-48.276
829.00	-17.241
829.30	-11.111
829.60	15.625
829.90	-16.667
830.20	-19.231
830.50	-57.143
830.80	0.000
831.10	25.641
831.40	-33.333
831.70	-5.882
832.00	-62.500
832.30	-100.000
832.60	-68.750
832.90	-133.333
833.20	17.647
833.50	-26.667
833.80	-26.667
834.10	-40.000
834.40	0.000
834.70	-55.556
835.00	3.846
835.30	8.333
835.60	10.345
835.90	-44.444
836.20	-45.455
836.50	-75.000
836.80	22.857
837.10	51.429
837.40	-29.412
837.70	-109.091
838.00	-4.167
838.30	-18.750
838.60	-33.333
838.90	20.000
839.19	30.435
839.49	4.348
839.79	-33.333
840.09	-52.174
840.39	-4.545
840.69	-12.500
840.99	-15.789
841.29	-50.000
841.59	-57.143
841.88	-33.333
842.18	-12.500
842.48	-76.471
842.78	-6.897
843.08	-35.714
843.38	15.385
843.68	-233.333
843.97	15.385
844.27	-163.636
844.57	-140.000
844.87	-4.000
845.17	-200.000
845.47	-100.000
845.76	-111.111
846.06	0.000
846.36	-600.000
846.66	-150.000
846.96	-78.947
847.25	12.500
847.55	-50.000
847.85	-6.667
848.15	-130.000
848.44	50.000
848.74	-10.526
849.04	233.333
849.34	-133.333
849.63	-136.842
849.93	0.000
850.23	-5.000
850.53	4.762
850.82	-12.000
851.12	-52.632
851.42	-250.000
851.71	-7.143
852.01	-58.333
852.31	-35.294
852.61	-53.333
852.90	-4.762
853.20	-216.667
853.50	-16.667
853.79	-36.842
854.09	-60.000
854.39	-28.571
854.68	-39.130
854.98	-116.667
855.28	-3.448
855.57	31.250
855.87	0.000
856.17	-73.333
856.46	34.483
856.76	-60.000
857.05	-64.706
857.35	-123.077
857.65	-9.091
857.94	-18.519
858.24	-128.571
858.53	-42.857
858.83	-41.667
859.13	-144.444
859.42	47.619
859.72	-12.500
860.01	-100.000
860.31	-62.500
860.60	-400.000
860.90	-77.778
861.20	-75.000
861.49	-128.571
861.79	-17.647
862.08	-500.000
862.38	-125.000
862.67	-76.923
862.97	5.882
863.26	-5.000
863.56	-5.882
863.85	-100.000
864.15	-190.000
864.44	-38.462
864.74	-10.000
865.03	-162.500
865.33	-183.333
865.62	-64.706
865.92	-250.000
866.21	-50.000
866.51	-16.667
866.80	-700.000
867.10	-366.667
867.39	5.882
867.69	39.130
867.98	-85.714
868.27	-280.000
868.57	-87.500
868.86	-209.091
869.16	-35.294
869.45	-16.667
869.75	-57.143
870.04	300.000
870.33	8.333
870.63	60.000
870.92	-122.222
871.22	-116.667
871.51	-9.091
871.80	-41.667
872.10	-10.000
>>>>>End Processed Spectral Data<<<<<
