SpectraSuite Data File
++++++++++++++++++++++++++++++++++++
Date: Sat May 16 11:16:14 PDT 2015
User: schluterlab
Dark Spectrum Present: Yes
Reference Spectrum Present: Yes
Number of Sampled Component Spectra: 1
Spectrometers: USB2E3373
Integration Time (usec): 3000 (USB2E3373)
Spectra Averaged: 3 (USB2E3373)
Boxcar Smoothing: 0 (USB2E3373)
Correct for Electrical Dark: No (USB2E3373)
Strobe/Lamp Enabled: No (USB2E3373)
Correct for Detector Non-linearity: No (USB2E3373)
Correct for Stray Light: No (USB2E3373)
Number of Pixels in Processed Spectrum: 2048
>>>>>Begin Processed Spectral Data<<<<<
178.53	0.000
178.91	113.333
179.29	-33.333
179.67	-900.000
180.04	-23.077
180.42	-100.000
180.80	175.000
181.18	300.000
181.56	12.500
181.94	700.000
182.31	475.000
182.69	-7.692
183.07	-366.667
183.45	1200.000
183.83	433.333
184.20	-71.429
184.58	-100.000
184.96	-125.000
185.34	75.000
185.72	-350.000
186.09	-33.333
186.47	-175.000
186.85	-137.500
187.23	0.000
187.61	350.000
187.98	-275.000
188.36	12.500
188.74	-12.500
189.12	700.000
189.49	285.714
189.87	50.000
190.25	250.000
190.63	-28.571
191.00	-77.778
191.38	280.000
191.76	0.000
192.14	400.000
192.51	-200.000
192.89	-133.333
193.27	0.000
193.65	-111.111
194.02	-100.000
194.40	333.333
194.78	0.000
195.15	-900.000
195.53	-27.273
195.91	-216.667
196.29	240.000
196.66	-400.000
197.04	1400.000
197.42	-100.000
197.79	-6.667
198.17	-266.667
198.55	-650.000
198.92	-500.000
199.30	112.500
199.68	50.000
200.05	-77.778
200.43	-111.111
200.81	-200.000
201.18	-100.000
201.56	128.571
201.94	-60.000
202.31	13.636
202.69	-80.000
203.07	-50.000
203.44	600.000
203.82	-183.333
204.19	-300.000
204.57	-125.000
204.95	-700.000
205.32	-18.750
205.70	800.000
206.08	-1300.000
206.45	11.111
206.83	-800.000
207.20	350.000
207.58	-600.000
207.96	-500.000
208.33	-37.500
208.71	-133.333
209.08	180.000
209.46	-71.429
209.84	100.000
210.21	0.000
210.59	50.000
210.96	1700.000
211.34	-100.000
211.71	33.333
212.09	275.000
212.46	700.000
212.84	-900.000
213.22	600.000
213.59	41.667
213.97	55.556
214.34	60.000
214.72	-70.000
215.09	-266.667
215.47	-100.000
215.84	-10.000
216.22	-110.000
216.59	-60.000
216.97	-125.000
217.34	1000.000
217.72	-114.286
218.09	-200.000
218.47	-100.000
218.84	128.571
219.22	-28.571
219.59	0.000
219.97	100.000
220.34	250.000
220.72	250.000
221.09	-23.077
221.47	0.000
221.84	533.333
222.22	250.000
222.59	500.000
222.97	-187.500
223.34	-700.000
223.72	-466.667
224.09	-14.286
224.46	-375.000
224.84	21.429
225.21	-128.571
225.59	-54.545
225.96	-137.500
226.34	114.286
226.71	-88.889
227.08	30.000
227.46	1200.000
227.83	-42.857
228.21	-62.500
228.58	350.000
228.95	-25.000
229.33	-1100.000
229.70	0.000
230.08	-850.000
230.45	41.667
230.82	-166.667
231.20	-1000.000
231.57	-400.000
231.95	1900.000
232.32	38.095
232.69	-133.333
233.07	-185.714
233.44	-600.000
233.81	-46.667
234.19	-77.778
234.56	-62.500
234.93	-25.000
235.31	-214.286
235.68	-78.571
236.05	17.647
236.43	-45.455
236.80	-12.903
237.17	-37.500
237.55	-19.048
237.92	-90.909
238.29	-2.857
238.67	-26.471
239.04	-27.778
239.41	-22.581
239.79	-38.462
240.16	-21.429
240.53	-12.727
240.91	-7.692
241.28	-3.636
241.65	-6.154
242.02	-13.115
242.40	-13.115
242.77	-3.030
243.14	-28.814
243.51	-20.000
243.89	-10.127
244.26	-4.494
244.63	-4.211
245.00	-5.263
245.38	-0.847
245.75	-9.735
246.12	-1.600
246.49	1.575
246.87	-3.252
247.24	-11.017
247.61	-8.475
247.98	-8.451
248.36	-6.294
248.73	-3.165
249.10	-6.369
249.47	-3.509
249.84	-3.977
250.22	-9.524
250.59	0.565
250.96	-3.665
251.33	0.000
251.70	0.962
252.08	-1.422
252.45	-6.635
252.82	-3.333
253.19	0.851
253.56	-0.403
253.94	-1.688
254.31	-7.296
254.68	-1.220
255.05	-5.645
255.42	0.794
255.79	-3.584
256.16	3.137
256.54	-0.368
256.91	-0.379
257.28	-4.762
257.65	0.355
258.02	0.000
258.39	-1.003
258.76	-3.716
259.14	1.235
259.51	1.967
259.88	0.610
260.25	4.969
260.62	-1.929
260.99	-1.780
261.36	0.915
261.73	2.601
262.10	2.222
262.47	0.285
262.85	2.286
263.22	-1.146
263.59	-6.769
263.96	-0.290
264.33	-0.813
264.70	-0.276
265.07	0.549
265.44	0.775
265.81	-0.258
266.18	-0.759
266.55	0.980
266.92	-0.756
267.29	1.211
267.66	-0.494
268.03	3.140
268.40	0.235
268.77	0.723
269.14	1.160
269.51	2.989
269.88	-2.294
270.25	-2.098
270.62	0.458
270.99	-0.901
271.36	-0.699
271.73	-2.018
272.10	-2.517
272.47	0.222
272.84	4.000
273.21	0.229
273.58	0.879
273.95	-1.316
274.32	1.131
274.69	1.532
275.06	1.431
275.43	-3.571
275.80	0.407
276.17	-0.209
276.54	3.462
276.91	-1.235
277.28	-0.811
277.65	0.826
278.02	-0.209
278.39	-0.196
278.76	1.195
279.13	1.581
279.50	1.193
279.87	-1.903
280.23	-0.607
280.60	-1.590
280.97	0.000
281.34	0.580
281.71	0.962
282.08	1.815
282.45	-2.037
282.82	-1.357
283.19	-0.727
283.56	2.747
283.92	-1.060
284.29	0.558
284.66	-0.360
285.03	1.783
285.40	1.292
285.77	1.404
286.14	0.181
286.51	-1.421
286.87	2.722
287.24	0.000
287.61	0.661
287.98	-1.906
288.35	-0.331
288.72	-0.679
289.08	-1.525
289.45	0.337
289.82	-0.692
290.19	-0.493
290.56	-1.653
290.93	0.000
291.29	-0.810
291.66	-0.644
292.03	-0.314
292.40	1.205
292.77	3.261
293.13	-0.163
293.50	0.297
293.87	1.687
294.24	0.151
294.60	-0.909
294.97	1.669
295.34	-0.593
295.71	-1.190
296.08	-0.614
296.44	-1.860
296.81	-0.142
297.18	0.000
297.55	0.000
297.91	1.395
298.28	-1.370
298.65	-0.558
299.02	1.604
299.38	0.134
299.75	1.495
300.12	0.128
300.48	0.767
300.85	-1.048
301.22	1.035
301.59	-0.130
301.95	2.393
302.32	-0.391
302.69	0.122
303.05	0.366
303.42	0.000
303.79	0.120
304.15	0.592
304.52	0.350
304.89	1.653
305.25	0.244
305.62	0.940
305.99	1.767
306.35	0.666
306.72	0.228
307.09	1.589
307.45	0.908
307.82	0.894
308.19	1.230
308.55	1.634
308.92	0.322
309.29	0.757
309.65	0.212
310.02	1.188
310.38	-1.730
310.75	1.127
311.12	1.446
311.48	2.505
311.85	1.236
312.22	1.648
312.58	2.340
312.95	1.733
313.31	1.199
313.68	3.015
314.05	3.363
314.41	1.006
314.78	0.200
315.14	3.356
315.51	2.634
315.87	2.614
316.24	3.013
316.61	3.359
316.97	4.478
317.34	3.083
317.70	3.432
318.07	4.011
318.43	3.652
318.80	4.319
319.16	4.128
319.53	3.477
319.89	4.233
320.26	5.784
320.62	5.481
320.99	5.274
321.35	5.320
321.72	5.834
322.08	6.429
322.45	6.733
322.81	7.973
323.18	7.205
323.54	7.763
323.91	7.600
324.27	7.795
324.64	8.958
325.00	10.209
325.37	10.407
325.73	11.724
326.10	9.566
326.46	11.909
326.83	11.319
327.19	11.593
327.56	14.225
327.92	13.679
328.29	14.199
328.65	12.273
329.01	14.488
329.38	14.897
329.74	17.582
330.11	16.228
330.47	17.802
330.84	17.599
331.20	17.780
331.56	17.229
331.93	18.739
332.29	18.539
332.66	18.876
333.02	19.367
333.38	20.968
333.75	20.036
334.11	20.267
334.48	21.006
334.84	21.522
335.20	20.567
335.57	21.570
335.93	22.292
336.29	20.283
336.66	20.441
337.02	21.712
337.38	20.321
337.75	20.369
338.11	21.199
338.47	20.730
338.84	22.051
339.20	21.529
339.56	22.460
339.93	22.046
340.29	21.258
340.65	21.329
341.02	22.344
341.38	21.146
341.74	21.507
342.11	21.928
342.47	21.888
342.83	21.914
343.20	22.289
343.56	21.714
343.92	22.120
344.28	22.792
344.65	21.452
345.01	21.765
345.37	22.508
345.73	21.195
346.10	20.605
346.46	20.390
346.82	21.411
347.19	21.775
347.55	21.750
347.91	20.236
348.27	20.684
348.63	22.213
349.00	23.230
349.36	20.453
349.72	23.010
350.08	21.251
350.45	20.567
350.81	22.054
351.17	21.383
351.53	20.286
351.89	21.423
352.26	22.248
352.62	22.427
352.98	21.994
353.34	21.823
353.70	20.772
354.07	21.951
354.43	22.609
354.79	20.998
355.15	21.645
355.51	20.312
355.87	22.055
356.24	20.334
356.60	22.643
356.96	21.786
357.32	21.298
357.68	21.686
358.04	21.940
358.40	21.268
358.77	21.484
359.13	22.035
359.49	22.600
359.85	21.037
360.21	22.222
360.57	23.042
360.93	21.037
361.29	21.749
361.66	20.884
362.02	22.559
362.38	22.597
362.74	22.784
363.10	22.166
363.46	23.006
363.82	22.522
364.18	22.359
364.54	23.517
364.90	21.314
365.26	22.397
365.62	22.880
365.98	22.404
366.35	22.746
366.71	22.269
367.07	22.653
367.43	23.267
367.79	22.955
368.15	22.262
368.51	24.336
368.87	24.176
369.23	22.526
369.59	23.403
369.95	21.846
370.31	23.347
370.67	22.415
371.03	23.615
371.39	21.994
371.75	23.319
372.11	23.960
372.47	24.006
372.83	24.965
373.19	24.571
373.55	24.631
373.91	24.111
374.27	24.983
374.63	23.741
374.99	24.131
375.35	23.890
375.71	25.051
376.07	25.325
376.42	24.437
376.78	24.967
377.14	25.085
377.50	24.371
377.86	25.488
378.22	24.560
378.58	25.015
378.94	25.154
379.30	25.899
379.66	25.137
380.02	25.550
380.38	25.619
380.74	25.440
381.09	25.483
381.45	26.313
381.81	25.892
382.17	26.692
382.53	24.742
382.89	26.017
383.25	26.550
383.61	26.061
383.97	26.393
384.32	24.906
384.68	27.146
385.04	26.570
385.40	25.685
385.76	26.768
386.12	26.421
386.48	27.475
386.83	26.564
387.19	26.360
387.55	26.529
387.91	26.793
388.27	26.779
388.62	27.043
388.98	27.377
389.34	27.601
389.70	26.979
390.06	27.843
390.42	28.397
390.77	27.823
391.13	27.453
391.49	27.324
391.85	27.618
392.20	27.609
392.56	26.817
392.92	28.294
393.28	28.473
393.64	28.803
393.99	28.062
394.35	27.920
394.71	27.671
395.07	28.186
395.42	27.592
395.78	28.850
396.14	28.972
396.50	28.196
396.85	29.303
397.21	28.250
397.57	30.091
397.92	29.274
398.28	29.444
398.64	28.614
399.00	28.427
399.35	28.805
399.71	30.023
400.07	29.134
400.42	28.345
400.78	28.861
401.14	27.605
401.49	29.363
401.85	29.835
402.21	29.261
402.57	28.823
402.92	29.641
403.28	29.228
403.63	28.400
403.99	30.019
404.35	28.684
404.70	28.613
405.06	30.046
405.42	28.229
405.77	29.129
406.13	29.358
406.49	30.018
406.84	28.434
407.20	28.916
407.55	29.576
407.91	28.821
408.27	29.596
408.62	29.946
408.98	30.807
409.34	29.372
409.69	30.561
410.05	29.654
410.40	29.430
410.76	30.053
411.11	29.613
411.47	29.604
411.83	30.929
412.18	30.012
412.54	29.957
412.89	30.984
413.25	30.165
413.60	30.620
413.96	29.144
414.31	30.887
414.67	29.333
415.03	30.013
415.38	30.384
415.74	30.992
416.09	30.627
416.45	31.349
416.80	31.274
417.16	30.365
417.51	31.517
417.87	31.197
418.22	31.100
418.58	31.515
418.93	30.411
419.29	30.866
419.64	30.276
420.00	31.349
420.35	31.756
420.71	31.993
421.06	32.485
421.42	31.733
421.77	31.379
422.12	32.345
422.48	31.962
422.83	31.435
423.19	32.183
423.54	31.643
423.90	31.810
424.25	31.165
424.61	32.328
424.96	33.177
425.31	33.259
425.67	31.862
426.02	32.071
426.38	33.212
426.73	32.613
427.09	33.088
427.44	32.955
427.79	33.140
428.15	34.051
428.50	33.548
428.85	32.974
429.21	32.983
429.56	33.594
429.92	33.417
430.27	33.599
430.62	34.431
430.98	32.619
431.33	33.671
431.68	34.316
432.04	34.527
432.39	34.815
432.74	33.453
433.10	34.665
433.45	33.333
433.80	34.099
434.16	34.713
434.51	34.137
434.86	35.559
435.22	35.579
435.57	34.578
435.92	35.287
436.28	34.599
436.63	34.992
436.98	33.963
437.34	35.204
437.69	35.356
438.04	35.678
438.39	36.282
438.75	35.739
439.10	35.258
439.45	35.486
439.81	35.964
440.16	34.810
440.51	35.647
440.86	35.685
441.22	34.936
441.57	36.053
441.92	35.550
442.27	36.580
442.63	36.320
442.98	35.045
443.33	35.805
443.68	36.321
444.03	35.609
444.39	35.977
444.74	36.619
445.09	36.568
445.44	35.847
445.79	36.461
446.15	36.418
446.50	35.602
446.85	36.121
447.20	36.874
447.55	36.022
447.91	37.844
448.26	36.816
448.61	36.106
448.96	37.087
449.31	36.528
449.66	36.920
450.02	36.288
450.37	36.812
450.72	36.271
451.07	36.958
451.42	35.998
451.77	36.206
452.12	35.518
452.47	36.524
452.83	37.100
453.18	36.939
453.53	36.256
453.88	37.500
454.23	37.001
454.58	37.539
454.93	37.783
455.28	37.540
455.63	39.005
455.98	38.373
456.34	36.595
456.69	38.712
457.04	36.939
457.39	37.560
457.74	37.626
458.09	37.181
458.44	38.626
458.79	37.052
459.14	36.509
459.49	37.241
459.84	37.324
460.19	36.814
460.54	37.205
460.89	37.724
461.24	37.948
461.59	37.515
461.94	37.619
462.29	37.701
462.64	38.142
462.99	39.224
463.34	36.935
463.69	38.550
464.04	37.317
464.39	36.798
464.74	37.411
465.09	37.523
465.44	37.789
465.79	38.579
466.14	37.917
466.49	37.363
466.84	37.695
467.19	38.903
467.54	38.291
467.89	38.101
468.24	36.936
468.59	38.101
468.94	37.878
469.29	36.582
469.64	38.140
469.99	37.947
470.34	38.277
470.68	39.172
471.03	38.954
471.38	37.222
471.73	38.462
472.08	36.948
472.43	37.452
472.78	36.867
473.13	36.978
473.48	38.098
473.83	38.027
474.17	38.981
474.52	38.747
474.87	37.646
475.22	37.227
475.57	37.889
475.92	37.743
476.27	36.857
476.61	37.577
476.96	37.954
477.31	38.805
477.66	38.019
478.01	38.466
478.36	37.349
478.70	39.028
479.05	37.372
479.40	37.772
479.75	38.277
480.10	37.599
480.45	37.476
480.79	38.648
481.14	38.334
481.49	38.190
481.84	38.234
482.19	37.551
482.53	37.358
482.88	37.304
483.23	37.653
483.58	38.992
483.92	38.462
484.27	37.483
484.62	37.451
484.97	37.841
485.31	36.864
485.66	36.199
486.01	36.232
486.36	37.441
486.70	38.003
487.05	36.658
487.40	37.099
487.75	36.917
488.09	36.597
488.44	37.077
488.79	37.389
489.13	37.238
489.48	37.847
489.83	37.729
490.17	37.658
490.52	38.361
490.87	37.506
491.22	38.300
491.56	38.148
491.91	38.263
492.26	38.443
492.60	38.011
492.95	38.077
493.30	37.732
493.64	38.364
493.99	37.476
494.34	38.476
494.68	39.139
495.03	38.098
495.37	38.791
495.72	37.132
496.07	38.902
496.41	38.907
496.76	38.493
497.11	38.436
497.45	37.931
497.80	38.819
498.14	38.507
498.49	37.619
498.84	38.010
499.18	38.596
499.53	38.139
499.87	37.693
500.22	38.578
500.56	38.269
500.91	37.241
501.26	38.379
501.60	38.276
501.95	38.599
502.29	37.742
502.64	38.331
502.98	38.476
503.33	37.735
503.67	37.548
504.02	37.904
504.36	37.745
504.71	37.589
505.06	37.743
505.40	37.874
505.75	36.941
506.09	37.867
506.44	37.694
506.78	38.886
507.13	37.745
507.47	38.967
507.82	37.016
508.16	37.565
508.51	38.640
508.85	37.785
509.19	38.932
509.54	38.055
509.88	38.298
510.23	38.103
510.57	38.307
510.92	40.440
511.26	37.852
511.61	37.311
511.95	38.416
512.30	39.472
512.64	37.173
512.98	39.164
513.33	37.507
513.67	37.688
514.02	38.367
514.36	38.892
514.70	38.879
515.05	38.994
515.39	38.524
515.74	39.500
516.08	38.213
516.42	38.810
516.77	38.590
517.11	39.016
517.46	38.756
517.80	39.952
518.14	37.681
518.49	39.091
518.83	37.982
519.17	39.254
519.52	37.363
519.86	39.665
520.20	37.775
520.55	37.908
520.89	38.447
521.23	38.584
521.58	37.743
521.92	38.632
522.26	37.905
522.61	38.657
522.95	38.162
523.29	39.060
523.64	38.289
523.98	39.147
524.32	38.592
524.66	38.571
525.01	37.636
525.35	38.595
525.69	37.931
526.04	39.099
526.38	39.211
526.72	38.250
527.06	37.956
527.41	36.700
527.75	37.426
528.09	37.326
528.43	39.607
528.78	38.003
529.12	38.540
529.46	37.371
529.80	38.347
530.15	38.120
530.49	37.516
530.83	38.376
531.17	38.855
531.51	37.843
531.86	38.051
532.20	37.922
532.54	38.570
532.88	38.011
533.22	37.166
533.57	38.185
533.91	37.578
534.25	37.398
534.59	37.102
534.93	37.461
535.27	37.319
535.62	37.660
535.96	37.750
536.30	35.995
536.64	36.720
536.98	38.206
537.32	37.664
537.66	37.407
538.01	37.732
538.35	37.500
538.69	36.765
539.03	38.253
539.37	37.924
539.71	36.024
540.05	37.491
540.39	37.881
540.73	36.697
541.07	37.363
541.42	36.057
541.76	36.478
542.10	37.677
542.44	37.308
542.78	36.974
543.12	37.746
543.46	36.438
543.80	36.321
544.14	36.132
544.48	36.942
544.82	36.401
545.16	35.882
545.50	34.791
545.84	36.439
546.18	37.032
546.52	36.913
546.86	36.610
547.20	37.131
547.54	34.986
547.88	36.828
548.22	34.862
548.56	35.204
548.90	35.647
549.24	36.370
549.58	36.909
549.92	35.548
550.26	37.211
550.60	34.637
550.94	36.788
551.28	36.268
551.62	36.263
551.96	35.166
552.30	35.261
552.64	35.327
552.98	36.720
553.32	35.354
553.66	35.905
554.00	35.039
554.34	35.018
554.68	35.819
555.02	34.660
555.36	35.370
555.69	34.885
556.03	34.035
556.37	35.633
556.71	36.006
557.05	35.181
557.39	35.189
557.73	36.251
558.07	36.549
558.41	35.378
558.75	34.677
559.08	33.774
559.42	35.145
559.76	35.583
560.10	34.377
560.44	35.260
560.78	34.308
561.12	34.300
561.45	34.247
561.79	34.495
562.13	34.011
562.47	34.104
562.81	35.431
563.15	34.360
563.48	33.932
563.82	34.077
564.16	32.995
564.50	34.409
564.84	32.672
565.17	34.019
565.51	33.963
565.85	35.024
566.19	35.112
566.52	33.855
566.86	33.628
567.20	33.838
567.54	33.786
567.88	32.887
568.21	33.445
568.55	33.563
568.89	31.610
569.23	31.745
569.56	32.072
569.90	31.589
570.24	31.755
570.57	30.650
570.91	30.398
571.25	31.453
571.59	31.377
571.92	30.268
572.26	29.838
572.60	30.655
572.93	30.040
573.27	30.244
573.61	29.252
573.95	29.164
574.28	29.492
574.62	29.741
574.96	29.711
575.29	29.395
575.63	29.360
575.97	29.369
576.30	29.076
576.64	29.426
576.98	29.087
577.31	29.082
577.65	29.456
577.98	29.022
578.32	28.752
578.66	29.494
578.99	29.424
579.33	28.410
579.67	28.887
580.00	29.241
580.34	28.523
580.67	28.929
581.01	28.336
581.35	28.866
581.68	28.092
582.02	28.401
582.35	28.536
582.69	28.839
583.02	29.156
583.36	28.599
583.70	28.213
584.03	28.906
584.37	28.498
584.70	28.099
585.04	28.253
585.37	28.377
585.71	28.520
586.04	28.546
586.38	27.907
586.72	28.326
587.05	28.575
587.39	28.790
587.72	28.537
588.06	28.308
588.39	28.083
588.73	28.334
589.06	28.645
589.40	28.787
589.73	28.258
590.07	28.259
590.40	28.893
590.73	28.709
591.07	28.402
591.40	29.463
591.74	28.454
592.07	28.874
592.41	29.257
592.74	28.901
593.08	28.630
593.41	27.928
593.75	27.267
594.08	28.433
594.41	27.948
594.75	28.011
595.08	28.797
595.42	27.926
595.75	28.004
596.09	28.444
596.42	28.560
596.75	27.943
597.09	27.694
597.42	28.416
597.75	28.831
598.09	28.107
598.42	28.635
598.76	27.159
599.09	27.111
599.42	27.951
599.76	27.860
600.09	28.168
600.42	28.523
600.76	27.684
601.09	27.763
601.42	27.345
601.76	28.076
602.09	28.262
602.42	27.901
602.76	27.337
603.09	27.339
603.42	27.397
603.76	28.241
604.09	27.833
604.42	26.936
604.76	27.649
605.09	27.803
605.42	26.995
605.75	27.253
606.09	28.103
606.42	26.938
606.75	27.351
607.09	27.172
607.42	27.597
607.75	26.887
608.08	27.836
608.42	27.720
608.75	26.636
609.08	27.716
609.41	27.603
609.75	26.767
610.08	26.863
610.41	26.892
610.74	28.143
611.07	27.333
611.41	27.534
611.74	27.712
612.07	27.336
612.40	26.919
612.73	27.194
613.07	27.188
613.40	27.258
613.73	27.084
614.06	26.908
614.39	28.072
614.72	27.039
615.06	26.630
615.39	27.564
615.72	27.159
616.05	26.063
616.38	27.974
616.71	26.967
617.05	27.443
617.38	27.492
617.71	26.167
618.04	27.391
618.37	26.855
618.70	27.966
619.03	27.691
619.36	27.555
619.69	27.782
620.03	27.548
620.36	27.918
620.69	27.925
621.02	27.473
621.35	27.984
621.68	28.852
622.01	27.346
622.34	27.950
622.67	27.031
623.00	28.615
623.33	27.687
623.66	26.883
623.99	27.368
624.32	27.158
624.65	28.403
624.99	26.512
625.32	26.497
625.65	27.894
625.98	25.978
626.31	27.406
626.64	27.615
626.97	27.911
627.30	27.830
627.63	26.770
627.96	26.632
628.29	27.298
628.62	27.603
628.95	27.657
629.28	26.598
629.61	26.693
629.94	29.584
630.26	28.529
630.59	28.040
630.92	28.228
631.25	27.621
631.58	27.196
631.91	27.234
632.24	28.222
632.57	28.556
632.90	28.506
633.23	29.439
633.56	27.953
633.89	29.363
634.22	28.099
634.55	28.365
634.88	27.086
635.20	28.090
635.53	28.753
635.86	27.204
636.19	28.449
636.52	26.762
636.85	27.798
637.18	26.875
637.51	28.748
637.83	28.628
638.16	27.632
638.49	26.345
638.82	27.027
639.15	27.237
639.48	27.108
639.81	29.599
640.13	28.784
640.46	28.632
640.79	27.871
641.12	28.068
641.45	29.555
641.77	28.593
642.10	27.644
642.43	28.680
642.76	28.819
643.09	28.571
643.41	27.937
643.74	28.617
644.07	29.641
644.40	29.660
644.73	29.043
645.05	26.711
645.38	28.642
645.71	30.241
646.04	29.076
646.36	27.225
646.69	26.125
647.02	28.881
647.35	30.505
647.67	30.109
648.00	28.295
648.33	31.029
648.66	27.258
648.98	28.503
649.31	27.231
649.64	27.812
649.96	29.827
650.29	26.557
650.62	27.022
650.94	28.499
651.27	28.076
651.60	28.028
651.92	29.281
652.25	28.214
652.58	26.746
652.90	27.769
653.23	27.419
653.56	24.080
653.88	26.557
654.21	28.356
654.54	26.412
654.86	27.127
655.19	25.501
655.52	23.961
655.84	21.917
656.17	23.963
656.49	32.800
656.82	33.590
657.15	25.438
657.47	18.534
657.80	14.291
658.13	16.444
658.45	21.916
658.78	21.198
659.10	21.395
659.43	21.066
659.75	20.968
660.08	21.510
660.41	21.549
660.73	23.982
661.06	24.783
661.38	29.286
661.71	24.857
662.03	29.637
662.36	27.932
662.68	26.793
663.01	28.450
663.33	27.891
663.66	28.541
663.98	29.241
664.31	24.832
664.63	30.752
664.96	28.850
665.28	27.115
665.61	25.793
665.93	27.572
666.26	27.935
666.58	27.027
666.91	28.953
667.23	28.070
667.56	26.757
667.88	25.339
668.21	27.650
668.53	25.467
668.86	29.792
669.18	28.995
669.50	23.131
669.83	27.737
670.15	27.578
670.48	28.271
670.80	23.235
671.13	25.508
671.45	25.225
671.77	25.268
672.10	27.811
672.42	26.384
672.75	23.636
673.07	21.802
673.39	25.137
673.72	23.425
674.04	25.902
674.37	23.711
674.69	28.689
675.01	25.319
675.34	24.946
675.66	24.838
675.98	28.194
676.31	26.923
676.63	25.057
676.95	26.106
677.28	25.290
677.60	28.054
677.92	28.855
678.25	26.915
678.57	25.309
678.89	21.803
679.22	25.786
679.54	25.444
679.86	22.600
680.18	26.996
680.51	23.650
680.83	24.190
681.15	22.543
681.48	28.803
681.80	23.992
682.12	23.944
682.44	23.969
682.77	24.026
683.09	23.899
683.41	26.770
683.73	23.973
684.06	24.086
684.38	23.431
684.70	24.691
685.02	24.016
685.34	24.172
685.67	24.432
685.99	20.983
686.31	24.237
686.63	23.936
686.96	24.030
687.28	22.929
687.60	23.828
687.92	21.012
688.24	24.016
688.56	22.044
688.89	22.650
689.21	24.070
689.53	22.299
689.85	22.494
690.17	24.439
690.49	26.790
690.82	26.265
691.14	25.236
691.46	25.055
691.78	25.991
692.10	22.034
692.42	23.111
692.74	22.318
693.06	22.921
693.39	25.280
693.71	23.702
694.03	25.270
694.35	23.025
694.67	21.513
694.99	21.228
695.31	22.194
695.63	22.959
695.95	22.084
696.27	25.686
696.59	21.390
696.91	23.315
697.23	24.219
697.56	19.471
697.88	22.523
698.20	22.698
698.52	18.834
698.84	22.330
699.16	23.810
699.48	21.750
699.80	23.810
700.12	24.433
700.44	18.715
700.76	23.907
701.08	25.872
701.40	21.148
701.72	17.593
702.04	28.205
702.36	23.193
702.68	22.455
703.00	26.087
703.32	20.917
703.64	24.118
703.96	21.802
704.28	20.710
704.60	21.203
704.91	18.413
705.23	23.948
705.55	23.311
705.87	24.915
706.19	22.917
706.51	22.569
706.83	21.967
707.15	21.338
707.47	24.518
707.79	18.041
708.11	20.356
708.43	22.195
708.74	20.260
709.06	21.727
709.38	21.839
709.70	22.187
710.02	25.767
710.34	19.802
710.66	19.683
710.98	19.558
711.29	20.000
711.61	19.489
711.93	18.689
712.25	19.269
712.57	24.739
712.89	24.820
713.20	23.024
713.52	16.418
713.84	20.996
714.16	20.656
714.48	21.587
714.80	21.231
715.11	19.597
715.43	25.904
715.75	19.003
716.07	19.672
716.39	18.729
716.70	27.178
717.02	22.963
717.34	24.427
717.66	24.066
717.97	24.590
718.29	23.109
718.61	25.000
718.93	20.072
719.24	15.809
719.56	12.830
719.88	20.364
720.20	19.101
720.51	22.932
720.83	18.474
721.15	19.262
721.46	24.706
721.78	21.839
722.10	24.000
722.42	20.661
722.73	20.717
723.05	19.679
723.37	23.529
723.68	25.506
724.00	26.423
724.32	21.811
724.63	19.087
724.95	21.074
725.27	17.982
725.58	25.000
725.90	14.286
726.22	25.092
726.53	17.110
726.85	16.078
727.16	18.797
727.48	16.538
727.80	12.295
728.11	17.227
728.43	21.488
728.74	19.141
729.06	18.182
729.38	17.510
729.69	16.142
730.01	22.047
730.32	18.327
730.64	20.513
730.96	19.776
731.27	23.571
731.59	22.508
731.90	18.712
732.22	21.166
732.53	23.510
732.85	17.785
733.16	18.841
733.48	18.815
733.80	17.082
734.11	18.621
734.43	17.347
734.74	20.772
735.06	14.420
735.37	19.266
735.69	12.903
736.00	18.182
736.32	18.874
736.63	14.483
736.95	17.029
737.26	20.861
737.58	18.345
737.89	20.430
738.21	15.038
738.52	20.385
738.83	21.094
739.15	14.530
739.46	20.565
739.78	19.231
740.09	19.231
740.41	19.580
740.72	22.628
741.04	16.667
741.35	13.420
741.66	20.370
741.98	5.238
742.29	23.944
742.61	19.251
742.92	20.093
743.23	20.175
743.55	21.171
743.86	23.556
744.18	14.762
744.49	18.227
744.80	14.721
745.12	22.680
745.43	18.090
745.74	17.476
746.06	17.561
746.37	22.907
746.68	18.905
747.00	17.801
747.31	18.269
747.62	16.129
747.94	19.651
748.25	20.000
748.56	20.000
748.88	15.217
749.19	20.188
749.50	20.588
749.82	16.889
750.13	18.502
750.44	20.732
750.75	16.000
751.07	19.286
751.38	16.974
751.69	16.031
752.01	17.308
752.32	12.840
752.63	17.308
752.94	15.873
753.26	20.435
753.57	20.982
753.88	18.534
754.19	12.448
754.51	16.016
754.82	15.810
755.13	16.872
755.44	14.876
755.75	20.165
756.07	12.851
756.38	14.062
756.69	14.801
757.00	19.164
757.31	13.423
757.63	19.315
757.94	15.318
758.25	14.826
758.56	20.216
758.87	13.920
759.18	13.667
759.50	16.014
759.81	11.679
760.12	10.811
760.43	17.476
760.74	18.125
761.05	16.854
761.36	14.970
761.67	20.118
761.99	15.484
762.30	15.942
762.61	17.358
762.92	16.592
763.23	15.166
763.54	16.444
763.85	20.675
764.16	15.918
764.47	20.763
764.78	17.603
765.10	20.144
765.41	12.258
765.72	15.094
766.03	13.074
766.34	18.797
766.65	17.409
766.96	9.000
767.27	12.500
767.58	16.860
767.89	12.903
768.20	14.110
768.51	17.486
768.82	13.514
769.13	13.000
769.44	14.474
769.75	17.316
770.06	18.807
770.37	9.390
770.68	9.896
770.99	12.871
771.30	14.563
771.61	15.278
771.92	12.121
772.23	14.486
772.54	11.702
772.85	7.692
773.16	10.366
773.47	22.892
773.78	21.429
774.09	8.000
774.39	15.432
774.70	11.409
775.01	23.188
775.32	2.985
775.63	11.570
775.94	19.549
776.25	23.571
776.56	14.754
776.87	23.894
777.18	23.894
777.48	6.364
777.79	9.565
778.10	1.835
778.41	11.017
778.72	11.570
779.03	21.642
779.34	15.789
779.65	14.379
779.95	14.493
780.26	17.687
780.57	-0.862
780.88	9.259
781.19	10.101
781.50	8.800
781.80	13.072
782.11	11.538
782.42	10.843
782.73	1.460
783.04	13.514
783.34	12.121
783.65	13.178
783.96	7.317
784.27	15.385
784.57	17.073
784.88	8.130
785.19	14.035
785.50	2.062
785.81	14.286
786.11	8.824
786.42	6.364
786.73	4.505
787.04	6.931
787.34	20.952
787.65	11.429
787.96	14.706
788.26	11.712
788.57	21.774
788.88	15.625
789.19	8.547
789.49	6.723
789.80	0.000
790.11	23.009
790.41	7.071
790.72	16.981
791.03	5.556
791.33	0.000
791.64	11.828
791.95	1.333
792.25	1.429
792.56	10.976
792.87	9.184
793.17	6.579
793.48	4.054
793.79	5.634
794.09	7.595
794.40	13.830
794.70	11.215
795.01	5.263
795.32	-0.909
795.62	12.500
795.93	6.186
796.23	7.692
796.54	22.105
796.85	12.329
797.15	2.778
797.46	5.479
797.76	-2.817
798.07	17.500
798.37	-2.941
798.68	25.714
798.99	10.000
799.29	18.421
799.60	1.667
799.90	1.389
800.21	-9.375
800.51	11.111
800.82	16.393
801.12	0.000
801.43	4.225
801.73	8.475
802.04	16.393
802.34	-5.455
802.65	-17.308
802.95	5.556
803.26	-10.000
803.56	1.923
803.87	-31.579
804.17	14.516
804.48	-9.231
804.78	-30.769
805.09	-23.256
805.39	-59.375
805.70	0.000
806.00	24.561
806.30	20.270
806.61	8.824
806.91	18.519
807.22	1.333
807.52	13.433
807.83	-3.226
808.13	3.175
808.43	12.727
808.74	13.636
809.04	-1.887
809.35	8.219
809.65	15.789
809.95	1.471
810.26	1.961
810.56	-8.000
810.86	4.082
811.17	-11.429
811.47	15.385
811.77	0.000
812.08	-44.737
812.38	-9.524
812.69	-19.565
812.99	0.000
813.29	-23.810
813.59	-18.519
813.90	-6.383
814.20	-27.907
814.50	-8.333
814.81	6.667
815.11	-7.317
815.41	-30.000
815.72	20.000
816.02	-11.111
816.32	10.256
816.62	0.000
816.93	-26.471
817.23	-8.696
817.53	-11.765
817.84	-11.765
818.14	-59.375
818.44	-20.690
818.74	-32.258
819.04	-51.852
819.35	3.333
819.65	-40.000
819.95	-6.667
820.25	-28.000
820.56	-7.895
820.86	-25.000
821.16	6.383
821.46	1.724
821.76	10.256
822.07	-15.000
822.37	0.000
822.67	-6.667
822.97	-32.432
823.27	18.919
823.57	32.000
823.88	2.703
824.18	-42.857
824.48	-19.231
824.78	-53.846
825.08	-30.435
825.38	-37.500
825.69	-37.500
825.99	-45.000
826.29	-32.432
826.59	0.000
826.89	-28.000
827.19	11.429
827.49	-2.632
827.79	-46.875
828.09	3.333
828.39	-17.391
828.70	-72.414
829.00	-24.138
829.30	-30.556
829.60	-6.250
829.90	-66.667
830.20	-46.154
830.50	-76.190
830.80	-53.571
831.10	5.128
831.40	-19.048
831.70	-2.941
832.00	29.167
832.30	-26.316
832.60	6.250
832.90	-116.667
833.20	-76.471
833.50	-6.667
833.80	-20.000
834.10	-50.000
834.40	29.167
834.70	5.556
835.00	-19.231
835.30	-37.500
835.60	-3.448
835.90	-61.111
836.20	-54.545
836.50	-8.333
836.80	5.714
837.10	68.571
837.40	-35.294
837.70	-54.545
838.00	-20.833
838.30	-37.500
838.60	-19.048
838.90	0.000
839.19	-43.478
839.49	-39.130
839.79	-50.000
840.09	-56.522
840.39	-54.545
840.69	-31.250
840.99	-68.421
841.29	-43.750
841.59	21.429
841.88	-5.556
842.18	-41.667
842.48	-88.235
842.78	-31.034
843.08	-28.571
843.38	-107.692
843.68	-55.556
843.97	-100.000
844.27	0.000
844.57	-140.000
844.87	-8.000
845.17	-180.000
845.47	-107.143
845.76	-44.444
846.06	0.000
846.36	-300.000
846.66	-150.000
846.96	-31.579
847.25	8.333
847.55	-125.000
847.85	33.333
848.15	-120.000
848.44	50.000
848.74	26.316
849.04	400.000
849.34	-77.778
849.63	-36.842
849.93	0.000
850.23	-50.000
850.53	19.048
850.82	-24.000
851.12	-31.579
851.42	-1000.000
851.71	-28.571
852.01	-100.000
852.31	-35.294
852.61	-26.667
852.90	-33.333
853.20	-233.333
853.50	-22.222
853.79	-73.684
854.09	-6.667
854.39	-25.000
854.68	-39.130
854.98	-183.333
855.28	-6.897
855.57	-37.500
855.87	-30.000
856.17	-33.333
856.46	-13.793
856.76	-80.000
857.05	0.000
857.35	-84.615
857.65	-9.091
857.94	-7.407
858.24	-42.857
858.53	-107.143
858.83	-33.333
859.13	-133.333
859.42	42.857
859.72	37.500
860.01	-366.667
860.31	-100.000
860.60	-360.000
860.90	-155.556
861.20	-75.000
861.49	-171.429
861.79	-23.529
862.08	-950.000
862.38	-91.667
862.67	-38.462
862.97	-5.882
863.26	-15.000
863.56	-17.647
863.85	366.667
864.15	-10.000
864.44	-84.615
864.74	35.000
865.03	-275.000
865.33	-100.000
865.62	-41.176
865.92	-400.000
866.21	-71.429
866.51	-141.667
866.80	-300.000
867.10	-233.333
867.39	-17.647
867.69	13.043
867.98	-14.286
868.27	-220.000
868.57	-43.750
868.86	-136.364
869.16	23.529
869.45	16.667
869.75	-185.714
870.04	500.000
870.33	-33.333
870.63	-80.000
870.92	-44.444
871.22	-66.667
871.51	-81.818
871.80	25.000
872.10	-50.000
>>>>>End Processed Spectral Data<<<<<
