SpectraSuite Data File
++++++++++++++++++++++++++++++++++++
Date: Sat May 16 11:29:13 PDT 2015
User: schluterlab
Dark Spectrum Present: Yes
Reference Spectrum Present: Yes
Number of Sampled Component Spectra: 1
Spectrometers: USB2E3373
Integration Time (usec): 3000 (USB2E3373)
Spectra Averaged: 3 (USB2E3373)
Boxcar Smoothing: 0 (USB2E3373)
Correct for Electrical Dark: No (USB2E3373)
Strobe/Lamp Enabled: No (USB2E3373)
Correct for Detector Non-linearity: No (USB2E3373)
Correct for Stray Light: No (USB2E3373)
Number of Pixels in Processed Spectrum: 2048
>>>>>Begin Processed Spectral Data<<<<<
178.53	0.000
178.91	126.667
179.29	800.000
179.67	-1000.000
180.04	-46.154
180.42	1800.000
180.80	375.000
181.18	250.000
181.56	0.000
181.94	500.000
182.31	450.000
182.69	-46.154
183.07	-633.333
183.45	1450.000
183.83	466.667
184.20	-214.286
184.58	-162.500
184.96	-350.000
185.34	162.500
185.72	-450.000
186.09	83.333
186.47	-187.500
186.85	-75.000
187.23	0.000
187.61	-350.000
187.98	-387.500
188.36	-212.500
188.74	-100.000
189.12	1300.000
189.49	314.286
189.87	-50.000
190.25	325.000
190.63	-57.143
191.00	-155.556
191.38	520.000
191.76	33.333
192.14	600.000
192.51	-180.000
192.89	-333.333
193.27	0.000
193.65	-66.667
194.02	-242.857
194.40	600.000
194.78	-180.000
195.15	-300.000
195.53	-145.455
195.91	-500.000
196.29	460.000
196.66	-366.667
197.04	2800.000
197.42	-325.000
197.79	53.333
198.17	-33.333
198.55	-750.000
198.92	-1600.000
199.30	187.500
199.68	-350.000
200.05	-77.778
200.43	-166.667
200.81	-1700.000
201.18	-100.000
201.56	271.429
201.94	-100.000
202.31	-4.545
202.69	-20.000
203.07	-100.000
203.44	400.000
203.82	-333.333
204.19	-375.000
204.57	-300.000
204.95	-1600.000
205.32	-25.000
205.70	900.000
206.08	-2700.000
206.45	-38.889
206.83	-650.000
207.20	-100.000
207.58	-600.000
207.96	-466.667
208.33	-37.500
208.71	-77.778
209.08	110.000
209.46	-214.286
209.84	500.000
210.21	0.000
210.59	-15.000
210.96	1100.000
211.34	-300.000
211.71	-433.333
212.09	475.000
212.46	800.000
212.84	-2500.000
213.22	466.667
213.59	125.000
213.97	0.000
214.34	200.000
214.72	-90.000
215.09	-566.667
215.47	-150.000
215.84	-90.000
216.22	-40.000
216.59	26.667
216.97	-625.000
217.34	1000.000
217.72	-71.429
218.09	-366.667
218.47	-285.714
218.84	257.143
219.22	-42.857
219.59	0.000
219.97	357.143
220.34	550.000
220.72	287.500
221.09	-100.000
221.47	0.000
221.84	400.000
222.22	-550.000
222.59	1500.000
222.97	-187.500
223.34	-850.000
223.72	-533.333
224.09	-150.000
224.46	-150.000
224.84	42.857
225.21	-257.143
225.59	-90.909
225.96	-237.500
226.34	-71.429
226.71	-200.000
227.08	-25.000
227.46	1000.000
227.83	-257.143
228.21	-212.500
228.58	450.000
228.95	-6.250
229.33	-2700.000
229.70	-280.000
230.08	-950.000
230.45	-75.000
230.82	-233.333
231.20	100.000
231.57	-750.000
231.95	1600.000
232.32	-28.571
232.69	-222.222
233.07	-185.714
233.44	-900.000
233.81	-33.333
234.19	-33.333
234.56	-62.500
234.93	-28.125
235.31	-285.714
235.68	-42.857
236.05	-64.706
236.43	-50.000
236.80	-19.355
237.17	-33.333
237.55	-42.857
237.92	-72.727
238.29	-22.857
238.67	-8.824
239.04	2.778
239.41	-51.613
239.79	-43.590
240.16	-26.190
240.53	-30.909
240.91	-12.821
241.28	1.818
241.65	13.846
242.02	-4.918
242.40	-16.393
242.77	1.515
243.14	0.000
243.51	-11.429
243.89	-10.127
244.26	-3.371
244.63	4.211
245.00	9.474
245.38	-1.695
245.75	11.504
246.12	-1.600
246.49	2.362
246.87	2.439
247.24	0.000
247.61	-8.475
247.98	9.155
248.36	2.098
248.73	6.962
249.10	3.822
249.47	12.865
249.84	14.205
250.22	-3.571
250.59	9.605
250.96	7.853
251.33	12.322
251.70	6.731
252.08	4.739
252.45	5.687
252.82	10.000
253.19	10.213
253.56	12.097
253.94	7.595
254.31	3.004
254.68	10.163
255.05	9.274
255.42	8.333
255.79	11.828
256.16	7.843
256.54	13.235
256.91	9.848
257.28	8.059
257.65	9.220
258.02	14.465
258.39	10.702
258.76	9.459
259.14	11.728
259.51	10.492
259.88	10.976
260.25	9.627
260.62	9.646
260.99	7.418
261.36	10.671
261.73	9.249
262.10	9.722
262.47	5.698
262.85	12.286
263.22	10.888
263.59	8.923
263.96	13.333
264.33	12.466
264.70	12.431
265.07	9.890
265.44	11.370
265.81	12.661
266.18	9.620
266.55	11.275
266.92	11.335
267.29	9.685
267.66	11.605
268.03	14.010
268.40	11.033
268.77	12.048
269.14	11.833
269.51	11.724
269.88	10.550
270.25	8.392
270.62	11.670
270.99	13.288
271.36	10.956
271.73	13.004
272.10	10.755
272.47	8.889
272.84	14.889
273.21	13.761
273.58	9.231
273.95	10.965
274.32	10.181
274.69	13.348
275.06	11.452
275.43	10.491
275.80	10.998
276.17	9.414
276.54	13.442
276.91	10.905
277.28	11.359
277.65	8.264
278.02	10.438
278.39	11.788
278.76	9.761
279.13	12.451
279.50	11.332
279.87	10.359
280.23	12.551
280.60	10.338
280.97	10.097
281.34	12.186
281.71	10.962
282.08	12.097
282.45	7.536
282.82	11.434
283.19	10.545
283.56	12.821
283.92	12.014
284.29	9.480
284.66	10.971
285.03	13.369
285.40	10.332
285.77	12.807
286.14	9.928
286.51	11.723
286.87	12.341
287.24	11.433
287.61	11.240
287.98	7.626
288.35	10.909
288.72	10.187
289.08	9.831
289.45	10.269
289.82	7.785
290.19	12.972
290.56	9.091
290.93	8.585
291.29	7.455
291.66	11.916
292.03	10.989
292.40	11.898
292.77	8.540
293.13	8.293
293.50	9.658
293.87	8.742
294.24	9.201
294.60	7.273
294.97	10.470
295.34	7.259
295.71	9.077
296.08	5.991
296.44	8.441
296.81	11.111
297.18	8.592
297.55	8.757
297.91	11.437
298.28	9.178
298.65	7.810
299.02	10.027
299.38	8.690
299.75	7.337
300.12	9.615
300.48	8.696
300.85	8.388
301.22	7.891
301.59	8.322
301.95	9.446
302.32	7.040
302.69	8.935
303.05	7.204
303.42	6.875
303.79	8.732
304.15	9.123
304.52	7.585
304.89	8.264
305.25	8.059
305.62	9.048
305.99	8.245
306.35	8.435
306.72	8.200
307.09	9.421
307.45	8.400
307.82	6.816
308.19	9.284
308.55	6.863
308.92	7.841
309.29	7.027
309.65	8.165
310.02	7.883
310.38	6.595
310.75	7.889
311.12	8.884
311.48	8.977
311.85	8.445
312.22	9.372
312.58	9.461
312.95	7.645
313.31	7.193
313.68	9.045
314.05	9.199
314.41	8.149
314.78	8.192
315.14	8.983
315.51	7.295
315.87	7.841
316.24	7.969
316.61	9.693
316.97	8.657
317.34	7.225
317.70	6.865
318.07	8.769
318.43	6.929
318.80	8.732
319.16	7.786
319.53	8.365
319.89	6.209
320.26	8.431
320.62	7.404
320.99	7.960
321.35	5.911
321.72	6.858
322.08	7.418
322.45	6.832
322.81	7.973
323.18	8.453
323.54	7.394
323.91	7.878
324.27	6.559
324.64	7.313
325.00	8.551
325.37	7.059
325.73	9.361
326.10	6.820
326.46	6.567
326.83	7.660
327.19	7.506
327.56	8.773
327.92	7.392
328.29	7.792
328.65	6.273
329.01	8.304
329.38	7.404
329.74	7.784
330.11	7.525
330.47	7.902
330.84	9.166
331.20	7.310
331.56	7.748
331.93	6.927
332.29	7.306
332.66	7.814
333.02	7.149
333.38	7.706
333.75	7.035
334.11	6.933
334.48	6.355
334.84	7.787
335.20	7.181
335.57	6.588
335.93	8.863
336.29	6.909
336.66	6.960
337.02	7.658
337.38	5.526
337.75	6.585
338.11	6.082
338.47	6.584
338.84	6.806
339.20	6.766
339.56	7.130
339.93	7.055
340.29	7.086
340.65	6.556
341.02	8.094
341.38	8.340
341.74	7.959
342.11	6.997
342.47	6.266
342.83	6.717
343.20	6.917
343.56	6.776
343.92	6.928
344.28	7.317
344.65	6.518
345.01	6.555
345.37	7.890
345.73	6.628
346.10	6.541
346.46	6.986
346.82	7.217
347.19	5.916
347.55	7.223
347.91	7.087
348.27	6.046
348.63	7.835
349.00	7.876
349.36	6.323
349.72	7.484
350.08	6.014
350.45	6.777
350.81	8.041
351.17	7.074
351.53	7.001
351.89	6.548
352.26	6.899
352.62	8.679
352.98	6.329
353.34	6.795
353.70	7.027
354.07	7.632
354.43	7.036
354.79	6.973
355.15	6.629
355.51	6.719
355.87	6.403
356.24	6.037
356.60	7.897
356.96	7.236
357.32	7.047
357.68	6.820
358.04	6.774
358.40	6.419
358.77	6.646
359.13	5.968
359.49	7.559
359.85	6.250
360.21	6.697
360.57	7.154
360.93	7.556
361.29	6.876
361.66	6.021
362.02	6.435
362.38	7.117
362.74	6.593
363.10	5.811
363.46	7.692
363.82	6.706
364.18	7.308
364.54	8.506
364.90	6.219
365.26	6.277
365.62	7.413
365.98	7.539
366.35	7.324
366.71	6.342
367.07	6.845
367.43	7.893
367.79	6.942
368.15	6.330
368.51	7.133
368.87	7.967
369.23	6.947
369.59	6.736
369.95	6.977
370.31	8.298
370.67	5.785
371.03	6.122
371.39	6.436
371.75	7.153
372.11	6.026
372.47	7.014
372.83	6.606
373.19	7.357
373.55	7.671
373.91	6.828
374.27	6.639
374.63	7.315
374.99	7.580
375.35	6.595
375.71	7.562
376.07	6.639
376.42	6.623
376.78	7.386
377.14	7.051
377.50	7.995
377.86	7.217
378.22	7.224
378.58	7.165
378.94	6.412
379.30	6.886
379.66	6.982
380.02	7.190
380.38	6.224
380.74	6.448
381.09	7.967
381.45	7.160
381.81	6.352
382.17	7.331
382.53	7.356
382.89	6.878
383.25	6.924
383.61	7.311
383.97	7.287
384.32	7.947
384.68	7.739
385.04	7.186
385.40	6.999
385.76	7.561
386.12	7.620
386.48	7.364
386.83	7.914
387.19	8.368
387.55	7.874
387.91	7.291
388.27	6.755
388.62	7.692
388.98	7.692
389.34	7.222
389.70	7.795
390.06	6.588
390.42	7.436
390.77	6.814
391.13	8.385
391.49	7.299
391.85	8.105
392.20	7.949
392.56	7.453
392.92	7.815
393.28	8.094
393.64	7.336
393.99	7.938
394.35	7.908
394.71	7.844
395.07	8.349
395.42	6.496
395.78	7.417
396.14	8.411
396.50	8.257
396.85	7.835
397.21	7.716
397.57	8.267
397.92	7.260
398.28	7.444
398.64	7.852
399.00	8.315
399.35	7.441
399.71	8.246
400.07	8.119
400.42	8.516
400.78	8.169
401.14	7.665
401.49	7.606
401.85	7.383
402.21	7.747
402.57	8.313
402.92	7.804
403.28	8.640
403.63	7.130
403.99	7.458
404.35	7.971
404.70	8.426
405.06	8.535
405.42	7.257
405.77	7.240
406.13	7.439
406.49	8.268
406.84	7.379
407.20	8.068
407.55	7.853
407.91	7.642
408.27	7.659
408.62	8.178
408.98	7.398
409.34	7.800
409.69	8.066
410.05	7.580
410.40	8.584
410.76	7.884
411.11	7.232
411.47	7.673
411.83	8.680
412.18	7.426
412.54	7.505
412.89	8.627
413.25	7.438
413.60	7.594
413.96	8.010
414.31	7.706
414.67	7.619
415.03	8.215
415.38	7.482
415.74	8.570
416.09	7.928
416.45	6.415
416.80	7.542
417.16	7.176
417.51	9.258
417.87	8.220
418.22	7.965
418.58	7.574
418.93	8.277
419.29	8.469
419.64	7.286
420.00	7.473
420.35	7.688
420.71	7.143
421.06	8.166
421.42	7.201
421.77	7.761
422.12	7.387
422.48	7.483
422.83	7.175
423.19	7.906
423.54	7.089
423.90	7.230
424.25	7.240
424.61	7.298
424.96	8.602
425.31	8.049
425.67	7.221
426.02	7.114
426.38	7.743
426.73	8.065
427.09	7.414
427.44	7.898
427.79	7.674
428.15	8.737
428.50	8.387
428.85	6.894
429.21	7.471
429.56	7.969
429.92	7.365
430.27	8.674
430.62	8.150
430.98	7.423
431.33	8.378
431.68	8.311
432.04	7.946
432.39	8.604
432.74	7.914
433.10	7.147
433.45	7.542
433.80	7.839
434.16	7.899
434.51	7.726
434.86	7.967
435.22	8.241
435.57	7.711
435.92	8.324
436.28	7.774
436.63	7.575
436.98	7.904
437.34	8.033
437.69	7.876
438.04	7.771
438.39	8.363
438.75	7.742
439.10	8.662
439.45	7.664
439.81	8.193
440.16	7.893
440.51	8.412
440.86	7.230
441.22	7.573
441.57	7.474
441.92	7.519
442.27	7.792
442.63	7.189
442.98	7.111
443.33	7.304
443.68	8.129
444.03	8.006
444.39	8.125
444.74	7.930
445.09	7.072
445.44	7.597
445.79	7.394
446.15	8.050
446.50	6.859
446.85	8.004
447.20	7.559
447.55	8.232
447.91	8.198
448.26	7.374
448.61	7.414
448.96	8.347
449.31	8.117
449.66	7.670
450.02	7.368
450.37	7.246
450.72	7.684
451.07	7.668
451.42	7.373
451.77	7.600
452.12	7.747
452.47	8.123
452.83	8.154
453.18	8.412
453.53	7.525
453.88	8.373
454.23	7.255
454.58	8.390
454.93	8.060
455.28	7.075
455.63	8.231
455.98	7.771
456.34	7.052
456.69	8.005
457.04	7.191
457.39	8.074
457.74	7.797
458.09	8.585
458.44	8.199
458.79	7.567
459.14	7.929
459.49	8.171
459.84	7.982
460.19	7.697
460.54	7.743
460.89	8.352
461.24	8.136
461.59	8.499
461.94	7.829
462.29	8.815
462.64	7.510
462.99	8.099
463.34	7.968
463.69	7.761
464.04	8.319
464.39	6.930
464.74	7.624
465.09	8.539
465.44	7.840
465.79	8.404
466.14	8.400
466.49	7.657
466.84	7.923
467.19	7.731
467.54	7.785
467.89	7.891
468.24	8.373
468.59	8.120
468.94	7.331
469.29	7.667
469.64	7.884
469.99	9.251
470.34	7.348
470.68	7.776
471.03	7.846
471.38	7.569
471.73	7.902
472.08	7.497
472.43	7.272
472.78	8.200
473.13	6.958
473.48	8.232
473.83	8.437
474.17	7.834
474.52	8.760
474.87	8.625
475.22	7.965
475.57	7.333
475.92	8.855
476.27	8.743
476.61	7.831
476.96	7.826
477.31	7.966
477.66	8.301
478.01	8.536
478.36	8.434
478.70	8.222
479.05	8.707
479.40	8.083
479.75	8.053
480.10	7.738
480.45	7.640
480.79	8.539
481.14	8.329
481.49	8.180
481.84	9.061
482.19	8.817
482.53	8.191
482.88	8.258
483.23	8.732
483.58	8.696
483.92	8.600
484.27	7.709
484.62	8.337
484.97	8.262
485.31	7.904
485.66	8.276
486.01	7.941
486.36	8.523
486.70	8.648
487.05	8.052
487.40	8.600
487.75	8.085
488.09	7.906
488.44	8.424
488.79	8.525
489.13	7.988
489.48	8.564
489.83	8.734
490.17	8.881
490.52	9.194
490.87	8.684
491.22	8.220
491.56	8.194
491.91	9.113
492.26	8.396
492.60	8.801
492.95	8.139
493.30	8.480
493.64	8.839
493.99	8.413
494.34	8.857
494.68	8.708
495.03	7.935
495.37	7.915
495.72	8.644
496.07	8.728
496.41	8.476
496.76	8.584
497.11	8.384
497.45	9.195
497.80	8.304
498.14	8.497
498.49	8.338
498.84	8.252
499.18	8.626
499.53	9.450
499.87	7.722
500.22	8.578
500.56	8.504
500.91	8.177
501.26	9.364
501.60	8.618
501.95	8.986
502.29	8.455
502.64	9.147
502.98	8.146
503.33	8.365
503.67	8.094
504.02	8.643
504.36	8.725
504.71	8.764
505.06	9.286
505.40	9.481
505.75	8.994
506.09	9.201
506.44	8.972
506.78	9.132
507.13	9.320
507.47	8.972
507.82	8.570
508.16	9.637
508.51	8.913
508.85	8.799
509.19	8.687
509.54	9.831
509.88	9.043
510.23	9.329
510.57	9.418
510.92	9.237
511.26	8.400
511.61	8.045
511.95	9.052
512.30	8.741
512.64	8.347
512.98	9.076
513.33	9.390
513.67	9.101
514.02	8.557
514.36	9.751
514.70	9.111
515.05	9.491
515.39	8.939
515.74	9.599
516.08	8.415
516.42	9.122
516.77	9.994
517.11	9.096
517.46	8.672
517.80	9.747
518.14	8.031
518.49	9.743
518.83	9.318
519.17	9.236
519.52	9.312
519.86	10.454
520.20	9.108
520.55	9.662
520.89	8.954
521.23	10.440
521.58	9.467
521.92	9.310
522.26	9.397
522.61	9.696
522.95	8.296
523.29	9.781
523.64	9.557
523.98	9.421
524.32	9.554
524.66	8.385
525.01	8.157
525.35	10.116
525.69	9.694
526.04	9.595
526.38	9.548
526.72	8.748
527.06	9.310
527.41	9.373
527.75	8.713
528.09	9.332
528.43	10.689
528.78	10.050
529.12	10.371
529.46	8.892
529.80	9.167
530.15	9.723
530.49	9.185
530.83	10.936
531.17	9.158
531.51	9.042
531.86	9.612
532.20	9.514
532.54	10.094
532.88	9.684
533.22	9.759
533.57	8.943
533.91	9.363
534.25	10.371
534.59	9.182
534.93	8.836
535.27	9.062
535.62	9.271
535.96	9.696
536.30	10.013
536.64	9.960
536.98	9.675
537.32	9.399
537.66	9.369
538.01	8.591
538.35	9.392
538.69	8.556
539.03	9.411
539.37	9.115
539.71	9.807
540.05	9.253
540.39	9.903
540.73	10.159
541.07	10.246
541.42	9.115
541.76	8.638
542.10	10.128
542.44	10.127
542.78	10.244
543.12	9.708
543.46	8.699
543.80	9.097
544.14	9.805
544.48	10.433
544.82	8.254
545.16	9.725
545.50	8.816
545.84	9.597
546.18	9.639
546.52	10.313
546.86	9.615
547.20	9.916
547.54	9.573
547.88	9.423
548.22	8.716
548.56	9.352
548.90	9.704
549.24	9.671
549.58	9.386
549.92	9.965
550.26	9.971
550.60	9.459
550.94	9.489
551.28	10.083
551.62	9.306
551.96	10.058
552.30	9.059
552.64	9.993
552.98	10.231
553.32	9.452
553.66	9.805
554.00	9.808
554.34	9.603
554.68	9.942
555.02	10.275
555.36	9.633
555.69	9.169
556.03	9.333
556.37	9.673
556.71	10.021
557.05	9.165
557.39	9.280
557.73	9.701
558.07	9.797
558.41	9.424
558.75	9.125
559.08	8.638
559.42	10.107
559.76	9.049
560.10	10.813
560.44	9.610
560.78	9.603
561.12	9.662
561.45	9.110
561.79	9.059
562.13	9.888
562.47	9.384
562.81	9.052
563.15	9.937
563.48	9.813
563.82	9.398
564.16	8.587
564.50	9.140
564.84	9.524
565.17	8.687
565.51	9.387
565.85	9.736
566.19	9.552
566.52	9.328
566.86	8.850
567.20	8.959
567.54	10.809
567.88	8.989
568.21	9.452
568.55	9.120
568.89	8.847
569.23	9.024
569.56	8.869
569.90	9.363
570.24	9.282
570.57	9.350
570.91	8.603
571.25	9.079
571.59	8.898
571.92	8.958
572.26	8.868
572.60	9.122
572.93	9.322
573.27	8.476
573.61	8.317
573.95	9.101
574.28	8.907
574.62	8.821
574.96	8.724
575.29	8.714
575.63	8.946
575.97	9.008
576.30	8.687
576.64	8.903
576.98	8.908
577.31	8.582
577.65	8.611
577.98	8.989
578.32	8.735
578.66	8.954
578.99	8.598
579.33	8.465
579.67	8.800
580.00	8.532
580.34	8.757
580.67	8.581
581.01	8.410
581.35	8.542
581.68	8.435
582.02	8.610
582.35	8.669
582.69	8.795
583.02	9.085
583.36	9.175
583.70	8.551
584.03	8.809
584.37	8.660
584.70	8.485
585.04	8.861
585.37	8.735
585.71	8.853
586.04	8.764
586.38	8.500
586.72	8.822
587.05	8.553
587.39	8.632
587.72	8.734
588.06	8.913
588.39	8.659
588.73	9.113
589.06	8.568
589.40	9.310
589.73	8.746
590.07	8.813
590.40	9.520
590.73	8.557
591.07	9.016
591.40	9.012
591.74	9.644
592.07	8.784
592.41	8.662
592.74	9.070
593.08	9.372
593.41	8.717
593.75	8.704
594.08	8.663
594.41	8.983
594.75	8.909
595.08	8.797
595.42	9.212
595.75	8.931
596.09	8.964
596.42	9.043
596.75	8.883
597.09	9.083
597.42	8.250
597.75	9.300
598.09	8.766
598.42	9.368
598.76	8.555
599.09	8.919
599.42	8.228
599.76	9.136
600.09	9.008
600.42	9.077
600.76	9.190
601.09	9.039
601.42	8.548
601.76	9.268
602.09	8.712
602.42	9.383
602.76	8.849
603.09	8.871
603.42	9.186
603.76	8.696
604.09	8.811
604.42	8.451
604.76	9.289
605.09	8.725
605.42	9.574
605.75	8.969
606.09	9.132
606.42	8.421
606.75	8.759
607.09	8.690
607.42	8.847
607.75	9.272
608.08	9.761
608.42	8.515
608.75	8.692
609.08	9.303
609.41	9.018
609.75	9.118
610.08	9.510
610.41	8.675
610.74	9.091
611.07	9.635
611.41	8.875
611.74	9.614
612.07	9.237
612.40	8.369
612.73	8.778
613.07	8.365
613.40	9.633
613.73	9.264
614.06	8.622
614.39	9.132
614.72	8.994
615.06	9.130
615.39	8.627
615.72	8.854
616.05	8.559
616.38	9.112
616.71	8.709
617.05	9.349
617.38	9.412
617.71	8.231
618.04	9.068
618.37	8.679
618.70	9.583
619.03	9.140
619.36	9.443
619.69	9.620
620.03	8.815
620.36	8.509
620.69	9.189
621.02	9.056
621.35	8.790
621.68	8.770
622.01	9.790
622.34	9.239
622.67	9.062
623.00	8.263
623.33	10.299
623.66	7.976
623.99	8.647
624.32	8.036
624.65	8.389
624.99	8.439
625.32	8.084
625.65	9.324
625.98	9.311
626.31	9.217
626.64	9.958
626.97	8.904
627.30	8.851
627.63	8.290
627.96	8.529
628.29	7.721
628.62	8.023
628.95	10.433
629.28	9.868
629.61	8.832
629.94	10.019
630.26	9.145
630.59	9.146
630.92	9.109
631.25	10.484
631.58	9.312
631.91	8.404
632.24	9.111
632.57	10.111
632.90	8.276
633.23	9.112
633.56	9.357
633.89	10.377
634.22	9.091
634.55	8.534
634.88	9.190
635.20	9.488
635.53	8.906
635.86	6.171
636.19	9.158
636.52	9.319
636.85	9.146
637.18	7.250
637.51	9.294
637.83	8.788
638.16	7.763
638.49	8.828
638.82	8.366
639.15	10.117
639.48	8.042
639.81	10.512
640.13	8.649
640.46	8.974
640.79	8.683
641.12	9.873
641.45	9.756
641.77	7.186
642.10	9.063
642.43	9.256
642.76	8.976
643.09	8.095
643.41	10.159
643.74	9.062
644.07	9.828
644.40	9.562
644.73	8.911
645.05	8.514
645.38	10.430
645.71	10.997
646.04	9.244
646.36	9.075
646.69	7.785
647.02	9.206
647.35	9.206
647.67	10.036
648.00	10.896
648.33	11.636
648.66	10.000
648.98	8.439
649.31	9.538
649.64	8.594
649.96	10.518
650.29	8.852
650.62	9.122
650.94	9.949
651.27	9.532
651.60	8.478
651.92	11.644
652.25	7.179
652.58	5.111
652.90	9.310
653.23	8.065
653.56	8.194
653.88	8.525
654.21	9.060
654.54	10.299
654.86	8.347
655.19	9.456
655.52	8.541
655.84	8.280
656.17	8.859
656.49	12.260
656.82	12.678
657.15	9.666
657.47	7.165
657.80	5.566
658.13	6.280
658.45	8.431
658.78	8.288
659.10	8.493
659.43	7.930
659.75	8.261
660.08	7.865
660.41	8.254
660.73	7.701
661.06	9.420
661.38	9.464
661.71	8.987
662.03	9.073
662.36	10.661
662.68	6.540
663.01	9.979
663.33	7.256
663.66	11.159
663.98	8.259
664.31	6.711
664.63	11.062
664.96	6.508
665.28	6.508
665.61	7.822
665.93	10.700
666.26	9.717
666.58	9.563
666.91	9.131
667.23	9.868
667.56	8.163
667.88	9.502
668.21	4.378
668.53	7.009
668.86	8.083
669.18	7.763
669.50	9.346
669.83	9.489
670.15	12.108
670.48	9.112
670.80	7.745
671.13	8.578
671.45	7.207
671.77	7.495
672.10	9.270
672.42	8.672
672.75	7.636
673.07	6.847
673.39	7.104
673.72	8.465
674.04	9.130
674.37	7.423
674.69	9.631
675.01	8.936
675.34	7.375
675.66	10.151
675.98	10.573
676.31	9.502
676.63	7.816
676.95	7.080
677.28	8.817
677.60	7.692
677.92	11.454
678.25	6.565
678.57	10.082
678.89	5.660
679.22	8.176
679.54	11.834
679.86	7.400
680.18	7.224
680.51	7.635
680.83	7.619
681.15	8.478
681.48	8.114
681.80	7.056
682.12	8.048
682.44	8.644
682.77	4.113
683.09	10.273
683.41	11.062
683.73	7.763
684.06	7.957
684.38	8.996
684.70	8.436
685.02	9.252
685.34	7.602
685.67	5.114
685.99	5.293
686.31	8.977
686.63	7.624
686.96	7.394
687.28	5.780
687.60	5.859
687.92	7.782
688.24	7.283
688.56	8.818
688.89	6.197
689.21	8.315
689.53	9.195
689.85	6.682
690.17	8.072
690.49	7.621
690.82	5.060
691.14	6.840
691.46	6.652
691.78	11.233
692.10	5.932
692.42	8.000
692.74	6.867
693.06	9.438
693.39	6.711
693.71	7.901
694.03	8.855
694.35	6.095
694.67	6.856
694.99	6.394
695.31	5.867
695.63	6.888
695.95	8.437
696.27	9.227
696.59	9.091
696.91	8.146
697.23	10.156
697.56	6.010
697.88	6.081
698.20	8.351
698.52	5.157
698.84	7.767
699.16	8.810
699.48	5.000
699.80	8.521
700.12	9.320
700.44	3.631
700.76	7.580
701.08	6.105
701.40	3.625
701.72	8.951
702.04	7.051
702.36	9.639
702.68	8.084
703.00	6.377
703.32	5.731
703.64	10.882
703.96	7.267
704.28	9.172
704.60	4.747
704.91	4.444
705.23	7.767
705.55	3.041
705.87	8.191
706.19	1.389
706.51	5.903
706.83	7.541
707.15	8.280
707.47	8.540
707.79	6.443
708.11	4.580
708.43	7.980
708.74	6.753
709.06	6.685
709.38	4.885
709.70	4.688
710.02	12.270
710.34	5.941
710.66	4.127
710.98	6.309
711.29	3.548
711.61	6.390
711.93	5.902
712.25	5.980
712.57	4.530
712.89	7.194
713.20	7.560
713.52	1.866
713.84	9.964
714.16	7.541
714.48	8.889
714.80	8.000
715.11	9.798
715.43	9.337
715.75	9.346
716.07	6.885
716.39	7.023
716.70	9.756
717.02	6.667
717.34	6.870
717.66	7.469
717.97	7.787
718.29	3.782
718.61	8.730
718.93	5.376
719.24	3.676
719.56	1.509
719.88	3.636
720.20	4.120
720.51	6.767
720.83	9.237
721.15	5.738
721.46	3.529
721.78	6.513
722.10	5.200
722.42	5.372
722.73	8.367
723.05	4.819
723.37	5.098
723.68	6.478
724.00	8.537
724.32	6.584
724.63	2.490
724.95	9.091
725.27	6.579
725.58	5.603
725.90	1.190
726.22	9.594
726.53	5.703
726.85	-1.569
727.16	6.767
727.48	1.923
727.80	-2.049
728.11	3.361
728.43	0.826
728.74	8.203
729.06	5.303
729.38	4.280
729.69	5.512
730.01	3.937
730.32	0.797
730.64	10.989
730.96	2.985
731.27	6.786
731.59	5.788
731.90	4.601
732.22	7.055
732.53	7.285
732.85	8.389
733.16	5.072
733.48	3.833
733.80	7.473
734.11	4.138
734.43	4.082
734.74	8.012
735.06	4.702
735.37	7.645
735.69	4.194
736.00	2.357
736.32	5.960
736.63	2.414
736.95	2.174
737.26	8.940
737.58	2.158
737.89	7.168
738.21	1.880
738.52	6.154
738.83	7.031
739.15	6.838
739.46	12.903
739.78	8.392
740.09	5.245
740.41	4.545
740.72	4.745
741.04	1.190
741.35	1.299
741.66	3.704
741.98	4.286
742.29	7.981
742.61	2.139
742.92	9.346
743.23	7.895
743.55	7.207
743.86	11.111
744.18	8.095
744.49	6.404
744.80	8.122
745.12	3.093
745.43	7.538
745.74	3.883
746.06	7.805
746.37	8.370
746.68	6.468
747.00	10.995
747.31	0.481
747.62	7.373
747.94	6.114
748.25	7.442
748.56	7.143
748.88	-8.696
749.19	6.573
749.50	14.216
749.82	5.778
750.13	9.251
750.44	4.065
750.75	3.200
751.07	10.357
751.38	4.797
751.69	4.962
752.01	1.538
752.32	7.782
752.63	3.846
752.94	7.143
753.26	5.217
753.57	7.589
753.88	7.328
754.19	0.415
754.51	5.859
754.82	5.534
755.13	4.527
755.44	4.132
755.75	5.350
756.07	-0.803
756.38	0.781
756.69	8.303
757.00	3.833
757.31	6.376
757.63	9.346
757.94	6.069
758.25	3.488
758.56	6.739
758.87	6.250
759.18	2.667
759.50	6.406
759.81	1.825
760.12	1.689
760.43	7.443
760.74	6.250
761.05	7.584
761.36	7.485
761.67	7.692
761.99	3.548
762.30	7.246
762.61	10.189
762.92	5.830
763.23	2.844
763.54	5.333
763.85	6.751
764.16	8.980
764.47	6.356
764.78	4.869
765.10	5.755
765.41	4.194
765.72	7.233
766.03	1.767
766.34	5.263
766.65	8.097
766.96	1.000
767.27	0.000
767.58	10.465
767.89	0.645
768.20	2.454
768.51	6.011
768.82	2.162
769.13	2.500
769.44	3.947
769.75	9.091
770.06	4.587
770.37	5.164
770.68	-2.083
770.99	0.000
771.30	6.311
771.61	-1.852
771.92	0.000
772.23	0.935
772.54	4.255
772.85	4.142
773.16	4.268
773.47	10.843
773.78	12.088
774.09	2.000
774.39	6.790
774.70	1.342
775.01	-1.449
775.32	4.478
775.63	-4.959
775.94	12.030
776.25	1.429
776.56	9.836
776.87	12.389
777.18	7.965
777.48	-3.636
777.79	-7.826
778.10	-4.587
778.41	1.695
778.72	10.744
779.03	5.970
779.34	6.015
779.65	5.882
779.95	6.522
780.26	-0.680
780.57	-11.207
780.88	-11.111
781.19	-3.030
781.50	-2.400
781.80	-1.961
782.11	2.564
782.42	4.217
782.73	-6.569
783.04	8.108
783.34	-2.273
783.65	4.651
783.96	1.626
784.27	-10.256
784.57	3.252
784.88	-6.504
785.19	9.649
785.50	-13.402
785.81	5.714
786.11	-14.706
786.42	-10.909
786.73	-5.405
787.04	16.832
787.34	2.857
787.65	-15.238
787.96	-3.922
788.26	9.910
788.57	4.032
788.88	3.125
789.19	-0.855
789.49	5.042
789.80	7.692
790.11	3.540
790.41	2.020
790.72	7.547
791.03	-11.111
791.33	-1.316
791.64	1.075
791.95	-21.333
792.25	-10.000
792.56	-2.439
792.87	6.122
793.17	-22.368
793.48	-13.514
793.79	-18.310
794.09	-22.785
794.40	-6.383
794.70	0.000
795.01	-14.912
795.32	0.000
795.62	-6.250
795.93	-16.495
796.23	-14.286
796.54	5.263
796.85	-2.740
797.15	-18.056
797.46	10.959
797.76	1.408
798.07	10.000
798.37	8.824
798.68	-2.857
798.99	-12.857
799.29	6.579
799.60	6.667
799.90	-4.167
800.21	-4.688
800.51	1.587
800.82	0.000
801.12	-17.544
801.43	-1.408
801.73	-25.424
802.04	-1.639
802.34	-23.636
802.65	-17.308
802.95	-12.963
803.26	-32.500
803.56	-11.538
803.87	-47.368
804.17	6.452
804.48	1.538
804.78	-15.385
805.09	-16.279
805.39	-78.125
805.70	-32.075
806.00	3.509
806.30	-1.351
806.61	4.412
806.91	-3.704
807.22	-21.333
807.52	-2.985
807.83	3.226
808.13	-17.460
808.43	-32.727
808.74	3.030
809.04	-18.868
809.35	0.000
809.65	-14.035
809.95	8.824
810.26	-3.922
810.56	-14.000
810.86	-30.612
811.17	-20.000
811.47	-19.231
811.77	-58.065
812.08	-57.895
812.38	-7.143
812.69	-41.304
812.99	-64.516
813.29	-26.190
813.59	-96.296
813.90	-34.043
814.20	-32.558
814.50	-31.250
814.81	-15.000
815.11	-29.268
815.41	-6.667
815.72	-31.429
816.02	-55.556
816.32	0.000
816.62	-37.838
816.93	-58.824
817.23	-23.913
817.53	-35.294
817.84	-17.647
818.14	-59.375
818.44	-68.966
818.74	-61.290
819.04	-22.222
819.35	-10.000
819.65	-104.000
819.95	-33.333
820.25	-36.000
820.56	-36.842
820.86	-22.500
821.16	-19.149
821.46	-3.448
821.76	-38.462
822.07	-42.500
822.37	-2.326
822.67	-76.667
822.97	-48.649
823.27	-21.622
823.57	-8.000
823.88	-16.216
824.18	-95.238
824.48	-53.846
824.78	-161.538
825.08	-60.870
825.38	-29.167
825.69	-83.333
825.99	-140.000
826.29	-32.432
826.59	-41.176
826.89	-8.000
827.19	-14.286
827.49	-21.053
827.79	-43.750
828.09	-36.667
828.39	0.000
828.70	-37.931
829.00	-37.931
829.30	-16.667
829.60	-25.000
829.90	-50.000
830.20	-57.692
830.50	-114.286
830.80	-53.571
831.10	-5.128
831.40	-57.143
831.70	-11.765
832.00	-4.167
832.30	-78.947
832.60	-62.500
832.90	-100.000
833.20	-117.647
833.50	-120.000
833.80	-80.000
834.10	-25.000
834.40	-66.667
834.70	-72.222
835.00	-61.538
835.30	-29.167
835.60	-31.034
835.90	-138.889
836.20	-145.455
836.50	-133.333
836.80	-28.571
837.10	28.571
837.40	-52.941
837.70	-154.545
838.00	-16.667
838.30	-56.250
838.60	-66.667
838.90	-85.000
839.19	-26.087
839.49	-47.826
839.79	-66.667
840.09	-30.435
840.39	-4.545
840.69	-125.000
840.99	-68.421
841.29	-137.500
841.59	-57.143
841.88	-88.889
842.18	-58.333
842.48	-117.647
842.78	-37.931
843.08	-64.286
843.38	-115.385
843.68	-100.000
843.97	-76.923
844.27	-190.909
844.57	-500.000
844.87	-48.000
845.17	-140.000
845.47	-114.286
845.76	-155.556
846.06	0.000
846.36	-425.000
846.66	-140.000
846.96	-42.105
847.25	-12.500
847.55	-116.667
847.85	-26.667
848.15	-150.000
848.44	7.692
848.74	15.789
849.04	700.000
849.34	-111.111
849.63	-110.526
849.93	0.000
850.23	-45.000
850.53	-52.381
850.82	-60.000
851.12	-36.842
851.42	-350.000
851.71	-57.143
852.01	-100.000
852.31	-41.176
852.61	-80.000
852.90	-57.143
853.20	-216.667
853.50	-50.000
853.79	-110.526
854.09	-100.000
854.39	-14.286
854.68	-4.348
854.98	-275.000
855.28	17.241
855.57	-75.000
855.87	-65.000
856.17	-146.667
856.46	-20.690
856.76	-60.000
857.05	-100.000
857.35	-192.308
857.65	-163.636
857.94	29.630
858.24	-142.857
858.53	-207.143
858.83	-25.000
859.13	-244.444
859.42	-23.810
859.72	-187.500
860.01	-800.000
860.31	-112.500
860.60	-320.000
860.90	-266.667
861.20	-87.500
861.49	-300.000
861.79	0.000
862.08	-800.000
862.38	-208.333
862.67	-30.769
862.97	-17.647
863.26	-35.000
863.56	-76.471
863.85	633.333
864.15	-160.000
864.44	-84.615
864.74	25.000
865.03	-275.000
865.33	-266.667
865.62	-58.824
865.92	-650.000
866.21	-121.429
866.51	-125.000
866.80	-1300.000
867.10	-466.667
867.39	-17.647
867.69	0.000
867.98	-128.571
868.27	-320.000
868.57	-175.000
868.86	-190.909
869.16	-17.647
869.45	-266.667
869.75	-228.571
870.04	1700.000
870.33	-150.000
870.63	-300.000
870.92	-100.000
871.22	-16.667
871.51	-190.909
871.80	-125.000
872.10	0.000
>>>>>End Processed Spectral Data<<<<<
