SpectraSuite Data File
++++++++++++++++++++++++++++++++++++
Date: Sat May 16 11:14:53 PDT 2015
User: schluterlab
Dark Spectrum Present: Yes
Reference Spectrum Present: Yes
Number of Sampled Component Spectra: 1
Spectrometers: USB2E3373
Integration Time (usec): 3000 (USB2E3373)
Spectra Averaged: 3 (USB2E3373)
Boxcar Smoothing: 0 (USB2E3373)
Correct for Electrical Dark: No (USB2E3373)
Strobe/Lamp Enabled: No (USB2E3373)
Correct for Detector Non-linearity: No (USB2E3373)
Correct for Stray Light: No (USB2E3373)
Number of Pixels in Processed Spectrum: 2048
>>>>>Begin Processed Spectral Data<<<<<
178.53	0.000
178.91	73.333
179.29	300.000
179.67	-800.000
180.04	-30.769
180.42	1300.000
180.80	-150.000
181.18	450.000
181.56	87.500
181.94	-0.000
182.31	450.000
182.69	15.385
183.07	0.000
183.45	1450.000
183.83	400.000
184.20	-71.429
184.58	-50.000
184.96	-300.000
185.34	43.750
185.72	-425.000
186.09	-0.000
186.47	-87.500
186.85	-112.500
187.23	0.000
187.61	-375.000
187.98	-50.000
188.36	-200.000
188.74	-112.500
189.12	500.000
189.49	57.143
189.87	-83.333
190.25	125.000
190.63	35.714
191.00	-22.222
191.38	360.000
191.76	40.000
192.14	200.000
192.51	-60.000
192.89	-166.667
193.27	0.000
193.65	-11.111
194.02	-42.857
194.40	-133.333
194.78	-60.000
195.15	-300.000
195.53	-118.182
195.91	-250.000
196.29	100.000
196.66	-200.000
197.04	900.000
197.42	-175.000
197.79	33.333
198.17	-366.667
198.55	-350.000
198.92	-300.000
199.30	75.000
199.68	-350.000
200.05	-100.000
200.43	-144.444
200.81	-1500.000
201.18	-108.333
201.56	228.571
201.94	-60.000
202.31	40.909
202.69	10.000
203.07	40.000
203.44	700.000
203.82	-250.000
204.19	-100.000
204.57	-75.000
204.95	-1400.000
205.32	0.000
205.70	300.000
206.08	-700.000
206.45	55.556
206.83	-700.000
207.20	50.000
207.58	-533.333
207.96	-500.000
208.33	-25.000
208.71	-111.111
209.08	220.000
209.46	-28.571
209.84	100.000
210.21	0.000
210.59	50.000
210.96	1100.000
211.34	-50.000
211.71	0.000
212.09	-25.000
212.46	600.000
212.84	-2000.000
213.22	433.333
213.59	158.333
213.97	77.778
214.34	110.000
214.72	-10.000
215.09	-233.333
215.47	-200.000
215.84	-20.000
216.22	-20.000
216.59	-6.667
216.97	-25.000
217.34	650.000
217.72	14.286
218.09	-150.000
218.47	-128.571
218.84	242.857
219.22	57.143
219.59	0.000
219.97	242.857
220.34	275.000
220.72	125.000
221.09	7.692
221.47	0.000
221.84	200.000
222.22	-400.000
222.59	600.000
222.97	-87.500
223.34	-300.000
223.72	-233.333
224.09	-85.714
224.46	-50.000
224.84	-57.143
225.21	-42.857
225.59	36.364
225.96	-100.000
226.34	-71.429
226.71	-22.222
227.08	10.000
227.46	2200.000
227.83	-100.000
228.21	-87.500
228.58	-0.000
228.95	25.000
229.33	-1300.000
229.70	-120.000
230.08	-550.000
230.45	41.667
230.82	-50.000
231.20	-600.000
231.57	-50.000
231.95	1700.000
232.32	14.286
232.69	-111.111
233.07	-114.286
233.44	-450.000
233.81	-33.333
234.19	-33.333
234.56	-31.250
234.93	37.500
235.31	-200.000
235.68	14.286
236.05	-5.882
236.43	-13.636
236.80	6.452
237.17	-12.500
237.55	-38.095
237.92	-18.182
238.29	-28.571
238.67	38.235
239.04	11.111
239.41	12.903
239.79	-25.641
240.16	19.048
240.53	14.545
240.91	46.154
241.28	18.182
241.65	32.308
242.02	19.672
242.40	16.393
242.77	40.909
243.14	32.203
243.51	20.000
243.89	24.051
244.26	21.348
244.63	21.053
245.00	11.579
245.38	21.186
245.75	30.088
246.12	18.400
246.49	28.346
246.87	17.886
247.24	22.034
247.61	23.729
247.98	31.690
248.36	20.979
248.73	27.215
249.10	25.478
249.47	26.901
249.84	29.545
250.22	16.071
250.59	26.554
250.96	18.848
251.33	25.592
251.70	19.231
252.08	25.592
252.45	19.431
252.82	27.619
253.19	26.383
253.56	23.387
253.94	32.489
254.31	24.464
254.68	23.984
255.05	27.823
255.42	25.794
255.79	23.297
256.16	28.235
256.54	28.676
256.91	23.106
257.28	21.612
257.65	27.660
258.02	27.673
258.39	23.077
258.76	20.608
259.14	24.691
259.51	30.820
259.88	28.049
260.25	28.261
260.62	24.437
260.99	21.958
261.36	26.829
261.73	31.503
262.10	25.000
262.47	23.932
262.85	29.714
263.22	26.074
263.59	26.154
263.96	26.957
264.33	22.222
264.70	29.282
265.07	27.473
265.44	26.098
265.81	26.098
266.18	25.570
266.55	25.980
266.92	29.471
267.29	26.634
267.66	27.407
268.03	28.502
268.40	24.413
268.77	25.301
269.14	24.362
269.51	25.287
269.88	25.459
270.25	23.310
270.62	27.231
270.99	24.324
271.36	25.175
271.73	24.439
272.10	26.087
272.47	23.111
272.84	26.889
273.21	26.147
273.58	25.934
273.95	24.342
274.32	27.376
274.69	24.726
275.06	27.198
275.43	26.339
275.80	26.273
276.17	26.360
276.54	28.310
276.91	22.428
277.28	25.761
277.65	27.066
278.02	24.426
278.39	24.754
278.76	24.502
279.13	25.692
279.50	26.243
279.87	26.216
280.23	26.518
280.60	25.249
280.97	23.107
281.34	25.338
281.71	27.115
282.08	23.790
282.45	24.644
282.82	26.550
283.19	22.909
283.56	27.656
283.92	26.325
284.29	25.651
284.66	26.439
285.03	26.916
285.40	24.723
285.77	24.561
286.14	25.271
286.51	24.334
286.87	24.319
287.24	24.744
287.61	23.636
287.98	23.050
288.35	21.488
288.72	24.448
289.08	23.390
289.45	22.054
289.82	23.702
290.19	24.959
290.56	22.975
290.93	22.576
291.29	22.528
291.66	24.477
292.03	23.077
292.40	21.386
292.77	20.497
293.13	23.089
293.50	22.734
293.87	22.086
294.24	21.116
294.60	20.152
294.97	22.610
295.34	18.519
295.71	21.875
296.08	20.276
296.44	19.027
296.81	23.077
297.18	21.549
297.55	20.904
297.91	22.594
298.28	19.863
298.65	20.363
299.02	20.187
299.38	19.385
299.75	19.837
300.12	19.615
300.48	19.693
300.85	18.218
301.22	20.181
301.59	18.596
301.95	19.270
302.32	18.774
302.69	18.360
303.05	18.315
303.42	17.375
303.79	19.019
304.15	18.009
304.52	18.553
304.89	19.008
305.25	18.437
305.62	18.214
305.99	19.199
306.35	19.201
306.72	16.970
307.09	19.864
307.45	16.913
307.82	18.101
308.19	18.456
308.55	18.301
308.92	17.508
309.29	17.297
309.65	18.346
310.02	17.063
310.38	17.622
310.75	18.545
311.12	17.252
311.48	18.163
311.85	16.066
312.22	17.199
312.58	17.701
312.95	16.004
313.31	18.581
313.68	18.492
314.05	18.595
314.41	17.606
314.78	17.083
315.14	18.361
315.51	17.123
315.87	18.006
316.24	17.784
316.61	17.274
316.97	17.811
317.34	17.919
317.70	18.182
318.07	18.004
318.43	18.633
318.80	18.685
319.16	18.105
319.53	18.421
319.89	17.686
320.26	20.000
320.62	19.135
320.99	19.104
321.35	17.635
321.72	19.038
322.08	20.673
322.45	19.505
322.81	20.845
323.18	21.422
323.54	21.257
323.91	20.853
324.27	22.148
324.64	21.115
325.00	22.513
325.37	23.620
325.73	24.147
326.10	22.498
326.46	24.256
326.83	24.936
327.19	24.354
327.56	25.383
327.92	24.809
328.29	25.887
328.65	24.727
329.01	25.972
329.38	25.602
329.74	26.923
330.11	26.473
330.47	27.157
330.84	27.498
331.20	28.249
331.56	27.712
331.93	28.330
332.29	29.498
332.66	28.797
333.02	28.597
333.38	29.301
333.75	30.454
334.11	29.600
334.48	29.656
334.84	29.921
335.20	29.255
335.57	30.596
335.93	31.513
336.29	28.432
336.66	29.956
337.02	31.892
337.38	30.660
337.75	30.992
338.11	31.395
338.47	31.050
338.84	31.942
339.20	31.547
339.56	31.818
339.93	30.864
340.29	32.241
340.65	31.469
341.02	31.197
341.38	31.929
341.74	31.837
342.11	31.911
342.47	30.558
342.83	32.158
343.20	32.707
343.56	31.673
343.92	32.220
344.28	33.642
344.65	31.106
345.01	32.269
345.37	33.472
345.73	32.406
346.10	32.216
346.46	31.357
346.82	31.115
347.19	31.306
347.55	31.220
347.91	33.622
348.27	32.060
348.63	32.714
349.00	32.776
349.36	31.538
349.72	34.236
350.08	32.318
350.45	32.939
350.81	33.838
351.17	31.913
351.53	32.299
351.89	33.226
352.26	33.101
352.62	32.949
352.98	33.861
353.34	33.973
353.70	32.355
354.07	33.517
354.43	33.913
354.79	33.597
355.15	32.748
355.51	32.969
355.87	34.150
356.24	32.883
356.60	34.972
356.96	34.180
357.32	34.679
357.68	33.946
358.04	33.564
358.40	34.571
358.77	34.544
359.13	33.282
359.49	33.862
359.85	34.451
360.21	34.551
360.57	34.639
360.93	34.296
361.29	34.978
361.66	33.384
362.02	33.284
362.38	33.822
362.74	34.799
363.10	34.075
363.46	36.040
363.82	34.548
364.18	36.179
364.54	34.954
364.90	34.242
365.26	34.879
365.62	36.279
365.98	35.135
366.35	35.493
366.71	34.743
367.07	35.921
367.43	35.758
367.79	35.601
368.15	34.068
368.51	36.014
368.87	36.401
369.23	36.000
369.59	35.833
369.95	35.518
370.31	37.342
370.67	36.009
371.03	37.172
371.39	35.219
371.75	36.123
372.11	37.661
372.47	36.226
372.83	36.648
373.19	37.357
373.55	35.749
373.91	36.700
374.27	36.619
374.63	35.818
374.99	36.857
375.35	35.532
375.71	38.285
376.07	38.056
376.42	35.828
376.78	38.170
377.14	38.034
377.50	37.589
377.86	36.801
378.22	37.626
378.58	37.060
378.94	37.793
379.30	37.965
379.66	37.826
380.02	38.206
380.38	37.825
380.74	36.811
381.09	37.610
381.45	38.604
381.81	38.234
382.17	38.471
382.53	39.149
382.89	37.440
383.25	37.869
383.61	37.736
383.97	39.069
384.32	39.362
384.68	38.271
385.04	37.500
385.40	37.858
385.76	39.024
386.12	39.163
386.48	38.243
386.83	37.791
387.19	39.331
387.55	38.462
387.91	37.878
388.27	37.153
388.62	38.161
388.98	38.946
389.34	39.229
389.70	39.281
390.06	37.725
390.42	39.487
390.77	38.927
391.13	39.503
391.49	39.239
391.85	38.903
392.20	38.350
392.56	37.996
392.92	39.133
393.28	38.749
393.64	39.627
393.99	37.846
394.35	38.686
394.71	37.863
395.07	40.050
395.42	37.008
395.78	39.283
396.14	40.062
396.50	39.083
396.85	39.975
397.21	39.307
397.57	39.088
397.92	39.286
398.28	39.000
398.64	39.441
399.00	40.169
399.35	39.910
399.71	39.837
400.07	39.045
400.42	39.234
400.78	37.686
401.14	38.922
401.49	39.387
401.85	38.682
402.21	39.333
402.57	37.803
402.92	39.648
403.28	40.012
403.63	37.987
403.99	40.025
404.35	38.949
404.70	38.912
405.06	38.697
405.42	38.745
405.77	38.405
406.13	38.444
406.49	39.425
406.84	38.752
407.20	39.105
407.55	40.025
407.91	38.407
408.27	38.848
408.62	39.086
408.98	37.477
409.34	38.269
409.69	38.311
410.05	38.811
410.40	38.688
410.76	37.937
411.11	40.274
411.47	38.619
411.83	39.487
412.18	39.171
412.54	39.109
412.89	38.275
413.25	37.898
413.60	40.158
413.96	38.386
414.31	39.755
414.67	38.413
415.03	39.457
415.38	39.232
415.74	38.789
416.09	40.026
416.45	39.087
416.80	38.882
417.16	39.801
417.51	40.184
417.87	40.647
418.22	39.444
418.58	40.501
418.93	39.240
419.29	39.774
419.64	39.636
420.00	40.219
420.35	39.562
420.71	41.176
421.06	40.710
421.42	38.700
421.77	40.313
422.12	40.515
422.48	39.765
422.83	41.059
423.19	39.477
423.54	40.865
423.90	41.296
424.25	41.120
424.61	41.616
424.96	41.954
425.31	41.476
425.67	40.860
426.02	40.849
426.38	42.650
426.73	42.198
427.09	42.157
427.44	41.080
427.79	41.860
428.15	42.430
428.50	41.935
428.85	43.165
429.21	41.727
429.56	43.177
429.92	41.934
430.27	41.525
430.62	42.894
430.98	42.551
431.33	43.010
431.68	43.432
432.04	43.369
432.39	44.160
432.74	43.405
433.10	43.613
433.45	43.351
433.80	43.729
434.16	43.149
434.51	44.438
434.86	45.401
435.22	43.096
435.57	44.002
435.92	43.904
436.28	45.104
436.63	45.449
436.98	44.616
437.34	45.127
437.69	44.399
438.04	44.867
438.39	45.728
438.75	43.714
439.10	45.031
439.45	45.021
439.81	45.361
440.16	46.053
440.51	45.824
440.86	45.055
441.22	45.274
441.57	45.579
441.92	46.547
442.27	45.455
442.63	45.601
442.98	45.090
443.33	46.183
443.68	45.753
444.03	45.923
444.39	46.109
444.74	46.696
445.09	46.985
445.44	46.483
445.79	46.507
446.15	46.166
446.50	47.469
446.85	46.742
447.20	46.016
447.55	46.354
447.91	47.052
448.26	46.872
448.61	47.312
448.96	47.003
449.31	46.674
449.66	48.311
450.02	46.316
450.37	47.072
450.72	47.514
451.07	48.020
451.42	47.460
451.77	47.696
452.12	48.093
452.47	47.166
452.83	47.699
453.18	48.703
453.53	48.197
453.88	47.608
454.23	48.126
454.58	49.285
454.93	48.174
455.28	49.267
455.63	47.912
455.98	48.494
456.34	46.823
456.69	47.905
457.04	47.511
457.39	47.488
457.74	47.135
458.09	49.304
458.44	48.037
458.79	48.487
459.14	48.260
459.49	48.609
459.84	48.342
460.19	48.687
460.54	49.183
460.89	49.271
461.24	48.270
461.59	48.652
461.94	49.395
462.29	49.256
462.64	49.539
462.99	50.335
463.34	49.359
463.69	49.109
464.04	48.389
464.39	49.283
464.74	48.227
465.09	48.827
465.44	50.028
465.79	50.085
466.14	50.518
466.49	48.244
466.84	49.940
467.19	49.065
467.54	47.785
467.89	49.568
468.24	50.653
468.59	50.781
468.94	50.997
469.29	50.552
469.64	49.663
469.99	49.966
470.34	50.835
470.68	52.544
471.03	51.411
471.38	50.486
471.73	51.189
472.08	51.740
472.43	51.094
472.78	50.800
473.13	50.431
473.48	50.670
473.83	51.241
474.17	49.873
474.52	52.238
474.87	50.291
475.22	50.029
475.57	49.667
475.92	50.648
476.27	50.686
476.61	50.366
476.96	51.202
477.31	51.507
477.66	51.245
478.01	49.919
478.36	50.550
478.70	51.628
479.05	50.676
479.40	51.347
479.75	51.478
480.10	51.042
480.45	49.855
480.79	50.790
481.14	51.480
481.49	51.404
481.84	50.670
482.19	50.937
482.53	51.705
482.88	50.783
483.23	50.939
483.58	50.000
483.92	51.983
484.27	51.130
484.62	50.886
484.97	49.415
485.31	49.504
485.66	48.326
486.01	48.603
486.36	49.401
486.70	49.918
487.05	49.672
487.40	50.000
487.75	49.523
488.09	50.031
488.44	50.541
488.79	50.124
489.13	51.502
489.48	51.672
489.83	51.441
490.17	51.241
490.52	52.038
490.87	50.947
491.22	50.957
491.56	51.250
491.91	52.385
492.26	50.802
492.60	52.474
492.95	52.356
493.30	52.501
493.64	51.622
493.99	52.342
494.34	51.952
494.68	52.154
495.03	51.769
495.37	53.147
495.72	52.554
496.07	51.713
496.41	52.663
496.76	52.511
497.11	52.567
497.45	52.443
497.80	53.627
498.14	51.228
498.49	52.988
498.84	51.893
499.18	52.729
499.53	52.996
499.87	52.896
500.22	52.892
500.56	53.827
500.91	52.759
501.26	52.984
501.60	52.576
501.95	53.140
502.29	52.574
502.64	53.795
502.98	52.228
503.33	51.222
503.67	52.778
504.02	52.487
504.36	52.696
504.71	54.154
505.06	53.270
505.40	53.792
505.75	53.811
506.09	53.691
506.44	54.436
506.78	52.985
507.13	52.729
507.47	54.721
507.82	53.846
508.16	54.922
508.51	53.529
508.85	54.400
509.19	53.741
509.54	55.233
509.88	53.989
510.23	54.927
510.57	54.550
510.92	55.639
511.26	54.173
511.61	55.292
511.95	53.987
512.30	54.590
512.64	55.314
512.98	55.281
513.33	54.146
513.67	54.216
514.02	55.649
514.36	55.568
514.70	54.556
515.05	55.575
515.39	55.479
515.74	56.079
516.08	54.870
516.42	56.147
516.77	55.921
517.11	55.778
517.46	56.041
517.80	57.401
518.14	56.099
518.49	54.931
518.83	56.439
519.17	56.009
519.52	55.350
519.86	56.810
520.20	57.763
520.55	57.354
520.89	57.107
521.23	56.349
521.58	56.865
521.92	56.301
522.26	57.270
522.61	57.605
522.95	55.775
523.29	57.492
523.64	55.465
523.98	56.779
524.32	56.568
524.66	56.211
525.01	56.776
525.35	57.539
525.69	57.254
526.04	58.094
526.38	57.097
526.72	56.003
527.06	58.073
527.41	57.624
527.75	56.700
528.09	57.445
528.43	56.525
528.78	57.161
529.12	58.259
529.46	57.152
529.80	57.198
530.15	56.600
530.49	56.921
530.83	57.302
531.17	58.114
531.51	57.803
531.86	56.287
532.20	56.680
532.54	57.420
532.88	56.653
533.22	57.620
533.57	58.029
533.91	55.743
534.25	54.620
534.59	54.903
534.93	55.818
535.27	56.639
535.62	57.864
535.96	56.109
536.30	56.675
536.64	57.371
536.98	58.475
537.32	56.531
537.66	57.298
538.01	57.113
538.35	57.297
538.69	56.217
539.03	56.263
539.37	56.287
539.71	57.905
540.05	56.340
540.39	56.717
540.73	57.429
541.07	56.489
541.42	57.259
541.76	55.814
542.10	57.664
542.44	56.962
542.78	57.056
543.12	57.705
543.46	56.301
543.80	55.786
544.14	57.018
544.48	57.021
544.82	57.375
545.16	57.545
545.50	55.922
545.84	57.093
546.18	57.559
546.52	56.686
546.86	57.265
547.20	57.665
547.54	56.474
547.88	56.005
548.22	55.505
548.56	57.649
548.90	56.199
549.24	56.692
549.58	57.022
549.92	56.820
550.26	57.731
550.60	56.401
550.94	57.810
551.28	57.637
551.62	57.607
551.96	56.440
552.30	57.282
552.64	56.580
552.98	58.655
553.32	58.081
553.66	57.606
554.00	57.569
554.34	56.318
554.68	55.921
555.02	58.755
555.36	58.160
555.69	56.590
556.03	58.526
556.37	58.037
556.71	57.480
557.05	58.832
557.39	58.055
557.73	57.403
558.07	57.573
558.41	57.966
558.75	58.099
559.08	57.121
559.42	58.270
559.76	59.433
560.10	57.793
560.44	57.948
560.78	58.246
561.12	56.660
561.45	56.781
561.79	56.794
562.13	58.065
562.47	57.983
562.81	56.648
563.15	58.153
563.48	57.360
563.82	58.215
564.16	56.051
564.50	56.048
564.84	56.614
565.17	57.228
565.51	57.236
565.85	57.809
566.19	57.839
566.52	57.404
566.86	55.499
567.20	57.203
567.54	56.409
567.88	55.388
568.21	55.593
568.55	55.885
568.89	54.871
569.23	54.789
569.56	53.342
569.90	53.226
570.24	54.491
570.57	53.427
570.91	52.635
571.25	52.886
571.59	53.231
571.92	52.173
572.26	52.127
572.60	52.498
572.93	52.214
573.27	52.104
573.61	52.509
573.95	52.182
574.28	51.217
574.62	52.110
574.96	51.570
575.29	51.092
575.63	51.845
575.97	51.402
576.30	51.658
576.64	52.219
576.98	51.381
577.31	51.418
577.65	51.174
577.98	51.754
578.32	51.252
578.66	50.962
578.99	51.540
579.33	51.721
579.67	51.966
580.00	50.868
580.34	51.981
580.67	51.998
581.01	50.846
581.35	51.988
581.68	50.534
582.02	51.349
582.35	51.464
582.69	51.499
583.02	52.255
583.36	51.454
583.70	51.613
584.03	52.074
584.37	52.206
584.70	52.551
585.04	52.127
585.37	51.360
585.71	51.548
586.04	51.520
586.38	51.109
586.72	51.494
587.05	52.535
587.39	52.144
587.72	52.270
588.06	52.352
588.39	52.834
588.73	52.263
589.06	52.590
589.40	53.796
589.73	52.443
590.07	53.824
590.40	52.989
590.73	52.499
591.07	53.770
591.40	54.636
591.74	53.258
592.07	54.865
592.41	52.696
592.74	53.613
593.08	52.935
593.41	53.224
593.75	52.324
594.08	53.451
594.41	53.457
594.75	53.718
595.08	53.383
595.42	53.035
595.75	53.032
596.09	54.288
596.42	54.746
596.75	53.342
597.09	55.120
597.42	53.296
597.75	54.252
598.09	53.773
598.42	53.557
598.76	53.239
599.09	53.867
599.42	53.749
599.76	52.812
600.09	53.817
600.42	53.893
600.76	54.463
601.09	53.323
601.42	53.146
601.76	53.310
602.09	53.415
602.42	53.663
602.76	52.638
603.09	53.629
603.42	54.432
603.76	54.168
604.09	53.024
604.42	53.872
604.76	52.900
605.09	53.843
605.42	54.433
605.75	53.903
606.09	53.259
606.42	53.624
606.75	53.628
607.09	54.301
607.42	52.553
607.75	53.907
608.08	54.677
608.42	54.541
608.75	53.364
609.08	53.434
609.41	54.210
609.75	54.217
610.08	54.951
610.41	54.602
610.74	54.787
611.07	55.122
611.41	53.606
611.74	55.578
612.07	56.660
612.40	54.104
612.73	54.281
613.07	53.935
613.40	54.680
613.73	55.477
614.06	54.036
614.39	54.171
614.72	55.028
615.06	53.098
615.39	54.368
615.72	54.807
616.05	54.335
616.38	55.601
616.71	53.754
617.05	55.609
617.38	57.028
617.71	55.221
618.04	56.149
618.37	55.660
618.70	56.910
619.03	55.856
619.36	58.140
619.69	56.569
620.03	55.372
620.36	56.188
620.69	56.569
621.02	56.773
621.35	56.210
621.68	57.541
622.01	57.201
622.34	56.599
622.67	56.953
623.00	56.083
623.33	58.060
623.66	56.499
623.99	56.466
624.32	56.027
624.65	56.439
624.99	56.684
625.32	55.838
625.65	57.187
625.98	56.573
626.31	57.749
626.64	58.159
626.97	56.592
627.30	56.426
627.63	57.772
627.96	57.615
628.29	58.180
628.62	58.930
628.95	60.039
629.28	58.177
629.61	59.470
629.94	57.750
630.26	59.543
630.59	60.402
630.92	58.158
631.25	57.560
631.58	56.931
631.91	57.979
632.24	60.111
632.57	59.667
632.90	59.425
633.23	60.397
633.56	59.883
633.89	62.028
634.22	60.331
634.55	60.457
634.88	59.734
635.20	58.427
635.53	60.687
635.86	59.572
636.19	60.806
636.52	60.335
636.85	59.928
637.18	58.625
637.51	58.984
637.83	62.184
638.16	61.184
638.49	60.276
638.82	57.529
639.15	61.997
639.48	60.182
639.81	63.071
640.13	60.270
640.46	63.533
640.79	61.765
641.12	60.790
641.45	60.689
641.77	61.826
642.10	60.574
642.43	60.698
642.76	61.575
643.09	63.651
643.41	61.746
643.74	60.731
644.07	61.778
644.40	63.695
644.73	63.861
645.05	63.105
645.38	63.742
645.71	64.605
646.04	62.353
646.36	62.304
646.69	61.938
647.02	62.455
647.35	65.884
647.67	64.781
648.00	65.202
648.33	64.081
648.66	58.710
648.98	62.739
649.31	60.923
649.64	60.625
649.96	60.597
650.29	61.639
650.62	64.716
650.94	61.214
651.27	60.312
651.60	62.284
651.92	61.473
652.25	59.599
652.58	63.032
652.90	59.390
653.23	58.710
653.56	60.033
653.88	59.672
654.21	62.416
654.54	62.625
654.86	63.082
655.19	58.883
655.52	56.841
655.84	51.526
656.17	54.669
656.49	72.620
656.82	75.039
657.15	57.010
657.47	42.796
657.80	32.922
658.13	37.705
658.45	51.754
658.78	51.465
659.10	51.308
659.43	52.235
659.75	53.383
660.08	54.531
660.41	53.178
660.73	58.416
661.06	60.000
661.38	60.536
661.71	62.141
662.03	64.113
662.36	64.392
662.68	62.025
663.01	62.845
663.33	65.986
663.66	65.021
663.98	63.839
664.31	63.311
664.63	65.929
664.96	61.171
665.28	64.208
665.61	58.774
665.93	65.226
666.26	62.146
666.58	64.657
666.91	66.370
667.23	61.184
667.56	62.585
667.88	63.801
668.21	61.521
668.53	62.383
668.86	61.663
669.18	60.731
669.50	62.617
669.83	65.693
670.15	64.126
670.48	63.084
670.80	64.692
671.13	61.400
671.45	62.162
671.77	64.454
672.10	61.933
672.42	59.225
672.75	59.455
673.07	58.739
673.39	59.927
673.72	62.992
674.04	63.482
674.37	61.443
674.69	59.426
675.01	60.213
675.34	59.002
675.66	61.555
675.98	64.978
676.31	61.765
676.63	63.448
676.95	60.841
677.28	62.181
677.60	62.217
677.92	62.996
678.25	61.050
678.57	61.317
678.89	60.797
679.22	59.748
679.54	60.158
679.86	59.600
680.18	61.407
680.51	59.032
680.83	59.429
681.15	60.886
681.48	63.692
681.80	59.476
682.12	61.569
682.44	59.921
682.77	58.874
683.09	59.119
683.41	62.168
683.73	60.046
684.06	58.065
684.38	60.251
684.70	59.053
685.02	59.252
685.34	59.064
685.67	57.576
685.99	58.979
686.31	59.246
686.63	56.560
686.96	56.562
687.28	55.299
687.60	59.180
687.92	56.226
688.24	58.071
688.56	56.914
688.89	57.265
689.21	58.206
689.53	60.460
689.85	56.570
690.17	60.762
690.49	56.582
690.82	60.000
691.14	59.434
691.46	60.754
691.78	61.013
692.10	58.475
692.42	56.000
692.74	58.369
693.06	59.775
693.39	58.837
693.71	58.465
694.03	60.043
694.35	57.788
694.67	56.974
694.99	59.591
695.31	62.245
695.63	57.143
695.95	58.313
696.27	61.347
696.59	61.765
696.91	61.798
697.23	60.938
697.56	56.490
697.88	57.883
698.20	55.032
698.52	54.933
698.84	59.466
699.16	55.000
699.48	56.000
699.80	57.895
700.12	58.438
700.44	56.425
700.76	58.892
701.08	61.919
701.40	59.215
701.72	60.185
702.04	64.103
702.36	60.241
702.68	59.581
703.00	57.681
703.32	51.576
703.64	63.235
703.96	59.593
704.28	58.876
704.60	55.380
704.91	58.730
705.23	61.489
705.55	62.838
705.87	61.433
706.19	59.028
706.51	55.556
706.83	60.328
707.15	63.376
707.47	62.534
707.79	55.155
708.11	51.654
708.43	58.105
708.74	53.766
709.06	55.432
709.38	55.747
709.70	59.062
710.02	55.521
710.34	58.416
710.66	55.238
710.98	56.467
711.29	58.710
711.61	61.661
711.93	55.082
712.25	60.133
712.57	54.355
712.89	60.072
713.20	61.168
713.52	54.851
713.84	61.566
714.16	54.754
714.48	56.825
714.80	59.692
715.11	56.196
715.43	57.831
715.75	55.763
716.07	57.377
716.39	55.518
716.70	57.143
717.02	60.000
717.34	58.397
717.66	62.656
717.97	59.016
718.29	57.143
718.61	64.683
718.93	54.839
719.24	56.250
719.56	53.962
719.88	56.727
720.20	61.423
720.51	58.271
720.83	59.438
721.15	58.607
721.46	60.392
721.78	55.556
722.10	58.000
722.42	58.678
722.73	62.948
723.05	58.635
723.37	56.471
723.68	53.036
724.00	63.415
724.32	55.967
724.63	56.017
724.95	59.917
725.27	56.579
725.58	55.172
725.90	53.175
726.22	58.672
726.53	53.612
726.85	56.471
727.16	54.511
727.48	48.462
727.80	54.098
728.11	60.924
728.43	58.264
728.74	57.812
729.06	53.409
729.38	53.696
729.69	54.724
730.01	62.205
730.32	60.956
730.64	51.648
730.96	59.701
731.27	58.214
731.59	55.949
731.90	52.454
732.22	53.374
732.53	55.298
732.85	51.678
733.16	50.725
733.48	50.523
733.80	56.228
734.11	56.552
734.43	54.422
734.74	53.709
735.06	52.038
735.37	53.517
735.69	52.903
736.00	51.852
736.32	51.656
736.63	50.345
736.95	49.275
737.26	55.629
737.58	57.914
737.89	56.989
738.21	55.263
738.52	53.462
738.83	57.422
739.15	55.983
739.46	53.226
739.78	50.000
740.09	53.497
740.41	51.748
740.72	52.920
741.04	50.794
741.35	54.978
741.66	56.481
741.98	52.381
742.29	54.460
742.61	55.080
742.92	59.813
743.23	50.439
743.55	55.856
743.86	53.333
744.18	55.238
744.49	58.621
744.80	58.883
745.12	65.464
745.43	55.779
745.74	58.252
746.06	50.732
746.37	58.590
746.68	62.189
747.00	52.880
747.31	49.038
747.62	54.378
747.94	54.148
748.25	55.814
748.56	55.238
748.88	58.152
749.19	56.338
749.50	56.373
749.82	54.222
750.13	56.388
750.44	56.911
750.75	59.600
751.07	52.143
751.38	53.506
751.69	56.107
752.01	53.846
752.32	50.584
752.63	48.462
752.94	47.619
753.26	55.652
753.57	56.250
753.88	48.276
754.19	53.112
754.51	50.781
754.82	52.569
755.13	53.086
755.44	52.479
755.75	53.498
756.07	52.209
756.38	51.172
756.69	49.458
757.00	49.477
757.31	53.020
757.63	53.271
757.94	45.665
758.25	48.547
758.56	53.908
758.87	46.875
759.18	54.667
759.50	52.313
759.81	48.175
760.12	47.973
760.43	52.427
760.74	50.000
761.05	47.753
761.36	50.000
761.67	47.929
761.99	50.645
762.30	57.246
762.61	52.075
762.92	52.466
763.23	54.028
763.54	49.778
763.85	53.165
764.16	50.612
764.47	58.898
764.78	50.562
765.10	54.676
765.41	45.161
765.72	52.201
766.03	49.117
766.34	54.511
766.65	51.417
766.96	53.500
767.27	54.167
767.58	51.744
767.89	57.419
768.20	46.626
768.51	51.913
768.82	55.135
769.13	52.000
769.44	51.754
769.75	54.978
770.06	47.706
770.37	50.235
770.68	53.125
770.99	53.960
771.30	56.311
771.61	49.074
771.92	50.216
772.23	55.140
772.54	53.723
772.85	47.929
773.16	51.220
773.47	46.988
773.78	50.549
774.09	48.667
774.39	45.062
774.70	51.007
775.01	52.174
775.32	46.269
775.63	43.802
775.94	61.654
776.25	47.143
776.56	56.557
776.87	53.097
777.18	53.982
777.48	50.000
777.79	36.522
778.10	55.046
778.41	48.305
778.72	52.066
779.03	52.985
779.34	48.872
779.65	54.902
779.95	52.174
780.26	44.898
780.57	48.276
780.88	38.889
781.19	48.485
781.50	44.000
781.80	47.712
782.11	52.564
782.42	52.410
782.73	37.956
783.04	49.324
783.34	44.697
783.65	47.287
783.96	57.724
784.27	52.137
784.57	47.967
784.88	51.220
785.19	51.754
785.50	56.701
785.81	48.571
786.11	55.882
786.42	55.455
786.73	50.450
787.04	62.376
787.34	43.810
787.65	46.667
787.96	39.216
788.26	49.550
788.57	45.161
788.88	39.062
789.19	44.444
789.49	42.017
789.80	49.573
790.11	52.212
790.41	49.495
790.72	50.000
791.03	63.889
791.33	42.105
791.64	45.161
791.95	46.667
792.25	38.571
792.56	51.220
792.87	40.816
793.17	48.684
793.48	32.432
793.79	50.704
794.09	45.570
794.40	46.809
794.70	41.121
795.01	38.596
795.32	35.455
795.62	44.643
795.93	47.423
796.23	47.253
796.54	51.579
796.85	52.055
797.15	33.333
797.46	54.795
797.76	52.113
798.07	48.750
798.37	60.294
798.68	35.714
798.99	48.571
799.29	56.579
799.60	51.667
799.90	41.667
800.21	40.625
800.51	50.794
800.82	49.180
801.12	43.860
801.43	39.437
801.73	40.678
802.04	59.016
802.34	40.000
802.65	48.077
802.95	53.704
803.26	37.500
803.56	51.923
803.87	47.368
804.17	54.839
804.48	47.692
804.78	35.897
805.09	37.209
805.39	46.875
805.70	11.321
806.00	47.368
806.30	47.297
806.61	58.824
806.91	45.679
807.22	33.333
807.52	47.761
807.83	48.387
808.13	36.508
808.43	38.182
808.74	31.818
809.04	43.396
809.35	34.247
809.65	63.158
809.95	42.647
810.26	41.176
810.56	22.000
810.86	28.571
811.17	62.857
811.47	32.692
811.77	67.742
812.08	-10.526
812.38	47.619
812.69	36.957
812.99	48.387
813.29	30.952
813.59	44.444
813.90	21.277
814.20	9.302
814.50	27.083
814.81	40.000
815.11	48.780
815.41	33.333
815.72	42.857
816.02	52.778
816.32	53.846
816.62	18.919
816.93	38.235
817.23	32.609
817.53	38.235
817.84	35.294
818.14	25.000
818.44	24.138
818.74	22.581
819.04	29.630
819.35	73.333
819.65	-4.000
819.95	-6.667
820.25	32.000
820.56	42.105
820.86	0.000
821.16	38.298
821.46	36.207
821.76	41.026
822.07	17.500
822.37	20.930
822.67	16.667
822.97	8.108
823.27	29.730
823.57	68.000
823.88	37.838
824.18	4.762
824.48	57.692
824.78	-76.923
825.08	60.870
825.38	41.667
825.69	70.833
825.99	-10.000
826.29	16.216
826.59	20.588
826.89	44.000
827.19	14.286
827.49	42.105
827.79	25.000
828.09	-6.667
828.39	86.957
828.70	6.897
829.00	44.828
829.30	13.889
829.60	65.625
829.90	38.889
830.20	38.462
830.50	0.000
830.80	17.857
831.10	10.256
831.40	-23.810
831.70	17.647
832.00	29.167
832.30	-21.053
832.60	6.250
832.90	16.667
833.20	0.000
833.50	6.667
833.80	33.333
834.10	5.000
834.40	25.000
834.70	16.667
835.00	57.692
835.30	29.167
835.60	68.966
835.90	5.556
836.20	-18.182
836.50	-58.333
836.80	5.714
837.10	57.143
837.40	-5.882
837.70	27.273
838.00	-16.667
838.30	-68.750
838.60	33.333
838.90	45.000
839.19	-30.435
839.49	30.435
839.79	-11.111
840.09	-4.348
840.39	22.727
840.69	37.500
840.99	-10.526
841.29	-12.500
841.59	50.000
841.88	66.667
842.18	25.000
842.48	-52.941
842.78	6.897
843.08	0.000
843.38	46.154
843.68	-122.222
843.97	-69.231
844.27	72.727
844.57	100.000
844.87	44.000
845.17	60.000
845.47	-7.143
845.76	133.333
846.06	0.000
846.36	-50.000
846.66	-80.000
846.96	-31.579
847.25	-4.167
847.55	16.667
847.85	33.333
848.15	-40.000
848.44	57.692
848.74	26.316
849.04	366.667
849.34	0.000
849.63	-42.105
849.93	0.000
850.23	-10.000
850.53	4.762
850.82	12.000
851.12	-5.263
851.42	-600.000
851.71	50.000
852.01	33.333
852.31	-23.529
852.61	60.000
852.90	38.095
853.20	83.333
853.50	-5.556
853.79	0.000
854.09	-46.667
854.39	53.571
854.68	0.000
854.98	-58.333
855.28	41.379
855.57	-12.500
855.87	15.000
856.17	-6.667
856.46	27.586
856.76	0.000
857.05	-23.529
857.35	-115.385
857.65	18.182
857.94	25.926
858.24	-78.571
858.53	71.429
858.83	-16.667
859.13	-33.333
859.42	42.857
859.72	-50.000
860.01	100.000
860.31	-162.500
860.60	-300.000
860.90	-11.111
861.20	87.500
861.49	-57.143
861.79	23.529
862.08	-200.000
862.38	-33.333
862.67	-92.308
862.97	76.471
863.26	90.000
863.56	-17.647
863.85	233.333
864.15	-30.000
864.44	-76.923
864.74	70.000
865.03	-112.500
865.33	-150.000
865.62	-29.412
865.92	-225.000
866.21	-42.857
866.51	-8.333
866.80	100.000
867.10	33.333
867.39	-29.412
867.69	4.348
867.98	71.429
868.27	-280.000
868.57	-18.750
868.86	-100.000
869.16	-41.176
869.45	-50.000
869.75	-85.714
870.04	-100.000
870.33	-25.000
870.63	-80.000
870.92	-88.889
871.22	58.333
871.51	-54.545
871.80	75.000
872.10	-40.000
>>>>>End Processed Spectral Data<<<<<
