SpectraSuite Data File
++++++++++++++++++++++++++++++++++++
Date: Sat May 16 11:30:57 PDT 2015
User: schluterlab
Dark Spectrum Present: Yes
Reference Spectrum Present: Yes
Number of Sampled Component Spectra: 1
Spectrometers: USB2E3373
Integration Time (usec): 3000 (USB2E3373)
Spectra Averaged: 3 (USB2E3373)
Boxcar Smoothing: 0 (USB2E3373)
Correct for Electrical Dark: No (USB2E3373)
Strobe/Lamp Enabled: No (USB2E3373)
Correct for Detector Non-linearity: No (USB2E3373)
Correct for Stray Light: No (USB2E3373)
Number of Pixels in Processed Spectrum: 2048
>>>>>Begin Processed Spectral Data<<<<<
178.53	0.000
178.91	66.667
179.29	400.000
179.67	-1900.000
180.04	-61.538
180.42	800.000
180.80	175.000
181.18	375.000
181.56	-75.000
181.94	1200.000
182.31	350.000
182.69	-69.231
183.07	-233.333
183.45	1450.000
183.83	666.667
184.20	-142.857
184.58	-137.500
184.96	-225.000
185.34	137.500
185.72	-525.000
186.09	50.000
186.47	-137.500
186.85	-137.500
187.23	-37.500
187.61	-175.000
187.98	-287.500
188.36	-125.000
188.74	-262.500
189.12	1900.000
189.49	371.429
189.87	-191.667
190.25	150.000
190.63	-42.857
191.00	-111.111
191.38	180.000
191.76	-86.667
192.14	420.000
192.51	-300.000
192.89	-566.667
193.27	0.000
193.65	-133.333
194.02	-185.714
194.40	800.000
194.78	-60.000
195.15	-1500.000
195.53	-72.727
195.91	-450.000
196.29	220.000
196.66	-666.667
197.04	2000.000
197.42	-300.000
197.79	13.333
198.17	-366.667
198.55	-750.000
198.92	-1400.000
199.30	312.500
199.68	-350.000
200.05	-100.000
200.43	-300.000
200.81	-1700.000
201.18	-75.000
201.56	200.000
201.94	-33.333
202.31	-31.818
202.69	-40.000
203.07	-120.000
203.44	600.000
203.82	-383.333
204.19	-650.000
204.57	-150.000
204.95	-800.000
205.32	-87.500
205.70	1100.000
206.08	-2300.000
206.45	-16.667
206.83	-950.000
207.20	0.000
207.58	-666.667
207.96	-100.000
208.33	-225.000
208.71	-122.222
209.08	190.000
209.46	-114.286
209.84	500.000
210.21	0.000
210.59	10.000
210.96	1000.000
211.34	-316.667
211.71	-300.000
212.09	50.000
212.46	1200.000
212.84	-2000.000
213.22	833.333
213.59	100.000
213.97	-77.778
214.34	170.000
214.72	-70.000
215.09	-333.333
215.47	-233.333
215.84	-50.000
216.22	-130.000
216.59	-6.667
216.97	-375.000
217.34	900.000
217.72	-114.286
218.09	-216.667
218.47	-271.429
218.84	185.714
219.22	-14.286
219.59	0.000
219.97	385.714
220.34	475.000
220.72	237.500
221.09	-46.154
221.47	0.000
221.84	500.000
222.22	-950.000
222.59	400.000
222.97	-237.500
223.34	-600.000
223.72	-433.333
224.09	-85.714
224.46	-300.000
224.84	-114.286
225.21	-142.857
225.59	-54.545
225.96	-275.000
226.34	-128.571
226.71	-77.778
227.08	-20.000
227.46	1800.000
227.83	-242.857
228.21	-62.500
228.58	350.000
228.95	-75.000
229.33	-2500.000
229.70	-400.000
230.08	-700.000
230.45	-16.667
230.82	-100.000
231.20	-1900.000
231.57	-150.000
231.95	1000.000
232.32	0.000
232.69	-66.667
233.07	-185.714
233.44	-650.000
233.81	-126.667
234.19	-111.111
234.56	-25.000
234.93	0.000
235.31	-314.286
235.68	-121.429
236.05	-88.235
236.43	-68.182
236.80	9.677
237.17	-41.667
237.55	-100.000
237.92	-90.909
238.29	-8.571
238.67	-23.529
239.04	-27.778
239.41	-38.710
239.79	-56.410
240.16	-16.667
240.53	-18.182
240.91	-23.077
241.28	-18.182
241.65	1.538
242.02	-14.754
242.40	-19.672
242.77	-9.091
243.14	-33.898
243.51	-30.000
243.89	-20.253
244.26	-19.101
244.63	-11.579
245.00	-14.737
245.38	-6.780
245.75	-8.850
246.12	-3.200
246.49	-5.512
246.87	-5.691
247.24	-11.017
247.61	-19.492
247.98	-6.338
248.36	-7.692
248.73	-7.595
249.10	-7.006
249.47	-2.924
249.84	-1.136
250.22	-11.310
250.59	-9.040
250.96	-4.188
251.33	-0.474
251.70	-1.442
252.08	-3.318
252.45	-6.161
252.82	-10.476
253.19	-0.426
253.56	-2.016
253.94	-2.954
254.31	-2.146
254.68	-3.659
255.05	-6.855
255.42	-1.984
255.79	-4.301
256.16	-2.745
256.54	-2.206
256.91	-3.788
257.28	-6.227
257.65	-1.773
258.02	0.629
258.39	-1.003
258.76	-4.054
259.14	-3.395
259.51	1.311
259.88	-1.524
260.25	0.621
260.62	-2.572
260.99	-2.671
261.36	-2.134
261.73	-0.578
262.10	-2.222
262.47	-5.413
262.85	1.714
263.22	-2.865
263.59	-4.615
263.96	-2.319
264.33	-2.439
264.70	0.000
265.07	-4.670
265.44	-0.258
265.81	-1.550
266.18	-3.291
266.55	-0.980
266.92	2.771
267.29	-0.484
267.66	0.000
268.03	0.483
268.40	-0.939
268.77	-1.687
269.14	0.696
269.51	0.230
269.88	0.229
270.25	-4.662
270.62	-1.831
270.99	0.000
271.36	-0.466
271.73	-1.121
272.10	1.831
272.47	-1.556
272.84	1.778
273.21	-0.688
273.58	0.659
273.95	0.877
274.32	-1.584
274.69	-0.875
275.06	1.840
275.43	-1.786
275.80	-0.204
276.17	-0.628
276.54	2.037
276.91	1.440
277.28	-0.406
277.65	-1.033
278.02	-1.670
278.39	0.982
278.76	-0.398
279.13	1.581
279.50	1.392
279.87	-1.268
280.23	-0.810
280.60	-2.187
280.97	-2.524
281.34	-1.934
281.71	0.385
282.08	-2.218
282.45	-1.426
282.82	-0.581
283.19	1.636
283.56	0.916
283.92	-0.883
284.29	-3.717
284.66	-0.360
285.03	-1.070
285.40	-0.554
285.77	-1.579
286.14	-0.181
286.51	-2.131
286.87	-0.726
287.24	2.389
287.61	0.992
287.98	-1.560
288.35	-0.496
288.72	0.679
289.08	-2.542
289.45	0.337
289.82	-0.346
290.19	2.135
290.56	-0.331
290.93	0.159
291.29	-1.783
291.66	-1.127
292.03	1.570
292.40	1.205
292.77	0.466
293.13	-0.650
293.50	1.189
293.87	-0.920
294.24	0.603
294.60	-1.364
294.97	1.214
295.34	-0.444
295.71	-1.637
296.08	-1.229
296.44	-1.001
296.81	0.997
297.18	0.845
297.55	1.412
297.91	0.976
298.28	0.274
298.65	0.279
299.02	2.273
299.38	-0.134
299.75	0.679
300.12	1.282
300.48	-0.512
300.85	1.048
301.22	0.647
301.59	-0.130
301.95	2.519
302.32	-0.261
302.69	1.224
303.05	-0.122
303.42	0.500
303.79	1.675
304.15	1.422
304.52	1.867
304.89	1.181
305.25	1.099
305.62	-0.823
305.99	3.887
306.35	1.776
306.72	0.456
307.09	3.405
307.45	0.795
307.82	0.894
308.19	2.685
308.55	1.089
308.92	0.859
309.29	0.757
309.65	1.273
310.02	1.944
310.38	1.297
310.75	2.561
311.12	2.479
311.48	3.653
311.85	1.648
312.22	2.575
312.58	3.052
312.95	2.752
313.31	2.997
313.68	3.819
314.05	4.055
314.41	2.314
314.78	1.998
315.14	2.369
315.51	2.533
315.87	3.872
316.24	3.596
316.61	4.702
316.97	2.985
317.34	4.432
317.70	2.597
318.07	4.571
318.43	3.933
318.80	4.977
319.16	3.940
319.53	3.853
319.89	4.233
320.26	4.706
320.62	3.750
320.99	5.174
321.35	4.631
321.72	4.299
322.08	4.748
322.45	3.861
322.81	4.995
323.18	5.187
323.54	6.932
323.91	5.746
324.27	6.464
324.64	5.759
325.00	6.894
325.37	6.425
325.73	7.699
326.10	6.289
326.46	6.130
326.83	7.915
327.19	7.089
327.56	7.836
327.92	8.921
328.29	9.004
328.65	6.364
329.01	7.686
329.38	7.939
329.74	9.341
330.11	8.432
330.47	9.173
330.84	9.349
331.20	8.664
331.56	9.025
331.93	8.703
332.29	9.406
332.66	8.692
333.02	8.597
333.38	9.677
333.75	9.172
334.11	9.067
334.48	8.473
334.84	10.586
335.20	9.397
335.57	9.116
335.93	9.937
336.29	9.655
336.66	9.956
337.02	10.541
337.38	9.447
337.75	9.131
338.11	10.018
338.47	8.541
338.84	10.526
339.20	9.227
339.56	10.517
339.93	8.907
340.29	8.857
340.65	8.741
341.02	9.191
341.38	9.773
341.74	10.923
342.11	9.386
342.47	8.927
342.83	9.572
343.20	9.735
343.56	8.735
343.92	10.684
344.28	10.261
344.65	9.406
345.01	9.076
345.37	10.382
345.73	9.329
346.10	9.321
346.46	9.180
346.82	10.345
347.19	9.203
347.55	9.631
347.91	10.236
348.27	9.149
348.63	9.289
349.00	10.819
349.36	8.509
349.72	9.873
350.08	10.184
350.45	9.141
350.81	9.076
351.17	8.842
351.53	8.433
351.89	10.186
352.26	9.845
352.62	11.137
352.98	9.573
353.34	9.752
353.70	8.880
354.07	9.992
354.43	9.881
354.79	9.746
355.15	8.866
355.51	9.297
355.87	10.198
356.24	9.452
356.60	9.992
356.96	10.624
357.32	9.739
357.68	9.502
358.04	9.469
358.40	9.049
358.77	9.119
359.13	9.487
359.49	9.599
359.85	9.223
360.21	8.752
360.57	11.069
360.93	10.222
361.29	9.268
361.66	9.375
362.02	8.950
362.38	10.345
362.74	9.597
363.10	9.469
363.46	10.897
363.82	10.058
364.18	10.275
364.54	11.508
364.90	9.504
365.26	9.843
365.62	10.121
365.98	11.309
366.35	9.789
366.71	10.500
367.07	9.527
367.43	10.638
367.79	11.271
368.15	9.602
368.51	11.189
368.87	10.920
369.23	10.596
369.59	10.486
369.95	11.487
370.31	11.533
370.67	9.906
371.03	11.079
371.39	11.174
371.75	11.946
372.11	11.478
372.47	10.195
372.83	10.709
373.19	11.714
373.55	11.189
373.91	10.882
374.27	10.883
374.63	10.973
374.99	12.726
375.35	12.113
375.71	11.614
376.07	11.636
376.42	11.192
376.78	12.353
377.14	12.339
377.50	12.573
377.86	12.484
378.22	12.123
378.58	12.044
378.94	12.269
379.30	12.310
379.66	12.629
380.02	12.478
380.38	13.474
380.74	12.485
381.09	12.830
381.45	13.007
381.81	12.099
382.17	12.845
382.53	12.948
382.89	12.799
383.25	14.088
383.61	13.679
383.97	14.268
384.32	13.204
384.68	13.845
385.04	14.070
385.40	15.216
385.76	14.268
386.12	14.179
386.48	15.161
386.83	14.110
387.19	14.764
387.55	14.173
387.91	13.515
388.27	13.993
388.62	15.024
388.98	13.749
389.34	14.565
389.70	14.312
390.06	14.792
390.42	15.449
390.77	14.322
391.13	15.155
391.49	15.346
391.85	14.838
392.20	14.563
392.56	14.722
392.92	15.402
393.28	15.729
393.64	15.213
393.99	15.385
394.35	15.207
394.71	15.565
395.07	15.631
395.42	14.720
395.78	15.022
396.14	15.639
396.50	15.719
396.85	15.978
397.21	16.282
397.57	16.170
397.92	16.393
398.28	15.722
398.64	16.359
399.00	16.742
399.35	16.178
399.71	16.783
400.07	16.060
400.42	16.302
400.78	15.206
401.14	16.228
401.49	16.156
401.85	16.351
402.21	16.329
402.57	16.383
402.92	16.551
403.28	16.789
403.63	16.357
403.99	16.221
404.35	15.761
404.70	16.208
405.06	16.551
405.42	15.744
405.77	16.459
406.13	16.127
406.49	16.237
406.84	16.617
407.20	16.254
407.55	16.466
407.91	15.220
408.27	16.115
408.62	15.875
408.98	16.919
409.34	16.088
409.69	16.068
410.05	16.313
410.40	16.064
410.76	15.827
411.11	16.771
411.47	16.368
411.83	17.115
412.18	15.780
412.54	16.412
412.89	16.646
413.25	15.998
413.60	15.674
413.96	16.574
414.31	16.942
414.67	16.444
415.03	16.429
415.38	17.957
415.74	16.495
416.09	17.199
416.45	16.667
416.80	17.295
417.16	16.811
417.51	17.531
417.87	16.828
418.22	17.383
418.58	16.752
418.93	17.474
419.29	17.440
419.64	16.771
420.00	17.436
420.35	17.327
420.71	17.167
421.06	17.396
421.42	17.096
421.77	17.420
422.12	17.571
422.48	17.584
422.83	18.337
423.19	17.595
423.54	17.695
423.90	17.062
424.25	17.590
424.61	18.456
424.96	18.490
425.31	17.552
425.67	18.739
426.02	17.441
426.38	18.572
426.73	18.527
427.09	19.424
427.44	18.807
427.79	18.605
428.15	19.090
428.50	19.648
428.85	18.585
429.21	18.318
429.56	18.490
429.92	18.236
430.27	18.794
430.62	18.182
430.98	18.610
431.33	18.463
431.68	18.445
432.04	18.747
432.39	19.316
432.74	17.986
433.10	19.190
433.45	18.595
433.80	18.981
434.16	19.237
434.51	18.904
434.86	20.387
435.22	18.430
435.57	18.482
435.92	19.812
436.28	19.347
436.63	19.389
436.98	19.588
437.34	19.669
437.69	18.553
438.04	19.229
438.39	19.555
438.75	19.441
439.10	19.767
439.45	19.372
439.81	19.578
440.16	19.534
440.51	20.235
440.86	19.491
441.22	19.237
441.57	20.316
441.92	20.102
442.27	19.751
442.63	20.118
442.98	20.034
443.33	19.605
443.68	19.854
444.03	20.138
444.39	19.824
444.74	20.099
445.09	20.066
445.44	20.653
445.79	20.398
446.15	19.715
446.50	20.033
446.85	20.062
447.20	20.429
447.55	20.442
447.91	20.606
448.26	19.832
448.61	20.656
448.96	21.457
449.31	20.180
449.66	20.550
450.02	19.557
450.37	20.348
450.72	21.525
451.07	21.182
451.42	19.703
451.77	20.407
452.12	20.620
452.47	21.222
452.83	20.501
453.18	21.126
453.53	20.833
453.88	20.514
454.23	19.710
454.58	21.380
454.93	21.474
455.28	20.650
455.63	21.376
455.98	21.988
456.34	20.267
456.69	21.451
457.04	21.266
457.39	20.873
457.74	20.496
458.09	20.824
458.44	21.709
458.79	20.684
459.14	20.821
459.49	20.782
459.84	21.192
460.19	21.480
460.54	20.569
460.89	20.908
461.24	21.615
461.59	21.805
461.94	22.406
462.29	21.858
462.64	21.410
462.99	21.620
463.34	21.067
463.69	21.565
464.04	20.914
464.39	21.326
464.74	21.040
465.09	20.325
465.44	22.109
465.79	22.504
466.14	22.555
466.49	21.474
466.84	21.729
467.19	21.135
467.54	20.696
467.89	21.702
468.24	21.081
468.59	22.049
468.94	20.900
469.29	22.027
469.64	21.631
469.99	22.620
470.34	22.244
470.68	21.730
471.03	22.849
471.38	20.486
471.73	22.098
472.08	20.281
472.43	20.978
472.78	21.867
473.13	21.007
473.48	21.889
473.83	21.650
474.17	21.975
474.52	23.018
474.87	21.678
475.22	21.770
475.57	21.556
475.92	22.354
476.27	22.343
476.61	21.577
476.96	21.520
477.31	21.690
477.66	22.524
478.01	21.448
478.36	21.372
478.70	21.890
479.05	22.445
479.40	21.710
479.75	21.713
480.10	21.776
480.45	20.890
480.79	22.063
481.14	21.576
481.49	22.459
481.84	21.452
482.19	21.836
482.53	22.064
482.88	21.690
483.23	21.596
483.58	22.525
483.92	22.121
484.27	22.286
484.62	21.814
484.97	21.473
485.31	21.344
485.66	21.481
486.01	21.121
486.36	22.010
486.70	22.638
487.05	22.160
487.40	22.115
487.75	21.870
488.09	21.340
488.44	21.313
488.79	21.648
489.13	21.871
489.48	21.860
489.83	22.140
490.17	21.811
490.52	22.192
490.87	20.924
491.22	21.999
491.56	21.944
491.91	22.376
492.26	21.462
492.60	21.456
492.95	22.132
493.30	21.486
493.64	21.627
493.99	21.558
494.34	22.000
494.68	22.612
495.03	22.467
495.37	21.829
495.72	21.709
496.07	22.149
496.41	22.788
496.76	22.009
497.11	22.421
497.45	22.174
497.80	21.261
498.14	21.758
498.49	21.798
498.84	21.505
499.18	21.832
499.53	22.601
499.87	22.008
500.22	22.255
500.56	21.361
500.91	21.182
501.26	22.756
501.60	22.099
501.95	22.947
502.29	21.634
502.64	22.867
502.98	21.706
503.33	22.697
503.67	21.456
504.02	21.584
504.36	21.373
504.71	21.378
505.06	20.969
505.40	22.655
505.75	21.545
506.09	21.790
506.44	22.356
506.78	22.127
507.13	22.400
507.47	22.274
507.82	22.354
508.16	22.383
508.51	22.308
508.85	21.584
509.19	22.083
509.54	21.934
509.88	22.819
510.23	21.593
510.57	22.698
510.92	23.631
511.26	21.425
511.61	21.760
511.95	21.606
512.30	21.495
512.64	21.647
512.98	22.057
513.33	21.527
513.67	21.999
514.02	22.707
514.36	22.604
514.70	22.637
515.05	22.642
515.39	22.088
515.74	23.037
516.08	22.190
516.42	22.436
516.77	22.010
517.11	21.682
517.46	22.907
517.80	21.961
518.14	21.558
518.49	22.355
518.83	22.018
519.17	21.788
519.52	21.805
519.86	22.581
520.20	22.188
520.55	22.154
520.89	21.728
521.23	22.222
521.58	22.821
521.92	22.356
522.26	22.222
522.61	21.610
522.95	20.996
523.29	22.759
523.64	22.361
523.98	22.024
524.32	21.496
524.66	21.739
525.01	21.580
525.35	21.585
525.69	21.861
526.04	21.932
526.38	23.043
526.72	21.648
527.06	21.615
527.41	21.254
527.75	21.914
528.09	21.774
528.43	22.295
528.78	22.048
529.12	21.255
529.46	21.907
529.80	21.433
530.15	21.893
530.49	22.639
530.83	23.117
531.17	21.549
531.51	20.630
531.86	21.461
532.20	21.457
532.54	21.658
532.88	22.464
533.22	21.190
533.57	22.585
533.91	20.911
534.25	21.684
534.59	22.236
534.93	21.220
535.27	22.593
535.62	22.251
535.96	21.655
536.30	20.615
536.64	22.377
536.98	22.246
537.32	21.424
537.66	22.471
538.01	22.680
538.35	21.892
538.69	21.257
539.03	22.613
539.37	21.557
539.71	21.681
540.05	22.138
540.39	21.676
540.73	22.322
541.07	22.336
541.42	21.202
541.76	20.000
542.10	23.025
542.44	21.519
542.78	22.185
543.12	21.860
543.46	21.233
543.80	21.873
544.14	21.558
544.48	21.916
544.82	21.854
545.16	21.060
545.50	20.861
545.84	21.836
546.18	21.567
546.52	21.906
546.86	21.225
547.20	22.363
547.54	21.350
547.88	21.831
548.22	21.035
548.56	20.908
548.90	22.170
549.24	20.813
549.58	21.736
549.92	21.908
550.26	22.471
550.60	21.124
550.94	21.533
551.28	22.047
551.62	21.344
551.96	21.346
552.30	21.742
552.64	21.605
552.98	21.934
553.32	21.934
553.66	20.908
554.00	21.464
554.34	21.227
554.68	20.395
555.02	21.346
555.36	21.639
555.69	20.774
556.03	21.053
556.37	20.484
556.71	20.472
557.05	21.803
557.39	20.638
557.73	22.903
558.07	20.799
558.41	20.942
558.75	21.065
559.08	21.089
559.42	20.904
559.76	20.629
560.10	22.222
560.44	22.182
560.78	22.199
561.12	21.532
561.45	21.507
561.79	20.627
562.13	21.388
562.47	21.779
562.81	21.358
563.15	21.624
563.48	21.355
563.82	21.095
564.16	21.433
564.50	22.043
564.84	21.561
565.17	21.353
565.51	21.121
565.85	22.650
566.19	21.212
566.52	21.200
566.86	21.492
567.20	22.579
567.54	21.677
567.88	21.161
568.21	21.924
568.55	21.103
568.89	20.775
569.23	21.795
569.56	20.219
569.90	21.243
570.24	20.744
570.57	20.984
570.91	20.673
571.25	20.623
571.59	20.980
571.92	20.774
572.26	20.641
572.60	20.788
572.93	20.068
573.27	20.244
573.61	19.902
573.95	20.516
574.28	20.559
574.62	20.615
574.96	20.389
575.29	20.528
575.63	20.733
575.97	20.227
576.30	20.252
576.64	20.261
576.98	20.105
577.31	20.048
577.65	20.577
577.98	20.324
578.32	20.164
578.66	20.407
578.99	20.468
579.33	20.673
579.67	20.416
580.00	20.337
580.34	20.254
580.67	20.324
581.01	19.927
581.35	20.408
581.68	20.210
582.02	20.672
582.35	20.321
582.69	20.547
583.02	20.690
583.36	20.067
583.70	20.405
584.03	20.501
584.37	20.514
584.70	20.063
585.04	20.152
585.37	20.048
585.71	20.585
586.04	20.517
586.38	19.727
586.72	20.998
587.05	20.419
587.39	20.404
587.72	19.963
588.06	20.358
588.39	20.365
588.73	20.851
589.06	20.844
589.40	21.608
589.73	20.822
590.07	19.410
590.40	20.959
590.73	20.072
591.07	20.615
591.40	20.927
591.74	20.721
592.07	20.360
592.41	20.637
592.74	20.984
593.08	21.456
593.41	20.855
593.75	20.640
594.08	21.423
594.41	21.220
594.75	20.876
595.08	20.451
595.42	21.207
595.75	20.029
596.09	20.722
596.42	21.645
596.75	20.742
597.09	21.327
597.42	20.384
597.75	20.992
598.09	20.741
598.42	20.990
598.76	20.972
599.09	20.600
599.42	20.569
599.76	20.423
600.09	21.145
600.42	20.889
600.76	20.452
601.09	20.395
601.42	20.855
601.76	21.495
602.09	20.695
602.42	20.700
602.76	20.731
603.09	21.653
603.42	20.790
603.76	21.580
604.09	20.465
604.42	21.066
604.76	20.759
605.09	21.338
605.42	20.789
605.75	20.871
606.09	21.337
606.42	20.486
606.75	20.781
607.09	21.394
607.42	20.863
607.75	21.236
608.08	20.967
608.42	20.435
608.75	20.280
609.08	20.458
609.41	21.325
609.75	20.332
610.08	20.637
610.41	21.349
610.74	21.518
611.07	21.247
611.41	19.970
611.74	21.285
612.07	21.751
612.40	19.883
612.73	20.679
613.07	20.914
613.40	22.113
613.73	21.526
614.06	20.538
614.39	21.139
614.72	20.950
615.06	20.489
615.39	21.270
615.72	21.293
616.05	21.038
616.38	21.242
616.71	21.261
617.05	21.472
617.38	21.486
617.71	20.639
618.04	21.118
618.37	20.692
618.70	21.773
619.03	21.733
619.36	22.199
619.69	21.608
620.03	20.592
620.36	22.011
620.69	21.321
621.02	21.157
621.35	20.645
621.68	20.738
622.01	21.440
622.34	22.127
622.67	21.797
623.00	22.265
623.33	22.388
623.66	21.787
623.99	21.805
624.32	21.726
624.65	21.560
624.99	21.807
625.32	21.108
625.65	22.378
625.98	21.909
626.31	21.370
626.64	21.255
626.97	20.377
627.30	21.617
627.63	21.244
627.96	21.236
628.29	21.048
628.62	21.203
628.95	21.260
629.28	21.992
629.61	21.492
629.94	21.550
630.26	22.465
630.59	22.211
630.92	22.222
631.25	22.984
631.58	21.587
631.91	20.851
632.24	21.111
632.57	23.667
632.90	22.989
633.23	21.145
633.56	21.404
633.89	22.524
634.22	21.842
634.55	21.034
634.88	20.556
635.20	21.348
635.53	22.901
635.86	21.914
636.19	22.344
636.52	21.625
636.85	20.939
637.18	19.750
637.51	21.314
637.83	21.704
638.16	21.184
638.49	21.379
638.82	22.780
639.15	23.995
639.48	22.438
639.81	23.513
640.13	20.946
640.46	21.225
640.79	22.549
641.12	23.272
641.45	22.669
641.77	23.054
642.10	21.148
642.43	21.396
642.76	21.575
643.09	21.587
643.41	24.762
643.74	22.576
644.07	20.905
644.40	23.177
644.73	22.277
645.05	21.035
645.38	24.338
645.71	22.680
646.04	23.697
646.36	21.990
646.69	22.491
647.02	24.368
647.35	25.090
647.67	23.540
648.00	22.671
648.33	23.777
648.66	20.484
648.98	22.611
649.31	23.692
649.64	23.281
649.96	23.705
650.29	21.639
650.62	23.236
650.94	22.428
651.27	23.570
651.60	21.453
651.92	21.747
652.25	22.871
652.58	21.124
652.90	22.472
653.23	22.581
653.56	22.074
653.88	20.656
654.21	22.819
654.54	22.259
654.86	22.472
655.19	23.209
655.52	21.618
655.84	21.138
656.17	23.132
656.49	31.755
656.82	32.717
657.15	24.369
657.47	17.713
657.80	13.494
658.13	15.842
658.45	20.521
658.78	20.026
659.10	19.925
659.43	19.290
659.75	19.394
660.08	18.802
660.41	19.649
660.73	19.582
661.06	22.609
661.38	21.964
661.71	20.076
662.03	21.774
662.36	25.160
662.68	21.730
663.01	23.355
663.33	23.356
663.66	21.030
663.98	23.438
664.31	21.029
664.63	23.230
664.96	24.078
665.28	21.041
665.61	20.507
665.93	21.811
666.26	22.470
666.58	23.701
666.91	22.940
667.23	24.561
667.56	20.181
667.88	24.208
668.21	17.512
668.53	22.897
668.86	22.864
669.18	21.461
669.50	20.561
669.83	23.844
670.15	23.094
670.48	20.794
670.80	19.818
671.13	21.445
671.45	22.748
671.77	22.912
672.10	21.893
672.42	21.402
672.75	21.636
673.07	20.180
673.39	20.219
673.72	22.047
674.04	23.355
674.37	20.412
674.69	23.156
675.01	21.702
675.34	19.957
675.66	22.246
675.98	21.586
676.31	23.982
676.63	22.759
676.95	21.903
677.28	20.882
677.60	23.303
677.92	23.568
678.25	22.319
678.57	23.457
678.89	19.287
679.22	21.593
679.54	22.880
679.86	20.800
680.18	23.954
680.51	20.670
680.83	22.857
681.15	21.773
681.48	24.746
681.80	22.379
682.12	20.724
682.44	23.379
682.77	21.212
683.09	22.432
683.41	25.000
683.73	20.320
684.06	21.505
684.38	24.268
684.70	20.988
685.02	23.622
685.34	21.442
685.67	21.212
685.99	21.739
686.31	23.878
686.63	21.809
686.96	20.333
687.28	21.773
687.60	21.484
687.92	19.844
688.24	21.850
688.56	22.244
688.89	20.085
689.21	21.663
689.53	23.908
689.85	23.608
690.17	19.731
690.49	24.480
690.82	20.241
691.14	19.340
691.46	22.395
691.78	23.789
692.10	20.339
692.42	20.889
692.74	22.747
693.06	22.472
693.39	23.043
693.71	20.993
694.03	21.166
694.35	20.542
694.67	20.567
694.99	19.693
695.31	21.173
695.63	20.918
695.95	20.099
696.27	22.693
696.59	19.251
696.91	22.753
697.23	20.312
697.56	21.635
697.88	21.396
698.20	20.985
698.52	19.731
698.84	22.573
699.16	22.143
699.48	21.250
699.80	23.058
700.12	25.693
700.44	18.715
700.76	20.117
701.08	21.512
701.40	20.242
701.72	22.222
702.04	24.359
702.36	24.699
702.68	17.964
703.00	23.188
703.32	18.911
703.64	25.588
703.96	21.512
704.28	19.822
704.60	19.304
704.91	22.222
705.23	23.625
705.55	20.270
705.87	20.819
706.19	15.278
706.51	20.833
706.83	24.590
707.15	21.656
707.47	26.171
707.79	24.742
708.11	20.611
708.43	22.444
708.74	20.519
709.06	20.056
709.38	17.816
709.70	22.500
710.02	23.006
710.34	20.462
710.66	21.587
710.98	19.243
711.29	17.742
711.61	20.447
711.93	18.689
712.25	23.588
712.57	20.906
712.89	21.583
713.20	25.430
713.52	18.657
713.84	22.064
714.16	20.000
714.48	24.127
714.80	19.692
715.11	21.614
715.43	23.795
715.75	23.053
716.07	20.328
716.39	21.070
716.70	22.648
717.02	23.333
717.34	20.229
717.66	19.502
717.97	16.803
718.29	19.328
718.61	29.365
718.93	19.355
719.24	18.382
719.56	17.736
719.88	25.091
720.20	20.974
720.51	25.188
720.83	20.080
721.15	19.262
721.46	24.314
721.78	21.456
722.10	24.800
722.42	20.248
722.73	19.124
723.05	22.892
723.37	20.000
723.68	18.219
724.00	23.577
724.32	23.045
724.63	20.747
724.95	19.835
725.27	16.228
725.58	20.690
725.90	14.683
726.22	23.985
726.53	24.335
726.85	12.157
727.16	21.805
727.48	21.154
727.80	20.492
728.11	22.269
728.43	19.421
728.74	20.703
729.06	23.485
729.38	20.623
729.69	19.291
730.01	22.835
730.32	22.709
730.64	21.245
730.96	22.761
731.27	20.357
731.59	21.865
731.90	21.472
732.22	20.245
732.53	22.848
732.85	21.141
733.16	21.014
733.48	19.861
733.80	17.082
734.11	21.379
734.43	21.429
734.74	20.475
735.06	18.495
735.37	20.795
735.69	14.194
736.00	18.855
736.32	23.179
736.63	16.207
736.95	18.841
737.26	23.179
737.58	21.223
737.89	24.731
738.21	14.286
738.52	23.846
738.83	19.922
739.15	15.385
739.46	19.355
739.78	19.580
740.09	18.531
740.41	22.028
740.72	22.993
741.04	17.460
741.35	20.779
741.66	23.148
741.98	20.000
742.29	16.901
742.61	25.668
742.92	21.028
743.23	23.684
743.55	19.369
743.86	25.778
744.18	21.429
744.49	25.123
744.80	22.335
745.12	23.196
745.43	25.126
745.74	18.447
746.06	19.024
746.37	24.229
746.68	24.378
747.00	20.942
747.31	18.269
747.62	23.502
747.94	19.651
748.25	20.465
748.56	21.429
748.88	12.500
749.19	21.596
749.50	27.451
749.82	24.000
750.13	22.467
750.44	19.512
750.75	19.600
751.07	25.357
751.38	19.557
751.69	15.267
752.01	19.231
752.32	12.840
752.63	19.615
752.94	17.460
753.26	23.913
753.57	21.429
753.88	22.845
754.19	14.108
754.51	16.797
754.82	21.739
755.13	21.399
755.44	19.421
755.75	23.457
756.07	13.655
756.38	20.312
756.69	20.217
757.00	18.467
757.31	22.483
757.63	24.299
757.94	21.965
758.25	19.767
758.56	26.415
758.87	18.750
759.18	18.333
759.50	24.555
759.81	15.328
760.12	18.243
760.43	23.625
760.74	21.250
761.05	23.596
761.36	20.958
761.67	19.231
761.99	18.387
762.30	19.928
762.61	16.604
762.92	18.386
763.23	26.066
763.54	20.444
763.85	24.051
764.16	20.408
764.47	22.034
764.78	20.599
765.10	23.741
765.41	18.387
765.72	22.013
766.03	17.668
766.34	21.053
766.65	18.623
766.96	16.000
767.27	17.708
767.58	18.605
767.89	18.065
768.20	25.153
768.51	24.044
768.82	12.973
769.13	18.000
769.44	19.737
769.75	17.749
770.06	22.936
770.37	22.066
770.68	18.229
770.99	18.812
771.30	17.961
771.61	11.574
771.92	15.584
772.23	17.290
772.54	15.957
772.85	17.751
773.16	18.902
773.47	27.108
773.78	28.571
774.09	18.000
774.39	17.284
774.70	20.805
775.01	13.768
775.32	9.701
775.63	12.397
775.94	20.301
776.25	16.429
776.56	13.934
776.87	17.699
777.18	23.009
777.48	13.636
777.79	10.435
778.10	6.422
778.41	11.017
778.72	22.314
779.03	20.896
779.34	12.030
779.65	23.529
779.95	17.391
780.26	14.286
780.57	5.172
780.88	16.667
781.19	13.131
781.50	10.400
781.80	15.033
782.11	16.026
782.42	19.880
782.73	6.569
783.04	18.919
783.34	16.667
783.65	10.078
783.96	25.203
784.27	17.094
784.57	9.756
784.88	12.195
785.19	26.316
785.50	-3.093
785.81	12.381
786.11	20.588
786.42	7.273
786.73	24.324
787.04	11.881
787.34	14.286
787.65	6.667
787.96	7.843
788.26	17.117
788.57	25.000
788.88	14.063
789.19	15.385
789.49	21.849
789.80	11.966
790.11	23.009
790.41	12.121
790.72	16.038
791.03	8.333
791.33	5.263
791.64	11.828
791.95	20.000
792.25	15.714
792.56	29.268
792.87	15.306
793.17	-1.316
793.48	5.405
793.79	-8.451
794.09	-3.797
794.40	20.213
794.70	10.280
795.01	-7.895
795.32	18.182
795.62	9.821
795.93	15.464
796.23	-3.297
796.54	15.789
796.85	15.068
797.15	-2.778
797.46	23.288
797.76	1.408
798.07	7.500
798.37	8.824
798.68	11.429
798.99	8.571
799.29	15.789
799.60	-5.000
799.90	0.000
800.21	12.500
800.51	19.048
800.82	11.475
801.12	15.789
801.43	15.493
801.73	5.085
802.04	16.393
802.34	16.364
802.65	0.000
802.95	1.852
803.26	-30.000
803.56	-5.769
803.87	-23.684
804.17	6.452
804.48	21.538
804.78	-10.256
805.09	11.628
805.39	3.125
805.70	-15.094
806.00	35.088
806.30	27.027
806.61	2.941
806.91	7.407
807.22	20.000
807.52	20.896
807.83	12.903
808.13	3.175
808.43	-21.818
808.74	22.727
809.04	13.208
809.35	19.178
809.65	26.316
809.95	11.765
810.26	13.725
810.56	-10.000
810.86	16.327
811.17	-11.429
811.47	5.769
811.77	16.129
812.08	-31.579
812.38	7.143
812.69	-4.348
812.99	-19.355
813.29	-16.667
813.59	-51.852
813.90	6.383
814.20	-18.605
814.50	8.333
814.81	-20.000
815.11	-24.390
815.41	-56.667
815.72	-8.571
816.02	-2.778
816.32	20.513
816.62	-18.919
816.93	-17.647
817.23	6.522
817.53	2.941
817.84	14.706
818.14	-18.750
818.44	-24.138
818.74	-32.258
819.04	-18.519
819.35	-16.667
819.65	-32.000
819.95	-43.333
820.25	-12.000
820.56	-23.684
820.86	-47.500
821.16	6.383
821.46	17.241
821.76	-10.256
822.07	-20.000
822.37	-18.605
822.67	-33.333
822.97	-43.243
823.27	18.919
823.57	4.000
823.88	-10.811
824.18	-90.476
824.48	3.846
824.78	-238.462
825.08	-26.087
825.38	-25.000
825.69	-58.333
825.99	-70.000
826.29	-37.838
826.59	-11.765
826.89	8.000
827.19	-40.000
827.49	15.789
827.79	-6.250
828.09	-36.667
828.39	17.391
828.70	-55.172
829.00	-13.793
829.30	-2.778
829.60	-12.500
829.90	-22.222
830.20	-34.615
830.50	-80.952
830.80	-10.714
831.10	0.000
831.40	-38.095
831.70	-17.647
832.00	12.500
832.30	-78.947
832.60	-62.500
832.90	-158.333
833.20	-82.353
833.50	-33.333
833.80	-86.667
834.10	-60.000
834.40	-8.333
834.70	-61.111
835.00	-23.077
835.30	-33.333
835.60	3.448
835.90	-88.889
836.20	-127.273
836.50	-150.000
836.80	-28.571
837.10	48.571
837.40	-105.882
837.70	-209.091
838.00	-33.333
838.30	-68.750
838.60	-28.571
838.90	-65.000
839.19	-52.174
839.49	4.348
839.79	-33.333
840.09	-52.174
840.39	4.545
840.69	-93.750
840.99	-52.632
841.29	-118.750
841.59	-71.429
841.88	-50.000
842.18	-29.167
842.48	-94.118
842.78	-20.690
843.08	-35.714
843.38	-69.231
843.68	-222.222
843.97	-84.615
844.27	-54.545
844.57	-480.000
844.87	24.000
845.17	-460.000
845.47	-78.571
845.76	-288.889
846.06	0.000
846.36	-400.000
846.66	-200.000
846.96	-63.158
847.25	-16.667
847.55	-108.333
847.85	-6.667
848.15	-110.000
848.44	15.385
848.74	-15.789
849.04	500.000
849.34	-133.333
849.63	-47.368
849.93	0.000
850.23	-75.000
850.53	-23.810
850.82	-12.000
851.12	-36.842
851.42	-1050.000
851.71	-42.857
852.01	50.000
852.31	-64.706
852.61	-73.333
852.90	4.762
853.20	-216.667
853.50	-55.556
853.79	-73.684
854.09	-66.667
854.39	10.714
854.68	-26.087
854.98	-141.667
855.28	24.138
855.57	-43.750
855.87	-5.000
856.17	-86.667
856.46	-13.793
856.76	-140.000
857.05	-88.235
857.35	-84.615
857.65	-36.364
857.94	7.407
858.24	-128.571
858.53	-7.143
858.83	-133.333
859.13	-166.667
859.42	19.048
859.72	-212.500
860.01	-433.333
860.31	-175.000
860.60	-320.000
860.90	-100.000
861.20	-337.500
861.49	-285.714
861.79	47.059
862.08	-400.000
862.38	-175.000
862.67	-61.538
862.97	-23.529
863.26	30.000
863.56	-47.059
863.85	766.667
864.15	-140.000
864.44	-15.385
864.74	30.000
865.03	-187.500
865.33	-150.000
865.62	-100.000
865.92	-650.000
866.21	-107.143
866.51	-108.333
866.80	-1500.000
867.10	-700.000
867.39	-11.765
867.69	-17.391
867.98	-100.000
868.27	-440.000
868.57	-68.750
868.86	-172.727
869.16	64.706
869.45	-300.000
869.75	-200.000
870.04	1400.000
870.33	-116.667
870.63	20.000
870.92	-111.111
871.22	-58.333
871.51	-54.545
871.80	8.333
872.10	-120.000
>>>>>End Processed Spectral Data<<<<<
