SpectraSuite Data File
++++++++++++++++++++++++++++++++++++
Date: Sat May 16 11:26:39 PDT 2015
User: schluterlab
Dark Spectrum Present: Yes
Reference Spectrum Present: Yes
Number of Sampled Component Spectra: 1
Spectrometers: USB2E3373
Integration Time (usec): 3000 (USB2E3373)
Spectra Averaged: 3 (USB2E3373)
Boxcar Smoothing: 0 (USB2E3373)
Correct for Electrical Dark: No (USB2E3373)
Strobe/Lamp Enabled: No (USB2E3373)
Correct for Detector Non-linearity: No (USB2E3373)
Correct for Stray Light: No (USB2E3373)
Number of Pixels in Processed Spectrum: 2048
>>>>>Begin Processed Spectral Data<<<<<
178.53	0.000
178.91	93.333
179.29	600.000
179.67	-1700.000
180.04	-138.462
180.42	-200.000
180.80	475.000
181.18	325.000
181.56	-175.000
181.94	900.000
182.31	500.000
182.69	-69.231
183.07	-300.000
183.45	1200.000
183.83	633.333
184.20	-200.000
184.58	-175.000
184.96	-400.000
185.34	137.500
185.72	-525.000
186.09	283.333
186.47	-287.500
186.85	-250.000
187.23	-75.000
187.61	-375.000
187.98	-325.000
188.36	-37.500
188.74	-162.500
189.12	1000.000
189.49	314.286
189.87	-66.667
190.25	400.000
190.63	-107.143
191.00	-233.333
191.38	300.000
191.76	53.333
192.14	340.000
192.51	-220.000
192.89	-366.667
193.27	0.000
193.65	-200.000
194.02	-357.143
194.40	666.667
194.78	-140.000
195.15	200.000
195.53	-100.000
195.91	-483.333
196.29	320.000
196.66	-433.333
197.04	1900.000
197.42	-150.000
197.79	53.333
198.17	-433.333
198.55	-350.000
198.92	-1500.000
199.30	225.000
199.68	-700.000
200.05	-144.444
200.43	-166.667
200.81	-1600.000
201.18	-108.333
201.56	228.571
201.94	-33.333
202.31	4.545
202.69	30.000
203.07	-40.000
203.44	766.667
203.82	-400.000
204.19	-300.000
204.57	-275.000
204.95	-1000.000
205.32	-68.750
205.70	1400.000
206.08	-2500.000
206.45	-27.778
206.83	-850.000
207.20	-650.000
207.58	-500.000
207.96	-266.667
208.33	-100.000
208.71	-166.667
209.08	150.000
209.46	-214.286
209.84	1000.000
210.21	0.000
210.59	70.000
210.96	400.000
211.34	-316.667
211.71	-166.667
212.09	300.000
212.46	850.000
212.84	-2700.000
213.22	633.333
213.59	108.333
213.97	0.000
214.34	180.000
214.72	-90.000
215.09	-300.000
215.47	-250.000
215.84	-30.000
216.22	-140.000
216.59	0.000
216.97	-550.000
217.34	750.000
217.72	-185.714
218.09	-383.333
218.47	-271.429
218.84	257.143
219.22	-100.000
219.59	0.000
219.97	214.286
220.34	500.000
220.72	237.500
221.09	-69.231
221.47	0.000
221.84	466.667
222.22	-700.000
222.59	1500.000
222.97	-187.500
223.34	-650.000
223.72	-400.000
224.09	-71.429
224.46	-375.000
224.84	-78.571
225.21	-200.000
225.59	-72.727
225.96	-162.500
226.34	-71.429
226.71	-66.667
227.08	-10.000
227.46	1900.000
227.83	-271.429
228.21	-112.500
228.58	350.000
228.95	-68.750
229.33	-2300.000
229.70	-260.000
230.08	-1200.000
230.45	-8.333
230.82	-200.000
231.20	-900.000
231.57	-600.000
231.95	2900.000
232.32	4.762
232.69	-166.667
233.07	-142.857
233.44	-650.000
233.81	-33.333
234.19	-144.444
234.56	-18.750
234.93	6.250
235.31	-228.571
235.68	-114.286
236.05	11.765
236.43	-86.364
236.80	-3.226
237.17	-20.833
237.55	-4.762
237.92	-13.636
238.29	-37.143
238.67	8.824
239.04	13.889
239.41	-41.935
239.79	-25.641
240.16	-14.286
240.53	14.545
240.91	30.769
241.28	21.818
241.65	9.231
242.02	9.836
242.40	3.279
242.77	18.182
243.14	18.644
243.51	0.000
243.89	12.658
244.26	2.247
244.63	18.947
245.00	16.842
245.38	23.729
245.75	23.894
246.12	16.000
246.49	24.409
246.87	11.382
247.24	22.881
247.61	27.119
247.98	18.310
248.36	23.776
248.73	22.785
249.10	17.834
249.47	24.561
249.84	19.318
250.22	13.095
250.59	26.554
250.96	25.131
251.33	29.858
251.70	23.558
252.08	27.014
252.45	26.066
252.82	25.714
253.19	23.404
253.56	29.435
253.94	23.629
254.31	27.039
254.68	24.390
255.05	27.016
255.42	27.778
255.79	25.448
256.16	29.804
256.54	25.000
256.91	29.545
257.28	26.740
257.65	29.787
258.02	31.132
258.39	29.097
258.76	27.027
259.14	25.309
259.51	30.164
259.88	28.659
260.25	32.298
260.62	24.437
260.99	24.036
261.36	26.829
261.73	27.168
262.10	28.889
262.47	27.066
262.85	32.286
263.22	25.788
263.59	30.462
263.96	30.145
264.33	28.997
264.70	30.939
265.07	28.846
265.44	27.132
265.81	29.199
266.18	27.089
266.55	26.225
266.92	30.982
267.29	29.056
267.66	29.136
268.03	29.227
268.40	27.700
268.77	28.193
269.14	25.522
269.51	28.736
269.88	25.459
270.25	27.739
270.62	28.146
270.99	29.279
271.36	26.340
271.73	28.700
272.10	29.519
272.47	26.222
272.84	28.000
273.21	29.817
273.58	26.593
273.95	26.535
274.32	29.412
274.69	31.510
275.06	28.630
275.43	26.116
275.80	28.513
276.17	28.033
276.54	30.550
276.91	26.955
277.28	29.209
277.65	29.752
278.02	26.931
278.39	29.273
278.76	28.088
279.13	27.668
279.50	28.231
279.87	28.753
280.23	29.757
280.60	26.640
280.97	28.932
281.34	26.692
281.71	27.885
282.08	29.637
282.45	26.680
282.82	27.907
283.19	26.909
283.56	28.571
283.92	28.092
284.29	28.067
284.66	27.158
285.03	28.520
285.40	28.782
285.77	28.421
286.14	28.520
286.51	26.465
286.87	27.405
287.24	27.816
287.61	27.107
287.98	25.303
288.35	25.289
288.72	25.467
289.08	24.068
289.45	25.758
289.82	25.952
290.19	26.273
290.56	24.793
290.93	25.119
291.29	23.177
291.66	25.926
292.03	24.490
292.40	24.247
292.77	21.894
293.13	25.528
293.50	25.260
293.87	23.926
294.24	24.434
294.60	22.727
294.97	24.734
295.34	22.074
295.71	21.726
296.08	20.430
296.44	22.175
296.81	22.650
297.18	21.408
297.55	23.446
297.91	24.268
298.28	22.603
298.65	22.315
299.02	22.460
299.38	19.652
299.75	20.652
300.12	21.154
300.48	21.995
300.85	21.232
301.22	22.639
301.59	21.586
301.95	21.662
302.32	21.252
302.69	21.909
303.05	21.856
303.42	21.000
303.79	21.890
304.15	20.972
304.52	20.070
304.89	20.779
305.25	21.612
305.62	20.564
305.99	22.850
306.35	21.421
306.72	18.337
307.09	22.020
307.45	20.885
307.82	19.553
308.19	21.253
308.55	19.499
308.92	19.119
309.29	19.243
309.65	19.194
310.02	18.790
310.38	19.568
310.75	19.570
311.12	19.731
311.48	19.729
311.85	19.464
312.22	19.361
312.58	20.448
312.95	18.552
313.31	18.382
313.68	19.899
314.05	19.881
314.41	19.316
314.78	18.082
315.14	19.842
315.51	20.162
315.87	20.136
316.24	18.659
316.61	20.058
316.97	19.900
317.34	20.520
317.70	19.295
318.07	20.709
318.43	18.446
318.80	19.718
319.16	19.512
319.53	18.609
319.89	19.661
320.26	20.098
320.62	20.096
320.99	18.905
321.35	16.749
321.72	19.038
322.08	20.178
322.45	18.713
322.81	18.732
323.18	17.867
323.54	18.762
323.91	18.721
324.27	18.726
324.64	18.373
325.00	19.284
325.37	20.271
325.73	20.472
326.10	17.626
326.46	17.688
326.83	19.660
327.19	17.932
327.56	18.825
327.92	18.352
328.29	18.788
328.65	16.455
329.01	18.551
329.38	19.358
329.74	19.780
330.11	18.404
330.47	18.892
330.84	19.798
331.20	18.682
331.56	18.414
331.93	18.828
332.29	19.361
332.66	17.910
333.02	18.371
333.38	18.996
333.75	17.898
334.11	17.867
334.48	17.476
334.84	19.773
335.20	19.060
335.57	17.780
335.93	18.621
336.29	17.981
336.66	17.797
337.02	18.649
337.38	16.845
337.75	17.296
338.11	17.263
338.47	18.327
338.84	18.421
339.20	17.223
339.56	18.449
339.93	17.813
340.29	17.803
340.65	17.570
341.02	18.128
341.38	17.439
341.74	17.866
342.11	18.345
342.47	17.339
342.83	17.045
343.20	18.190
343.56	16.980
343.92	18.447
344.28	19.176
344.65	17.657
345.01	17.395
345.37	19.684
345.73	17.021
346.10	17.498
346.46	17.384
346.82	17.322
347.19	17.173
347.55	17.817
347.91	17.874
348.27	17.104
348.63	17.528
349.00	17.582
349.36	15.847
349.72	19.506
350.08	17.562
350.45	16.233
350.81	17.994
351.17	16.640
351.53	15.911
351.89	16.977
352.26	17.984
352.62	19.048
352.98	17.247
353.34	18.305
353.70	16.602
354.07	17.309
354.43	17.708
354.79	16.640
355.15	17.812
355.51	16.719
355.87	17.312
356.24	16.521
356.60	17.647
356.96	18.014
357.32	17.023
357.68	17.318
358.04	16.936
358.40	16.164
358.77	17.002
359.13	16.909
359.49	16.251
359.85	16.616
360.21	16.895
360.57	17.169
360.93	16.889
361.29	15.471
361.66	17.073
362.02	17.012
362.38	17.168
362.74	17.363
363.10	17.145
363.46	18.234
363.82	16.327
364.18	17.149
364.54	17.870
364.90	17.470
365.26	16.762
365.62	18.175
365.98	17.070
366.35	16.972
366.71	16.490
367.07	16.796
367.43	17.296
367.79	17.388
368.15	17.354
368.51	16.853
368.87	17.376
369.23	17.123
369.59	17.708
369.95	17.195
370.31	17.089
370.67	16.197
371.03	16.837
371.39	16.761
371.75	18.026
372.11	16.069
372.47	16.920
372.83	16.759
373.19	17.429
373.55	17.382
373.91	17.283
374.27	16.701
374.63	17.184
374.99	17.107
375.35	16.487
375.71	17.691
376.07	16.290
376.42	15.762
376.78	16.601
377.14	17.288
377.50	16.957
377.86	17.425
378.22	17.776
378.58	17.048
378.94	15.968
379.30	16.758
379.66	17.304
380.02	16.637
380.38	17.221
380.74	16.882
381.09	16.989
381.45	17.840
381.81	16.878
382.17	17.419
382.53	17.082
382.89	16.328
383.25	17.580
383.61	16.863
383.97	16.901
384.32	17.021
384.68	16.747
385.04	16.606
385.40	16.859
385.76	17.256
386.12	17.177
386.48	17.512
386.83	16.626
387.19	17.095
387.55	17.020
387.91	16.538
388.27	16.586
388.62	16.767
388.98	16.657
389.34	16.891
389.70	16.626
390.06	16.843
390.42	17.115
390.77	16.782
391.13	17.205
391.49	17.342
391.85	16.584
392.20	16.930
392.56	16.249
392.92	16.999
393.28	16.762
393.64	17.017
393.99	16.800
394.35	16.180
394.71	16.615
395.07	17.577
395.42	15.495
395.78	16.468
396.14	17.259
396.50	15.963
396.85	16.780
397.21	17.193
397.57	16.900
397.92	18.208
398.28	16.944
398.64	16.716
399.00	17.079
399.35	16.855
399.71	17.073
400.07	17.493
400.42	17.275
400.78	16.577
401.14	16.527
401.49	16.863
401.85	16.290
402.21	17.342
402.57	16.444
402.92	16.237
403.28	17.279
403.63	16.117
403.99	17.091
404.35	16.787
404.70	17.262
405.06	17.705
405.42	14.760
405.77	16.007
406.13	16.298
406.49	17.256
406.84	16.677
407.20	17.314
407.55	16.403
407.91	17.034
408.27	17.953
408.62	16.536
408.98	16.859
409.34	16.697
409.69	16.698
410.05	15.706
410.40	16.309
410.76	16.953
411.11	16.147
411.47	16.880
411.83	16.993
412.18	16.584
412.54	16.046
412.89	16.707
413.25	16.057
413.60	16.221
413.96	16.451
414.31	16.208
414.67	15.873
415.03	16.429
415.38	16.070
415.74	17.784
416.09	16.624
416.45	16.204
416.80	16.905
417.16	16.412
417.51	17.925
417.87	16.634
418.22	16.182
418.58	16.881
418.93	16.432
419.29	15.935
419.64	16.269
420.00	16.829
420.35	15.730
420.71	16.447
421.06	16.982
421.42	15.574
421.77	16.471
422.12	17.068
422.48	16.301
422.83	16.515
423.19	15.256
423.54	16.888
423.90	16.021
424.25	16.120
424.61	16.466
424.96	17.145
425.31	16.601
425.67	16.504
426.02	15.663
426.38	17.302
426.73	15.897
427.09	16.544
427.44	16.193
427.79	16.744
428.15	16.816
428.50	16.422
428.85	16.667
429.21	15.938
429.56	16.563
429.92	16.683
430.27	16.351
430.62	16.771
430.98	16.100
431.33	16.756
431.68	17.051
432.04	16.564
432.39	16.695
432.74	16.127
433.10	16.545
433.45	16.235
433.80	16.125
434.16	16.711
434.51	16.658
434.86	16.755
435.22	16.258
435.57	17.197
435.92	15.651
436.28	16.499
436.63	16.167
436.98	16.094
437.34	16.243
437.69	15.928
438.04	15.769
438.39	16.847
438.75	16.414
439.10	16.602
439.45	17.019
439.81	16.747
440.16	16.014
440.51	16.118
440.86	16.888
441.22	15.755
441.57	16.579
441.92	16.164
442.27	16.234
442.63	16.202
442.98	15.914
443.33	16.914
443.68	15.946
444.03	16.405
444.39	16.104
444.74	17.126
445.09	16.338
445.44	16.770
445.79	16.471
446.15	16.758
446.50	16.168
446.85	17.291
447.20	16.905
447.55	16.409
447.91	17.181
448.26	16.089
448.61	15.959
448.96	16.639
449.31	16.122
449.66	16.543
450.02	16.177
450.37	16.464
450.72	16.045
451.07	16.028
451.42	15.180
451.77	15.919
452.12	15.137
452.47	16.499
452.83	16.075
453.18	16.825
453.53	14.739
453.88	16.986
454.23	15.840
454.58	16.283
454.93	16.373
455.28	15.424
455.63	17.076
455.98	16.506
456.34	15.883
456.69	16.886
457.04	15.796
457.39	15.670
457.74	15.535
458.09	16.531
458.44	15.820
458.79	16.143
459.14	16.714
459.49	16.223
459.84	16.639
460.19	16.468
460.54	15.789
460.89	16.200
461.24	16.211
461.59	16.178
461.94	15.850
462.29	16.438
462.64	16.074
462.99	15.863
463.34	15.733
463.69	16.349
464.04	16.403
464.39	15.293
464.74	16.489
465.09	15.574
465.44	16.526
465.79	16.469
466.14	16.801
466.49	16.005
466.84	16.807
467.19	16.397
467.54	15.253
467.89	16.091
468.24	16.093
468.59	15.740
468.94	15.370
469.29	15.660
469.64	14.690
469.99	16.138
470.34	15.765
470.68	16.497
471.03	17.137
471.38	16.597
471.73	15.455
472.08	15.529
472.43	16.667
472.78	15.800
473.13	15.109
473.48	16.273
473.83	16.253
474.17	15.987
474.52	16.624
474.87	15.851
475.22	15.929
475.57	15.389
475.92	15.875
476.27	15.429
476.61	15.775
476.96	16.210
477.31	16.146
477.66	16.049
478.01	16.261
478.36	15.348
478.70	16.231
479.05	16.333
479.40	16.218
479.75	15.138
480.10	15.427
480.45	15.184
480.79	16.239
481.14	16.257
481.49	15.828
481.84	16.181
482.19	16.263
482.53	16.619
482.88	15.567
483.23	15.493
483.58	16.050
483.92	16.054
484.27	15.241
484.62	15.724
484.97	15.511
485.31	15.904
485.66	15.933
486.01	16.213
486.36	16.681
486.70	17.214
487.05	15.690
487.40	16.026
487.75	16.732
488.09	15.411
488.44	16.069
488.79	16.024
489.13	15.671
489.48	16.028
489.83	15.939
490.17	15.063
490.52	16.259
490.87	15.381
491.22	15.647
491.56	15.972
491.91	16.078
492.26	15.708
492.60	15.652
492.95	15.278
493.30	15.722
493.64	15.985
493.99	15.966
494.34	16.190
494.68	16.199
495.03	15.631
495.37	15.143
495.72	15.864
496.07	15.673
496.41	16.258
496.76	16.027
497.11	15.874
497.45	16.284
497.80	16.158
498.14	16.306
498.49	15.218
498.84	15.971
499.18	16.228
499.53	15.830
499.87	15.203
500.22	16.275
500.56	15.558
500.91	15.567
501.26	17.079
501.60	15.985
501.95	16.232
502.29	16.060
502.64	16.124
502.98	16.148
503.33	15.555
503.67	15.661
504.02	15.548
504.36	16.324
504.71	15.704
505.06	14.828
505.40	16.168
505.75	16.413
506.09	16.229
506.44	15.589
506.78	16.056
507.13	15.860
507.47	16.119
507.82	15.488
508.16	16.269
508.51	15.868
508.85	15.735
509.19	14.704
509.54	15.539
509.88	16.596
510.23	15.828
510.57	15.767
510.92	16.541
511.26	15.896
511.61	15.443
511.95	15.356
512.30	15.778
512.64	15.248
512.98	15.292
513.33	16.200
513.67	15.690
514.02	15.604
514.36	16.233
514.70	15.393
515.05	15.666
515.39	14.764
515.74	15.998
516.08	16.427
516.42	15.864
516.77	16.638
517.11	15.847
517.46	15.789
517.80	15.584
518.14	15.157
518.49	16.019
518.83	15.727
519.17	15.394
519.52	15.789
519.86	16.069
520.20	15.526
520.55	15.877
520.89	15.216
521.23	15.263
521.58	15.987
521.92	15.769
522.26	16.127
522.61	15.843
522.95	15.061
523.29	15.486
523.64	15.553
523.98	15.086
524.32	15.462
524.66	15.590
525.01	15.093
525.35	15.335
525.69	15.485
526.04	15.470
526.38	15.722
526.72	15.198
527.06	15.430
527.41	15.314
527.75	14.191
528.09	15.222
528.43	15.475
528.78	15.138
529.12	16.709
529.46	14.691
529.80	16.269
530.15	16.033
530.49	15.395
530.83	16.634
531.17	14.882
531.51	15.405
531.86	15.076
532.20	16.397
532.54	16.110
532.88	15.942
533.22	15.040
533.57	15.927
533.91	15.793
534.25	14.833
534.59	15.490
534.93	15.308
535.27	15.419
535.62	16.176
535.96	15.579
536.30	15.576
536.64	17.065
536.98	14.619
537.32	15.135
537.66	14.868
538.01	16.495
538.35	15.270
538.69	15.107
539.03	15.775
539.37	15.968
539.71	16.011
540.05	15.490
540.39	16.413
540.73	15.411
541.07	16.667
541.42	14.585
541.76	15.216
542.10	16.273
542.44	15.923
542.78	16.011
543.12	16.225
543.46	14.452
543.80	15.585
544.14	15.514
544.48	15.682
544.82	15.291
545.16	15.560
545.50	15.410
545.84	15.994
546.18	16.713
546.52	15.932
546.86	14.886
547.20	15.471
547.54	15.289
547.88	16.257
548.22	14.286
548.56	15.030
548.90	16.375
549.24	14.996
549.58	14.608
549.92	16.042
550.26	15.968
550.60	15.220
550.94	15.985
551.28	14.597
551.62	15.066
551.96	15.630
552.30	15.889
552.64	16.608
552.98	15.417
553.32	15.657
553.66	15.862
554.00	15.636
554.34	15.596
554.68	16.374
555.02	14.906
555.36	14.450
555.69	14.900
556.03	15.509
556.37	15.718
556.71	15.676
557.05	15.373
557.39	14.774
557.73	15.536
558.07	15.298
558.41	14.510
558.75	15.513
559.08	13.930
559.42	15.391
559.76	14.801
560.10	16.629
560.44	16.980
560.78	15.658
561.12	15.942
561.45	16.027
561.79	15.749
562.13	15.007
562.47	15.966
562.81	15.417
563.15	15.535
563.48	15.688
563.82	15.145
564.16	15.754
564.50	16.532
564.84	16.138
565.17	14.721
565.51	15.971
565.85	15.551
566.19	15.481
566.52	15.917
566.86	16.056
567.20	16.828
567.54	16.007
567.88	16.471
568.21	15.884
568.55	15.960
568.89	16.899
569.23	15.826
569.56	16.309
569.90	16.876
570.24	16.723
570.57	16.204
570.91	16.083
571.25	16.569
571.59	16.485
571.92	16.369
572.26	16.657
572.60	16.351
572.93	16.507
573.27	15.945
573.61	16.260
573.95	16.312
574.28	16.209
574.62	16.878
574.96	16.376
575.29	16.616
575.63	15.954
575.97	15.885
576.30	16.251
576.64	16.501
576.98	16.397
577.31	16.162
577.65	16.976
577.98	16.774
578.32	16.460
578.66	16.361
578.99	16.647
579.33	16.503
579.67	16.941
580.00	16.592
580.34	16.292
580.67	16.009
581.01	15.699
581.35	16.621
581.68	16.489
582.02	16.890
582.35	16.619
582.69	16.764
583.02	16.313
583.36	16.420
583.70	16.206
584.03	16.649
584.37	16.482
584.70	16.468
585.04	16.861
585.37	15.752
585.71	16.836
586.04	16.844
586.38	15.905
586.72	16.685
587.05	16.936
587.39	16.252
587.72	16.565
588.06	16.506
588.39	16.320
588.73	16.144
589.06	16.240
589.40	16.386
589.73	16.112
590.07	16.242
590.40	16.790
590.73	16.473
591.07	15.615
591.40	16.075
591.74	16.638
592.07	15.991
592.41	16.008
592.74	16.487
593.08	16.478
593.41	16.645
593.75	15.991
594.08	16.211
594.41	16.747
594.75	16.874
595.08	16.165
595.42	16.329
595.75	15.950
596.09	16.337
596.42	16.080
596.75	15.438
597.09	16.563
597.42	16.237
597.75	16.563
598.09	16.132
598.42	15.687
598.76	15.864
599.09	15.864
599.42	15.994
599.76	16.195
600.09	16.336
600.42	16.255
600.76	16.234
601.09	15.648
601.42	15.315
601.76	16.822
602.09	15.951
602.42	16.049
602.76	15.912
603.09	16.532
603.42	16.680
603.76	16.594
604.09	15.659
604.42	15.820
604.76	15.962
605.09	15.913
605.42	16.312
605.75	16.516
606.09	16.895
606.42	15.878
606.75	16.101
607.09	16.806
607.42	15.889
607.75	15.894
608.08	16.403
608.42	16.556
608.75	14.907
609.08	16.220
609.41	15.645
609.75	15.407
610.08	16.127
610.41	15.904
610.74	16.103
611.07	15.619
611.41	15.986
611.74	16.761
612.07	16.219
612.40	15.565
612.73	16.424
613.07	15.905
613.40	16.694
613.73	16.894
614.06	15.102
614.39	16.234
614.72	15.754
615.06	15.054
615.39	15.681
615.72	15.915
616.05	16.234
616.38	16.483
616.71	15.676
617.05	15.923
617.38	15.046
617.71	15.479
618.04	15.714
618.37	15.849
618.70	15.059
619.03	16.046
619.36	16.420
619.69	16.655
620.03	15.083
620.36	15.541
620.69	15.865
621.02	15.677
621.35	14.839
621.68	15.082
622.01	15.291
622.34	16.770
622.67	15.781
623.00	14.920
623.33	16.194
623.66	15.805
623.99	15.113
624.32	15.030
624.65	16.041
624.99	15.161
625.32	15.344
625.65	16.006
625.98	15.962
626.31	15.661
626.64	14.812
626.97	16.096
627.30	15.489
627.63	13.644
627.96	14.883
628.29	14.430
628.62	14.136
628.95	14.173
629.28	14.850
629.61	14.720
629.94	14.272
630.26	15.010
630.59	15.678
630.92	14.515
631.25	15.323
631.58	15.238
631.91	12.766
632.24	14.667
632.57	15.778
632.90	14.713
633.23	15.421
633.56	13.801
633.89	15.330
634.22	15.466
634.55	14.062
634.88	14.510
635.20	14.732
635.53	15.013
635.86	12.972
636.19	14.408
636.52	13.023
636.85	12.395
637.18	12.625
637.51	15.613
637.83	14.381
638.16	13.289
638.49	13.793
638.82	13.771
639.15	15.175
639.48	12.711
639.81	14.799
640.13	12.703
640.46	15.100
640.79	13.866
641.12	14.810
641.45	14.060
641.77	13.323
642.10	13.897
642.43	13.961
642.76	13.386
643.09	13.016
643.41	15.556
643.74	14.626
644.07	14.665
644.40	12.318
644.73	14.026
645.05	13.689
645.38	14.901
645.71	14.605
646.04	16.134
646.36	12.565
646.69	12.630
647.02	12.094
647.35	12.094
647.67	13.321
648.00	14.763
648.33	16.020
648.66	13.548
648.98	13.535
649.31	13.385
649.64	14.375
649.96	14.129
650.29	12.131
650.62	13.081
650.94	15.008
651.27	12.305
651.60	13.668
651.92	13.870
652.25	13.856
652.58	13.629
652.90	12.199
653.23	13.871
653.56	12.375
653.88	10.984
654.21	15.268
654.54	13.953
654.86	13.804
655.19	14.183
655.52	16.478
655.84	16.990
656.17	18.926
656.49	25.634
656.82	26.442
657.15	19.938
657.47	14.417
657.80	11.105
658.13	12.065
658.45	16.201
658.78	15.643
659.10	15.442
659.43	14.942
659.75	15.106
660.08	14.844
660.41	14.098
660.73	12.871
661.06	15.652
661.38	14.286
661.71	12.237
662.03	15.323
662.36	13.006
662.68	13.502
663.01	14.650
663.33	12.925
663.66	12.446
663.98	11.384
664.31	13.199
664.63	15.265
664.96	10.195
665.28	13.666
665.61	12.262
665.93	11.317
666.26	14.372
666.58	14.553
666.91	12.249
667.23	10.307
667.56	12.245
667.88	14.253
668.21	11.521
668.53	12.383
668.86	13.395
669.18	14.612
669.50	11.215
669.83	10.462
670.15	13.453
670.48	12.383
670.80	13.212
671.13	10.609
671.45	10.811
671.77	13.704
672.10	11.834
672.42	13.100
672.75	13.091
673.07	14.054
673.39	13.479
673.72	13.189
674.04	11.040
674.37	13.196
674.69	15.164
675.01	12.553
675.34	13.015
675.66	14.903
675.98	13.216
676.31	14.706
676.63	13.103
676.95	11.283
677.28	12.761
677.60	13.348
677.92	12.775
678.25	13.786
678.57	16.049
678.89	12.788
679.22	14.675
679.54	12.426
679.86	11.800
680.18	15.779
680.51	12.477
680.83	14.286
681.15	13.102
681.48	13.996
681.80	12.702
682.12	14.286
682.44	12.967
682.77	9.307
683.09	13.836
683.41	15.708
683.73	8.219
684.06	11.828
684.38	13.389
684.70	13.374
685.02	14.567
685.34	13.060
685.67	11.364
685.99	12.098
686.31	14.901
686.63	14.539
686.96	13.309
687.28	13.295
687.60	12.891
687.92	13.619
688.24	11.811
688.56	13.627
688.89	11.325
689.21	14.880
689.53	13.793
689.85	12.918
690.17	13.677
690.49	10.624
690.82	12.530
691.14	12.500
691.46	13.304
691.78	12.775
692.10	13.136
692.42	12.889
692.74	14.163
693.06	14.157
693.39	13.199
693.71	12.190
694.03	14.255
694.35	12.190
694.67	11.111
694.99	10.230
695.31	13.010
695.63	11.735
695.95	9.429
696.27	12.718
696.59	13.636
696.91	10.674
697.23	13.542
697.56	12.260
697.88	13.964
698.20	11.991
698.52	9.865
698.84	15.777
699.16	12.857
699.48	8.500
699.80	12.531
700.12	13.854
700.44	8.101
700.76	9.621
701.08	12.791
701.40	11.178
701.72	12.963
702.04	14.423
702.36	13.855
702.68	10.479
703.00	9.855
703.32	6.877
703.64	15.882
703.96	14.244
704.28	13.018
704.60	9.810
704.91	10.794
705.23	13.269
705.55	8.784
705.87	12.628
706.19	9.375
706.51	11.806
706.83	11.803
707.15	9.236
707.47	15.152
707.79	14.433
708.11	12.468
708.43	13.217
708.74	11.429
709.06	12.535
709.38	10.632
709.70	13.750
710.02	13.497
710.34	7.261
710.66	12.698
710.98	10.410
711.29	5.484
711.61	6.709
711.93	10.492
712.25	15.947
712.57	8.362
712.89	12.230
713.20	16.838
713.52	5.597
713.84	9.964
714.16	8.525
714.48	13.333
714.80	10.769
715.11	11.816
715.43	13.855
715.75	15.888
716.07	10.164
716.39	12.375
716.70	8.362
717.02	7.778
717.34	11.450
717.66	12.448
717.97	10.246
718.29	8.403
718.61	11.905
718.93	10.036
719.24	7.353
719.56	8.302
719.88	12.727
720.20	10.487
720.51	13.534
720.83	8.032
721.15	10.656
721.46	11.765
721.78	6.897
722.10	14.000
722.42	5.785
722.73	11.554
723.05	12.450
723.37	13.333
723.68	11.336
724.00	15.447
724.32	11.523
724.63	7.469
724.95	12.397
725.27	10.088
725.58	6.897
725.90	10.317
726.22	15.867
726.53	11.407
726.85	9.412
727.16	12.406
727.48	9.615
727.80	5.738
728.11	7.563
728.43	11.157
728.74	10.156
729.06	14.773
729.38	11.284
729.69	9.449
730.01	11.024
730.32	9.960
730.64	13.919
730.96	11.567
731.27	11.429
731.59	11.897
731.90	14.417
732.22	7.975
732.53	17.550
732.85	13.423
733.16	10.145
733.48	11.498
733.80	10.320
734.11	12.759
734.43	10.544
734.74	13.947
735.06	11.912
735.37	15.902
735.69	7.419
736.00	12.121
736.32	15.232
736.63	8.966
736.95	12.319
737.26	16.556
737.58	9.353
737.89	14.337
738.21	9.398
738.52	11.538
738.83	12.891
739.15	8.547
739.46	12.903
739.78	11.888
740.09	10.839
740.41	9.790
740.72	13.869
741.04	13.095
741.35	9.524
741.66	13.426
741.98	6.667
742.29	13.146
742.61	16.578
742.92	19.159
743.23	14.035
743.55	13.514
743.86	14.667
744.18	11.429
744.49	11.330
744.80	10.660
745.12	10.309
745.43	12.563
745.74	11.165
746.06	6.829
746.37	15.859
746.68	13.433
747.00	11.518
747.31	9.615
747.62	11.521
747.94	11.354
748.25	9.302
748.56	10.000
748.88	8.152
749.19	11.268
749.50	14.216
749.82	11.111
750.13	16.300
750.44	7.724
750.75	11.200
751.07	14.286
751.38	9.594
751.69	10.305
752.01	17.308
752.32	11.284
752.63	10.000
752.94	8.333
753.26	17.826
753.57	9.375
753.88	10.776
754.19	9.129
754.51	11.719
754.82	13.043
755.13	9.053
755.44	13.636
755.75	13.169
756.07	6.426
756.38	7.812
756.69	13.718
757.00	13.937
757.31	10.067
757.63	14.019
757.94	12.717
758.25	11.337
758.56	15.633
758.87	15.909
759.18	7.333
759.50	13.523
759.81	6.934
760.12	7.095
760.43	13.592
760.74	14.687
761.05	15.449
761.36	11.677
761.67	13.314
761.99	10.323
762.30	14.130
762.61	13.962
762.92	13.901
763.23	11.848
763.54	14.222
763.85	13.924
764.16	11.837
764.47	11.441
764.78	9.363
765.10	18.345
765.41	12.258
765.72	14.151
766.03	4.594
766.34	11.278
766.65	9.717
766.96	5.000
767.27	7.292
767.58	14.535
767.89	7.742
768.20	15.337
768.51	14.208
768.82	12.973
769.13	9.000
769.44	10.526
769.75	15.152
770.06	13.761
770.37	7.512
770.68	7.292
770.99	13.861
771.30	13.107
771.61	10.648
771.92	12.987
772.23	11.215
772.54	5.851
772.85	8.876
773.16	12.805
773.47	16.867
773.78	17.582
774.09	4.667
774.39	9.259
774.70	11.409
775.01	5.072
775.32	2.239
775.63	-2.479
775.94	14.286
776.25	12.143
776.56	1.639
776.87	5.310
777.18	17.699
777.48	-0.909
777.79	2.609
778.10	-10.092
778.41	4.237
778.72	7.438
779.03	17.164
779.34	13.534
779.65	3.268
779.95	10.145
780.26	0.000
780.57	-1.724
780.88	7.407
781.19	-11.111
781.50	0.800
781.80	5.882
782.11	6.410
782.42	9.036
782.73	-0.730
783.04	0.000
783.34	8.333
783.65	13.178
783.96	8.130
784.27	7.692
784.57	-0.813
784.88	2.439
785.19	0.000
785.50	-10.309
785.81	9.524
786.11	-8.824
786.42	1.818
786.73	0.000
787.04	4.950
787.34	2.857
787.65	-2.857
787.96	12.745
788.26	3.604
788.57	5.645
788.88	3.906
789.19	3.419
789.49	2.521
789.80	1.709
790.11	14.159
790.41	10.101
790.72	15.094
791.03	-5.556
791.33	9.211
791.64	-1.075
791.95	6.667
792.25	-8.571
792.56	2.439
792.87	9.184
793.17	-3.947
793.48	-12.162
793.79	-11.268
794.09	-3.797
794.40	3.191
794.70	8.411
795.01	-11.404
795.32	1.818
795.62	8.929
795.93	-8.247
796.23	-1.099
796.54	24.211
796.85	-10.959
797.15	0.000
797.46	-5.479
797.76	8.451
798.07	22.500
798.37	4.412
798.68	11.429
798.99	0.000
799.29	22.368
799.60	-11.667
799.90	-15.278
800.21	-9.375
800.51	-14.286
800.82	1.639
801.12	5.263
801.43	-9.859
801.73	-25.424
802.04	1.639
802.34	-21.818
802.65	13.462
802.95	5.556
803.26	-25.000
803.56	7.692
803.87	-31.579
804.17	9.677
804.48	4.615
804.78	-46.154
805.09	0.000
805.39	-37.500
805.70	-24.528
806.00	7.018
806.30	5.405
806.61	16.176
806.91	8.642
807.22	-16.000
807.52	2.985
807.83	-1.613
808.13	-15.873
808.43	-27.273
808.74	4.545
809.04	-15.094
809.35	5.479
809.65	1.754
809.95	-4.412
810.26	9.804
810.56	-18.000
810.86	-2.041
811.17	-57.143
811.47	-5.769
811.77	3.226
812.08	-52.632
812.38	9.524
812.69	-23.913
812.99	-58.065
813.29	-9.524
813.59	-77.778
813.90	-10.638
814.20	-32.558
814.50	-29.167
814.81	-13.333
815.11	-7.317
815.41	-23.333
815.72	8.571
816.02	-47.222
816.32	7.692
816.62	-24.324
816.93	-55.882
817.23	6.522
817.53	-32.353
817.84	-26.471
818.14	-31.250
818.44	-44.828
818.74	-41.935
819.04	-18.519
819.35	-40.000
819.65	-56.000
819.95	-6.667
820.25	-80.000
820.56	-21.053
820.86	-17.500
821.16	-2.128
821.46	18.966
821.76	-48.718
822.07	-17.500
822.37	-20.930
822.67	-33.333
822.97	-10.811
823.27	-18.919
823.57	4.000
823.88	-21.622
824.18	-95.238
824.48	-34.615
824.78	-176.923
825.08	4.348
825.38	-8.333
825.69	20.833
825.99	-70.000
826.29	-27.027
826.59	-38.235
826.89	-12.000
827.19	-17.143
827.49	0.000
827.79	-62.500
828.09	-43.333
828.39	-34.783
828.70	-27.586
829.00	-72.414
829.30	-2.778
829.60	18.750
829.90	-66.667
830.20	-38.462
830.50	-61.905
830.80	-50.000
831.10	0.000
831.40	-47.619
831.70	-23.529
832.00	-29.167
832.30	-47.368
832.60	-137.500
832.90	-216.667
833.20	-147.059
833.50	-120.000
833.80	-120.000
834.10	-95.000
834.40	-66.667
834.70	-61.111
835.00	-19.231
835.30	-33.333
835.60	-10.345
835.90	-77.778
836.20	-127.273
836.50	-175.000
836.80	-11.429
837.10	8.571
837.40	-129.412
837.70	-109.091
838.00	-54.167
838.30	-37.500
838.60	-76.190
838.90	-25.000
839.19	-34.783
839.49	-34.783
839.79	-116.667
840.09	-34.783
840.39	-45.455
840.69	-87.500
840.99	-63.158
841.29	-56.250
841.59	-71.429
841.88	-61.111
842.18	-45.833
842.48	-141.176
842.78	0.000
843.08	-107.143
843.38	-53.846
843.68	-188.889
843.97	-138.462
844.27	-100.000
844.57	-440.000
844.87	-20.000
845.17	-220.000
845.47	-28.571
845.76	-144.444
846.06	0.000
846.36	-350.000
846.66	-130.000
846.96	-42.105
847.25	-50.000
847.55	-133.333
847.85	-93.333
848.15	-160.000
848.44	30.769
848.74	-5.263
849.04	566.667
849.34	-144.444
849.63	-73.684
849.93	0.000
850.23	-70.000
850.53	-33.333
850.82	-12.000
851.12	-36.842
851.42	-750.000
851.71	-50.000
852.01	-175.000
852.31	-41.176
852.61	-13.333
852.90	-66.667
853.20	-250.000
853.50	-77.778
853.79	-63.158
854.09	-46.667
854.39	-21.429
854.68	-39.130
854.98	-216.667
855.28	-13.793
855.57	-93.750
855.87	-65.000
856.17	-113.333
856.46	-3.448
856.76	-40.000
857.05	-129.412
857.35	-146.154
857.65	-90.909
857.94	-7.407
858.24	-50.000
858.53	-85.714
858.83	-125.000
859.13	-177.778
859.42	-33.333
859.72	-262.500
860.01	-366.667
860.31	-250.000
860.60	-400.000
860.90	-11.111
861.20	-112.500
861.49	-271.429
861.79	-17.647
862.08	-1000.000
862.38	-200.000
862.67	-53.846
862.97	-23.529
863.26	-25.000
863.56	-117.647
863.85	600.000
864.15	-110.000
864.44	-115.385
864.74	-45.000
865.03	-175.000
865.33	-300.000
865.62	-52.941
865.92	-450.000
866.21	-128.571
866.51	-66.667
866.80	-1000.000
867.10	-300.000
867.39	-29.412
867.69	0.000
867.98	-371.429
868.27	-180.000
868.57	-75.000
868.86	-290.909
869.16	17.647
869.45	-166.667
869.75	-171.429
870.04	600.000
870.33	-91.667
870.63	-280.000
870.92	-55.556
871.22	-75.000
871.51	-45.455
871.80	-125.000
872.10	10.000
>>>>>End Processed Spectral Data<<<<<
