SpectraSuite Data File
++++++++++++++++++++++++++++++++++++
Date: Sat May 16 11:31:47 PDT 2015
User: schluterlab
Dark Spectrum Present: Yes
Reference Spectrum Present: Yes
Number of Sampled Component Spectra: 1
Spectrometers: USB2E3373
Integration Time (usec): 3000 (USB2E3373)
Spectra Averaged: 3 (USB2E3373)
Boxcar Smoothing: 0 (USB2E3373)
Correct for Electrical Dark: No (USB2E3373)
Strobe/Lamp Enabled: No (USB2E3373)
Correct for Detector Non-linearity: No (USB2E3373)
Correct for Stray Light: No (USB2E3373)
Number of Pixels in Processed Spectrum: 2048
>>>>>Begin Processed Spectral Data<<<<<
178.53	0.000
178.91	106.667
179.29	933.333
179.67	-300.000
180.04	-138.462
180.42	1400.000
180.80	75.000
181.18	575.000
181.56	-25.000
181.94	800.000
182.31	575.000
182.69	-53.846
183.07	-566.667
183.45	1400.000
183.83	700.000
184.20	-271.429
184.58	-125.000
184.96	-400.000
185.34	106.250
185.72	-650.000
186.09	216.667
186.47	-137.500
186.85	-275.000
187.23	12.500
187.61	-300.000
187.98	-275.000
188.36	-100.000
188.74	-175.000
189.12	1100.000
189.49	357.143
189.87	-16.667
190.25	225.000
190.63	-28.571
191.00	-200.000
191.38	400.000
191.76	-66.667
192.14	580.000
192.51	-160.000
192.89	-400.000
193.27	0.000
193.65	-155.556
194.02	-285.714
194.40	533.333
194.78	-110.000
195.15	-900.000
195.53	-154.545
195.91	-433.333
196.29	200.000
196.66	-566.667
197.04	3000.000
197.42	-175.000
197.79	40.000
198.17	-333.333
198.55	-500.000
198.92	-1800.000
199.30	225.000
199.68	-450.000
200.05	-66.667
200.43	-255.556
200.81	-1400.000
201.18	-108.333
201.56	128.571
201.94	-20.000
202.31	22.727
202.69	90.000
203.07	-30.000
203.44	666.667
203.82	-383.333
204.19	-300.000
204.57	-275.000
204.95	-1100.000
205.32	-43.750
205.70	200.000
206.08	-2000.000
206.45	-5.556
206.83	-950.000
207.20	100.000
207.58	-900.000
207.96	-433.333
208.33	-125.000
208.71	-300.000
209.08	210.000
209.46	-114.286
209.84	700.000
210.21	0.000
210.59	25.000
210.96	1500.000
211.34	-100.000
211.71	33.333
212.09	400.000
212.46	550.000
212.84	-1900.000
213.22	600.000
213.59	233.333
213.97	11.111
214.34	160.000
214.72	-130.000
215.09	-533.333
215.47	-200.000
215.84	-110.000
216.22	-50.000
216.59	13.333
216.97	-525.000
217.34	900.000
217.72	-28.571
218.09	-316.667
218.47	-171.429
218.84	185.714
219.22	-200.000
219.59	0.000
219.97	385.714
220.34	350.000
220.72	200.000
221.09	-23.077
221.47	0.000
221.84	66.667
222.22	-650.000
222.59	1100.000
222.97	-225.000
223.34	-800.000
223.72	-133.333
224.09	-57.143
224.46	-525.000
224.84	42.857
225.21	-257.143
225.59	-63.636
225.96	-250.000
226.34	-100.000
226.71	-133.333
227.08	-10.000
227.46	1700.000
227.83	-171.429
228.21	-200.000
228.58	-100.000
228.95	-12.500
229.33	-1400.000
229.70	-180.000
230.08	-900.000
230.45	-33.333
230.82	-366.667
231.20	-700.000
231.57	-350.000
231.95	1700.000
232.32	9.524
232.69	-166.667
233.07	-242.857
233.44	-1100.000
233.81	-13.333
234.19	-44.444
234.56	-43.750
234.93	40.625
235.31	-228.571
235.68	-78.571
236.05	-41.176
236.43	-54.545
236.80	-3.226
237.17	20.833
237.55	-47.619
237.92	22.727
238.29	8.571
238.67	8.824
239.04	52.778
239.41	22.581
239.79	-7.692
240.16	-19.048
240.53	7.273
240.91	61.538
241.28	23.636
241.65	49.231
242.02	21.311
242.40	40.984
242.77	39.394
243.14	49.153
243.51	34.286
243.89	31.646
244.26	35.955
244.63	45.263
245.00	45.263
245.38	31.356
245.75	37.168
246.12	45.600
246.49	45.669
246.87	34.146
247.24	38.136
247.61	50.847
247.98	39.437
248.36	37.762
248.73	44.937
249.10	47.771
249.47	43.860
249.84	52.273
250.22	43.452
250.59	46.893
250.96	40.838
251.33	47.867
251.70	49.519
252.08	47.393
252.45	48.341
252.82	49.048
253.19	46.383
253.56	44.758
253.94	45.992
254.31	48.927
254.68	50.000
255.05	47.581
255.42	51.190
255.79	45.520
256.16	54.902
256.54	54.779
256.91	50.000
257.28	44.689
257.65	54.255
258.02	51.887
258.39	49.164
258.76	50.338
259.14	48.457
259.51	54.754
259.88	46.037
260.25	48.447
260.62	52.412
260.99	48.368
261.36	51.524
261.73	50.867
262.10	52.222
262.47	49.003
262.85	50.571
263.22	49.570
263.59	50.769
263.96	49.855
264.33	52.033
264.70	49.448
265.07	50.549
265.44	51.421
265.81	51.421
266.18	50.127
266.55	50.245
266.92	55.416
267.29	52.785
267.66	51.852
268.03	52.899
268.40	48.357
268.77	52.771
269.14	53.828
269.51	46.897
269.88	48.165
270.25	47.086
270.62	51.030
270.99	50.676
271.36	52.448
271.73	50.897
272.10	51.030
272.47	49.778
272.84	54.222
273.21	53.899
273.58	50.989
273.95	50.219
274.32	52.262
274.69	52.079
275.06	53.579
275.43	51.116
275.80	50.509
276.17	51.674
276.54	53.360
276.91	54.321
277.28	53.144
277.65	50.620
278.02	50.104
278.39	48.330
278.76	50.000
279.13	50.395
279.50	48.111
279.87	49.683
280.23	50.000
280.60	49.901
280.97	51.456
281.34	54.159
281.71	50.577
282.08	53.226
282.45	51.935
282.82	52.519
283.19	47.455
283.56	52.930
283.92	50.177
284.29	49.257
284.66	48.561
285.03	47.237
285.40	52.768
285.77	50.351
286.14	48.375
286.51	49.911
286.87	49.546
287.24	48.123
287.61	46.777
287.98	50.087
288.35	44.463
288.72	47.878
289.08	45.424
289.45	45.286
289.82	44.291
290.19	47.947
290.56	43.471
290.93	44.038
291.29	44.408
291.66	48.470
292.03	43.485
292.40	42.319
292.77	44.099
293.13	43.902
293.50	42.942
293.87	42.331
294.24	42.081
294.60	40.303
294.97	41.578
295.34	40.593
295.71	42.560
296.08	39.631
296.44	39.199
296.81	41.595
297.18	38.310
297.55	40.960
297.91	41.283
298.28	39.452
298.65	38.215
299.02	39.973
299.38	37.567
299.75	36.549
300.12	36.795
300.48	37.980
300.85	37.353
301.22	37.128
301.59	37.451
301.95	37.406
302.32	35.202
302.69	36.842
303.05	34.921
303.42	35.250
303.79	37.679
304.15	36.137
304.52	35.823
304.89	35.419
305.25	35.165
305.62	36.310
305.99	37.220
306.35	35.294
306.72	35.877
307.09	35.755
307.45	34.847
307.82	33.631
308.19	34.340
308.55	34.749
308.92	33.512
309.29	34.703
309.65	34.464
310.02	32.829
310.38	32.757
310.75	32.889
311.12	33.678
311.48	34.134
311.85	32.956
312.22	34.295
312.58	34.588
312.95	32.416
313.31	34.466
313.68	34.673
314.05	33.828
314.41	32.696
314.78	31.069
315.14	33.268
315.51	32.624
315.87	33.204
316.24	32.653
316.61	32.534
316.97	33.433
317.34	34.586
317.70	32.468
318.07	33.209
318.43	32.303
318.80	34.178
319.16	32.927
319.53	32.613
319.89	31.421
320.26	30.980
320.62	31.346
320.99	32.239
321.35	29.754
321.72	31.627
322.08	32.245
322.45	31.485
322.81	33.237
323.18	31.988
323.54	31.423
323.91	32.715
324.27	32.129
324.64	30.622
325.00	30.541
325.37	30.950
325.73	31.846
326.10	28.609
326.46	30.823
326.83	30.979
327.19	30.859
327.56	33.220
327.92	31.521
328.29	31.515
328.65	32.273
329.01	31.449
329.38	30.062
329.74	33.059
330.11	31.188
330.47	31.063
330.84	30.981
331.20	30.866
331.56	30.173
331.93	30.018
332.29	31.142
332.66	30.378
333.02	29.955
333.38	31.720
333.75	30.187
334.11	30.222
334.48	29.744
334.84	30.446
335.20	31.383
335.57	30.505
335.93	29.902
336.29	29.672
336.66	30.485
337.02	30.090
337.38	30.036
337.75	29.763
338.11	29.070
338.47	30.783
338.84	30.490
339.20	29.613
339.56	29.857
339.93	29.630
340.29	28.875
340.65	29.983
341.02	30.101
341.38	28.896
341.74	28.450
342.11	29.608
342.47	29.528
342.83	29.807
343.20	28.864
343.56	27.265
343.92	28.548
344.28	30.193
344.65	28.548
345.01	28.235
345.37	28.987
345.73	27.005
346.10	28.700
346.46	28.920
346.82	29.190
347.19	28.184
347.55	28.491
347.91	28.740
348.27	27.049
348.63	29.483
349.00	29.912
349.36	27.869
349.72	29.140
350.08	28.388
350.45	27.817
350.81	28.662
351.17	28.698
351.53	27.526
351.89	27.809
352.26	27.907
352.62	30.184
352.98	28.402
353.34	28.058
353.70	27.490
354.07	27.616
354.43	28.458
354.79	27.496
355.15	28.035
355.51	27.500
355.87	27.905
356.24	27.879
356.60	28.848
356.96	27.945
357.32	27.949
357.68	28.046
358.04	28.099
358.40	28.152
358.77	28.053
359.13	27.391
359.49	26.606
359.85	28.201
360.21	28.234
360.57	28.539
360.93	28.000
361.29	28.102
361.66	27.820
362.02	27.145
362.38	28.393
362.74	27.692
363.10	27.547
363.46	28.063
363.82	26.968
364.18	28.582
364.54	29.664
364.90	27.044
365.26	27.532
365.62	27.584
365.98	27.738
366.35	26.761
366.71	26.568
367.07	27.805
367.43	27.934
367.79	27.698
368.15	27.098
368.51	27.552
368.87	28.297
369.23	27.298
369.59	27.569
369.95	27.555
370.31	28.551
370.67	26.826
371.03	27.988
371.39	26.733
371.75	28.398
372.11	27.690
372.47	27.549
372.83	27.538
373.19	27.857
373.55	26.882
373.91	28.236
374.27	27.242
374.63	26.984
374.99	27.260
375.35	26.716
375.71	28.157
376.07	26.489
376.42	25.894
376.78	27.320
377.14	28.203
377.50	26.692
377.86	28.023
378.22	26.696
378.58	26.930
378.94	27.559
379.30	26.691
379.66	27.626
380.02	27.748
380.38	27.190
380.74	27.022
381.09	27.709
381.45	28.162
381.81	27.223
382.17	26.817
382.53	26.505
382.89	28.230
383.25	27.935
383.61	27.948
383.97	28.169
384.32	27.159
384.68	27.993
385.04	26.932
385.40	27.085
385.76	26.951
386.12	27.295
386.48	28.156
386.83	27.914
387.19	27.735
387.55	28.286
387.91	27.801
388.27	25.935
388.62	27.284
388.98	27.075
389.34	27.846
389.70	27.162
390.06	27.222
390.42	28.718
390.77	27.508
391.13	28.323
391.49	27.386
391.85	28.055
392.20	27.427
392.56	27.245
392.92	28.237
393.28	27.210
393.64	28.322
393.99	28.000
394.35	28.102
394.71	27.733
395.07	28.123
395.42	27.294
395.78	27.970
396.14	28.785
396.50	28.135
396.85	27.329
397.21	28.250
397.57	27.903
397.92	27.635
398.28	28.056
398.64	27.781
399.00	29.382
399.35	28.072
399.71	28.397
400.07	27.642
400.42	27.737
400.78	28.145
401.14	28.862
401.49	27.358
401.85	28.676
402.21	27.831
402.57	28.216
402.92	27.942
403.28	27.451
403.63	27.741
403.99	28.527
404.35	28.502
404.70	29.432
405.06	27.336
405.42	27.368
405.77	27.941
406.13	27.314
406.49	28.580
406.84	27.954
407.20	28.740
407.55	28.372
407.91	27.396
408.27	28.676
408.62	28.082
408.98	27.956
409.34	27.666
409.69	27.788
410.05	27.229
410.40	27.652
410.76	28.394
411.11	27.993
411.47	27.366
411.83	28.056
412.18	27.785
412.54	27.395
412.89	27.886
413.25	28.040
413.60	27.278
413.96	27.418
414.31	28.318
414.67	26.984
415.03	27.102
415.38	27.846
415.74	27.899
416.09	28.836
416.45	27.315
416.80	27.763
417.16	27.841
417.51	28.496
417.87	26.990
418.22	27.750
418.58	28.113
418.93	28.081
419.29	27.227
419.64	27.889
420.00	27.643
420.35	28.386
420.71	28.752
421.06	28.462
421.42	27.810
421.77	27.694
422.12	28.651
422.48	27.472
422.83	28.474
423.19	27.227
423.54	28.703
423.90	28.282
424.25	27.206
424.61	27.563
424.96	28.906
425.31	27.781
425.67	28.367
426.02	27.998
426.38	28.615
426.73	27.762
427.09	27.819
427.44	27.386
427.79	27.442
428.15	28.247
428.50	27.977
428.85	28.597
429.21	27.892
429.56	28.333
429.92	27.255
430.27	29.063
430.62	28.527
430.98	28.907
431.33	29.136
431.68	29.276
432.04	29.379
432.39	27.920
432.74	29.616
433.10	29.094
433.45	28.037
433.80	28.779
434.16	29.017
434.51	29.205
434.86	29.643
435.22	29.454
435.57	28.580
435.92	28.957
436.28	29.436
436.63	28.038
436.98	28.236
437.34	28.766
437.69	28.355
438.04	28.531
438.39	28.640
438.75	28.754
439.10	28.873
439.45	28.123
439.81	28.976
440.16	28.620
440.51	29.000
440.86	29.208
441.22	29.022
441.57	29.211
441.92	29.054
442.27	28.139
442.63	29.131
442.98	28.104
443.33	28.830
443.68	29.442
444.03	28.782
444.39	28.781
444.74	29.405
445.09	28.838
445.44	29.263
445.79	28.455
446.15	27.766
446.50	27.164
446.85	28.733
447.20	28.601
447.55	28.674
447.91	29.366
448.26	29.162
448.61	28.919
448.96	28.964
449.31	28.241
449.66	29.136
450.02	27.978
450.37	28.116
450.72	28.136
451.07	28.787
451.42	27.571
451.77	28.905
452.12	29.082
452.47	28.778
452.83	28.422
453.18	29.222
453.53	29.291
453.88	29.366
454.23	29.323
454.58	29.149
454.93	28.841
455.28	28.744
455.63	28.563
455.98	28.434
456.34	29.098
456.69	28.768
457.04	28.273
457.39	28.170
457.74	28.647
458.09	28.770
458.44	29.792
458.79	28.700
459.14	28.922
459.49	29.070
459.84	28.331
460.19	28.938
460.54	28.736
460.89	28.643
461.24	29.630
461.59	28.957
461.94	28.962
462.29	28.767
462.64	29.117
462.99	29.518
463.34	28.022
463.69	29.517
464.04	28.822
464.39	28.375
464.74	28.487
465.09	28.142
465.44	28.144
465.79	28.821
466.14	29.632
466.49	27.749
466.84	29.232
467.19	29.302
467.54	28.291
467.89	28.298
468.24	29.097
468.59	28.107
468.94	28.424
469.29	28.655
469.64	27.830
469.99	28.562
470.34	27.856
470.68	28.997
471.03	28.975
471.38	27.639
471.73	28.252
472.08	28.313
472.43	27.671
472.78	27.733
473.13	28.297
473.48	28.973
473.83	28.536
474.17	29.045
474.52	30.563
474.87	28.788
475.22	28.968
475.57	28.778
475.92	28.348
476.27	28.686
476.61	28.225
476.96	28.843
477.31	29.064
477.66	28.888
478.01	30.254
478.36	27.239
478.70	29.365
479.05	28.826
479.40	28.705
479.75	28.746
480.10	28.621
480.45	28.530
480.79	29.319
481.14	29.102
481.49	29.526
481.84	28.710
482.19	29.374
482.53	29.072
482.88	28.382
483.23	29.061
483.58	29.232
483.92	28.810
484.27	28.445
484.62	28.078
484.97	28.449
485.31	28.576
485.66	27.854
486.01	28.585
486.36	29.648
486.70	30.588
487.05	29.239
487.40	29.274
487.75	28.944
488.09	28.938
488.44	29.770
488.79	29.324
489.13	28.718
489.48	28.915
489.83	28.908
490.17	28.864
490.52	29.665
490.87	28.868
491.22	28.398
491.56	28.889
491.91	29.008
492.26	28.726
492.60	28.687
492.95	28.463
493.30	27.823
493.64	28.679
493.99	28.107
494.34	29.000
494.68	29.401
495.03	27.916
495.37	28.761
495.72	28.978
496.07	29.470
496.41	30.014
496.76	28.630
497.11	29.298
497.45	28.879
497.80	28.514
498.14	29.126
498.49	28.729
498.84	28.981
499.18	29.483
499.53	29.859
499.87	29.151
500.22	28.725
500.56	28.864
500.91	28.473
501.26	29.015
501.60	28.358
501.95	29.372
502.29	28.909
502.64	29.467
502.98	28.606
503.33	29.840
503.67	28.688
504.02	28.634
504.36	29.118
504.71	28.825
505.06	29.006
505.40	29.541
505.75	29.624
506.09	29.474
506.44	29.273
506.78	28.901
507.13	29.248
507.47	30.569
507.82	28.291
508.16	29.534
508.51	28.697
508.85	29.037
509.19	28.676
509.54	28.436
509.88	29.681
510.23	28.407
510.57	28.624
510.92	30.075
511.26	29.346
511.61	29.536
511.95	28.825
512.30	28.917
512.64	28.325
512.98	29.703
513.33	29.654
513.67	29.090
514.02	28.971
514.36	29.861
514.70	28.919
515.05	30.360
515.39	28.489
515.74	29.785
516.08	29.164
516.42	28.895
516.77	29.752
517.11	28.661
517.46	30.263
517.80	30.626
518.14	28.865
518.49	29.169
518.83	29.139
519.17	28.952
519.52	29.555
519.86	30.585
520.20	30.623
520.55	29.600
520.89	28.992
521.23	30.220
521.58	29.781
521.92	29.132
522.26	29.143
522.61	28.897
522.95	28.973
523.29	29.655
523.64	30.231
523.98	29.344
524.32	30.044
524.66	28.012
525.01	28.388
525.35	30.026
525.69	28.887
526.04	30.157
526.38	30.108
526.72	29.246
527.06	30.078
527.41	29.307
527.75	29.043
528.09	29.451
528.43	29.705
528.78	30.214
529.12	29.962
529.46	29.059
529.80	30.148
530.15	30.006
530.49	30.660
530.83	30.255
531.17	29.966
531.51	30.476
531.86	30.086
532.20	30.229
532.54	29.813
532.88	30.369
533.22	30.481
533.57	31.332
533.91	29.963
534.25	29.227
534.59	29.544
534.93	29.247
535.27	30.334
535.62	29.987
535.96	29.800
536.30	29.712
536.64	30.478
536.98	29.873
537.32	29.648
537.66	29.396
538.01	29.759
538.35	29.797
538.69	30.414
539.03	30.196
539.37	30.206
539.71	29.219
540.05	30.500
540.39	31.025
540.73	30.822
541.07	30.806
541.42	30.047
541.76	28.306
542.10	30.317
542.44	30.779
542.78	30.461
543.12	30.686
543.46	28.973
543.80	29.900
544.14	29.013
544.48	30.446
544.82	30.853
545.16	30.785
545.50	29.744
545.84	30.668
546.18	30.374
546.52	30.868
546.86	30.698
547.20	30.942
547.54	29.545
547.88	30.392
548.22	29.030
548.56	29.993
548.90	30.526
549.24	30.624
549.58	30.981
549.92	30.530
550.26	30.564
550.60	29.090
550.94	30.146
551.28	30.625
551.62	30.945
551.96	30.535
552.30	30.592
552.64	30.894
552.98	31.044
553.32	30.447
553.66	30.281
554.00	30.704
554.34	29.964
554.68	30.629
555.02	30.535
555.36	30.554
555.69	30.229
556.03	30.667
556.37	30.370
556.71	31.281
557.05	31.042
557.39	30.215
557.73	30.853
558.07	32.253
558.41	30.516
558.75	30.190
559.08	29.728
559.42	30.858
559.76	31.902
560.10	31.096
560.44	30.780
560.78	31.385
561.12	30.435
561.45	30.479
561.79	31.289
562.13	30.926
562.47	30.812
562.81	30.481
563.15	30.651
563.48	30.477
563.82	30.832
564.16	31.846
564.50	31.317
564.84	31.349
565.17	29.907
565.51	31.356
565.85	31.913
566.19	30.830
566.52	30.398
566.86	30.025
567.20	31.780
567.54	31.778
567.88	31.547
568.21	31.208
568.55	30.435
568.89	30.368
569.23	31.050
569.56	30.601
569.90	31.589
570.24	32.056
570.57	30.721
570.91	31.214
571.25	31.064
571.59	30.815
571.92	31.339
572.26	30.947
572.60	31.120
572.93	30.257
573.27	30.762
573.61	30.456
573.95	31.373
574.28	31.124
574.62	30.859
574.96	30.833
575.29	30.767
575.63	31.086
575.97	30.636
576.30	30.502
576.64	31.123
576.98	30.331
577.31	31.132
577.65	31.425
577.98	30.621
578.32	31.109
578.66	30.864
578.99	30.881
579.33	30.394
579.67	31.245
580.00	31.002
580.34	31.140
580.67	31.111
581.01	30.324
581.35	31.243
581.68	30.763
582.02	31.540
582.35	30.916
582.69	31.515
583.02	31.808
583.36	31.292
583.70	31.644
584.03	31.223
584.37	31.340
584.70	30.981
585.04	31.291
585.37	30.811
585.71	31.398
586.04	30.902
586.38	30.847
586.72	31.539
587.05	31.379
587.39	31.276
587.72	31.165
588.06	31.279
588.39	31.843
588.73	32.227
589.06	31.841
589.40	31.432
589.73	32.047
590.07	30.991
590.40	31.365
590.73	31.627
591.07	30.697
591.40	31.586
591.74	31.755
592.07	31.937
592.41	31.762
592.74	30.976
593.08	31.480
593.41	31.711
593.75	31.388
594.08	31.668
594.41	32.163
594.75	30.955
595.08	32.143
595.42	32.009
595.75	31.827
596.09	31.898
596.42	31.260
596.75	32.040
597.09	31.968
597.42	31.427
597.75	32.019
598.09	31.451
598.42	31.728
598.76	31.728
599.09	31.492
599.42	30.796
599.76	30.993
600.09	32.099
600.42	32.510
600.76	32.015
601.09	31.523
601.42	30.748
601.76	32.516
602.09	31.288
602.42	32.222
602.76	31.159
603.09	31.815
603.42	31.265
603.76	32.509
604.09	31.518
604.42	31.224
604.76	31.574
605.09	31.555
605.42	32.314
605.75	31.738
606.09	32.005
606.42	31.420
606.75	31.258
607.09	31.672
607.42	31.514
607.75	31.744
608.08	31.631
608.42	31.741
608.75	31.028
609.08	31.758
609.41	31.141
609.75	31.399
610.08	32.451
610.41	31.422
610.74	31.383
611.07	32.099
611.41	31.215
611.74	32.648
612.07	32.170
612.40	31.876
612.73	31.556
613.07	31.095
613.40	32.567
613.73	31.117
614.06	30.313
614.39	32.018
614.72	31.229
615.06	30.598
615.39	30.819
615.72	31.885
616.05	31.419
616.38	32.095
616.71	31.712
617.05	31.423
617.38	32.941
617.71	30.098
618.04	31.925
618.37	31.950
618.70	31.877
619.03	31.686
619.36	31.642
619.69	31.371
620.03	31.749
620.36	31.575
620.69	31.658
621.02	31.507
621.35	31.532
621.68	31.885
622.01	31.230
622.34	31.211
622.67	32.188
623.00	32.211
623.33	32.164
623.66	31.684
623.99	30.977
624.32	31.176
624.65	31.052
624.99	31.143
625.32	31.512
625.65	31.546
625.98	31.534
626.31	31.648
626.64	32.134
626.97	31.164
627.30	30.894
627.63	30.743
627.96	31.419
628.29	31.434
628.62	31.423
628.95	30.610
629.28	31.861
629.61	30.520
629.94	32.892
630.26	31.909
630.59	31.256
630.92	31.532
631.25	31.855
631.58	32.169
631.91	30.426
632.24	32.111
632.57	31.111
632.90	32.414
633.23	31.308
633.56	32.047
633.89	31.368
634.22	31.641
634.55	31.250
634.88	31.923
635.20	30.712
635.53	31.298
635.86	29.219
636.19	30.403
636.52	30.227
636.85	30.686
637.18	28.625
637.51	31.351
637.83	31.292
638.16	30.263
638.49	32.552
638.82	31.274
639.15	33.074
639.48	30.350
639.81	31.812
640.13	31.351
640.46	31.909
640.79	33.473
641.12	31.171
641.45	31.994
641.77	31.437
642.10	32.024
642.43	31.108
642.76	32.126
643.09	31.111
643.41	32.222
643.74	31.797
644.07	31.825
644.40	30.632
644.73	30.363
645.05	28.715
645.38	33.113
645.71	33.162
646.04	32.101
646.36	29.145
646.69	30.969
647.02	32.130
647.35	32.491
647.67	31.204
648.00	31.283
648.33	31.703
648.66	29.194
648.98	29.140
649.31	31.385
649.64	33.125
649.96	29.984
650.29	30.164
650.62	33.391
650.94	29.005
651.27	31.023
651.60	32.007
651.92	30.993
652.25	30.885
652.58	31.005
652.90	30.819
653.23	30.161
653.56	29.933
653.88	31.967
654.21	32.215
654.54	31.894
654.86	28.732
655.19	31.519
655.52	31.293
655.84	32.247
656.17	35.350
656.49	48.570
656.82	50.214
657.15	37.747
657.47	27.763
657.80	21.089
658.13	24.389
658.45	33.138
658.78	32.610
659.10	32.478
659.43	31.629
659.75	32.140
660.08	30.937
660.41	29.218
660.73	29.703
661.06	31.449
661.38	30.000
661.71	29.446
662.03	33.065
662.36	30.704
662.68	30.591
663.01	32.272
663.33	31.066
663.66	33.262
663.98	27.902
664.31	28.412
664.63	32.301
664.96	30.803
665.28	29.067
665.61	28.541
665.93	31.687
666.26	30.364
666.58	30.561
666.91	32.071
667.23	33.333
667.56	30.612
667.88	31.674
668.21	31.797
668.53	31.308
668.86	30.485
669.18	31.735
669.50	28.972
669.83	31.387
670.15	30.493
670.48	29.206
670.80	28.929
671.13	29.345
671.45	28.153
671.77	29.764
672.10	30.178
672.42	32.103
672.75	29.091
673.07	27.568
673.39	29.508
673.72	31.102
674.04	32.484
674.37	28.866
674.69	32.377
675.01	29.574
675.34	29.501
675.66	32.829
675.98	28.414
676.31	30.090
676.63	29.885
676.95	30.310
677.28	29.002
677.60	30.995
677.92	34.361
678.25	32.823
678.57	32.716
678.89	29.979
679.22	31.656
679.54	30.572
679.86	28.800
680.18	28.897
680.51	29.236
680.83	31.048
681.15	30.443
681.48	34.483
681.80	29.839
682.12	30.986
682.44	29.273
682.77	29.870
683.09	31.027
683.41	30.973
683.73	29.909
684.06	29.032
684.38	29.916
684.70	30.453
685.02	30.118
685.34	31.384
685.67	27.462
685.99	27.977
686.31	29.982
686.63	29.610
686.96	28.281
687.28	29.094
687.60	31.445
687.92	29.377
688.24	30.906
688.56	29.259
688.89	29.060
689.21	29.540
689.53	31.034
689.85	30.290
690.17	27.578
690.49	28.637
690.82	27.952
691.14	29.245
691.46	31.486
691.78	30.396
692.10	31.144
692.42	29.778
692.74	27.897
693.06	29.213
693.39	28.635
693.71	30.474
694.03	30.238
694.35	31.377
694.67	31.442
694.99	27.621
695.31	30.102
695.63	29.082
695.95	28.784
696.27	27.681
696.59	31.016
696.91	29.213
697.23	28.646
697.56	27.885
697.88	28.829
698.20	29.336
698.52	26.906
698.84	30.583
699.16	28.095
699.48	27.500
699.80	30.326
700.12	27.708
700.44	27.095
700.76	27.697
701.08	31.395
701.40	26.284
701.72	30.556
702.04	31.731
702.36	29.518
702.68	27.545
703.00	26.667
703.32	27.221
703.64	30.882
703.96	32.558
704.28	26.036
704.60	28.797
704.91	25.714
705.23	27.508
705.55	29.730
705.87	31.058
706.19	26.736
706.51	27.431
706.83	31.475
707.15	32.803
707.47	31.680
707.79	31.443
708.11	25.700
708.43	33.416
708.74	26.753
709.06	27.019
709.38	29.598
709.70	29.687
710.02	27.914
710.34	26.403
710.66	22.222
710.98	31.861
711.29	25.484
711.61	29.073
711.93	29.508
712.25	28.571
712.57	24.739
712.89	28.058
713.20	32.990
713.52	26.119
713.84	30.961
714.16	26.230
714.48	29.206
714.80	26.769
715.11	26.801
715.43	31.325
715.75	29.595
716.07	28.197
716.39	27.090
716.70	28.920
717.02	30.000
717.34	24.809
717.66	24.066
717.97	26.639
718.29	27.311
718.61	31.746
718.93	22.939
719.24	25.368
719.56	23.774
719.88	28.727
720.20	25.843
720.51	27.820
720.83	21.687
721.15	28.279
721.46	27.059
721.78	28.352
722.10	26.400
722.42	27.686
722.73	23.506
723.05	27.711
723.37	30.980
723.68	28.340
724.00	32.927
724.32	29.218
724.63	26.141
724.95	28.099
725.27	26.316
725.58	25.862
725.90	24.603
726.22	34.686
726.53	27.376
726.85	24.314
727.16	28.947
727.48	25.769
727.80	24.590
728.11	24.370
728.43	24.793
728.74	30.859
729.06	28.030
729.38	24.125
729.69	28.346
730.01	27.953
730.32	27.092
730.64	26.374
730.96	31.343
731.27	28.571
731.59	29.260
731.90	27.914
732.22	30.982
732.53	29.470
732.85	24.832
733.16	30.797
733.48	25.436
733.80	24.911
734.11	30.345
734.43	30.272
734.74	30.564
735.06	25.078
735.37	31.804
735.69	23.871
736.00	30.303
736.32	26.821
736.63	26.897
736.95	23.551
737.26	28.146
737.58	28.417
737.89	25.806
738.21	24.436
738.52	25.769
738.83	24.609
739.15	26.068
739.46	32.661
739.78	24.825
740.09	28.671
740.41	24.126
740.72	25.912
741.04	26.587
741.35	27.273
741.66	27.778
741.98	23.810
742.29	29.577
742.61	28.877
742.92	28.037
743.23	24.123
743.55	27.027
743.86	31.556
744.18	24.286
744.49	33.005
744.80	28.426
745.12	34.021
745.43	27.638
745.74	25.728
746.06	23.902
746.37	27.753
746.68	26.368
747.00	27.749
747.31	21.154
747.62	25.806
747.94	28.384
748.25	26.977
748.56	30.000
748.88	20.109
749.19	28.638
749.50	28.922
749.82	23.111
750.13	29.075
750.44	25.203
750.75	27.200
751.07	27.857
751.38	24.723
751.69	19.847
752.01	26.154
752.32	24.514
752.63	23.462
752.94	26.190
753.26	26.522
753.57	24.554
753.88	25.431
754.19	21.162
754.51	23.828
754.82	27.668
755.13	27.160
755.44	30.165
755.75	25.514
756.07	18.876
756.38	26.172
756.69	27.076
757.00	27.178
757.31	27.517
757.63	30.530
757.94	24.566
758.25	29.070
758.56	31.806
758.87	29.545
759.18	27.667
759.50	28.470
759.81	22.628
760.12	23.986
760.43	27.508
760.74	29.062
761.05	31.180
761.36	29.042
761.67	25.740
761.99	26.452
762.30	28.986
762.61	24.151
762.92	28.251
763.23	24.645
763.54	28.889
763.85	34.599
764.16	27.347
764.47	28.814
764.78	26.592
765.10	25.180
765.41	25.161
765.72	27.987
766.03	25.088
766.34	26.316
766.65	26.721
766.96	22.000
767.27	29.687
767.58	25.581
767.89	34.194
768.20	20.859
768.51	26.776
768.82	27.027
769.13	26.500
769.44	23.684
769.75	26.840
770.06	29.817
770.37	26.291
770.68	23.437
770.99	25.248
771.30	26.214
771.61	24.074
771.92	25.541
772.23	28.037
772.54	27.660
772.85	27.811
773.16	24.390
773.47	31.928
773.78	28.022
774.09	22.000
774.39	23.457
774.70	26.846
775.01	23.913
775.32	20.896
775.63	17.355
775.94	21.053
776.25	23.571
776.56	27.049
776.87	31.858
777.18	23.009
777.48	5.455
777.79	31.304
778.10	20.183
778.41	19.492
778.72	19.008
779.03	23.134
779.34	26.316
779.65	20.261
779.95	19.565
780.26	19.048
780.57	18.966
780.88	18.519
781.19	13.131
781.50	13.600
781.80	20.915
782.11	24.359
782.42	22.892
782.73	15.328
783.04	20.270
783.34	27.273
783.65	24.806
783.96	28.455
784.27	21.368
784.57	20.325
784.88	12.195
785.19	21.053
785.50	6.186
785.81	13.333
786.11	9.804
786.42	23.636
786.73	28.829
787.04	25.743
787.34	19.048
787.65	7.619
787.96	7.843
788.26	14.414
788.57	28.226
788.88	19.531
789.19	17.094
789.49	15.126
789.80	17.949
790.11	30.088
790.41	20.202
790.72	22.642
791.03	12.500
791.33	5.263
791.64	20.430
791.95	9.333
792.25	15.714
792.56	14.634
792.87	21.429
793.17	2.632
793.48	-1.351
793.79	1.408
794.09	15.190
794.40	23.404
794.70	20.561
795.01	14.035
795.32	12.727
795.62	21.429
795.93	9.278
796.23	13.187
796.54	14.737
796.85	6.849
797.15	5.556
797.46	19.178
797.76	15.493
798.07	11.250
798.37	-1.471
798.68	7.143
798.99	24.286
799.29	25.000
799.60	28.333
799.90	-8.333
800.21	9.375
800.51	15.873
800.82	8.197
801.12	1.754
801.43	4.225
801.73	0.000
802.04	19.672
802.34	16.364
802.65	-9.615
802.95	11.111
803.26	-22.500
803.56	23.077
803.87	-13.158
804.17	16.129
804.48	12.308
804.78	-17.949
805.09	11.628
805.39	-37.500
805.70	11.321
806.00	31.579
806.30	12.162
806.61	19.118
806.91	16.049
807.22	17.333
807.52	16.418
807.83	11.290
808.13	7.937
808.43	0.000
808.74	7.576
809.04	-5.660
809.35	8.219
809.65	29.825
809.95	0.000
810.26	11.765
810.56	-10.000
810.86	2.041
811.17	-2.857
811.47	9.615
811.77	-9.677
812.08	-23.684
812.38	16.667
812.69	17.391
812.99	-29.032
813.29	-9.524
813.59	-70.370
813.90	-8.511
814.20	-25.581
814.50	31.250
814.81	-20.000
815.11	-24.390
815.41	-50.000
815.72	0.000
816.02	0.000
816.32	23.077
816.62	0.000
816.93	-38.235
817.23	-2.174
817.53	29.412
817.84	0.000
818.14	-34.375
818.44	-55.172
818.74	-45.161
819.04	-7.407
819.35	-13.333
819.65	-4.000
819.95	6.667
820.25	0.000
820.56	7.895
820.86	-30.000
821.16	12.766
821.46	-3.448
821.76	-5.128
822.07	-10.000
822.37	-16.279
822.67	-53.333
822.97	2.703
823.27	2.703
823.57	16.000
823.88	-2.703
824.18	-57.143
824.48	-30.769
824.78	-176.923
825.08	-43.478
825.38	-33.333
825.69	-50.000
825.99	-95.000
826.29	-32.432
826.59	-11.765
826.89	-4.000
827.19	-25.714
827.49	23.684
827.79	-9.375
828.09	-43.333
828.39	-39.130
828.70	-41.379
829.00	-65.517
829.30	-16.667
829.60	9.375
829.90	5.556
830.20	-50.000
830.50	-52.381
830.80	-17.857
831.10	7.692
831.40	-19.048
831.70	-2.941
832.00	8.333
832.30	-78.947
832.60	-12.500
832.90	-175.000
833.20	-94.118
833.50	-40.000
833.80	-20.000
834.10	-60.000
834.40	-54.167
834.70	16.667
835.00	11.538
835.30	-91.667
835.60	3.448
835.90	-72.222
836.20	-100.000
836.50	-125.000
836.80	-11.429
837.10	37.143
837.40	-23.529
837.70	-100.000
838.00	-12.500
838.30	-43.750
838.60	-28.571
838.90	-25.000
839.19	-60.870
839.49	-4.348
839.79	-33.333
840.09	-52.174
840.39	-22.727
840.69	-81.250
840.99	15.789
841.29	-93.750
841.59	-85.714
841.88	-61.111
842.18	37.500
842.48	-58.824
842.78	-13.793
843.08	-71.429
843.38	-76.923
843.68	-233.333
843.97	-130.769
844.27	-90.909
844.57	-180.000
844.87	4.000
845.17	-160.000
845.47	-85.714
845.76	-177.778
846.06	0.000
846.36	-375.000
846.66	-150.000
846.96	-36.842
847.25	-25.000
847.55	-83.333
847.85	-86.667
848.15	-170.000
848.44	42.308
848.74	-10.526
849.04	266.667
849.34	-166.667
849.63	-73.684
849.93	0.000
850.23	-55.000
850.53	-14.286
850.82	-44.000
851.12	21.053
851.42	-550.000
851.71	-64.286
852.01	-116.667
852.31	-70.588
852.61	-13.333
852.90	-42.857
853.20	-150.000
853.50	-83.333
853.79	-26.316
854.09	-106.667
854.39	-25.000
854.68	-26.087
854.98	-225.000
855.28	-51.724
855.57	-62.500
855.87	-25.000
856.17	-80.000
856.46	-34.483
856.76	-40.000
857.05	-52.941
857.35	-207.692
857.65	-72.727
857.94	-18.519
858.24	-78.571
858.53	-64.286
858.83	-100.000
859.13	-222.222
859.42	28.571
859.72	-175.000
860.01	-366.667
860.31	-137.500
860.60	-240.000
860.90	-188.889
861.20	-112.500
861.49	-242.857
861.79	-70.588
862.08	-700.000
862.38	-100.000
862.67	-100.000
862.97	-52.941
863.26	30.000
863.56	-52.941
863.85	433.333
864.15	-100.000
864.44	-138.462
864.74	-35.000
865.03	-250.000
865.33	-133.333
865.62	-117.647
865.92	-450.000
866.21	-92.857
866.51	-133.333
866.80	500.000
867.10	-533.333
867.39	-29.412
867.69	8.696
867.98	-114.286
868.27	-200.000
868.57	-112.500
868.86	-218.182
869.16	-76.471
869.45	-283.333
869.75	-142.857
870.04	1200.000
870.33	-83.333
870.63	-120.000
870.92	-144.444
871.22	25.000
871.51	-54.545
871.80	-75.000
872.10	-50.000
>>>>>End Processed Spectral Data<<<<<
