SpectraSuite Data File
++++++++++++++++++++++++++++++++++++
Date: Sat May 16 11:09:51 PDT 2015
User: schluterlab
Dark Spectrum Present: Yes
Reference Spectrum Present: Yes
Number of Sampled Component Spectra: 1
Spectrometers: USB2E3373
Integration Time (usec): 3000 (USB2E3373)
Spectra Averaged: 3 (USB2E3373)
Boxcar Smoothing: 0 (USB2E3373)
Correct for Electrical Dark: No (USB2E3373)
Strobe/Lamp Enabled: No (USB2E3373)
Correct for Detector Non-linearity: No (USB2E3373)
Correct for Stray Light: No (USB2E3373)
Number of Pixels in Processed Spectrum: 2048
>>>>>Begin Processed Spectral Data<<<<<
178.53	0.000
178.91	33.333
179.29	-133.333
179.67	100.000
180.04	-76.923
180.42	800.000
180.80	50.000
181.18	125.000
181.56	-25.000
181.94	200.000
182.31	175.000
182.69	46.154
183.07	33.333
183.45	1200.000
183.83	133.333
184.20	42.857
184.58	0.000
184.96	-150.000
185.34	37.500
185.72	-225.000
186.09	50.000
186.47	-87.500
186.85	-50.000
187.23	212.500
187.61	-100.000
187.98	-237.500
188.36	12.500
188.74	62.500
189.12	-500.000
189.49	100.000
189.87	58.333
190.25	-25.000
190.63	-64.286
191.00	-111.111
191.38	180.000
191.76	40.000
192.14	220.000
192.51	80.000
192.89	-366.667
193.27	0.000
193.65	-44.444
194.02	-14.286
194.40	100.000
194.78	0.000
195.15	200.000
195.53	-72.727
195.91	-283.333
196.29	-20.000
196.66	-133.333
197.04	100.000
197.42	300.000
197.79	93.333
198.17	-33.333
198.55	100.000
198.92	-400.000
199.30	62.500
199.68	-150.000
200.05	-55.556
200.43	-122.222
200.81	400.000
201.18	33.333
201.56	-57.143
201.94	-20.000
202.31	72.727
202.69	160.000
203.07	-40.000
203.44	266.667
203.82	-166.667
204.19	100.000
204.57	50.000
204.95	-800.000
205.32	-6.250
205.70	400.000
206.08	-1300.000
206.45	-38.889
206.83	-700.000
207.20	450.000
207.58	-33.333
207.96	-300.000
208.33	50.000
208.71	-88.889
209.08	200.000
209.46	-100.000
209.84	200.000
210.21	0.000
210.59	50.000
210.96	700.000
211.34	-66.667
211.71	33.333
212.09	75.000
212.46	650.000
212.84	-800.000
213.22	100.000
213.59	75.000
213.97	88.889
214.34	70.000
214.72	10.000
215.09	0.000
215.47	0.000
215.84	-70.000
216.22	10.000
216.59	33.333
216.97	-225.000
217.34	500.000
217.72	71.429
218.09	-166.667
218.47	-14.286
218.84	114.286
219.22	128.571
219.59	0.000
219.97	28.571
220.34	275.000
220.72	162.500
221.09	46.154
221.47	0.000
221.84	133.333
222.22	-150.000
222.59	100.000
222.97	-212.500
223.34	-600.000
223.72	0.000
224.09	64.286
224.46	25.000
224.84	0.000
225.21	-28.571
225.59	-27.273
225.96	-37.500
226.34	-42.857
226.71	-166.667
227.08	30.000
227.46	500.000
227.83	-185.714
228.21	-150.000
228.58	250.000
228.95	18.750
229.33	-400.000
229.70	-80.000
230.08	-650.000
230.45	58.333
230.82	-133.333
231.20	-300.000
231.57	-300.000
231.95	-100.000
232.32	52.381
232.69	11.111
233.07	-185.714
233.44	-650.000
233.81	-86.667
234.19	-22.222
234.56	0.000
234.93	40.625
235.31	-128.571
235.68	-57.143
236.05	-29.412
236.43	-45.455
236.80	9.677
237.17	25.000
237.55	14.286
237.92	-86.364
238.29	14.286
238.67	26.471
239.04	8.333
239.41	-6.452
239.79	-7.692
240.16	-21.429
240.53	9.091
240.91	51.282
241.28	23.636
241.65	13.846
242.02	14.754
242.40	-16.393
242.77	30.303
243.14	10.169
243.51	4.286
243.89	15.190
244.26	10.112
244.63	17.895
245.00	12.632
245.38	13.559
245.75	13.274
246.12	8.000
246.49	6.299
246.87	7.317
247.24	5.932
247.61	5.932
247.98	15.493
248.36	6.294
248.73	12.658
249.10	6.369
249.47	9.357
249.84	14.205
250.22	1.190
250.59	10.734
250.96	9.948
251.33	13.744
251.70	7.212
252.08	7.109
252.45	2.844
252.82	13.333
253.19	10.638
253.56	4.839
253.94	10.970
254.31	8.155
254.68	10.569
255.05	9.274
255.42	11.508
255.79	6.093
256.16	6.275
256.54	14.706
256.91	6.818
257.28	10.256
257.65	8.511
258.02	12.893
258.39	8.361
258.76	8.108
259.14	7.407
259.51	11.148
259.88	9.146
260.25	9.317
260.62	8.360
260.99	8.309
261.36	10.671
261.73	9.827
262.10	11.667
262.47	7.407
262.85	12.286
263.22	9.742
263.59	7.385
263.96	8.116
264.33	10.027
264.70	6.630
265.07	9.615
265.44	10.594
265.81	8.269
266.18	8.608
266.55	9.804
266.92	12.091
267.29	10.654
267.66	5.926
268.03	13.043
268.40	10.798
268.77	8.675
269.14	8.121
269.51	10.345
269.88	7.110
270.25	9.790
270.62	7.551
270.99	9.910
271.36	9.324
271.73	8.296
272.10	9.840
272.47	7.778
272.84	10.000
273.21	11.468
273.58	7.033
273.95	7.675
274.32	9.955
274.69	10.941
275.06	10.634
275.43	7.143
275.80	10.183
276.17	9.623
276.54	10.794
276.91	8.642
277.28	9.128
277.65	9.711
278.02	9.395
278.39	9.430
278.76	9.562
279.13	10.277
279.50	10.139
279.87	8.879
280.23	10.526
280.60	6.759
280.97	6.602
281.34	8.511
281.71	10.192
282.08	8.468
282.45	6.925
282.82	10.271
283.19	9.091
283.56	11.905
283.92	10.424
284.29	8.178
284.66	8.633
285.03	9.804
285.40	9.779
285.77	9.825
286.14	8.484
286.51	8.881
286.87	9.619
287.24	10.410
287.61	9.587
287.98	9.012
288.35	9.091
288.72	5.603
289.08	5.932
289.45	7.744
289.82	5.017
290.19	9.195
290.56	7.934
290.93	8.903
291.29	7.618
291.66	7.407
292.03	8.791
292.40	8.133
292.77	8.540
293.13	7.642
293.50	9.212
293.87	7.515
294.24	8.899
294.60	7.727
294.97	9.560
295.34	6.667
295.71	7.738
296.08	5.991
296.44	8.298
296.81	8.262
297.18	7.887
297.55	8.616
297.91	8.647
298.28	8.082
298.65	8.368
299.02	8.824
299.38	8.289
299.75	7.065
300.12	7.436
300.48	8.824
300.85	6.946
301.22	7.115
301.59	8.453
301.95	9.320
302.32	6.128
302.69	7.466
303.05	7.326
303.42	7.125
303.79	6.340
304.15	8.412
304.52	9.102
304.89	8.737
305.25	8.181
305.62	7.638
305.99	10.718
306.35	7.547
306.72	8.200
307.09	9.989
307.45	8.400
307.82	8.045
308.19	8.613
308.55	8.606
308.92	7.948
309.29	8.324
309.65	9.862
310.02	8.207
310.38	8.432
310.75	8.811
311.12	8.988
311.48	9.812
311.85	7.312
312.22	9.887
312.58	11.190
312.95	8.767
313.31	10.789
313.68	10.050
314.05	11.177
314.41	8.954
314.78	10.589
315.14	10.958
315.51	10.740
315.87	12.778
316.24	11.953
316.61	12.188
316.97	11.244
317.34	11.657
317.70	10.946
318.07	11.567
318.43	12.360
318.80	13.991
319.16	10.882
319.53	12.312
319.89	13.076
320.26	13.431
320.62	12.404
320.99	14.030
321.35	11.133
321.72	12.692
322.08	14.243
322.45	13.960
322.81	16.138
323.18	16.715
323.54	14.787
323.91	15.663
324.27	15.399
324.64	16.362
325.00	17.016
325.37	17.466
325.73	17.673
326.10	15.500
326.46	16.900
326.83	17.702
327.19	17.181
327.56	18.739
327.92	18.692
328.29	19.307
328.65	17.909
329.01	19.700
329.38	18.466
329.74	20.330
330.11	19.674
330.47	19.619
330.84	20.898
331.20	20.036
331.56	20.784
331.93	21.048
332.29	21.553
332.66	19.842
333.02	20.905
333.38	21.595
333.75	21.104
334.11	22.311
334.48	21.094
334.84	22.047
335.20	21.454
335.57	21.661
335.93	21.576
336.29	21.346
336.66	20.529
337.02	21.982
337.38	21.390
337.75	22.037
338.11	21.735
338.47	21.352
338.84	22.777
339.20	21.002
339.56	22.282
339.93	22.046
340.29	22.409
340.65	20.542
341.02	21.501
341.38	22.578
341.74	22.777
342.11	20.734
342.47	20.601
342.83	20.655
343.20	21.947
343.56	20.490
343.92	21.202
344.28	22.456
344.65	21.617
345.01	21.513
345.37	21.927
345.73	19.640
346.10	20.523
346.46	20.796
346.82	20.850
347.19	21.528
347.55	21.589
347.91	20.630
348.27	20.207
348.63	21.082
349.00	21.559
349.36	18.813
349.72	21.497
350.08	21.171
350.45	19.858
350.81	21.656
351.17	20.900
351.53	19.252
351.89	20.695
352.26	21.163
352.62	21.813
352.98	20.016
353.34	20.943
353.70	20.309
354.07	21.243
354.43	20.158
354.79	20.285
355.15	20.767
355.51	19.922
355.87	19.842
356.24	19.619
356.60	21.031
356.96	21.555
357.32	21.061
357.68	19.387
358.04	20.015
358.40	19.799
358.77	19.938
359.13	20.888
359.49	20.257
359.85	20.732
360.21	20.091
360.57	21.310
360.93	20.593
361.29	21.001
361.66	19.284
362.02	19.231
362.38	20.836
362.74	20.513
363.10	19.297
363.46	21.154
363.82	20.408
364.18	19.030
364.54	20.801
364.90	20.266
365.26	20.114
365.62	20.741
365.98	20.839
366.35	20.352
366.71	20.366
367.07	19.972
367.43	21.620
367.79	20.344
368.15	19.559
368.51	20.350
368.87	20.879
369.23	20.632
369.59	20.000
369.95	20.155
370.31	21.097
370.67	19.740
371.03	20.408
371.39	19.731
371.75	20.959
372.11	19.943
372.47	18.583
372.83	20.584
373.19	20.214
373.55	20.549
373.91	19.701
374.27	19.576
374.63	19.876
374.99	20.584
375.35	19.381
375.71	20.662
376.07	20.055
376.42	19.338
376.78	20.196
377.14	20.407
377.50	20.438
377.86	20.351
378.22	19.347
378.58	19.951
378.94	19.236
379.30	19.500
379.66	19.794
380.02	20.380
380.38	19.396
380.74	19.695
381.09	20.035
381.45	19.690
381.81	19.722
382.17	19.925
382.53	20.122
382.89	19.258
383.25	19.928
383.61	19.222
383.97	19.535
384.32	20.025
384.68	20.073
385.04	19.867
385.40	19.659
385.76	18.902
386.12	19.425
386.48	19.307
386.83	18.957
387.19	19.725
387.55	19.261
387.91	19.146
388.27	18.335
388.62	19.531
388.98	19.200
389.34	19.339
389.70	18.879
390.06	18.769
390.42	19.038
390.77	18.927
391.13	19.689
391.49	19.276
391.85	19.389
392.20	18.993
392.56	18.021
392.92	18.540
393.28	19.116
393.64	19.002
393.99	19.446
394.35	18.735
394.71	18.962
395.07	19.083
395.42	18.296
395.78	17.788
396.14	18.380
396.50	18.349
396.85	18.507
397.21	18.712
397.57	19.149
397.92	18.735
398.28	18.722
398.64	18.203
399.00	19.326
399.35	18.320
399.71	18.699
400.07	18.030
400.42	19.039
400.78	17.293
401.14	18.383
401.49	17.983
401.85	18.243
402.21	18.594
402.57	18.022
402.92	19.257
403.28	18.260
403.63	17.376
403.99	19.080
404.35	18.176
404.70	17.086
405.06	18.916
405.42	17.036
405.77	17.647
406.13	17.149
406.49	17.975
406.84	17.876
407.20	18.080
407.55	17.416
407.91	17.034
408.27	18.076
408.62	17.980
408.98	18.253
409.34	17.855
409.69	18.084
410.05	17.162
410.40	18.026
410.76	17.902
411.11	17.706
411.47	17.519
411.83	18.399
412.18	16.955
412.54	16.901
412.89	18.104
413.25	17.237
413.60	16.343
413.96	16.636
414.31	18.226
414.67	17.270
415.03	16.753
415.38	17.437
415.74	17.655
416.09	17.136
416.45	17.196
416.80	17.620
417.16	16.678
417.51	17.925
417.87	17.152
418.22	17.383
418.58	17.202
418.93	17.964
419.29	17.189
419.64	16.269
420.00	17.193
420.35	17.327
420.71	17.287
421.06	18.402
421.42	15.925
421.77	17.588
422.12	17.292
422.48	17.157
422.83	18.451
423.19	17.316
423.54	17.233
423.90	17.235
424.25	17.138
424.61	17.973
424.96	18.081
425.31	17.719
425.67	17.650
426.02	16.581
426.38	17.665
426.73	18.235
427.09	17.892
427.44	18.011
427.79	17.674
428.15	18.013
428.50	18.768
428.85	18.046
429.21	17.986
429.56	18.750
429.92	18.236
430.27	18.146
430.62	19.070
430.98	17.825
431.33	18.837
431.68	18.660
432.04	19.138
432.39	18.632
432.74	18.345
433.10	18.739
433.45	18.135
433.80	19.037
434.16	17.947
434.51	18.795
434.86	19.039
435.22	18.875
435.57	18.605
435.92	18.757
436.28	18.754
436.63	18.824
436.98	17.927
437.34	19.256
437.69	18.670
438.04	18.378
438.39	20.096
438.75	19.092
439.10	19.434
439.45	18.588
439.81	18.855
440.16	18.399
440.51	19.294
440.86	18.566
441.22	19.071
441.57	18.684
441.92	19.028
442.27	19.751
442.63	19.152
442.98	18.849
443.33	20.319
443.68	18.812
444.03	19.401
444.39	19.873
444.74	19.934
445.09	20.011
445.44	20.653
445.79	19.990
446.15	19.715
446.50	19.760
446.85	20.215
447.20	20.582
447.55	20.166
447.91	20.438
448.26	19.497
448.61	19.864
448.96	20.896
449.31	20.237
449.66	20.321
450.02	20.277
450.37	19.884
450.72	20.452
451.07	21.182
451.42	19.455
451.77	20.646
452.12	19.785
452.47	20.655
452.83	20.443
453.18	21.126
453.53	21.020
453.88	21.232
454.23	20.617
454.58	21.007
454.93	21.537
455.28	21.160
455.63	20.885
455.98	21.446
456.34	20.076
456.69	21.451
457.04	21.205
457.39	20.514
457.74	21.382
458.09	20.418
458.44	21.651
458.79	20.179
459.14	21.848
459.49	20.426
459.84	21.079
460.19	20.167
460.54	20.327
460.89	20.516
461.24	20.765
461.59	22.157
461.94	21.324
462.29	20.488
462.64	21.212
462.99	21.754
463.34	21.742
463.69	20.929
464.04	20.504
464.39	21.087
464.74	20.922
465.09	20.084
465.44	21.545
465.79	20.643
466.14	21.001
466.49	21.359
466.84	21.068
467.19	21.197
467.54	21.456
467.89	22.441
468.24	20.428
468.59	21.174
468.94	22.058
469.29	21.053
469.64	21.226
469.99	22.485
470.34	22.111
470.68	22.093
471.03	21.886
471.38	21.528
471.73	20.839
472.08	21.620
472.43	22.008
472.78	21.333
473.13	21.140
473.48	21.634
473.83	21.092
474.17	21.656
474.52	22.251
474.87	21.212
475.22	21.475
475.57	21.056
475.92	21.166
476.27	21.086
476.61	20.732
476.96	21.185
477.31	21.690
477.66	21.527
478.01	21.826
478.36	20.639
478.70	21.997
479.05	21.958
479.40	21.399
479.75	21.203
480.10	20.784
480.45	20.261
480.79	20.928
481.14	20.773
481.49	21.297
481.84	20.897
482.19	21.106
482.53	21.117
482.88	21.310
483.23	21.502
483.58	21.462
483.92	21.739
484.27	20.735
484.62	21.425
484.97	21.278
485.31	20.096
485.66	20.014
486.01	19.265
486.36	19.701
486.70	19.947
487.05	20.141
487.40	19.925
487.75	20.129
488.09	19.796
488.44	20.704
488.79	21.047
489.13	21.567
489.48	21.166
489.83	21.572
490.17	21.593
490.52	21.784
490.87	21.478
491.22	21.018
491.56	21.620
491.91	21.660
492.26	21.509
492.60	21.361
492.95	21.323
493.30	21.582
493.64	21.345
493.99	21.367
494.34	20.762
494.68	22.425
495.03	21.558
495.37	21.190
495.72	21.316
496.07	21.445
496.41	21.769
496.76	21.507
497.11	21.809
497.45	22.270
497.80	22.511
498.14	21.562
498.49	21.246
498.84	20.971
499.18	21.540
499.53	22.163
499.87	21.380
500.22	21.569
500.56	21.811
500.91	21.970
501.26	21.689
501.60	20.992
501.95	22.029
502.29	21.682
502.64	21.782
502.98	21.131
503.33	21.992
503.67	21.552
504.02	22.018
504.36	22.402
504.71	21.023
505.06	21.368
505.40	22.505
505.75	21.341
506.09	21.941
506.44	21.353
506.78	22.228
507.13	21.627
507.47	22.483
507.82	22.148
508.16	21.917
508.51	21.278
508.85	22.774
509.19	21.559
509.54	22.252
509.88	22.074
510.23	22.222
510.57	23.175
510.92	23.308
511.26	21.850
511.61	21.868
511.95	22.144
512.30	21.605
512.64	21.814
512.98	22.442
513.33	22.350
513.67	23.395
514.02	23.043
514.36	22.825
514.70	22.411
515.05	22.699
515.39	22.664
515.74	23.677
516.08	22.767
516.42	23.173
516.77	23.917
517.11	23.741
517.46	23.325
517.80	23.887
518.14	22.886
518.49	22.773
518.83	23.086
519.17	23.683
519.52	23.713
519.86	24.194
520.20	23.044
520.55	24.000
520.89	23.607
521.23	23.993
521.58	24.138
521.92	23.686
522.26	23.302
522.61	23.447
522.95	22.527
523.29	23.574
523.64	23.548
523.98	23.870
524.32	24.450
524.66	23.106
525.01	23.828
525.35	23.389
525.69	24.528
526.04	24.413
526.38	24.443
526.72	24.649
527.06	24.414
527.41	23.762
527.75	21.914
528.09	24.024
528.43	24.918
528.78	23.869
529.12	25.160
529.46	24.162
529.80	24.403
530.15	24.598
530.49	24.515
530.83	25.606
531.17	24.579
531.51	24.715
531.86	24.358
532.20	24.022
532.54	24.532
532.88	24.769
533.22	24.733
533.57	23.172
533.91	23.720
534.25	23.696
534.59	22.986
534.93	23.522
535.27	23.663
535.62	24.361
535.96	24.434
536.30	22.775
536.64	24.170
536.98	23.658
537.32	23.635
537.66	23.693
538.01	24.055
538.35	24.595
538.69	23.730
539.03	23.629
539.37	24.884
539.71	23.682
540.05	23.509
540.39	24.169
540.73	24.948
541.07	23.839
541.42	23.565
541.76	22.724
542.10	24.848
542.44	24.250
542.78	24.220
543.12	24.440
543.46	22.877
543.80	23.211
544.14	22.901
544.48	23.556
544.82	23.884
545.16	23.474
545.50	22.140
545.84	23.574
546.18	23.856
546.52	24.751
546.86	22.934
547.20	24.613
547.54	23.623
547.88	22.893
548.22	21.625
548.56	23.046
548.90	23.989
549.24	23.266
549.58	24.277
549.92	23.463
550.26	25.795
550.60	24.395
550.94	23.869
551.28	24.605
551.62	23.929
551.96	24.964
552.30	23.484
552.64	23.716
552.98	24.527
553.32	23.088
553.66	23.937
554.00	23.596
554.34	23.321
554.68	22.880
555.02	25.181
555.36	23.364
555.69	24.284
556.03	23.228
556.37	23.826
556.71	24.123
557.05	24.021
557.39	23.385
557.73	24.216
558.07	24.491
558.41	23.710
558.75	24.867
559.08	23.191
559.42	24.349
559.76	23.926
560.10	24.385
560.44	23.916
560.78	24.495
561.12	23.464
561.45	23.904
561.79	23.136
562.13	23.492
562.47	23.880
562.81	23.621
563.15	23.163
563.48	24.395
563.82	23.191
564.16	23.529
564.50	23.656
564.84	23.942
565.17	24.204
565.51	23.272
565.85	23.259
566.19	24.374
566.52	22.570
566.86	23.072
567.20	24.274
567.54	23.745
567.88	23.116
568.21	22.371
568.55	22.800
568.89	22.266
569.23	21.703
569.56	21.606
569.90	21.518
570.24	21.233
570.57	20.668
570.91	20.809
571.25	21.271
571.59	20.356
571.92	20.238
572.26	20.521
572.60	20.478
572.93	20.626
573.27	20.274
573.61	19.931
573.95	20.543
574.28	19.498
574.62	20.336
574.96	20.015
575.29	20.122
575.63	20.388
575.97	19.768
576.30	20.225
576.64	20.052
576.98	19.756
577.31	19.642
577.65	19.817
577.98	19.390
578.32	19.343
578.66	19.213
578.99	20.014
579.33	20.296
579.67	19.959
580.00	19.668
580.34	19.105
580.67	19.735
581.01	19.447
581.35	19.440
581.68	19.408
582.02	19.405
582.35	19.263
582.69	19.602
583.02	19.828
583.36	19.948
583.70	19.867
584.03	20.636
584.37	20.325
584.70	20.354
585.04	19.924
585.37	19.523
585.71	20.053
586.04	19.554
586.38	19.300
586.72	20.547
587.05	20.334
587.39	19.913
587.72	19.697
588.06	20.385
588.39	19.937
588.73	20.308
589.06	20.460
589.40	21.058
589.73	20.786
590.07	20.284
590.40	21.365
590.73	20.912
591.07	21.270
591.40	21.880
591.74	22.155
592.07	20.721
592.41	21.699
592.74	21.214
593.08	20.975
593.41	20.493
593.75	19.651
594.08	20.848
594.41	21.294
594.75	21.631
595.08	20.564
595.42	21.568
595.75	20.581
596.09	21.653
596.42	21.154
596.75	21.389
597.09	22.529
597.42	21.344
597.75	21.833
598.09	21.600
598.42	21.608
598.76	20.930
599.09	21.468
599.42	20.723
599.76	21.140
600.09	21.145
600.42	20.775
600.76	20.942
601.09	21.382
601.42	21.211
601.76	22.079
602.09	21.513
602.42	21.193
602.76	21.064
603.09	21.008
603.42	21.193
603.76	21.779
604.09	20.665
604.42	21.607
604.76	21.544
605.09	22.016
605.42	21.676
605.75	21.906
606.09	21.337
606.42	21.072
606.75	21.254
607.09	21.747
607.42	21.303
607.75	21.943
608.08	22.006
608.42	21.854
608.75	21.075
609.08	21.383
609.41	21.425
609.75	21.453
610.08	22.451
610.41	22.072
610.74	21.663
611.07	22.008
611.41	21.331
611.74	23.239
612.07	22.664
612.40	21.375
612.73	21.432
613.07	22.345
613.40	22.879
613.73	22.779
614.06	21.691
614.39	22.604
614.72	21.899
615.06	21.522
615.39	22.084
615.72	21.564
616.05	20.817
616.38	22.113
616.71	21.682
617.05	22.557
617.38	22.229
617.71	21.990
618.04	22.236
618.37	22.453
618.70	24.446
619.03	22.749
619.36	24.242
619.69	24.049
620.03	22.865
620.36	22.996
620.69	22.685
621.02	22.755
621.35	23.226
621.68	23.770
622.01	25.162
622.34	24.301
622.67	24.453
623.00	23.565
623.33	23.955
623.66	22.821
623.99	23.308
624.32	23.140
624.65	23.915
624.99	23.152
625.32	22.455
625.65	24.398
625.98	24.257
626.31	24.225
626.64	24.268
626.97	24.486
627.30	24.340
627.63	22.884
627.96	25.413
628.29	25.092
628.62	26.743
628.95	25.394
629.28	23.684
629.61	24.632
629.94	25.803
630.26	25.249
630.59	25.528
630.92	25.125
631.25	25.000
631.58	26.243
631.91	24.149
632.24	25.778
632.57	26.556
632.90	26.782
633.23	26.051
633.56	24.678
633.89	26.415
634.22	27.037
634.55	25.481
634.88	26.239
635.20	27.466
635.53	26.972
635.86	26.196
636.19	25.763
636.52	25.090
636.85	23.947
637.18	24.500
637.51	27.757
637.83	28.096
638.16	25.526
638.49	27.448
638.82	25.611
639.15	29.572
639.48	25.681
639.81	29.046
640.13	26.622
640.46	26.923
640.79	28.151
641.12	26.657
641.45	26.399
641.77	27.395
642.10	28.248
642.43	28.376
642.76	26.614
643.09	26.508
643.41	28.730
643.74	27.504
644.07	29.485
644.40	27.066
644.73	27.393
645.05	26.711
645.38	29.967
645.71	29.553
646.04	28.571
646.36	27.574
646.69	26.125
647.02	27.798
647.35	28.881
647.67	30.109
648.00	27.592
648.33	30.354
648.66	26.129
648.98	27.866
649.31	29.077
649.64	26.719
649.96	25.903
650.29	26.230
650.62	26.334
650.94	26.307
651.27	27.903
651.60	28.893
651.92	29.623
652.25	26.377
652.58	25.554
652.90	25.201
653.23	27.097
653.56	26.254
653.88	25.902
654.21	28.188
654.54	28.405
654.86	25.522
655.19	26.218
655.52	22.525
655.84	17.816
656.17	19.183
656.49	25.865
656.82	26.545
657.15	19.973
657.47	14.725
657.80	11.542
658.13	13.269
658.45	18.710
658.78	18.594
659.10	18.655
659.43	18.769
659.75	19.748
660.08	20.677
660.41	21.914
660.73	22.222
661.06	27.391
661.38	27.679
661.71	27.533
662.03	29.234
662.36	28.571
662.68	26.582
663.01	27.601
663.33	30.839
663.66	30.472
663.98	25.893
664.31	27.964
664.63	28.097
664.96	28.850
665.28	27.115
665.61	26.216
665.93	27.778
666.26	28.745
666.58	29.730
666.91	30.067
667.23	32.675
667.56	28.571
667.88	32.805
668.21	29.954
668.53	30.607
668.86	27.714
669.18	26.941
669.50	28.972
669.83	28.710
670.15	26.906
670.48	28.037
670.80	27.790
671.13	26.637
671.45	28.604
671.77	25.054
672.10	29.783
672.42	26.937
672.75	23.636
673.07	24.324
673.39	26.047
673.72	27.362
674.04	27.813
674.37	24.330
674.69	27.459
675.01	25.957
675.34	26.464
675.66	29.374
675.98	27.974
676.31	29.186
676.63	30.575
676.95	23.894
677.28	26.450
677.60	29.186
677.92	29.956
678.25	27.352
678.57	26.749
678.89	25.577
679.22	26.834
679.54	27.022
679.86	24.400
680.18	27.757
680.51	23.464
680.83	27.048
681.15	25.626
681.48	27.586
681.80	23.790
682.12	24.346
682.44	22.397
682.77	22.078
683.09	27.463
683.41	29.425
683.73	26.484
684.06	27.312
684.38	28.243
684.70	26.337
685.02	24.409
685.34	25.341
685.67	22.159
685.99	25.331
686.31	23.698
686.63	25.532
686.96	25.878
687.28	20.809
687.60	25.000
687.92	23.152
688.24	23.425
688.56	24.449
688.89	24.145
689.21	24.508
689.53	27.816
689.85	24.053
690.17	24.215
690.49	26.097
690.82	21.446
691.14	25.000
691.46	24.390
691.78	25.551
692.10	23.093
692.42	24.889
692.74	26.180
693.06	26.292
693.39	24.609
693.71	28.217
694.03	26.782
694.35	23.702
694.67	27.423
694.99	23.529
695.31	25.510
695.63	25.000
695.95	28.040
696.27	28.678
696.59	26.203
696.91	25.843
697.23	26.562
697.56	22.837
697.88	22.973
698.20	24.197
698.52	24.664
698.84	28.398
699.16	23.810
699.48	20.750
699.80	25.063
700.12	27.960
700.44	22.346
700.76	22.449
701.08	25.581
701.40	22.356
701.72	28.395
702.04	27.244
702.36	29.217
702.68	24.251
703.00	24.638
703.32	20.630
703.64	29.706
703.96	26.744
704.28	21.893
704.60	23.734
704.91	23.492
705.23	23.948
705.55	21.959
705.87	27.304
706.19	22.222
706.51	26.736
706.83	25.902
707.15	26.115
707.47	26.722
707.79	23.969
708.11	21.120
708.43	28.928
708.74	22.338
709.06	22.841
709.38	20.690
709.70	26.250
710.02	28.221
710.34	23.762
710.66	24.762
710.98	26.814
711.29	21.613
711.61	22.364
711.93	21.639
712.25	29.900
712.57	25.087
712.89	27.698
713.20	27.835
713.52	22.761
713.84	22.064
714.16	25.902
714.48	23.175
714.80	29.231
715.11	21.902
715.43	25.904
715.75	28.349
716.07	20.000
716.39	25.418
716.70	24.042
717.02	27.778
717.34	29.008
717.66	28.631
717.97	20.902
718.29	20.168
718.61	30.556
718.93	26.523
719.24	20.221
719.56	21.132
719.88	24.000
720.20	23.596
720.51	27.068
720.83	25.703
721.15	25.820
721.46	24.706
721.78	22.989
722.10	24.400
722.42	23.554
722.73	23.904
723.05	28.916
723.37	34.118
723.68	26.721
724.00	28.862
724.32	24.280
724.63	23.237
724.95	30.579
725.27	21.491
725.58	22.414
725.90	22.222
726.22	26.937
726.53	26.996
726.85	16.471
727.16	25.188
727.48	21.923
727.80	24.180
728.11	22.269
728.43	21.488
728.74	24.219
729.06	25.379
729.38	23.346
729.69	24.803
730.01	20.472
730.32	21.912
730.64	21.978
730.96	21.269
731.27	22.500
731.59	22.186
731.90	19.939
732.22	22.699
732.53	21.523
732.85	21.141
733.16	20.290
733.48	18.467
733.80	20.285
734.11	21.379
734.43	20.748
734.74	21.958
735.06	21.003
735.37	21.101
735.69	20.645
736.00	20.202
736.32	20.530
736.63	17.931
736.95	22.101
737.26	19.868
737.58	17.986
737.89	24.373
738.21	13.534
738.52	23.846
738.83	21.875
739.15	25.641
739.46	24.597
739.78	23.427
740.09	20.280
740.41	20.280
740.72	26.642
741.04	21.429
741.35	15.152
741.66	22.685
741.98	19.048
742.29	24.883
742.61	26.203
742.92	30.841
743.23	19.737
743.55	23.874
743.86	25.333
744.18	20.952
744.49	28.079
744.80	24.365
745.12	24.742
745.43	30.151
745.74	22.330
746.06	22.927
746.37	29.075
746.68	30.348
747.00	20.942
747.31	21.635
747.62	24.885
747.94	19.651
748.25	22.326
748.56	26.190
748.88	22.283
749.19	23.005
749.50	29.412
749.82	24.000
750.13	27.313
750.44	20.732
750.75	22.800
751.07	22.500
751.38	19.926
751.69	20.992
752.01	20.769
752.32	16.732
752.63	18.462
752.94	23.413
753.26	21.739
753.57	22.321
753.88	22.414
754.19	17.012
754.51	23.438
754.82	21.739
755.13	25.103
755.44	14.876
755.75	17.695
756.07	16.466
756.38	16.406
756.69	22.383
757.00	20.557
757.31	18.792
757.63	20.872
757.94	17.919
758.25	17.733
758.56	23.181
758.87	18.750
759.18	17.667
759.50	20.996
759.81	16.058
760.12	11.149
760.43	20.712
760.74	18.750
761.05	20.225
761.36	15.269
761.67	20.414
761.99	15.161
762.30	22.101
762.61	24.151
762.92	15.695
763.23	23.697
763.54	22.667
763.85	21.519
764.16	20.408
764.47	23.305
764.78	21.723
765.10	23.381
765.41	20.000
765.72	21.698
766.03	15.548
766.34	19.925
766.65	19.028
766.96	20.500
767.27	18.229
767.58	21.512
767.89	21.935
768.20	31.902
768.51	20.765
768.82	17.297
769.13	19.500
769.44	17.544
769.75	22.078
770.06	19.266
770.37	21.127
770.68	19.271
770.99	19.307
771.30	19.417
771.61	18.056
771.92	20.779
772.23	18.692
772.54	17.021
772.85	13.609
773.16	34.146
773.47	32.530
773.78	25.824
774.09	14.000
774.39	23.457
774.70	17.450
775.01	13.768
775.32	23.134
775.63	12.397
775.94	21.053
776.25	16.429
776.56	18.852
776.87	26.549
777.18	24.779
777.48	15.455
777.79	15.652
778.10	27.523
778.41	20.339
778.72	14.876
779.03	26.119
779.34	13.534
779.65	21.569
779.95	16.667
780.26	20.408
780.57	14.655
780.88	20.370
781.19	11.111
781.50	9.600
781.80	16.993
782.11	14.103
782.42	13.855
782.73	10.949
783.04	19.595
783.34	24.242
783.65	20.930
783.96	15.447
784.27	18.803
784.57	19.512
784.88	10.569
785.19	19.298
785.50	0.000
785.81	23.810
786.11	11.765
786.42	20.909
786.73	24.324
787.04	32.673
787.34	14.286
787.65	19.048
787.96	17.647
788.26	26.126
788.57	20.161
788.88	21.094
789.19	17.094
789.49	17.647
789.80	17.949
790.11	26.549
790.41	16.162
790.72	30.189
791.03	22.222
791.33	19.737
791.64	26.882
791.95	24.000
792.25	12.857
792.56	7.317
792.87	23.469
793.17	26.316
793.48	12.162
793.79	12.676
794.09	24.051
794.40	24.468
794.70	17.757
795.01	8.772
795.32	17.273
795.62	13.393
795.93	17.526
796.23	10.989
796.54	25.263
796.85	-2.740
797.15	11.111
797.46	31.507
797.76	18.310
798.07	23.750
798.37	17.647
798.68	25.714
798.99	17.143
799.29	32.895
799.60	41.667
799.90	6.944
800.21	7.812
800.51	17.460
800.82	21.311
801.12	8.772
801.43	8.451
801.73	13.559
802.04	26.230
802.34	18.182
802.65	26.923
802.95	24.074
803.26	2.500
803.56	9.615
803.87	23.684
804.17	0.000
804.48	13.846
804.78	7.692
805.09	6.977
805.39	-6.250
805.70	-11.321
806.00	31.579
806.30	18.919
806.61	8.824
806.91	23.457
807.22	20.000
807.52	11.940
807.83	3.226
808.13	15.873
808.43	18.182
808.74	24.242
809.04	15.094
809.35	10.959
809.65	24.561
809.95	5.882
810.26	21.569
810.56	-6.000
810.86	28.571
811.17	5.714
811.47	26.923
811.77	29.032
812.08	0.000
812.38	35.714
812.69	8.696
812.99	-6.452
813.29	19.048
813.59	-18.519
813.90	0.000
814.20	6.977
814.50	6.250
814.81	13.333
815.11	24.390
815.41	16.667
815.72	31.429
816.02	27.778
816.32	35.897
816.62	10.811
816.93	-5.882
817.23	17.391
817.53	2.941
817.84	35.294
818.14	12.500
818.44	-20.690
818.74	6.452
819.04	-25.926
819.35	-20.000
819.65	12.000
819.95	16.667
820.25	28.000
820.56	-2.632
820.86	30.000
821.16	2.128
821.46	27.586
821.76	-7.692
822.07	-2.500
822.37	44.186
822.67	-30.000
822.97	-16.216
823.27	18.919
823.57	32.000
823.88	24.324
824.18	-61.905
824.48	80.769
824.78	-30.769
825.08	8.696
825.38	-25.000
825.69	-4.167
825.99	-15.000
826.29	-5.405
826.59	14.706
826.89	72.000
827.19	-8.571
827.49	5.263
827.79	3.125
828.09	0.000
828.39	-8.696
828.70	-27.586
829.00	37.931
829.30	19.444
829.60	40.625
829.90	77.778
830.20	3.846
830.50	-42.857
830.80	-3.571
831.10	53.846
831.40	9.524
831.70	-2.941
832.00	-12.500
832.30	-42.105
832.60	18.750
832.90	58.333
833.20	-17.647
833.50	-106.667
833.80	6.667
834.10	20.000
834.40	12.500
834.70	0.000
835.00	11.538
835.30	-16.667
835.60	34.483
835.90	0.000
836.20	0.000
836.50	-25.000
836.80	11.429
837.10	40.000
837.40	-5.882
837.70	-27.273
838.00	20.833
838.30	12.500
838.60	38.095
838.90	35.000
839.19	-8.696
839.49	47.826
839.79	-33.333
840.09	-26.087
840.39	0.000
840.69	-37.500
840.99	31.579
841.29	6.250
841.59	42.857
841.88	-38.889
842.18	12.500
842.48	-17.647
842.78	41.379
843.08	21.429
843.38	30.769
843.68	-66.667
843.97	-38.462
844.27	45.455
844.57	-40.000
844.87	0.000
845.17	40.000
845.47	50.000
845.76	-55.556
846.06	0.000
846.36	-375.000
846.66	-20.000
846.96	47.368
847.25	0.000
847.55	-33.333
847.85	33.333
848.15	-20.000
848.44	69.231
848.74	42.105
849.04	500.000
849.34	-33.333
849.63	-52.632
849.93	0.000
850.23	-35.000
850.53	38.095
850.82	8.000
851.12	31.579
851.42	-350.000
851.71	14.286
852.01	8.333
852.31	47.059
852.61	6.667
852.90	-38.095
853.20	-166.667
853.50	5.556
853.79	0.000
854.09	-60.000
854.39	0.000
854.68	4.348
854.98	-91.667
855.28	37.931
855.57	6.250
855.87	0.000
856.17	-26.667
856.46	10.345
856.76	13.333
857.05	29.412
857.35	-53.846
857.65	-18.182
857.94	40.741
858.24	-92.857
858.53	0.000
858.83	-8.333
859.13	0.000
859.42	52.381
859.72	-25.000
860.01	0.000
860.31	50.000
860.60	-20.000
860.90	-100.000
861.20	37.500
861.49	14.286
861.79	17.647
862.08	-300.000
862.38	16.667
862.67	23.077
862.97	64.706
863.26	70.000
863.56	-23.529
863.85	266.667
864.15	-10.000
864.44	-15.385
864.74	50.000
865.03	-162.500
865.33	-150.000
865.62	-47.059
865.92	-225.000
866.21	7.143
866.51	-100.000
866.80	500.000
867.10	-100.000
867.39	111.765
867.69	4.348
867.98	-71.429
868.27	-180.000
868.57	-12.500
868.86	-81.818
869.16	29.412
869.45	33.333
869.75	-28.571
870.04	-200.000
870.33	16.667
870.63	-80.000
870.92	-22.222
871.22	0.000
871.51	45.455
871.80	33.333
872.10	40.000
>>>>>End Processed Spectral Data<<<<<
