SpectraSuite Data File
++++++++++++++++++++++++++++++++++++
Date: Sat May 16 11:08:14 PDT 2015
User: schluterlab
Dark Spectrum Present: Yes
Reference Spectrum Present: Yes
Number of Sampled Component Spectra: 1
Spectrometers: USB2E3373
Integration Time (usec): 3000 (USB2E3373)
Spectra Averaged: 3 (USB2E3373)
Boxcar Smoothing: 0 (USB2E3373)
Correct for Electrical Dark: No (USB2E3373)
Strobe/Lamp Enabled: No (USB2E3373)
Correct for Detector Non-linearity: No (USB2E3373)
Correct for Stray Light: No (USB2E3373)
Number of Pixels in Processed Spectrum: 2048
>>>>>Begin Processed Spectral Data<<<<<
178.53	0.000
178.91	33.333
179.29	-100.000
179.67	800.000
180.04	-7.692
180.42	-300.000
180.80	50.000
181.18	225.000
181.56	100.000
181.94	-300.000
182.31	275.000
182.69	0.000
183.07	-166.667
183.45	1150.000
183.83	-200.000
184.20	57.143
184.58	112.500
184.96	50.000
185.34	87.500
185.72	100.000
186.09	33.333
186.47	-37.500
186.85	25.000
187.23	62.500
187.61	175.000
187.98	-175.000
188.36	62.500
188.74	-112.500
189.12	700.000
189.49	142.857
189.87	33.333
190.25	-25.000
190.63	50.000
191.00	11.111
191.38	-0.000
191.76	66.667
192.14	280.000
192.51	-140.000
192.89	0.000
193.27	0.000
193.65	44.444
194.02	57.143
194.40	200.000
194.78	-20.000
195.15	600.000
195.53	0.000
195.91	-33.333
196.29	60.000
196.66	-233.333
197.04	-0.000
197.42	-25.000
197.79	66.667
198.17	200.000
198.55	-450.000
198.92	1300.000
199.30	-50.000
199.68	-250.000
200.05	-77.778
200.43	-11.111
200.81	0.000
201.18	50.000
201.56	114.286
201.94	33.333
202.31	68.182
202.69	140.000
203.07	80.000
203.44	333.333
203.82	-166.667
204.19	-175.000
204.57	75.000
204.95	-400.000
205.32	50.000
205.70	500.000
206.08	-100.000
206.45	33.333
206.83	-50.000
207.20	150.000
207.58	-466.667
207.96	-400.000
208.33	-37.500
208.71	-11.111
209.08	100.000
209.46	42.857
209.84	-50.000
210.21	0.000
210.59	70.000
210.96	300.000
211.34	-83.333
211.71	166.667
212.09	100.000
212.46	600.000
212.84	-200.000
213.22	200.000
213.59	33.333
213.97	44.444
214.34	70.000
214.72	-20.000
215.09	66.667
215.47	16.667
215.84	180.000
216.22	90.000
216.59	60.000
216.97	-225.000
217.34	450.000
217.72	14.286
218.09	-116.667
218.47	-42.857
218.84	100.000
219.22	-28.571
219.59	0.000
219.97	100.000
220.34	-25.000
220.72	112.500
221.09	-7.692
221.47	0.000
221.84	-333.333
222.22	-50.000
222.59	-100.000
222.97	100.000
223.34	-500.000
223.72	-166.667
224.09	7.143
224.46	-25.000
224.84	35.714
225.21	0.000
225.59	27.273
225.96	0.000
226.34	57.143
226.71	-33.333
227.08	65.000
227.46	400.000
227.83	-42.857
228.21	-25.000
228.58	-150.000
228.95	0.000
229.33	-100.000
229.70	0.000
230.08	-150.000
230.45	141.667
230.82	0.000
231.20	-600.000
231.57	-100.000
231.95	300.000
232.32	104.762
232.69	77.778
233.07	-128.571
233.44	50.000
233.81	-26.667
234.19	144.444
234.56	18.750
234.93	62.500
235.31	-142.857
235.68	-42.857
236.05	64.706
236.43	-22.727
236.80	41.935
237.17	12.500
237.55	61.905
237.92	31.818
238.29	62.857
238.67	47.059
239.04	38.889
239.41	41.935
239.79	10.256
240.16	23.810
240.53	27.273
240.91	79.487
241.28	41.818
241.65	53.846
242.02	55.738
242.40	31.148
242.77	31.818
243.14	50.847
243.51	32.857
243.89	46.835
244.26	35.955
244.63	46.316
245.00	43.158
245.38	40.678
245.75	37.168
246.12	40.000
246.49	48.031
246.87	31.707
247.24	35.593
247.61	36.441
247.98	36.620
248.36	43.357
248.73	39.873
249.10	41.401
249.47	48.538
249.84	41.477
250.22	33.929
250.59	46.893
250.96	51.309
251.33	42.180
251.70	36.538
252.08	41.232
252.45	41.706
252.82	45.714
253.19	41.702
253.56	39.113
253.94	37.553
254.31	42.060
254.68	43.089
255.05	42.742
255.42	47.222
255.79	37.276
256.16	48.627
256.54	39.706
256.91	41.288
257.28	41.758
257.65	44.326
258.02	46.855
258.39	43.478
258.76	41.892
259.14	42.284
259.51	46.230
259.88	39.939
260.25	42.857
260.62	45.981
260.99	37.982
261.36	43.293
261.73	41.908
262.10	44.722
262.47	42.450
262.85	44.000
263.22	41.261
263.59	45.846
263.96	41.739
264.33	43.360
264.70	45.856
265.07	47.527
265.44	41.085
265.81	42.377
266.18	39.241
266.55	42.402
266.92	46.348
267.29	41.646
267.66	46.420
268.03	45.652
268.40	43.897
268.77	46.265
269.14	42.459
269.51	43.678
269.88	41.055
270.25	42.191
270.62	42.792
270.99	41.667
271.36	46.154
271.73	42.601
272.10	43.478
272.47	39.333
272.84	40.667
273.21	46.330
273.58	46.374
273.95	42.544
274.32	43.891
274.69	47.484
275.06	43.763
275.43	46.875
275.80	45.825
276.17	45.397
276.54	42.159
276.91	44.650
277.28	41.785
277.65	43.182
278.02	46.138
278.39	41.847
278.76	43.426
279.13	44.071
279.50	41.750
279.87	48.626
280.23	45.749
280.60	40.954
280.97	41.942
281.34	43.327
281.71	41.731
282.08	44.556
282.45	42.974
282.82	43.023
283.19	42.182
283.56	41.575
283.92	43.463
284.29	41.264
284.66	38.669
285.03	41.889
285.40	42.066
285.77	42.456
286.14	42.599
286.51	42.806
286.87	41.379
287.24	41.468
287.61	41.983
287.98	39.515
288.35	38.347
288.72	40.917
289.08	39.322
289.45	38.384
289.82	35.813
290.19	38.916
290.56	37.190
290.93	36.407
291.29	40.032
291.66	37.198
292.03	37.677
292.40	38.102
292.77	37.888
293.13	35.447
293.50	37.593
293.87	36.963
294.24	36.048
294.60	34.091
294.97	35.357
295.34	34.519
295.71	33.631
296.08	35.177
296.44	33.476
296.81	34.900
297.18	34.930
297.55	35.028
297.91	35.983
298.28	34.247
298.65	33.473
299.02	34.626
299.38	33.289
299.75	34.375
300.12	32.308
300.48	33.120
300.85	31.586
301.22	32.471
301.59	32.250
301.95	33.249
302.32	31.812
302.69	31.089
303.05	33.211
303.42	31.375
303.79	30.502
304.15	31.161
304.52	30.222
304.89	32.349
305.25	31.868
305.62	29.260
305.99	32.155
306.35	29.967
306.72	29.385
307.09	31.215
307.45	30.420
307.82	30.391
308.19	31.096
308.55	28.867
308.92	29.753
309.29	30.703
309.65	28.314
310.02	30.778
310.38	28.757
310.75	28.074
311.12	29.959
311.48	29.332
311.85	29.145
312.22	29.145
312.58	29.095
312.95	27.625
313.31	28.372
313.68	29.648
314.05	28.882
314.41	28.471
314.78	27.173
315.14	28.529
315.51	27.052
315.87	28.558
316.24	27.697
316.61	29.079
316.97	29.851
317.34	28.902
317.70	27.737
318.07	28.172
318.43	27.903
318.80	29.014
319.16	27.674
319.53	27.444
319.89	27.093
320.26	27.941
320.62	27.308
320.99	26.965
321.35	26.207
321.72	27.124
322.08	28.388
322.45	26.337
322.81	28.626
323.18	27.858
323.54	27.819
323.91	27.896
324.27	28.517
324.64	27.605
325.00	26.963
325.37	28.688
325.73	27.997
326.10	25.421
326.46	26.708
326.83	25.702
327.19	26.439
327.56	27.683
327.92	28.377
328.29	27.619
328.65	25.000
329.01	26.767
329.38	26.405
329.74	28.205
330.11	26.111
330.47	26.975
330.84	27.864
331.20	26.625
331.56	25.433
331.93	26.643
332.29	26.484
332.66	26.076
333.02	26.244
333.38	26.613
333.75	27.159
334.11	26.044
334.48	26.214
334.84	25.372
335.20	26.064
335.57	25.181
335.93	26.679
336.29	25.686
336.66	26.608
337.02	26.486
337.38	25.312
337.75	26.076
338.11	26.118
338.47	26.601
338.84	26.044
339.20	25.659
339.56	26.738
339.93	25.926
340.29	26.484
340.65	25.262
341.02	26.223
341.38	25.442
341.74	25.656
342.11	25.000
342.47	24.979
342.83	26.029
343.20	24.936
343.56	24.082
343.92	25.793
344.28	26.409
344.65	25.660
345.01	25.378
345.37	25.748
345.73	24.223
346.10	24.203
346.46	25.183
346.82	24.379
347.19	24.569
347.55	24.238
347.91	25.748
348.27	24.582
348.63	25.121
349.00	25.219
349.36	24.122
349.72	25.478
350.08	25.180
350.45	23.877
350.81	25.080
351.17	24.839
351.53	24.503
351.89	24.495
352.26	24.419
352.62	25.730
352.98	24.367
353.34	25.020
353.70	23.784
354.07	25.964
354.43	24.901
354.79	24.168
355.15	24.042
355.51	23.516
355.87	24.032
356.24	23.590
356.60	25.302
356.96	24.634
357.32	23.436
357.68	23.831
358.04	24.095
358.40	23.357
358.77	24.575
359.13	24.407
359.49	24.112
359.85	23.704
360.21	24.810
360.57	24.849
360.93	24.222
361.29	24.141
361.66	22.866
362.02	22.855
362.38	24.285
362.74	23.516
363.10	23.099
363.46	23.219
363.82	24.052
364.18	23.227
364.54	25.018
364.90	23.480
365.26	23.395
365.62	23.664
365.98	24.395
366.35	23.380
366.71	22.340
367.07	23.571
367.43	24.502
367.79	23.093
368.15	23.186
368.51	24.336
368.87	24.038
369.23	24.702
369.59	24.167
369.95	23.326
370.31	24.684
370.67	22.487
371.03	23.834
371.39	22.631
371.75	24.106
372.11	23.745
372.47	24.078
372.83	23.644
373.19	24.000
373.55	25.123
373.91	24.040
374.27	23.203
374.63	23.533
374.99	23.366
375.35	23.553
375.71	24.240
376.07	23.477
376.42	22.384
376.78	23.725
377.14	24.271
377.50	23.404
377.86	23.537
378.22	23.869
378.58	23.780
378.94	23.181
379.30	23.583
379.66	23.679
380.02	22.519
380.38	23.505
380.74	22.509
381.09	24.077
381.45	23.031
381.81	23.593
382.17	23.434
382.53	22.614
382.89	23.266
383.25	23.540
383.61	24.057
383.97	23.393
384.32	23.780
384.68	23.700
385.04	23.792
385.40	22.398
385.76	23.780
386.12	23.111
386.48	23.453
386.83	22.883
387.19	23.730
387.55	23.259
387.91	23.237
388.27	21.894
388.62	23.317
388.98	23.016
389.34	23.439
389.70	23.143
390.06	23.493
390.42	22.756
390.77	23.091
391.13	24.037
391.49	23.830
391.85	24.314
392.20	22.633
392.56	22.908
392.92	23.674
393.28	23.708
393.64	24.775
393.99	24.246
394.35	23.844
394.71	22.792
395.07	23.980
395.42	22.706
395.78	23.570
396.14	24.486
396.50	23.425
396.85	23.936
397.21	23.329
397.57	23.587
397.92	24.239
398.28	24.167
398.64	23.855
399.00	23.933
399.35	23.844
399.71	23.519
400.07	24.657
400.42	24.331
400.78	24.091
401.14	23.413
401.49	23.172
401.85	23.551
402.21	23.302
402.57	23.847
402.92	23.285
403.28	23.468
403.63	23.607
403.99	23.369
404.35	22.403
404.70	24.517
405.06	23.760
405.42	23.370
405.77	23.303
406.13	22.658
406.49	23.487
406.84	23.995
407.20	23.969
407.55	23.369
407.91	21.956
408.27	23.407
408.62	23.752
408.98	23.469
409.34	23.583
409.69	23.251
410.05	22.923
410.40	22.931
410.76	23.711
411.11	23.753
411.47	23.082
411.83	23.166
412.18	23.391
412.54	23.978
412.89	23.390
413.25	22.845
413.60	23.815
413.96	23.167
414.31	23.486
414.67	23.365
415.03	23.803
415.38	23.097
415.74	24.162
416.09	23.274
416.45	22.950
416.80	22.952
417.16	23.056
417.51	23.244
417.87	23.236
418.22	22.693
418.58	23.492
418.93	24.034
419.29	23.651
419.64	23.367
420.00	23.755
420.35	23.655
420.71	23.289
421.06	23.254
421.42	22.482
421.77	23.674
422.12	24.119
422.48	22.982
422.83	23.292
423.19	22.717
423.54	23.343
423.90	22.846
424.25	22.568
424.61	24.065
424.96	24.225
425.31	23.589
425.67	24.183
426.02	23.580
426.38	23.412
426.73	23.086
427.09	24.142
427.44	23.466
427.79	22.326
428.15	23.519
428.50	23.343
428.85	23.321
429.21	23.298
429.56	22.969
429.92	23.397
430.27	23.579
430.62	22.832
430.98	23.732
431.33	23.799
431.68	23.753
432.04	23.111
432.39	24.444
432.74	22.662
433.10	23.185
433.45	22.971
433.80	23.068
434.16	23.697
434.51	24.274
434.86	23.902
435.22	23.886
435.57	23.256
435.92	23.329
436.28	22.611
436.63	23.177
436.98	22.222
437.34	23.213
437.69	22.929
438.04	23.426
438.39	23.887
438.75	22.817
439.10	23.987
439.45	23.295
439.81	24.277
440.16	23.282
440.51	24.471
440.86	24.754
441.22	23.438
441.57	24.211
441.92	23.427
442.27	22.890
442.63	24.410
442.98	23.646
443.33	24.053
443.68	23.762
444.03	24.214
444.39	23.789
444.74	24.615
445.09	23.355
445.44	24.423
445.79	23.661
446.15	23.768
446.50	23.027
446.85	23.602
447.20	23.238
447.55	23.923
447.91	24.088
448.26	23.575
448.61	23.826
448.96	23.866
449.31	23.901
449.66	24.156
450.02	23.712
450.37	23.652
450.72	23.107
451.07	24.576
451.42	24.102
451.77	24.596
452.12	23.182
452.47	24.748
452.83	24.461
453.18	24.668
453.53	23.943
453.88	24.641
454.23	23.398
454.58	24.052
454.93	24.118
455.28	23.646
455.63	23.771
455.98	24.458
456.34	23.126
456.69	24.265
457.04	24.155
457.39	23.864
457.74	24.749
458.09	24.420
458.44	24.942
458.79	23.935
459.14	24.415
459.49	24.452
459.84	24.058
460.19	24.224
460.54	24.501
460.89	24.776
461.24	24.347
461.59	23.447
461.94	24.443
462.29	23.764
462.64	24.374
462.99	24.632
463.34	23.093
463.69	23.919
464.04	23.433
464.39	24.014
464.74	24.173
465.09	23.933
465.44	23.801
465.79	24.027
466.14	24.108
466.49	24.122
466.84	24.190
467.19	24.688
467.54	23.608
467.89	24.229
468.24	24.584
468.59	24.610
468.94	24.180
469.29	23.717
469.64	24.596
469.99	24.781
470.34	24.248
470.68	25.654
471.03	24.432
471.38	24.514
471.73	25.245
472.08	23.494
472.43	24.003
472.78	24.200
473.13	23.194
473.48	24.697
473.83	24.318
474.17	23.758
474.52	25.512
474.87	24.942
475.22	24.484
475.57	24.444
475.92	24.028
476.27	23.829
476.61	24.732
476.96	23.812
477.31	24.381
477.66	24.128
478.01	24.905
478.36	24.201
478.70	25.040
479.05	24.283
479.40	25.596
479.75	24.006
480.10	24.454
480.45	23.211
480.79	23.741
481.14	24.486
481.49	25.218
481.84	24.595
482.19	24.897
482.53	25.047
482.88	24.252
483.23	23.897
483.58	24.607
483.92	24.606
484.27	24.413
484.62	23.369
484.97	23.850
485.31	24.128
485.66	24.163
486.01	23.989
486.36	24.475
486.70	24.158
487.05	24.106
487.40	24.199
487.75	24.761
488.09	24.027
488.44	23.816
488.79	24.301
489.13	24.458
489.48	24.837
489.83	23.974
490.17	24.728
490.52	25.317
490.87	24.896
491.22	23.354
491.56	24.630
491.91	25.143
492.26	24.387
492.60	24.310
492.95	24.893
493.30	25.060
493.64	23.554
493.99	25.048
494.34	25.000
494.68	24.860
495.03	24.904
495.37	24.090
495.72	25.295
496.07	25.246
496.41	24.595
496.76	25.114
497.11	24.541
497.45	24.761
497.80	25.413
498.14	24.804
498.49	24.510
498.84	24.612
499.18	24.756
499.53	25.767
499.87	24.421
500.22	25.049
500.56	25.013
500.91	24.384
501.26	24.988
501.60	24.699
501.95	26.135
502.29	25.177
502.64	25.837
502.98	24.581
503.33	25.235
503.67	25.000
504.02	25.254
504.36	25.490
504.71	25.785
505.06	24.114
505.40	26.397
505.75	25.051
506.09	25.430
506.44	26.165
506.78	25.740
507.13	24.768
507.47	24.987
507.82	25.194
508.16	25.751
508.51	25.039
508.85	25.569
509.19	25.327
509.54	25.423
509.88	25.904
510.23	24.895
510.57	26.455
510.92	25.779
511.26	25.253
511.61	25.702
511.95	25.054
512.30	25.399
512.64	25.821
512.98	24.862
513.33	25.645
513.67	26.466
514.02	25.447
514.36	26.094
514.70	26.372
515.05	25.672
515.39	25.836
515.74	26.469
516.08	26.282
516.42	25.382
516.77	26.170
517.11	26.144
517.46	26.196
517.80	26.414
518.14	25.845
518.49	26.121
518.83	25.935
519.17	27.176
519.52	25.217
519.86	27.360
520.20	26.528
520.55	25.477
520.89	26.299
521.23	25.946
521.58	25.956
521.92	26.156
522.26	26.730
522.61	26.869
522.95	27.122
523.29	26.520
523.64	26.234
523.98	25.907
524.32	26.901
524.66	26.770
525.01	26.718
525.35	27.062
525.69	27.001
526.04	26.958
526.38	27.562
526.72	26.628
527.06	26.497
527.41	26.271
527.75	26.535
528.09	25.811
528.43	26.361
528.78	26.193
529.12	27.145
529.46	26.546
529.80	26.404
530.15	27.366
530.49	26.843
530.83	27.570
531.17	26.263
531.51	26.323
531.86	26.860
532.20	25.978
532.54	26.805
532.88	27.470
533.22	27.139
533.57	27.611
533.91	26.467
534.25	27.153
534.59	27.046
534.93	26.758
535.27	26.180
535.62	27.494
535.96	26.955
536.30	26.178
536.64	26.892
536.98	27.401
537.32	27.091
537.66	26.748
538.01	27.629
538.35	27.500
538.69	27.273
539.03	26.676
539.37	26.414
539.71	26.751
540.05	26.388
540.39	27.424
540.73	28.404
541.07	26.708
541.42	26.131
541.76	25.847
542.10	28.562
542.44	26.782
542.78	27.273
543.12	27.291
543.46	25.342
543.80	26.555
544.14	26.864
544.48	27.362
544.82	26.793
545.16	27.096
545.50	26.447
545.84	27.260
546.18	27.046
546.52	26.814
546.86	26.353
547.20	27.286
547.54	26.584
547.88	27.339
548.22	25.557
548.56	26.052
548.90	26.415
549.24	26.559
549.58	26.958
549.92	27.633
550.26	27.890
550.60	27.312
550.94	26.861
551.28	27.615
551.62	27.548
551.96	26.773
552.30	26.760
552.64	27.164
552.98	26.840
553.32	27.201
553.66	26.893
554.00	27.221
554.34	26.065
554.68	27.851
555.02	28.075
555.36	27.175
555.69	27.006
556.03	26.947
556.37	27.738
556.71	26.915
557.05	28.751
557.39	26.875
557.73	27.425
558.07	28.937
558.41	28.422
558.75	27.529
559.08	26.304
559.42	27.259
559.76	26.150
560.10	27.144
560.44	27.240
560.78	27.279
561.12	27.398
561.45	28.082
561.79	27.247
562.13	27.560
562.47	26.541
562.81	27.723
563.15	27.642
563.48	27.505
563.82	28.330
564.16	27.383
564.50	27.083
564.84	26.786
565.17	27.586
565.51	28.162
565.85	27.045
566.19	27.734
566.52	26.745
566.86	26.675
567.20	27.058
567.54	27.348
567.88	26.801
568.21	27.685
568.55	26.564
568.89	26.640
569.23	26.701
569.56	26.566
569.90	26.633
570.24	27.095
570.57	25.905
570.91	26.454
571.25	26.751
571.59	26.257
571.92	26.220
572.26	26.243
572.60	26.404
572.93	26.076
573.27	26.159
573.61	25.753
573.95	26.291
574.28	26.100
574.62	26.055
574.96	25.972
575.29	26.550
575.63	26.653
575.97	25.863
576.30	26.062
576.64	26.162
576.98	25.504
577.31	26.412
577.65	26.415
577.98	25.929
578.32	26.037
578.66	25.713
578.99	26.296
579.33	26.199
579.67	25.615
580.00	26.265
580.34	25.881
580.67	26.354
581.01	25.343
581.35	26.615
581.68	25.840
582.02	26.180
582.35	25.873
582.69	26.303
583.02	26.658
583.36	26.621
583.70	25.755
584.03	26.536
584.37	26.089
584.70	26.672
585.04	25.848
585.37	26.301
585.71	26.149
586.04	25.963
586.38	26.143
586.72	26.268
587.05	26.735
587.39	26.577
587.72	26.653
588.06	26.410
588.39	26.574
588.73	26.584
589.06	27.206
589.40	27.482
589.73	26.593
590.07	26.584
590.40	26.753
590.73	27.429
591.07	26.393
591.40	27.253
591.74	27.107
592.07	27.928
592.41	27.219
592.74	27.171
593.08	26.914
593.41	26.842
593.75	26.179
594.08	27.139
594.41	26.876
594.75	27.746
595.08	27.368
595.42	27.926
595.75	26.534
596.09	26.348
596.42	27.250
596.75	26.994
597.09	27.427
597.42	26.364
597.75	27.414
598.09	27.610
598.42	27.176
598.76	26.537
599.09	27.230
599.42	26.951
599.76	27.331
600.09	27.748
600.42	27.383
600.76	27.043
601.09	26.965
601.42	27.740
601.76	27.142
602.09	26.667
602.42	27.243
602.76	26.963
603.09	27.379
603.42	27.518
603.76	27.682
604.09	27.513
604.42	26.353
604.76	27.082
605.09	27.125
605.42	27.482
605.75	27.469
606.09	27.231
606.42	26.183
606.75	27.136
607.09	27.658
607.42	26.981
607.75	27.241
608.08	27.564
608.42	27.200
608.75	27.056
609.08	27.618
609.41	27.055
609.75	27.157
610.08	28.186
610.41	28.000
610.74	27.418
611.07	26.775
611.41	27.484
611.74	27.866
612.07	28.625
612.40	27.186
612.73	28.541
613.07	27.243
613.40	28.352
613.73	27.956
614.06	26.908
614.39	27.959
614.72	26.369
615.06	27.065
615.39	26.804
615.72	27.920
616.05	26.008
616.38	27.568
616.71	27.207
617.05	27.443
617.38	27.059
617.71	26.781
618.04	27.888
618.37	27.484
618.70	28.096
619.03	27.488
619.36	27.414
619.69	28.715
620.03	26.860
620.36	27.286
620.69	28.715
621.02	27.549
621.35	27.097
621.68	27.459
622.01	27.508
622.34	29.270
622.67	26.641
623.00	27.774
623.33	28.657
623.66	26.145
623.99	27.669
624.32	27.976
624.65	28.256
624.99	27.931
625.32	26.347
625.65	28.594
625.98	27.152
626.31	27.651
626.64	26.444
626.97	28.938
627.30	27.319
627.63	25.993
627.96	28.024
628.29	27.757
628.62	27.889
628.95	28.346
629.28	28.195
629.61	28.852
629.94	28.261
630.26	27.237
630.59	29.347
630.92	28.629
631.25	27.923
631.58	27.831
631.91	27.340
632.24	28.222
632.57	27.333
632.90	27.816
633.23	28.855
633.56	27.135
633.89	28.420
634.22	30.106
634.55	27.885
634.88	29.021
635.20	28.464
635.53	27.990
635.86	29.219
636.19	28.694
636.52	28.076
636.85	28.159
637.18	27.750
637.51	29.864
637.83	27.031
638.16	30.000
638.49	28.690
638.82	29.215
639.15	28.534
639.48	28.016
639.81	30.152
640.13	28.378
640.46	29.202
640.79	28.852
641.12	27.786
641.45	28.264
641.77	28.892
642.10	29.456
642.43	29.590
642.76	29.449
643.09	29.206
643.41	30.159
643.74	29.889
644.07	30.889
644.40	27.391
644.73	29.043
645.05	25.209
645.38	30.960
645.71	29.553
646.04	29.412
646.36	28.796
646.69	28.720
647.02	30.505
647.35	29.603
647.67	30.292
648.00	30.580
648.33	29.848
648.66	29.516
648.98	28.662
649.31	28.154
649.64	30.000
649.96	29.670
650.29	27.213
650.62	28.571
650.94	29.005
651.27	28.943
651.60	28.374
651.92	28.082
652.25	29.716
652.58	28.109
652.90	28.571
653.23	27.097
653.56	28.094
653.88	28.525
654.21	28.356
654.54	29.900
654.86	28.090
655.19	27.937
655.52	27.513
655.84	26.732
656.17	29.498
656.49	40.420
656.82	41.645
657.15	31.050
657.47	22.669
657.80	17.459
658.13	20.104
658.45	26.839
658.78	26.188
659.10	26.326
659.43	24.740
659.75	25.531
660.08	24.792
660.41	24.836
660.73	25.633
661.06	27.681
661.38	30.893
661.71	27.916
662.03	27.823
662.36	31.557
662.68	26.582
663.01	30.149
663.33	31.293
663.66	28.755
663.98	26.339
664.31	25.280
664.63	28.761
664.96	26.681
665.28	28.416
665.61	23.679
665.93	29.630
666.26	29.555
666.58	29.730
666.91	30.290
667.23	27.851
667.56	28.571
667.88	27.602
668.21	29.493
668.53	29.673
668.86	30.947
669.18	29.909
669.50	27.336
669.83	29.197
670.15	27.803
670.48	27.103
670.80	27.790
671.13	27.314
671.45	29.955
671.77	29.979
672.10	29.191
672.42	28.967
672.75	32.000
673.07	27.027
673.39	27.322
673.72	29.921
674.04	26.539
674.37	27.835
674.69	29.918
675.01	27.447
675.34	30.586
675.66	31.102
675.98	32.159
676.31	30.995
676.63	29.425
676.95	28.982
677.28	28.770
677.60	31.222
677.92	31.278
678.25	28.446
678.57	29.630
678.89	26.415
679.22	28.931
679.54	29.389
679.86	26.000
680.18	28.327
680.51	25.885
680.83	30.286
681.15	27.938
681.48	31.643
681.80	29.839
682.12	26.962
682.44	28.684
682.77	26.190
683.09	30.189
683.41	32.965
683.73	26.256
684.06	29.247
684.38	29.707
684.70	31.070
685.02	26.969
685.34	26.901
685.67	27.841
685.99	27.032
686.31	29.443
686.63	29.078
686.96	28.281
687.28	27.938
687.60	27.148
687.92	28.210
688.24	27.953
688.56	25.251
688.89	28.205
689.21	28.009
689.53	28.736
689.85	26.949
690.17	27.803
690.49	27.252
690.82	26.988
691.14	28.774
691.46	30.820
691.78	29.736
692.10	27.754
692.42	29.556
692.74	28.326
693.06	28.539
693.39	28.188
693.71	28.442
694.03	29.158
694.35	26.411
694.67	28.369
694.99	25.320
695.31	30.102
695.63	28.827
695.95	29.032
696.27	24.688
696.59	30.481
696.91	29.213
697.23	32.292
697.56	28.365
697.88	27.252
698.20	26.981
698.52	28.700
698.84	28.883
699.16	24.762
699.48	28.500
699.80	30.326
700.12	31.738
700.44	26.816
700.76	28.280
701.08	26.744
701.40	28.399
701.72	29.630
702.04	30.128
702.36	31.024
702.68	26.946
703.00	28.986
703.32	24.642
703.64	31.765
703.96	30.814
704.28	31.361
704.60	26.582
704.91	26.349
705.23	27.184
705.55	26.689
705.87	24.232
706.19	27.778
706.51	29.514
706.83	29.180
707.15	30.573
707.47	28.099
707.79	28.608
708.11	24.936
708.43	28.180
708.74	27.273
709.06	25.348
709.38	26.149
709.70	31.250
710.02	31.288
710.34	23.432
710.66	25.397
710.98	26.814
711.29	28.065
711.61	23.642
711.93	28.525
712.25	33.555
712.57	28.571
712.89	27.698
713.20	29.210
713.52	24.627
713.84	28.114
714.16	26.230
714.48	26.349
714.80	28.308
715.11	29.107
715.43	29.217
715.75	31.464
716.07	28.852
716.39	27.425
716.70	32.753
717.02	30.370
717.34	29.771
717.66	29.461
717.97	27.459
718.29	26.891
718.61	31.349
718.93	30.108
719.24	24.632
719.56	26.415
719.88	24.727
720.20	29.588
720.51	31.579
720.83	28.916
721.15	25.820
721.46	28.627
721.78	27.969
722.10	27.200
722.42	26.446
722.73	27.490
723.05	27.309
723.37	29.804
723.68	24.291
724.00	31.707
724.32	27.572
724.63	26.556
724.95	35.537
725.27	28.070
725.58	28.448
725.90	21.032
726.22	32.841
726.53	25.856
726.85	19.608
727.16	27.068
727.48	26.538
727.80	24.180
728.11	20.588
728.43	31.818
728.74	26.172
729.06	32.197
729.38	24.125
729.69	24.803
730.01	31.890
730.32	26.693
730.64	29.304
730.96	27.239
731.27	27.857
731.59	27.010
731.90	29.448
732.22	24.847
732.53	35.430
732.85	22.483
733.16	24.275
733.48	24.390
733.80	30.605
734.11	30.000
734.43	24.830
734.74	28.487
735.06	30.408
735.37	28.135
735.69	24.194
736.00	26.936
736.32	29.470
736.63	24.828
736.95	26.812
737.26	30.132
737.58	28.417
737.89	27.957
738.21	29.699
738.52	30.769
738.83	27.734
739.15	26.923
739.46	27.419
739.78	25.524
740.09	28.671
740.41	24.476
740.72	30.292
741.04	24.603
741.35	22.944
741.66	30.093
741.98	24.762
742.29	30.986
742.61	26.203
742.92	36.449
743.23	29.386
743.55	28.829
743.86	32.444
744.18	22.857
744.49	32.512
744.80	31.980
745.12	35.052
745.43	27.638
745.74	29.612
746.06	31.707
746.37	31.278
746.68	32.836
747.00	27.749
747.31	25.962
747.62	28.111
747.94	24.017
748.25	28.837
748.56	27.143
748.88	23.913
749.19	27.230
749.50	27.941
749.82	33.778
750.13	33.040
750.44	25.203
750.75	27.600
751.07	27.143
751.38	26.568
751.69	20.229
752.01	25.769
752.32	23.735
752.63	22.692
752.94	25.397
753.26	30.000
753.57	25.446
753.88	32.328
754.19	26.556
754.51	26.953
754.82	25.692
755.13	29.218
755.44	30.992
755.75	31.687
756.07	21.285
756.38	27.344
756.69	28.159
757.00	26.481
757.31	29.530
757.63	31.153
757.94	26.879
758.25	25.872
758.56	30.458
758.87	26.705
759.18	25.667
759.50	26.690
759.81	23.358
760.12	23.649
760.43	29.773
760.74	33.125
761.05	23.876
761.36	29.341
761.67	28.994
761.99	24.516
762.30	27.899
762.61	29.057
762.92	29.596
763.23	32.227
763.54	28.444
763.85	29.536
764.16	28.163
764.47	25.424
764.78	25.094
765.10	27.698
765.41	26.774
765.72	28.302
766.03	20.495
766.34	29.323
766.65	26.316
766.96	24.000
767.27	29.687
767.58	24.419
767.89	25.806
768.20	31.288
768.51	28.962
768.82	29.189
769.13	26.500
769.44	31.140
769.75	27.706
770.06	27.064
770.37	24.883
770.68	26.042
770.99	26.238
771.30	25.243
771.61	21.759
771.92	24.675
772.23	22.897
772.54	28.723
772.85	31.361
773.16	31.098
773.47	29.518
773.78	30.769
774.09	31.333
774.39	24.691
774.70	22.148
775.01	23.913
775.32	24.627
775.63	14.876
775.94	29.323
776.25	33.571
776.56	30.328
776.87	37.168
777.18	27.434
777.48	18.182
777.79	19.130
778.10	29.358
778.41	30.508
778.72	32.231
779.03	38.806
779.34	37.594
779.65	27.451
779.95	37.681
780.26	21.769
780.57	20.690
780.88	28.704
781.19	30.303
781.50	16.000
781.80	31.373
782.11	25.641
782.42	29.518
782.73	25.547
783.04	25.000
783.34	28.030
783.65	27.907
783.96	27.642
784.27	38.462
784.57	21.951
784.88	30.894
785.19	33.333
785.50	17.526
785.81	22.857
786.11	28.431
786.42	13.636
786.73	32.432
787.04	31.683
787.34	20.952
787.65	29.524
787.96	25.490
788.26	24.324
788.57	28.226
788.88	30.469
789.19	20.513
789.49	23.529
789.80	17.949
790.11	23.894
790.41	22.222
790.72	25.472
791.03	18.056
791.33	19.737
791.64	33.333
791.95	21.333
792.25	28.571
792.56	28.049
792.87	16.327
793.17	31.579
793.48	14.865
793.79	18.310
794.09	37.975
794.40	30.851
794.70	29.907
795.01	14.035
795.32	18.182
795.62	27.679
795.93	24.742
796.23	13.187
796.54	26.316
796.85	23.288
797.15	18.056
797.46	28.767
797.76	36.620
798.07	36.250
798.37	32.353
798.68	27.143
798.99	37.143
799.29	25.000
799.60	26.667
799.90	4.167
800.21	21.875
800.51	22.222
800.82	21.311
801.12	22.807
801.43	16.901
801.73	6.780
802.04	36.066
802.34	16.364
802.65	28.846
802.95	37.037
803.26	15.000
803.56	9.615
803.87	0.000
804.17	27.419
804.48	36.923
804.78	2.564
805.09	41.860
805.39	28.125
805.70	30.189
806.00	36.842
806.30	35.135
806.61	39.706
806.91	38.272
807.22	20.000
807.52	26.866
807.83	22.581
808.13	17.460
808.43	25.455
808.74	36.364
809.04	33.962
809.35	30.137
809.65	63.158
809.95	26.471
810.26	41.176
810.56	18.000
810.86	32.653
811.17	37.143
811.47	19.231
811.77	54.839
812.08	2.632
812.38	40.476
812.69	28.261
812.99	38.710
813.29	26.190
813.59	-14.815
813.90	17.021
814.20	16.279
814.50	37.500
814.81	8.333
815.11	17.073
815.41	13.333
815.72	17.143
816.02	30.556
816.32	48.718
816.62	45.946
816.93	-5.882
817.23	23.913
817.53	26.471
817.84	35.294
818.14	12.500
818.44	62.069
818.74	-12.903
819.04	-7.407
819.35	20.000
819.65	24.000
819.95	20.000
820.25	24.000
820.56	15.789
820.86	17.500
821.16	34.043
821.46	39.655
821.76	35.897
822.07	12.500
822.37	-4.651
822.67	26.667
822.97	32.432
823.27	40.541
823.57	60.000
823.88	27.027
824.18	14.286
824.48	34.615
824.78	-46.154
825.08	17.391
825.38	8.333
825.69	54.167
825.99	10.000
826.29	32.432
826.59	-8.824
826.89	52.000
827.19	17.143
827.49	31.579
827.79	28.125
828.09	33.333
828.39	73.913
828.70	-3.448
829.00	37.931
829.30	19.444
829.60	65.625
829.90	-5.556
830.20	-3.846
830.50	33.333
830.80	10.714
831.10	23.077
831.40	4.762
831.70	23.529
832.00	25.000
832.30	26.316
832.60	50.000
832.90	-50.000
833.20	-11.765
833.50	-53.333
833.80	20.000
834.10	40.000
834.40	-12.500
834.70	105.556
835.00	19.231
835.30	29.167
835.60	13.793
835.90	5.556
836.20	-27.273
836.50	-50.000
836.80	22.857
837.10	34.286
837.40	17.647
837.70	-45.455
838.00	54.167
838.30	37.500
838.60	14.286
838.90	60.000
839.19	21.739
839.49	65.217
839.79	-11.111
840.09	17.391
840.39	18.182
840.69	-43.750
840.99	26.316
841.29	31.250
841.59	42.857
841.88	-27.778
842.18	25.000
842.48	29.412
842.78	27.586
843.08	78.571
843.38	-30.769
843.68	-55.556
843.97	-46.154
844.27	45.455
844.57	200.000
844.87	60.000
845.17	40.000
845.47	-42.857
845.76	-55.556
846.06	0.000
846.36	25.000
846.66	-30.000
846.96	21.053
847.25	58.333
847.55	-33.333
847.85	46.667
848.15	10.000
848.44	42.308
848.74	68.421
849.04	600.000
849.34	111.111
849.63	21.053
849.93	0.000
850.23	-50.000
850.53	52.381
850.82	16.000
851.12	47.368
851.42	-400.000
851.71	-21.429
852.01	-41.667
852.31	-29.412
852.61	40.000
852.90	23.810
853.20	33.333
853.50	-27.778
853.79	-5.263
854.09	20.000
854.39	42.857
854.68	69.565
854.98	-41.667
855.28	20.690
855.57	25.000
855.87	70.000
856.17	33.333
856.46	-10.345
856.76	73.333
857.05	0.000
857.35	-92.308
857.65	9.091
857.94	44.444
858.24	-28.571
858.53	-21.429
858.83	25.000
859.13	-77.778
859.42	119.048
859.72	-187.500
860.01	0.000
860.31	0.000
860.60	-200.000
860.90	-44.444
861.20	37.500
861.49	-14.286
861.79	0.000
862.08	-150.000
862.38	33.333
862.67	23.077
862.97	52.941
863.26	65.000
863.56	-29.412
863.85	300.000
864.15	110.000
864.44	-53.846
864.74	75.000
865.03	0.000
865.33	-133.333
865.62	35.294
865.92	-25.000
866.21	-42.857
866.51	-100.000
866.80	-300.000
867.10	133.333
867.39	41.176
867.69	52.174
867.98	0.000
868.27	0.000
868.57	12.500
868.86	-109.091
869.16	23.529
869.45	100.000
869.75	128.571
870.04	500.000
870.33	83.333
870.63	160.000
870.92	-33.333
871.22	33.333
871.51	72.727
871.80	-8.333
872.10	140.000
>>>>>End Processed Spectral Data<<<<<
