SpectraSuite Data File
++++++++++++++++++++++++++++++++++++
Date: Sat May 16 11:28:22 PDT 2015
User: schluterlab
Dark Spectrum Present: Yes
Reference Spectrum Present: Yes
Number of Sampled Component Spectra: 1
Spectrometers: USB2E3373
Integration Time (usec): 3000 (USB2E3373)
Spectra Averaged: 3 (USB2E3373)
Boxcar Smoothing: 0 (USB2E3373)
Correct for Electrical Dark: No (USB2E3373)
Strobe/Lamp Enabled: No (USB2E3373)
Correct for Detector Non-linearity: No (USB2E3373)
Correct for Stray Light: No (USB2E3373)
Number of Pixels in Processed Spectrum: 2048
>>>>>Begin Processed Spectral Data<<<<<
178.53	0.000
178.91	126.667
179.29	600.000
179.67	-1200.000
180.04	-69.231
180.42	900.000
180.80	425.000
181.18	550.000
181.56	-50.000
181.94	900.000
182.31	325.000
182.69	-61.538
183.07	-400.000
183.45	1600.000
183.83	533.333
184.20	-128.571
184.58	-162.500
184.96	-525.000
185.34	81.250
185.72	-375.000
186.09	216.667
186.47	-200.000
186.85	-250.000
187.23	25.000
187.61	-375.000
187.98	-287.500
188.36	-75.000
188.74	-200.000
189.12	1800.000
189.49	300.000
189.87	-25.000
190.25	225.000
190.63	-64.286
191.00	-155.556
191.38	440.000
191.76	6.667
192.14	580.000
192.51	-300.000
192.89	-600.000
193.27	0.000
193.65	-77.778
194.02	-157.143
194.40	400.000
194.78	-70.000
195.15	-500.000
195.53	-190.909
195.91	-233.333
196.29	300.000
196.66	-700.000
197.04	1300.000
197.42	0.000
197.79	0.000
198.17	66.667
198.55	-900.000
198.92	-1200.000
199.30	225.000
199.68	-300.000
200.05	-111.111
200.43	-177.778
200.81	-1800.000
201.18	-33.333
201.56	171.429
201.94	-13.333
202.31	-18.182
202.69	-50.000
203.07	-60.000
203.44	633.333
203.82	-333.333
204.19	-350.000
204.57	-250.000
204.95	-1200.000
205.32	18.750
205.70	200.000
206.08	-2200.000
206.45	5.556
206.83	-300.000
207.20	150.000
207.58	-700.000
207.96	-400.000
208.33	-50.000
208.71	-133.333
209.08	250.000
209.46	-257.143
209.84	750.000
210.21	0.000
210.59	-5.000
210.96	700.000
211.34	-316.667
211.71	-200.000
212.09	375.000
212.46	1100.000
212.84	-900.000
213.22	533.333
213.59	116.667
213.97	-55.556
214.34	150.000
214.72	-20.000
215.09	-266.667
215.47	-283.333
215.84	-110.000
216.22	-180.000
216.59	-13.333
216.97	-425.000
217.34	650.000
217.72	-228.571
218.09	-216.667
218.47	-185.714
218.84	85.714
219.22	-85.714
219.59	0.000
219.97	400.000
220.34	575.000
220.72	125.000
221.09	-84.615
221.47	0.000
221.84	200.000
222.22	-250.000
222.59	1600.000
222.97	-62.500
223.34	-950.000
223.72	-566.667
224.09	14.286
224.46	-325.000
224.84	-35.714
225.21	-85.714
225.59	-81.818
225.96	-100.000
226.34	-85.714
226.71	-133.333
227.08	35.000
227.46	1300.000
227.83	-200.000
228.21	-112.500
228.58	500.000
228.95	-18.750
229.33	-1500.000
229.70	-160.000
230.08	-1300.000
230.45	-16.667
230.82	-100.000
231.20	-600.000
231.57	-400.000
231.95	2600.000
232.32	28.571
232.69	-133.333
233.07	-214.286
233.44	-750.000
233.81	-66.667
234.19	-100.000
234.56	50.000
234.93	-12.500
235.31	-157.143
235.68	-64.286
236.05	-52.941
236.43	-45.455
236.80	-9.677
237.17	-20.833
237.55	-9.524
237.92	-86.364
238.29	-11.429
238.67	-14.706
239.04	2.778
239.41	-45.161
239.79	-43.590
240.16	-19.048
240.53	-30.909
240.91	-20.513
241.28	-12.727
241.65	-3.077
242.02	-14.754
242.40	-21.311
242.77	0.000
243.14	-13.559
243.51	-22.857
243.89	-3.797
244.26	-10.112
244.63	1.053
245.00	-11.579
245.38	-2.542
245.75	-5.310
246.12	0.800
246.49	-0.787
246.87	-0.813
247.24	-4.237
247.61	-14.407
247.98	-5.634
248.36	-7.692
248.73	-1.899
249.10	-7.643
249.47	0.585
249.84	-1.136
250.22	-12.500
250.59	1.130
250.96	-1.571
251.33	5.687
251.70	3.365
252.08	-0.948
252.45	-7.109
252.82	3.810
253.19	0.851
253.56	0.000
253.94	0.422
254.31	-4.292
254.68	5.285
255.05	-2.016
255.42	7.937
255.79	-1.434
256.16	2.745
256.54	1.838
256.91	-1.136
257.28	-2.930
257.65	-1.418
258.02	5.031
258.39	-0.334
258.76	-3.378
259.14	-2.469
259.51	2.623
259.88	0.000
260.25	4.348
260.62	-2.894
260.99	-0.297
261.36	1.829
261.73	2.601
262.10	2.500
262.47	0.855
262.85	2.857
263.22	-0.860
263.59	-2.154
263.96	2.609
264.33	2.981
264.70	1.657
265.07	3.297
265.44	2.326
265.81	1.550
266.18	-0.759
266.55	3.922
266.92	1.763
267.29	1.937
267.66	0.741
268.03	3.140
268.40	3.286
268.77	4.096
269.14	1.856
269.51	3.218
269.88	-0.688
270.25	-0.233
270.62	1.831
270.99	1.126
271.36	1.865
271.73	2.466
272.10	1.373
272.47	-0.889
272.84	1.556
273.21	0.459
273.58	1.758
273.95	2.851
274.32	3.394
274.69	3.282
275.06	4.090
275.43	1.116
275.80	2.444
276.17	0.209
276.54	5.295
276.91	3.498
277.28	4.260
277.65	1.446
278.02	3.549
278.39	1.375
278.76	3.586
279.13	1.976
279.50	3.380
279.87	0.423
280.23	1.215
280.60	2.187
280.97	2.136
281.34	3.868
281.71	2.500
282.08	1.815
282.45	-0.815
282.82	0.969
283.19	2.000
283.56	3.663
283.92	1.237
284.29	3.160
284.66	2.878
285.03	6.595
285.40	4.613
285.77	3.860
286.14	1.625
286.51	0.888
286.87	2.904
287.24	2.560
287.61	4.793
287.98	0.000
288.35	1.322
288.72	2.547
289.08	1.017
289.45	2.189
289.82	-0.173
290.19	5.255
290.56	0.661
290.93	2.385
291.29	1.135
291.66	1.771
292.03	3.611
292.40	1.355
292.77	1.708
293.13	1.463
293.50	2.823
293.87	3.221
294.24	2.866
294.60	0.909
294.97	2.580
295.34	2.519
295.71	2.083
296.08	-0.154
296.44	0.858
296.81	3.134
297.18	2.535
297.55	3.390
297.91	3.905
298.28	1.507
298.65	2.232
299.02	4.679
299.38	3.075
299.75	2.989
300.12	3.846
300.48	3.453
300.85	2.359
301.22	3.364
301.59	2.341
301.95	4.534
302.32	2.477
302.69	3.794
303.05	4.029
303.42	1.500
303.79	3.828
304.15	3.910
304.52	3.734
304.89	3.896
305.25	1.954
305.62	3.995
305.99	4.711
306.35	4.440
306.72	3.531
307.09	4.200
307.45	3.405
307.82	4.469
308.19	4.698
308.55	4.357
308.92	3.759
309.29	3.459
309.65	4.454
310.02	4.752
310.38	3.892
310.75	5.225
311.12	6.302
311.48	6.472
311.85	5.149
312.22	5.252
312.58	6.511
312.95	5.810
313.31	6.793
313.68	7.739
314.05	6.924
314.41	5.835
314.78	7.992
315.14	8.193
315.51	7.903
315.87	8.035
316.24	8.844
316.61	9.021
316.97	10.249
317.34	8.189
317.70	8.905
318.07	11.101
318.43	10.768
318.80	11.268
319.16	10.882
319.53	11.654
319.89	10.913
320.26	11.471
320.62	11.635
320.99	13.731
321.35	12.217
321.72	13.101
322.08	14.738
322.45	14.950
322.81	16.042
323.18	17.675
323.54	17.837
323.91	19.370
324.27	18.156
324.64	20.658
325.00	20.070
325.37	22.986
325.73	24.409
326.10	23.561
326.46	25.744
326.83	26.894
327.19	27.440
327.56	28.365
327.92	28.547
328.29	28.225
328.65	28.364
329.01	31.184
329.38	31.401
329.74	33.150
330.11	32.548
330.47	35.059
330.84	34.555
331.20	35.018
331.56	36.372
331.93	35.879
332.29	38.995
332.66	36.260
333.02	37.557
333.38	37.993
333.75	37.845
334.11	38.222
334.48	37.599
334.84	38.408
335.20	38.564
335.57	39.711
335.93	41.987
336.29	38.618
336.66	40.000
337.02	40.991
337.38	40.909
337.75	40.123
338.11	42.665
338.47	41.014
338.84	41.379
339.20	42.267
339.56	41.444
339.93	41.093
340.29	40.833
340.65	40.297
341.02	42.159
341.38	39.848
341.74	41.406
342.11	39.761
342.47	40.858
342.83	41.814
343.20	42.015
343.56	39.510
343.92	42.321
344.28	43.061
344.65	40.842
345.01	42.605
345.37	42.442
345.73	40.671
346.10	38.839
346.46	40.292
346.82	41.219
347.19	40.838
347.55	40.610
347.91	41.181
348.27	39.936
348.63	40.711
349.00	42.800
349.36	40.203
349.72	42.675
350.08	41.620
350.45	41.450
350.81	42.277
351.17	41.158
351.53	41.050
351.89	40.663
352.26	42.481
352.62	42.243
352.98	42.089
353.34	40.448
353.70	42.317
354.07	41.070
354.43	43.162
354.79	41.759
355.15	42.891
355.51	41.328
355.87	41.028
356.24	41.779
356.60	42.627
356.96	42.571
357.32	42.359
357.68	42.989
358.04	42.725
358.40	41.995
358.77	44.049
359.13	43.305
359.49	41.950
359.85	43.445
360.21	43.227
360.57	42.846
360.93	44.444
361.29	44.619
361.66	42.226
362.02	43.269
362.38	43.800
362.74	45.055
363.10	42.324
363.46	44.444
363.82	44.752
364.18	43.849
364.54	46.176
364.90	44.514
365.26	44.080
365.62	44.904
365.98	45.235
366.35	45.070
366.71	45.455
367.07	45.025
367.43	47.220
367.79	45.498
368.15	44.950
368.51	45.594
368.87	45.330
369.23	46.316
369.59	44.583
369.95	45.455
370.31	46.484
370.67	45.987
371.03	46.574
371.39	46.464
371.75	47.139
372.11	47.848
372.47	47.361
372.83	45.897
373.19	47.357
373.55	46.798
373.91	46.728
374.27	47.159
374.63	45.411
374.99	48.122
375.35	46.635
375.71	49.088
376.07	49.213
376.42	48.411
376.78	49.346
377.14	49.424
377.50	49.774
377.86	48.895
378.22	49.560
378.58	50.649
378.94	49.014
379.30	50.030
379.66	49.909
380.02	49.614
380.38	51.722
380.74	50.234
381.09	51.084
381.45	50.477
381.81	50.635
382.17	50.877
382.53	50.578
382.89	51.974
383.25	51.114
383.61	50.413
383.97	51.684
384.32	51.940
384.68	52.056
385.04	52.536
385.40	52.769
385.76	52.805
386.12	52.717
386.48	53.465
386.83	52.699
387.19	52.660
387.55	52.998
387.91	53.112
388.27	53.197
388.62	52.644
388.98	53.119
389.34	53.244
389.70	53.532
390.06	51.833
390.42	54.744
390.77	53.691
391.13	53.975
391.49	53.275
391.85	52.868
392.20	53.944
392.56	52.657
392.92	53.451
393.28	53.846
393.64	53.758
393.99	54.031
394.35	52.068
394.71	53.119
395.07	54.802
395.42	51.788
395.78	53.174
396.14	54.829
396.50	51.988
396.85	54.226
397.21	52.126
397.57	53.252
397.92	54.391
398.28	53.556
398.64	53.064
399.00	53.876
399.35	53.890
399.71	54.297
400.07	53.970
400.42	52.859
400.78	53.906
401.14	52.994
401.49	52.712
401.85	52.898
402.21	53.456
402.57	53.095
402.92	54.059
403.28	53.370
403.63	51.768
403.99	53.511
404.35	51.872
404.70	52.838
405.06	52.076
405.42	52.153
405.77	51.301
406.13	51.789
406.49	53.325
406.84	53.689
407.20	52.768
407.55	50.918
407.91	50.842
408.27	52.451
408.62	51.173
408.98	51.425
409.34	50.213
409.69	51.481
410.05	51.971
410.40	51.870
410.76	51.867
411.11	52.120
411.47	52.238
411.83	51.589
412.18	52.042
412.54	51.190
412.89	53.645
413.25	50.945
413.60	50.851
413.96	51.140
414.31	52.416
414.67	51.429
415.03	50.712
415.38	51.659
415.74	53.028
416.09	51.790
416.45	51.257
416.80	52.796
417.16	51.362
417.51	52.988
417.87	53.074
418.22	53.224
418.58	53.145
418.93	52.422
419.29	52.635
419.64	52.513
420.00	53.281
420.35	52.513
420.71	53.541
421.06	53.314
421.42	52.810
421.77	54.160
422.12	54.169
422.48	53.715
422.83	54.385
423.19	54.120
423.54	54.467
423.90	55.581
424.25	53.846
424.61	55.368
424.96	55.881
425.31	56.121
425.67	55.817
426.02	55.651
426.38	57.048
426.73	56.634
427.09	57.475
427.44	56.875
427.79	57.384
428.15	57.510
428.50	58.240
428.85	58.034
429.21	57.111
429.56	58.333
429.92	58.417
430.27	57.827
430.62	58.934
430.98	58.442
431.33	58.431
431.68	60.322
432.04	61.276
432.39	59.715
432.74	61.211
433.10	59.539
433.45	60.507
433.80	61.198
434.16	60.398
434.51	61.973
434.86	61.687
435.22	62.194
435.57	62.424
435.92	61.020
436.28	62.789
436.63	63.086
436.98	62.486
437.34	61.725
437.69	60.677
438.04	62.961
438.39	63.057
438.75	62.515
439.10	63.742
439.45	64.212
439.81	63.855
440.16	63.032
440.51	64.059
440.86	63.910
441.22	63.571
441.57	63.789
441.92	64.706
442.27	64.556
442.63	64.217
442.98	64.447
443.33	64.415
443.68	65.711
444.03	66.454
444.39	65.492
444.74	66.850
445.09	66.064
445.44	66.404
445.79	67.160
446.15	65.936
446.50	65.269
446.85	65.726
447.20	66.037
447.55	66.464
447.91	67.490
448.26	66.089
448.61	66.497
448.96	67.563
449.31	67.193
449.66	66.857
450.02	66.759
450.37	67.652
450.72	66.102
451.07	69.327
451.42	65.675
451.77	68.642
452.12	68.832
452.47	67.317
452.83	68.725
453.18	69.386
453.53	66.978
453.88	69.079
454.23	68.017
454.58	70.665
454.93	67.947
455.28	70.300
455.63	68.919
455.98	70.783
456.34	68.742
456.69	69.856
457.04	67.609
457.39	68.541
457.74	69.226
458.09	69.490
458.44	70.092
458.79	68.946
459.14	69.025
459.49	69.864
459.84	69.196
460.19	69.033
460.54	70.720
460.89	69.731
461.24	69.581
461.59	69.812
461.94	70.528
462.29	68.672
462.64	70.817
462.99	70.281
463.34	70.425
463.69	71.183
464.04	69.010
464.39	70.012
464.74	69.208
465.09	67.709
465.44	69.036
465.79	69.825
466.14	70.541
466.49	69.775
466.84	71.369
467.19	70.012
467.54	69.430
467.89	70.099
468.24	70.012
468.59	71.081
468.94	72.219
469.29	70.890
469.64	70.216
469.99	71.506
470.34	72.077
470.68	72.093
471.03	69.580
471.38	70.833
471.73	73.497
472.08	70.683
472.43	70.142
472.78	70.467
473.13	70.311
473.48	72.750
473.83	70.471
474.17	71.975
474.52	73.402
474.87	71.096
475.22	70.442
475.57	72.167
475.92	70.950
476.27	70.800
476.61	72.169
476.96	71.604
477.31	71.098
477.66	70.946
478.01	71.475
478.36	71.032
478.70	73.145
479.05	71.498
479.40	71.451
479.75	71.764
480.10	71.329
480.45	69.874
480.79	72.557
481.14	73.357
481.49	73.379
481.84	72.538
482.19	70.900
482.53	73.106
482.88	72.283
483.23	72.019
483.58	72.202
483.92	73.149
484.27	70.979
484.62	70.929
484.97	70.031
485.31	68.928
485.66	68.867
486.01	68.989
486.36	71.012
486.70	72.514
487.05	70.907
487.40	70.566
487.75	70.859
488.09	69.673
488.44	71.076
488.79	70.180
489.13	70.749
489.48	71.126
489.83	72.969
490.17	72.051
490.52	73.098
490.87	73.072
491.22	72.676
491.56	71.852
491.91	72.519
492.26	71.651
492.60	72.360
492.95	72.394
493.30	72.177
493.64	71.180
493.99	72.706
494.34	72.857
494.68	73.127
495.03	72.084
495.37	74.041
495.72	72.593
496.07	73.111
496.41	73.182
496.76	72.100
497.11	72.209
497.45	72.989
497.80	72.836
498.14	72.741
498.49	72.777
498.84	71.990
499.18	72.515
499.53	73.015
499.87	72.539
500.22	73.039
500.56	74.187
500.91	72.266
501.26	72.780
501.60	72.749
501.95	74.251
502.29	71.752
502.64	72.560
502.98	73.790
503.33	73.073
503.67	71.648
504.02	72.574
504.36	72.598
504.71	73.252
505.06	72.891
505.40	71.906
505.75	73.476
506.09	72.902
506.44	73.584
506.78	73.056
507.13	72.863
507.47	74.335
507.82	73.309
508.16	73.420
508.51	72.901
508.85	71.946
509.19	72.789
509.54	72.886
509.88	73.138
510.23	73.428
510.57	74.339
510.92	74.114
511.26	73.312
511.61	73.218
511.95	73.006
512.30	74.052
512.64	72.621
512.98	72.772
513.33	73.147
513.67	73.199
514.02	73.490
514.36	73.795
514.70	72.439
515.05	74.214
515.39	73.645
515.74	75.218
516.08	73.602
516.42	73.484
516.77	74.639
517.11	73.913
517.46	73.923
517.80	75.451
518.14	74.577
518.49	74.298
518.83	73.531
519.17	74.423
519.52	72.180
519.86	74.432
520.20	75.428
520.55	74.708
520.89	73.701
521.23	74.542
521.58	75.110
521.92	75.491
522.26	74.667
522.61	73.574
522.95	73.070
523.29	74.169
523.64	72.829
523.98	74.602
524.32	74.481
524.66	72.857
525.01	72.640
525.35	74.420
525.69	73.195
526.04	74.086
526.38	74.157
526.72	71.264
527.06	74.219
527.41	73.729
527.75	73.927
528.09	73.461
528.43	73.902
528.78	72.236
529.12	73.367
529.46	72.616
529.80	72.950
530.15	73.728
530.49	71.604
530.83	73.412
531.17	74.343
531.51	72.940
531.86	71.429
532.20	71.862
532.54	72.727
532.88	72.793
533.22	73.864
533.57	72.063
533.91	70.911
534.25	72.344
534.59	72.267
534.93	71.811
535.27	71.806
535.62	73.210
535.96	72.140
536.30	72.317
536.64	71.248
536.98	75.212
537.32	71.458
537.66	71.894
538.01	72.096
538.35	72.568
538.69	70.922
539.03	72.309
539.37	70.925
539.71	71.114
540.05	72.721
540.39	72.645
540.73	72.011
541.07	71.380
541.42	71.438
541.76	70.698
542.10	72.384
542.44	71.219
542.78	70.828
543.12	71.623
543.46	70.479
543.80	71.438
544.14	69.913
544.48	70.472
544.82	71.380
545.16	70.959
545.50	69.650
545.84	71.697
546.18	72.261
546.52	71.764
546.86	71.795
547.20	72.855
547.54	71.763
547.88	69.940
548.22	70.183
548.56	70.140
548.90	71.563
549.24	71.689
549.58	71.771
549.92	72.085
550.26	71.387
550.60	70.910
550.94	71.533
551.28	71.482
551.62	72.674
551.96	71.708
552.30	71.916
552.64	71.640
552.98	72.530
553.32	72.439
553.66	72.603
554.00	72.992
554.34	72.996
554.68	72.588
555.02	71.201
555.36	70.381
555.69	73.066
556.03	72.561
556.37	71.835
556.71	70.866
557.05	72.727
557.39	73.348
557.73	72.210
558.07	73.323
558.41	73.672
558.75	71.711
559.08	72.140
559.42	73.507
559.76	74.540
560.10	72.782
560.44	72.399
560.78	71.608
561.12	71.843
561.45	71.986
561.79	71.847
562.13	72.160
562.47	71.919
562.81	71.216
563.15	72.288
563.48	72.909
563.82	72.008
564.16	72.819
564.50	72.849
564.84	72.354
565.17	70.225
565.51	71.578
565.85	73.293
566.19	72.991
566.52	71.363
566.86	71.049
567.20	70.884
567.54	72.475
567.88	69.514
568.21	70.414
568.55	70.255
568.89	69.334
569.23	68.903
569.56	67.423
569.90	67.939
570.24	66.779
570.57	64.921
570.91	67.256
571.25	65.953
571.59	66.406
571.92	66.250
572.26	65.458
572.60	65.281
572.93	65.129
573.27	64.360
573.61	64.067
573.95	64.875
574.28	64.811
574.62	64.616
574.96	63.310
575.29	63.872
575.63	64.640
575.97	63.188
576.30	63.990
576.64	64.830
576.98	63.449
577.31	64.434
577.65	64.102
577.98	63.795
578.32	63.502
578.66	63.675
578.99	63.769
579.33	64.481
579.67	64.012
580.00	63.393
580.34	63.552
580.67	64.256
581.01	62.957
581.35	63.875
581.68	63.550
582.02	63.907
582.35	64.306
582.69	64.782
583.02	65.141
583.36	64.442
583.70	63.671
584.03	64.520
584.37	64.330
584.70	64.869
585.04	64.608
585.37	63.819
585.71	64.151
586.04	65.476
586.38	65.063
586.72	65.304
587.05	65.704
587.39	65.447
587.72	65.224
588.06	65.887
588.39	66.477
588.73	66.053
589.06	66.368
589.40	67.296
589.73	66.926
590.07	66.752
590.40	66.421
590.73	68.053
591.07	67.254
591.40	68.328
591.74	67.854
592.07	68.604
592.41	68.365
592.74	67.602
593.08	67.388
593.41	66.382
593.75	66.766
594.08	69.051
594.41	66.654
594.75	66.893
595.08	67.895
595.42	68.100
595.75	66.777
596.09	67.753
596.42	68.617
596.75	66.580
597.09	68.655
597.42	67.263
597.75	68.556
598.09	69.589
598.42	68.714
598.76	68.065
599.09	67.167
599.42	67.512
599.76	67.610
600.09	68.206
600.42	68.211
600.76	68.060
601.09	67.034
601.42	67.471
601.76	67.290
602.09	68.221
602.42	67.572
602.76	67.221
603.09	67.944
603.42	68.090
603.76	68.010
604.09	67.922
604.42	67.902
604.76	67.771
605.09	67.902
605.42	68.351
605.75	67.874
606.09	67.621
606.42	66.862
606.75	67.669
607.09	68.637
607.42	68.002
607.75	68.389
608.08	69.092
608.42	68.165
608.75	68.879
609.08	67.755
609.41	68.062
609.75	67.528
610.08	68.922
610.41	69.205
610.74	68.424
611.07	69.726
611.41	68.835
611.74	69.203
612.07	70.301
612.40	68.497
612.73	68.228
613.07	67.969
613.40	70.334
613.73	69.864
614.06	68.808
614.39	71.026
614.72	69.441
615.06	68.424
615.39	67.824
615.72	69.636
616.05	67.366
616.38	70.284
616.71	68.949
617.05	70.688
617.38	70.217
617.71	69.902
618.04	70.186
618.37	70.252
618.70	71.447
619.03	69.330
619.36	70.684
619.69	72.649
620.03	68.802
620.36	71.097
620.69	70.065
621.02	70.700
621.35	71.371
621.68	73.115
622.01	74.110
622.34	70.652
622.67	71.875
623.00	72.303
623.33	71.493
623.66	69.572
623.99	73.233
624.32	71.131
624.65	70.346
624.99	71.173
625.32	70.734
625.65	72.416
625.98	71.596
626.31	73.328
626.64	72.720
626.97	73.373
627.30	72.681
627.63	72.625
627.96	72.063
628.29	75.092
628.62	75.072
628.95	74.606
629.28	73.778
629.61	74.190
629.94	74.575
630.26	75.646
630.59	74.372
630.92	74.975
631.25	72.681
631.58	75.450
631.91	74.149
632.24	76.667
632.57	75.667
632.90	76.782
633.23	77.103
633.56	74.854
633.89	77.241
634.22	73.081
634.55	76.923
634.88	74.728
635.20	77.403
635.53	78.117
635.86	76.700
636.19	74.725
636.52	74.671
636.85	75.572
637.18	76.250
637.51	76.580
637.83	77.896
638.16	77.368
638.49	79.724
638.82	75.032
639.15	77.821
639.48	73.152
639.81	79.530
640.13	77.027
640.46	78.490
640.79	77.731
641.12	75.599
641.45	76.040
641.77	77.395
642.10	78.701
642.43	74.962
642.76	79.055
643.09	77.778
643.41	79.524
643.74	79.968
644.07	76.443
644.40	79.579
644.73	80.528
645.05	78.965
645.38	81.126
645.71	80.412
646.04	83.529
646.36	79.232
646.69	78.374
647.02	80.686
647.35	83.394
647.67	79.380
648.00	78.910
648.33	80.776
648.66	74.677
648.98	76.911
649.31	76.615
649.64	78.906
649.96	76.452
650.29	75.574
650.62	81.067
650.94	75.885
651.27	76.083
651.60	79.239
651.92	77.911
652.25	74.124
652.58	80.750
652.90	78.170
653.23	75.645
653.56	75.418
653.88	75.902
654.21	77.181
654.54	77.575
654.86	75.923
655.19	73.926
655.52	70.219
655.84	64.955
656.17	69.106
656.49	92.474
656.82	94.042
657.15	71.277
657.47	53.471
657.80	41.031
658.13	46.559
658.45	62.637
658.78	62.183
659.10	61.345
659.43	61.329
659.75	60.976
660.08	62.552
660.41	61.213
660.73	67.547
661.06	70.870
661.38	77.143
661.71	77.055
662.03	79.839
662.36	83.582
662.68	75.738
663.01	80.892
663.33	82.540
663.66	81.116
663.98	79.241
664.31	80.761
664.63	81.637
664.96	78.959
665.28	79.176
665.61	76.321
665.93	79.835
666.26	78.138
666.58	80.249
666.91	77.728
667.23	78.289
667.56	74.603
667.88	78.959
668.21	79.493
668.53	80.841
668.86	81.524
669.18	81.279
669.50	79.439
669.83	79.319
670.15	77.578
670.48	80.140
670.80	75.626
671.13	79.458
671.45	79.730
671.77	74.946
672.10	78.698
672.42	76.199
672.75	76.727
673.07	75.856
673.39	74.681
673.72	77.756
674.04	79.193
674.37	73.814
674.69	79.098
675.01	75.957
675.34	74.403
675.66	78.618
675.98	78.414
676.31	79.638
676.63	79.310
676.95	79.646
677.28	80.742
677.60	79.864
677.92	79.295
678.25	78.118
678.57	77.778
678.89	75.681
679.22	78.197
679.54	76.331
679.86	75.800
680.18	75.475
680.51	73.557
680.83	75.429
681.15	73.796
681.48	78.499
681.80	78.427
682.12	76.258
682.44	73.674
682.77	72.944
683.09	74.633
683.41	76.991
683.73	75.571
684.06	73.548
684.38	75.314
684.70	74.486
685.02	74.409
685.34	75.244
685.67	73.674
685.99	72.779
686.31	74.327
686.63	74.823
686.96	71.349
687.28	73.796
687.60	74.609
687.92	72.568
688.24	77.756
688.56	71.343
688.89	76.496
689.21	73.961
689.53	76.782
689.85	76.169
690.17	78.027
690.49	73.672
690.82	74.940
691.14	75.708
691.46	74.723
691.78	77.974
692.10	75.636
692.42	73.778
692.74	74.249
693.06	75.955
693.39	75.391
693.71	72.686
694.03	76.458
694.35	70.429
694.67	72.813
694.99	72.634
695.31	76.020
695.63	77.296
695.95	74.442
696.27	76.309
696.59	77.807
696.91	78.933
697.23	76.823
697.56	75.240
697.88	75.000
698.20	68.522
698.52	70.404
698.84	75.971
699.16	73.810
699.48	73.500
699.80	77.945
700.12	74.055
700.44	74.860
700.76	74.636
701.08	71.802
701.40	73.716
701.72	81.790
702.04	80.128
702.36	76.807
702.68	75.150
703.00	76.232
703.32	69.341
703.64	81.176
703.96	77.035
704.28	78.107
704.60	78.481
704.91	71.111
705.23	80.259
705.55	79.730
705.87	82.253
706.19	75.694
706.51	77.083
706.83	79.672
707.15	76.752
707.47	73.278
707.79	71.907
708.11	69.975
708.43	73.067
708.74	71.429
709.06	72.981
709.38	72.126
709.70	75.000
710.02	73.620
710.34	74.257
710.66	73.651
710.98	71.293
711.29	74.194
711.61	69.968
711.93	73.770
712.25	73.090
712.57	74.216
712.89	79.137
713.20	76.289
713.52	73.507
713.84	76.157
714.16	75.082
714.48	75.238
714.80	67.692
715.11	71.470
715.43	72.892
715.75	70.717
716.07	72.459
716.39	77.258
716.70	73.171
717.02	78.889
717.34	69.084
717.66	80.498
717.97	76.639
718.29	78.992
718.61	79.762
718.93	72.401
719.24	66.176
719.56	67.547
719.88	73.455
720.20	70.787
720.51	77.820
720.83	75.100
721.15	79.508
721.46	75.294
721.78	71.648
722.10	78.800
722.42	73.554
722.73	69.323
723.05	73.896
723.37	72.157
723.68	70.040
724.00	75.203
724.32	69.959
724.63	66.805
724.95	71.901
725.27	68.421
725.58	69.828
725.90	72.222
726.22	72.694
726.53	74.905
726.85	71.765
727.16	72.180
727.48	70.000
727.80	68.443
728.11	68.487
728.43	75.207
728.74	68.750
729.06	70.833
729.38	71.206
729.69	73.228
730.01	75.984
730.32	70.916
730.64	72.161
730.96	72.015
731.27	67.143
731.59	72.347
731.90	69.018
732.22	61.656
732.53	67.219
732.85	68.456
733.16	69.565
733.48	64.111
733.80	69.395
734.11	69.310
734.43	63.946
734.74	67.953
735.06	69.279
735.37	67.584
735.69	64.839
736.00	68.350
736.32	68.212
736.63	64.138
736.95	71.377
737.26	65.894
737.58	69.065
737.89	72.401
738.21	66.541
738.52	67.308
738.83	66.797
739.15	72.222
739.46	71.774
739.78	62.238
740.09	65.385
740.41	68.182
740.72	70.803
741.04	65.079
741.35	63.203
741.66	68.056
741.98	68.095
742.29	72.770
742.61	74.866
742.92	72.430
743.23	65.351
743.55	69.820
743.86	69.778
744.18	70.476
744.49	75.369
744.80	77.665
745.12	73.711
745.43	74.372
745.74	68.447
746.06	70.244
746.37	69.163
746.68	75.124
747.00	69.634
747.31	66.827
747.62	67.281
747.94	67.249
748.25	75.814
748.56	72.381
748.88	68.478
749.19	65.258
749.50	70.588
749.82	71.556
750.13	72.247
750.44	69.512
750.75	71.600
751.07	68.571
751.38	62.731
751.69	63.740
752.01	68.077
752.32	64.591
752.63	62.308
752.94	66.667
753.26	74.783
753.57	77.232
753.88	69.397
754.19	70.954
754.51	64.453
754.82	70.751
755.13	65.844
755.44	63.223
755.75	69.136
756.07	62.249
756.38	67.578
756.69	62.455
757.00	66.899
757.31	69.463
757.63	65.109
757.94	60.694
758.25	63.663
758.56	67.385
758.87	64.205
759.18	60.333
759.50	65.836
759.81	63.869
760.12	62.500
760.43	66.667
760.74	66.250
761.05	63.202
761.36	59.581
761.67	60.059
761.99	60.968
762.30	63.768
762.61	55.472
762.92	69.955
763.23	70.142
763.54	64.000
763.85	67.089
764.16	63.265
764.47	68.220
764.78	64.794
765.10	66.906
765.41	62.581
765.72	57.862
766.03	61.131
766.34	66.165
766.65	62.753
766.96	64.500
767.27	65.625
767.58	65.698
767.89	65.161
768.20	72.393
768.51	66.667
768.82	64.865
769.13	75.000
769.44	66.667
769.75	59.307
770.06	63.303
770.37	64.319
770.68	65.625
770.99	66.832
771.30	61.650
771.61	70.833
771.92	61.472
772.23	64.486
772.54	59.043
772.85	66.272
773.16	66.463
773.47	66.265
773.78	66.484
774.09	68.667
774.39	67.901
774.70	59.060
775.01	68.841
775.32	59.701
775.63	63.636
775.94	67.669
776.25	56.429
776.56	72.951
776.87	75.221
777.18	69.912
777.48	58.182
777.79	55.652
778.10	64.220
778.41	54.237
778.72	61.157
779.03	65.672
779.34	63.910
779.65	66.013
779.95	60.870
780.26	65.306
780.57	58.621
780.88	76.852
781.19	61.616
781.50	56.800
781.80	56.209
782.11	62.821
782.42	54.819
782.73	54.745
783.04	60.811
783.34	66.667
783.65	67.442
783.96	62.602
784.27	60.684
784.57	61.789
784.88	55.285
785.19	61.404
785.50	48.454
785.81	61.905
786.11	49.020
786.42	58.182
786.73	61.261
787.04	62.376
787.34	61.905
787.65	56.190
787.96	57.843
788.26	69.369
788.57	60.484
788.88	52.344
789.19	58.120
789.49	46.218
789.80	49.573
790.11	62.832
790.41	54.545
790.72	55.660
791.03	55.556
791.33	57.895
791.64	50.538
791.95	69.333
792.25	58.571
792.56	70.732
792.87	54.082
793.17	43.421
793.48	72.973
793.79	40.845
794.09	54.430
794.40	57.447
794.70	63.551
795.01	39.474
795.32	58.182
795.62	55.357
795.93	54.639
796.23	49.451
796.54	61.053
796.85	50.685
797.15	44.444
797.46	46.575
797.76	46.479
798.07	60.000
798.37	66.176
798.68	60.000
798.99	60.000
799.29	44.737
799.60	65.000
799.90	23.611
800.21	48.437
800.51	58.730
800.82	62.295
801.12	64.912
801.43	47.887
801.73	54.237
802.04	47.541
802.34	43.636
802.65	50.000
802.95	55.556
803.26	50.000
803.56	75.000
803.87	23.684
804.17	50.000
804.48	53.846
804.78	41.026
805.09	60.465
805.39	56.250
805.70	28.302
806.00	68.421
806.30	54.054
806.61	50.000
806.91	58.025
807.22	57.333
807.52	44.776
807.83	56.452
808.13	41.270
808.43	36.364
808.74	53.030
809.04	49.057
809.35	57.534
809.65	59.649
809.95	51.471
810.26	49.020
810.56	60.000
810.86	48.980
811.17	82.857
811.47	36.538
811.77	58.065
812.08	15.789
812.38	38.095
812.69	30.435
812.99	58.065
813.29	35.714
813.59	7.407
813.90	25.532
814.20	27.907
814.50	43.750
814.81	45.000
815.11	26.829
815.41	33.333
815.72	82.857
816.02	25.000
816.32	71.795
816.62	35.135
816.93	8.824
817.23	30.435
817.53	70.588
817.84	70.588
818.14	18.750
818.44	55.172
818.74	48.387
819.04	40.741
819.35	36.667
819.65	4.000
819.95	50.000
820.25	48.000
820.56	31.579
820.86	17.500
821.16	55.319
821.46	44.828
821.76	35.897
822.07	17.500
822.37	46.512
822.67	43.333
822.97	24.324
823.27	27.027
823.57	48.000
823.88	24.324
824.18	4.762
824.48	46.154
824.78	-7.692
825.08	56.522
825.38	37.500
825.69	16.667
825.99	70.000
826.29	37.838
826.59	44.118
826.89	32.000
827.19	8.571
827.49	71.053
827.79	53.125
828.09	6.667
828.39	34.783
828.70	20.690
829.00	34.483
829.30	30.556
829.60	71.875
829.90	33.333
830.20	19.231
830.50	9.524
830.80	14.286
831.10	43.590
831.40	-14.286
831.70	23.529
832.00	16.667
832.30	-31.579
832.60	56.250
832.90	8.333
833.20	0.000
833.50	46.667
833.80	6.667
834.10	30.000
834.40	29.167
834.70	5.556
835.00	65.385
835.30	-16.667
835.60	31.034
835.90	-72.222
836.20	-9.091
836.50	-16.667
836.80	17.143
837.10	54.286
837.40	76.471
837.70	36.364
838.00	29.167
838.30	-25.000
838.60	28.571
838.90	45.000
839.19	4.348
839.49	21.739
839.79	-27.778
840.09	-13.043
840.39	18.182
840.69	-18.750
840.99	21.053
841.29	50.000
841.59	42.857
841.88	22.222
842.18	41.667
842.48	-41.176
842.78	24.138
843.08	42.857
843.38	-38.462
843.68	-100.000
843.97	-100.000
844.27	-81.818
844.57	-160.000
844.87	24.000
845.17	20.000
845.47	-7.143
845.76	-166.667
846.06	0.000
846.36	-225.000
846.66	-80.000
846.96	26.316
847.25	25.000
847.55	-75.000
847.85	80.000
848.15	-170.000
848.44	73.077
848.74	68.421
849.04	400.000
849.34	-11.111
849.63	-52.632
849.93	0.000
850.23	-35.000
850.53	19.048
850.82	20.000
851.12	-57.895
851.42	-900.000
851.71	7.143
852.01	-66.667
852.31	35.294
852.61	20.000
852.90	-9.524
853.20	-50.000
853.50	-11.111
853.79	-15.789
854.09	-20.000
854.39	0.000
854.68	30.435
854.98	-166.667
855.28	3.448
855.57	25.000
855.87	10.000
856.17	0.000
856.46	-13.793
856.76	-46.667
857.05	0.000
857.35	-92.308
857.65	72.727
857.94	-7.407
858.24	-42.857
858.53	-14.286
858.83	-50.000
859.13	-211.111
859.42	9.524
859.72	-112.500
860.01	-66.667
860.31	-50.000
860.60	-180.000
860.90	-77.778
861.20	25.000
861.49	-157.143
861.79	11.765
862.08	-700.000
862.38	-116.667
862.67	-23.077
862.97	5.882
863.26	40.000
863.56	-41.176
863.85	700.000
864.15	-130.000
864.44	23.077
864.74	-20.000
865.03	-175.000
865.33	-200.000
865.62	-41.176
865.92	-425.000
866.21	-121.429
866.51	-133.333
866.80	-1100.000
867.10	-366.667
867.39	-64.706
867.69	26.087
867.98	-157.143
868.27	-220.000
868.57	-37.500
868.86	-81.818
869.16	-29.412
869.45	-50.000
869.75	-185.714
870.04	1500.000
870.33	-41.667
870.63	140.000
870.92	-144.444
871.22	-100.000
871.51	-54.545
871.80	-33.333
872.10	50.000
>>>>>End Processed Spectral Data<<<<<
