SpectraSuite Data File
++++++++++++++++++++++++++++++++++++
Date: Sat May 16 11:19:01 PDT 2015
User: schluterlab
Dark Spectrum Present: Yes
Reference Spectrum Present: Yes
Number of Sampled Component Spectra: 1
Spectrometers: USB2E3373
Integration Time (usec): 3000 (USB2E3373)
Spectra Averaged: 3 (USB2E3373)
Boxcar Smoothing: 0 (USB2E3373)
Correct for Electrical Dark: No (USB2E3373)
Strobe/Lamp Enabled: No (USB2E3373)
Correct for Detector Non-linearity: No (USB2E3373)
Correct for Stray Light: No (USB2E3373)
Number of Pixels in Processed Spectrum: 2048
>>>>>Begin Processed Spectral Data<<<<<
178.53	0.000
178.91	73.333
179.29	66.667
179.67	-900.000
180.04	-69.231
180.42	600.000
180.80	400.000
181.18	125.000
181.56	-112.500
181.94	300.000
182.31	125.000
182.69	7.692
183.07	-600.000
183.45	1500.000
183.83	233.333
184.20	-214.286
184.58	-100.000
184.96	-325.000
185.34	100.000
185.72	-450.000
186.09	266.667
186.47	-187.500
186.85	-175.000
187.23	50.000
187.61	-250.000
187.98	-287.500
188.36	-37.500
188.74	-162.500
189.12	1400.000
189.49	342.857
189.87	-41.667
190.25	350.000
190.63	7.143
191.00	-144.444
191.38	400.000
191.76	-40.000
192.14	520.000
192.51	-200.000
192.89	-166.667
193.27	0.000
193.65	-111.111
194.02	-185.714
194.40	500.000
194.78	-50.000
195.15	-600.000
195.53	-145.455
195.91	-250.000
196.29	240.000
196.66	-200.000
197.04	900.000
197.42	-225.000
197.79	0.000
198.17	-566.667
198.55	-1400.000
198.92	-800.000
199.30	125.000
199.68	0.000
200.05	-22.222
200.43	-122.222
200.81	-1400.000
201.18	-141.667
201.56	42.857
201.94	-46.667
202.31	40.909
202.69	30.000
203.07	-30.000
203.44	366.667
203.82	-350.000
204.19	-475.000
204.57	-125.000
204.95	-700.000
205.32	-25.000
205.70	700.000
206.08	-1100.000
206.45	-11.111
206.83	-800.000
207.20	-150.000
207.58	-333.333
207.96	-300.000
208.33	-75.000
208.71	-33.333
209.08	270.000
209.46	-271.429
209.84	50.000
210.21	0.000
210.59	40.000
210.96	1300.000
211.34	-183.333
211.71	-166.667
212.09	50.000
212.46	1450.000
212.84	-1700.000
213.22	333.333
213.59	141.667
213.97	-11.111
214.34	120.000
214.72	0.000
215.09	-300.000
215.47	66.667
215.84	-10.000
216.22	-110.000
216.59	-26.667
216.97	-200.000
217.34	250.000
217.72	-171.429
218.09	-150.000
218.47	-200.000
218.84	128.571
219.22	-85.714
219.59	0.000
219.97	157.143
220.34	400.000
220.72	150.000
221.09	-38.462
221.47	0.000
221.84	433.333
222.22	-450.000
222.59	800.000
222.97	-125.000
223.34	-800.000
223.72	-566.667
224.09	-35.714
224.46	-200.000
224.84	-71.429
225.21	-71.429
225.59	-9.091
225.96	0.000
226.34	-57.143
226.71	-11.111
227.08	0.000
227.46	2200.000
227.83	-42.857
228.21	-225.000
228.58	500.000
228.95	-25.000
229.33	-2100.000
229.70	-160.000
230.08	-500.000
230.45	16.667
230.82	-33.333
231.20	-400.000
231.57	-250.000
231.95	600.000
232.32	33.333
232.69	-11.111
233.07	-157.143
233.44	-750.000
233.81	-33.333
234.19	11.111
234.56	-50.000
234.93	21.875
235.31	-142.857
235.68	-85.714
236.05	-58.824
236.43	-40.909
236.80	-9.677
237.17	-25.000
237.55	-57.143
237.92	-54.545
238.29	-8.571
238.67	5.882
239.04	0.000
239.41	-19.355
239.79	-35.897
240.16	-11.905
240.53	-9.091
240.91	28.205
241.28	9.091
241.65	18.462
242.02	0.000
242.40	-9.836
242.77	19.697
243.14	-1.695
243.51	-7.143
243.89	8.861
244.26	-3.371
244.63	10.526
245.00	5.263
245.38	5.932
245.75	17.699
246.12	8.000
246.49	5.512
246.87	5.691
247.24	1.695
247.61	4.237
247.98	9.155
248.36	4.196
248.73	6.962
249.10	9.554
249.47	8.772
249.84	17.045
250.22	2.381
250.59	13.559
250.96	8.901
251.33	13.744
251.70	15.385
252.08	13.744
252.45	5.687
252.82	8.571
253.19	13.617
253.56	13.306
253.94	13.924
254.31	10.730
254.68	16.260
255.05	11.290
255.42	9.921
255.79	12.545
256.16	14.118
256.54	13.971
256.91	11.742
257.28	9.890
257.65	16.667
258.02	17.610
258.39	12.040
258.76	11.149
259.14	9.568
259.51	10.820
259.88	14.024
260.25	14.286
260.62	9.325
260.99	12.166
261.36	14.024
261.73	11.850
262.10	11.944
262.47	12.536
262.85	16.000
263.22	12.034
263.59	8.923
263.96	12.174
264.33	14.905
264.70	12.983
265.07	17.582
265.44	10.853
265.81	10.336
266.18	9.620
266.55	11.275
266.92	16.625
267.29	13.317
267.66	10.370
268.03	14.976
268.40	13.615
268.77	12.771
269.14	10.905
269.51	14.483
269.88	12.156
270.25	11.888
270.62	11.670
270.99	14.640
271.36	13.287
271.73	12.780
272.10	13.959
272.47	10.667
272.84	14.222
273.21	11.927
273.58	13.846
273.95	12.281
274.32	13.348
274.69	12.910
275.06	13.701
275.43	10.491
275.80	16.090
276.17	11.506
276.54	13.442
276.91	10.905
277.28	10.953
277.65	14.876
278.02	12.109
278.39	13.360
278.76	10.757
279.13	12.253
279.50	12.525
279.87	10.148
280.23	12.753
280.60	12.525
280.97	12.427
281.34	11.412
281.71	12.692
282.08	11.895
282.45	11.405
282.82	12.403
283.19	12.182
283.56	14.286
283.92	13.251
284.29	13.197
284.66	12.950
285.03	12.656
285.40	13.653
285.77	12.105
286.14	12.635
286.51	12.256
286.87	13.067
287.24	14.505
287.61	13.388
287.98	10.919
288.35	10.744
288.72	11.375
289.08	9.492
289.45	13.468
289.82	10.727
290.19	14.122
290.56	10.248
290.93	12.560
291.29	11.994
291.66	13.205
292.03	13.658
292.40	12.500
292.77	12.422
293.13	14.309
293.50	11.441
293.87	12.270
294.24	13.122
294.60	10.152
294.97	14.112
295.34	12.000
295.71	13.244
296.08	8.449
296.44	12.017
296.81	11.966
297.18	13.239
297.55	12.712
297.91	12.831
298.28	12.055
298.65	11.715
299.02	14.439
299.38	13.102
299.75	11.957
300.12	13.846
300.48	13.299
300.85	13.499
301.22	12.419
301.59	12.744
301.95	14.484
302.32	11.082
302.69	12.240
303.05	11.844
303.42	12.000
303.79	13.876
304.15	13.507
304.52	13.536
304.89	12.987
305.25	12.576
305.62	13.396
305.99	13.428
306.35	14.428
306.72	13.554
307.09	13.961
307.45	13.394
307.82	11.844
308.19	12.752
308.55	15.033
308.92	13.963
309.29	13.189
309.65	13.574
310.02	14.039
310.38	12.324
310.75	14.447
311.12	15.186
311.48	14.196
311.85	13.388
312.22	15.242
312.58	15.158
312.95	15.087
313.31	15.784
313.68	16.583
314.05	16.419
314.41	14.085
314.78	15.684
315.14	16.091
315.51	14.894
315.87	15.876
316.24	15.743
316.61	16.315
316.97	16.716
317.34	15.800
317.70	15.863
318.07	16.978
318.43	16.011
318.80	17.465
319.16	15.103
319.53	16.541
319.89	17.121
320.26	17.549
320.62	16.827
320.99	18.109
321.35	16.453
321.72	16.991
322.08	18.002
322.45	17.327
322.81	17.579
323.18	20.557
323.54	19.501
323.91	20.204
324.27	20.057
324.64	19.927
325.00	20.942
325.37	22.443
325.73	23.185
326.10	21.169
326.46	22.417
326.83	22.723
327.19	22.769
327.56	24.106
327.92	24.809
328.29	24.762
328.65	24.818
329.01	25.265
329.38	26.762
329.74	27.106
330.11	27.380
330.47	27.430
330.84	28.873
331.20	27.527
331.56	28.168
331.93	28.686
332.29	28.950
332.66	27.744
333.02	29.321
333.38	29.928
333.75	31.879
334.11	30.489
334.48	29.214
334.84	31.321
335.20	31.206
335.57	30.235
335.93	32.677
336.29	29.584
336.66	30.396
337.02	32.072
337.38	31.907
337.75	30.904
338.11	31.574
338.47	32.028
338.84	30.309
339.20	30.668
339.56	31.016
339.93	31.129
340.29	31.621
340.65	32.255
341.02	31.788
341.38	30.581
341.74	31.583
342.11	31.911
342.47	31.588
342.83	30.982
343.20	32.024
343.56	28.490
343.92	32.053
344.28	30.698
344.65	31.023
345.01	31.597
345.37	31.229
345.73	29.951
346.10	29.436
346.46	29.245
346.82	30.152
347.19	31.553
347.55	30.578
347.91	30.709
348.27	30.867
348.63	30.856
349.00	30.708
349.36	28.493
349.72	32.325
350.08	30.233
350.45	30.102
350.81	30.573
351.17	30.949
351.53	29.515
351.89	30.315
352.26	30.310
352.62	31.260
352.98	29.984
353.34	30.536
353.70	29.112
354.07	30.685
354.43	30.751
354.79	31.300
355.15	31.390
355.51	28.984
355.87	30.593
356.24	30.183
356.60	31.023
356.96	31.255
357.32	30.325
357.68	30.728
358.04	31.101
358.40	31.168
358.77	29.907
359.13	30.145
359.49	30.612
359.85	31.098
360.21	31.050
360.57	30.873
360.93	31.185
361.29	31.390
361.66	30.564
362.02	29.956
362.38	30.154
362.74	31.062
363.10	31.205
363.46	31.695
363.82	30.248
364.18	31.187
364.54	31.665
364.90	30.189
365.26	30.385
365.62	31.718
365.98	30.868
366.35	30.986
366.71	30.796
367.07	31.334
367.43	31.434
367.79	30.928
368.15	30.156
368.51	30.699
368.87	31.319
369.23	31.368
369.59	30.486
369.95	30.796
370.31	31.013
370.67	30.441
371.03	31.778
371.39	30.764
371.75	31.259
372.11	32.353
372.47	31.453
372.83	32.615
373.19	31.286
373.55	32.090
373.91	32.290
374.27	31.211
374.63	31.125
374.99	32.684
375.35	31.359
375.71	32.208
376.07	31.896
376.42	30.795
376.78	32.941
377.14	31.593
377.50	32.753
377.86	32.185
378.22	33.229
378.58	32.427
378.94	32.737
379.30	33.151
379.66	33.333
380.02	32.086
380.38	33.353
380.74	33.236
381.09	33.450
381.45	32.518
381.81	32.426
382.17	32.957
382.53	33.678
382.89	33.553
383.25	33.654
383.61	33.785
383.97	33.558
384.32	34.043
384.68	34.281
385.04	33.998
385.40	34.084
385.76	34.512
386.12	33.417
386.48	34.901
386.83	33.742
387.19	34.130
387.55	35.130
387.91	34.084
388.27	33.353
388.62	32.993
388.98	34.040
389.34	34.455
389.70	32.887
390.06	33.810
390.42	34.487
390.77	34.700
391.13	35.652
391.49	33.188
391.85	34.289
392.20	33.738
392.56	34.942
392.92	34.398
393.28	34.730
393.64	35.658
393.99	34.215
394.35	34.854
394.71	34.095
395.07	34.777
395.42	34.029
395.78	34.318
396.14	34.517
396.50	35.229
396.85	34.732
397.21	34.022
397.57	35.258
397.92	35.773
398.28	35.000
398.64	33.135
399.00	35.169
399.35	34.329
399.71	35.424
400.07	35.463
400.42	34.246
400.78	34.049
401.14	34.132
401.49	35.083
401.85	34.716
402.21	35.399
402.57	34.587
402.92	35.368
403.28	34.988
403.63	33.913
403.99	34.493
404.35	34.601
404.70	34.055
405.06	34.487
405.42	33.764
405.77	33.937
406.13	34.583
406.49	34.811
406.84	34.193
407.20	34.217
407.55	34.326
407.91	34.521
408.27	34.130
408.62	34.336
408.98	34.991
409.34	34.186
409.69	32.766
410.05	33.778
410.40	34.703
410.76	34.618
411.11	34.913
411.47	34.271
411.83	34.474
412.18	34.406
412.54	34.289
412.89	32.625
413.25	32.349
413.60	34.083
413.96	34.442
414.31	33.884
414.67	33.333
415.03	34.153
415.38	33.572
415.74	35.760
416.09	33.376
416.45	33.201
416.80	34.655
417.16	33.953
417.51	34.734
417.87	33.269
418.22	33.881
418.58	34.467
418.93	33.538
419.29	33.689
419.64	34.045
420.00	34.569
420.35	35.068
420.71	35.114
421.06	34.734
421.42	33.489
421.77	34.394
422.12	35.031
422.48	33.405
422.83	34.282
423.19	34.465
423.54	36.196
423.90	35.049
424.25	34.106
424.61	35.645
424.96	35.869
425.31	34.600
425.67	34.785
426.02	33.678
426.38	35.027
426.73	35.184
427.09	35.172
427.44	34.943
427.79	35.465
428.15	35.248
428.50	35.308
428.85	35.671
429.21	34.920
429.56	35.833
429.92	35.922
430.27	34.546
430.62	35.110
430.98	34.867
431.33	35.059
431.68	35.013
432.04	35.870
432.39	35.954
432.74	36.391
433.10	35.903
433.45	34.830
433.80	35.274
434.16	35.519
434.51	35.890
434.86	37.668
435.22	35.913
435.57	36.597
435.92	36.518
436.28	36.499
436.63	35.274
436.98	35.796
437.34	36.326
437.69	36.756
438.04	36.188
438.39	36.101
438.75	36.380
439.10	35.591
439.45	35.365
439.81	37.048
440.16	36.570
440.51	36.529
440.86	37.189
441.22	35.987
441.57	36.158
441.92	36.215
442.27	35.714
442.63	36.695
442.98	35.892
443.33	36.189
443.68	35.748
444.03	35.511
444.39	36.662
444.74	36.509
445.09	36.294
445.44	36.522
445.79	37.328
446.15	37.349
446.50	35.275
446.85	36.326
447.20	36.364
447.55	36.740
447.91	37.170
448.26	35.922
448.61	36.276
448.96	37.031
449.31	36.640
449.66	36.863
450.02	36.233
450.37	36.348
450.72	35.989
451.07	36.141
451.42	36.369
451.77	36.685
452.12	35.757
452.47	37.657
452.83	36.692
453.18	37.065
453.53	37.562
453.88	37.321
454.23	37.062
454.58	37.787
454.93	36.902
455.28	36.902
455.63	37.531
455.98	38.373
456.34	37.548
456.69	38.149
457.04	37.554
457.39	37.261
457.74	36.621
458.09	36.833
458.44	37.760
458.79	36.211
459.14	37.307
459.49	37.774
459.84	37.605
460.19	37.530
460.54	36.358
460.89	37.164
461.24	37.158
461.59	37.397
461.94	38.001
462.29	36.986
462.64	38.011
462.99	38.420
463.34	37.947
463.69	37.850
464.04	36.731
464.39	37.993
464.74	37.352
465.09	36.681
465.44	36.323
465.79	37.507
466.14	38.090
466.49	36.385
466.84	37.335
467.19	38.529
467.54	36.646
467.89	37.300
468.24	37.945
468.59	37.601
468.94	37.814
469.29	37.752
469.64	38.275
469.99	37.542
470.34	37.876
470.68	38.808
471.03	37.784
471.38	36.042
471.73	39.161
472.08	38.755
472.43	37.259
472.78	38.067
473.13	36.978
473.48	38.162
473.83	37.097
474.17	37.070
474.52	38.811
474.87	37.995
475.22	37.699
475.57	37.222
475.92	38.877
476.27	38.000
476.61	38.704
476.96	38.122
477.31	37.890
477.66	38.019
478.01	38.142
478.36	38.030
478.70	39.028
479.05	37.804
479.40	37.876
479.75	37.870
480.10	37.202
480.45	36.122
480.79	37.710
481.14	37.933
481.49	38.577
481.84	37.679
482.19	37.277
482.53	37.784
482.88	37.589
483.23	37.887
483.58	38.575
483.92	38.318
484.27	36.774
484.62	38.056
484.97	37.880
485.31	36.512
485.66	36.199
486.01	35.938
486.36	36.435
486.70	37.243
487.05	36.560
487.40	36.752
487.75	36.777
488.09	36.844
488.44	36.840
488.79	36.930
489.13	37.048
489.48	37.928
489.83	37.948
490.17	37.745
490.52	37.998
490.87	37.644
491.22	38.533
491.56	37.778
491.91	39.027
492.26	38.443
492.60	37.964
492.95	38.030
493.30	38.780
493.64	37.471
493.99	39.149
494.34	39.333
494.68	39.279
495.03	38.289
495.37	39.036
495.72	38.507
496.07	38.010
496.41	38.536
496.76	38.311
497.11	38.954
497.45	39.272
497.80	38.119
498.14	38.409
498.49	38.272
498.84	38.350
499.18	39.425
499.53	38.480
499.87	38.031
500.22	38.676
500.56	39.370
500.91	38.818
501.26	39.010
501.60	38.517
501.95	38.937
502.29	37.648
502.64	38.567
502.98	38.285
503.33	37.735
503.67	38.602
504.02	38.629
504.36	38.824
504.71	38.349
505.06	37.494
505.40	39.222
505.75	39.126
506.09	38.979
506.44	39.449
506.78	39.338
507.13	39.547
507.47	39.541
507.82	39.494
508.16	39.534
508.51	38.588
508.85	38.147
509.19	39.037
509.54	38.742
509.88	39.255
510.23	39.046
510.57	38.836
510.92	40.172
511.26	39.553
511.61	38.985
511.95	38.578
512.30	40.022
512.64	38.564
512.98	39.934
513.33	39.758
513.67	39.754
514.02	39.541
514.36	38.781
514.70	39.162
515.05	39.680
515.39	39.619
515.74	40.081
516.08	40.000
516.42	39.150
516.77	40.150
517.11	39.703
517.46	40.490
517.80	39.952
518.14	38.889
518.49	39.629
518.83	39.644
519.17	39.728
519.52	38.866
519.86	39.725
520.20	39.914
520.55	40.369
520.89	39.887
521.23	39.805
521.58	41.066
521.92	40.722
522.26	40.698
522.61	40.431
522.95	39.056
523.29	38.934
523.64	40.412
523.98	40.993
524.32	40.101
524.66	38.944
525.01	40.719
525.35	40.657
525.69	39.883
526.04	39.621
526.38	39.975
526.72	39.400
527.06	41.016
527.41	39.142
527.75	39.670
528.09	39.974
528.43	40.000
528.78	40.515
529.12	40.717
529.46	40.013
529.80	40.671
530.15	41.082
530.49	39.780
530.83	41.061
531.17	40.404
531.51	39.652
531.86	39.961
532.20	39.879
532.54	40.174
532.88	39.328
533.22	40.040
533.57	39.491
533.91	39.263
534.25	39.158
534.59	38.601
534.93	38.395
535.27	38.955
535.62	38.683
535.96	38.849
536.30	38.482
536.64	38.977
536.98	40.184
537.32	39.115
537.66	38.832
538.01	40.137
538.35	40.608
538.69	38.636
539.03	39.540
539.37	38.257
539.71	39.026
540.05	39.616
540.39	39.266
540.73	39.737
541.07	40.232
541.42	39.500
541.76	38.073
542.10	39.163
542.44	40.373
542.78	39.009
543.12	39.851
543.46	38.151
543.80	37.726
544.14	40.027
544.48	39.633
544.82	38.566
545.16	40.040
545.50	39.771
545.84	39.569
546.18	39.112
546.52	40.185
546.86	38.960
547.20	40.014
547.54	38.499
547.88	40.146
548.22	38.860
548.56	39.279
548.90	38.612
549.24	39.664
549.58	40.296
549.92	41.131
550.26	40.535
550.60	38.549
550.94	38.905
551.28	39.880
551.62	39.439
551.96	38.712
552.30	38.328
552.64	39.057
552.98	39.523
553.32	38.961
553.66	40.231
554.00	40.085
554.34	39.639
554.68	39.912
555.02	39.580
555.36	38.965
555.69	39.255
556.03	40.070
556.37	39.118
556.71	39.871
557.05	39.320
557.39	38.307
557.73	40.044
558.07	39.412
558.41	39.043
558.75	39.772
559.08	38.054
559.42	40.199
559.76	40.261
560.10	40.940
560.44	40.390
560.78	39.527
561.12	38.578
561.45	38.973
561.79	39.094
562.13	37.938
562.47	37.465
562.81	37.836
563.15	39.958
563.48	38.010
563.82	38.540
564.16	40.095
564.50	38.508
564.84	39.616
565.17	37.732
565.51	38.201
565.85	39.216
566.19	39.987
566.52	38.030
566.86	38.875
567.20	37.833
567.54	40.047
567.88	38.191
568.21	38.591
568.55	37.593
568.89	37.624
569.23	37.066
569.56	36.780
569.90	37.215
570.24	37.204
570.57	36.239
570.91	35.906
571.25	36.446
571.59	35.998
571.92	35.417
572.26	35.590
572.60	35.681
572.93	34.593
573.27	34.634
573.61	34.930
573.95	34.912
574.28	34.697
574.62	34.494
574.96	34.895
575.29	34.782
575.63	34.829
575.97	34.520
576.30	34.612
576.64	35.065
576.98	34.212
577.31	34.732
577.65	34.981
577.98	34.773
578.32	34.288
578.66	34.822
578.99	34.488
579.33	34.187
579.67	34.745
580.00	34.623
580.34	34.467
580.67	34.469
581.01	33.592
581.35	34.294
581.68	33.855
582.02	34.496
582.35	34.372
582.69	34.534
583.02	35.080
583.36	34.414
583.70	34.588
584.03	34.779
584.37	34.723
584.70	34.285
585.04	35.038
585.37	34.487
585.71	34.615
586.04	34.093
586.38	34.616
586.72	35.034
587.05	34.551
587.39	34.089
587.72	34.404
588.06	34.663
588.39	34.805
588.73	34.822
589.06	35.582
589.40	35.417
589.73	35.411
590.07	35.543
590.40	34.723
590.73	35.066
591.07	35.369
591.40	36.698
591.74	35.708
592.07	35.811
592.41	36.008
592.74	35.396
593.08	35.015
593.41	35.921
593.75	34.652
594.08	35.011
594.41	36.229
594.75	35.561
595.08	35.977
595.42	35.405
595.75	34.105
596.09	35.972
596.42	35.802
596.75	35.015
597.09	36.643
597.42	35.050
597.75	35.164
598.09	36.331
598.42	35.307
598.76	34.178
599.09	35.478
599.42	34.564
599.76	34.655
600.09	35.954
600.42	35.207
600.76	35.631
601.09	35.549
601.42	34.468
601.76	35.008
602.09	35.092
602.42	35.103
602.76	35.189
603.09	35.444
603.42	35.455
603.76	35.740
604.09	35.122
604.42	34.971
604.76	34.802
605.09	35.986
605.42	35.993
605.75	35.058
606.09	35.077
606.42	35.065
606.75	35.552
607.09	34.627
607.42	35.211
607.75	35.188
608.08	35.969
608.42	35.714
608.75	35.140
609.08	35.899
609.41	34.928
609.75	34.715
610.08	36.569
610.41	35.277
610.74	36.122
611.07	35.953
611.41	35.956
611.74	36.247
612.07	36.735
612.40	35.768
612.73	35.810
613.07	35.553
613.40	36.782
613.73	35.422
614.06	35.475
614.39	36.359
614.72	35.587
615.06	35.109
615.39	34.563
615.72	35.850
616.05	35.229
616.38	37.086
616.71	36.577
617.05	36.490
617.38	36.347
617.71	35.197
618.04	35.963
618.37	36.541
618.70	37.484
619.03	36.425
619.36	37.139
619.69	37.186
620.03	36.639
620.36	36.217
620.69	36.109
621.02	37.823
621.35	37.258
621.68	37.787
622.01	36.893
622.34	37.500
622.67	36.484
623.00	38.485
623.33	37.463
623.66	36.484
623.99	36.767
624.32	36.756
624.65	37.380
624.99	37.117
625.32	36.302
625.65	36.597
625.98	35.994
626.31	36.868
626.64	37.406
626.97	37.586
627.30	38.809
627.63	36.356
627.96	38.729
628.29	38.327
628.62	37.631
628.95	39.469
629.28	36.560
629.61	38.960
629.94	37.618
630.26	39.165
630.59	40.704
630.92	39.339
631.25	39.315
631.58	39.788
631.91	36.383
632.24	38.333
632.57	39.222
632.90	40.690
633.23	38.668
633.56	39.649
633.89	39.151
634.22	38.135
634.55	40.385
634.88	38.573
635.20	39.576
635.53	39.695
635.86	39.421
636.19	39.316
636.52	39.188
636.85	36.703
637.18	38.625
637.51	40.520
637.83	39.281
638.16	40.000
638.49	38.759
638.82	38.996
639.15	39.040
639.48	40.078
639.81	40.664
640.13	39.730
640.46	41.311
640.79	40.896
641.12	40.339
641.45	41.176
641.77	39.671
642.10	41.088
642.43	39.302
642.76	39.843
643.09	41.587
643.41	41.429
643.74	41.494
644.07	41.966
644.40	41.005
644.73	40.099
645.05	38.397
645.38	41.556
645.71	41.924
646.04	41.008
646.36	41.536
646.69	42.561
647.02	41.155
647.35	43.502
647.67	40.876
648.00	42.882
648.33	41.484
648.66	40.323
648.98	39.172
649.31	38.923
649.64	40.312
649.96	39.717
650.29	38.852
650.62	40.448
650.94	40.641
651.27	39.168
651.60	40.657
651.92	40.240
652.25	40.735
652.58	38.160
652.90	40.289
653.23	38.710
653.56	39.967
653.88	38.852
654.21	39.597
654.54	41.694
654.86	37.881
655.19	37.822
655.52	35.299
655.84	32.438
656.17	34.716
656.49	47.158
656.82	48.322
657.15	36.387
657.47	26.950
657.80	20.404
658.13	23.456
658.45	31.912
658.78	31.460
659.10	31.208
659.43	31.200
659.75	31.943
660.08	31.771
660.41	32.432
660.73	34.653
661.06	37.101
661.38	39.286
661.71	41.683
662.03	42.540
662.36	38.593
662.68	42.194
663.01	45.011
663.33	42.404
663.66	40.343
663.98	37.946
664.31	38.926
664.63	41.372
664.96	41.432
665.28	38.829
665.61	40.169
665.93	40.947
666.26	42.510
666.58	40.748
666.91	40.980
667.23	41.886
667.56	41.723
667.88	42.534
668.21	40.553
668.53	43.458
668.86	40.647
669.18	42.922
669.50	38.785
669.83	42.092
670.15	40.135
670.48	40.888
670.80	38.041
671.13	37.923
671.45	40.315
671.77	40.043
672.10	39.842
672.42	38.192
672.75	36.182
673.07	36.577
673.39	38.798
673.72	38.386
674.04	37.792
674.37	38.763
674.69	42.008
675.01	38.085
675.34	38.395
675.66	38.661
675.98	38.987
676.31	42.081
676.63	40.230
676.95	38.053
677.28	43.387
677.60	40.498
677.92	39.868
678.25	40.700
678.57	38.477
678.89	38.994
679.22	40.252
679.54	41.617
679.86	34.400
680.18	38.403
680.51	38.734
680.83	38.857
681.15	36.994
681.48	39.148
681.80	36.694
682.12	37.223
682.44	37.132
682.77	37.879
683.09	40.042
683.41	39.159
683.73	38.584
684.06	38.710
684.38	38.285
684.70	37.860
685.02	38.386
685.34	38.402
685.67	38.447
685.99	38.185
686.31	38.241
686.63	38.121
686.96	35.860
687.28	38.343
687.60	38.281
687.92	35.798
688.24	37.795
688.56	36.072
688.89	36.752
689.21	35.886
689.53	37.701
689.85	37.862
690.17	34.081
690.49	38.568
690.82	36.627
691.14	36.557
691.46	39.690
691.78	37.665
692.10	38.347
692.42	35.556
692.74	36.052
693.06	36.404
693.39	37.136
693.71	38.375
694.03	38.013
694.35	35.666
694.67	36.407
694.99	35.294
695.31	37.755
695.63	37.500
695.95	39.454
696.27	40.150
696.59	41.711
696.91	41.011
697.23	40.365
697.56	36.298
697.88	36.036
698.20	35.760
698.52	37.668
698.84	40.049
699.16	36.429
699.48	32.250
699.80	36.090
700.12	41.058
700.44	37.709
700.76	34.985
701.08	39.244
701.40	37.160
701.72	37.346
702.04	41.987
702.36	37.952
702.68	38.323
703.00	35.652
703.32	35.817
703.64	34.706
703.96	42.442
704.28	38.166
704.60	37.658
704.91	36.190
705.23	41.748
705.55	34.459
705.87	38.567
706.19	33.681
706.51	36.458
706.83	38.361
707.15	37.261
707.47	37.741
707.79	38.144
708.11	36.132
708.43	36.160
708.74	37.143
709.06	36.490
709.38	33.621
709.70	34.062
710.02	39.571
710.34	34.983
710.66	35.556
710.98	35.331
711.29	39.032
711.61	37.700
711.93	36.393
712.25	38.206
712.57	36.585
712.89	38.129
713.20	38.488
713.52	33.209
713.84	40.569
714.16	38.361
714.48	36.825
714.80	34.462
715.11	35.447
715.43	39.157
715.75	36.137
716.07	32.459
716.39	34.114
716.70	36.934
717.02	35.926
717.34	37.786
717.66	36.929
717.97	31.557
718.29	40.336
718.61	40.873
718.93	34.767
719.24	34.559
719.56	33.208
719.88	36.364
720.20	35.206
720.51	39.474
720.83	37.349
721.15	38.115
721.46	41.569
721.78	34.100
722.10	41.200
722.42	37.603
722.73	37.450
723.05	39.759
723.37	38.824
723.68	31.984
724.00	39.024
724.32	38.272
724.63	35.685
724.95	35.124
725.27	36.842
725.58	29.741
725.90	36.111
726.22	39.483
726.53	39.163
726.85	30.980
727.16	35.714
727.48	36.538
727.80	34.426
728.11	36.134
728.43	34.711
728.74	35.156
729.06	33.333
729.38	33.074
729.69	32.283
730.01	31.890
730.32	33.865
730.64	36.996
730.96	36.194
731.27	34.286
731.59	33.119
731.90	33.129
732.22	37.730
732.53	38.079
732.85	35.570
733.16	34.058
733.48	32.056
733.80	36.299
734.11	38.621
734.43	35.714
734.74	32.938
735.06	29.154
735.37	36.697
735.69	34.516
736.00	34.343
736.32	37.417
736.63	28.966
736.95	30.435
737.26	32.450
737.58	35.971
737.89	35.484
738.21	32.331
738.52	35.385
738.83	38.281
739.15	35.470
739.46	37.500
739.78	30.420
740.09	29.720
740.41	28.671
740.72	37.956
741.04	34.524
741.35	34.199
741.66	37.037
741.98	32.857
742.29	41.784
742.61	35.829
742.92	40.654
743.23	32.018
743.55	36.937
743.86	36.889
744.18	30.952
744.49	40.394
744.80	39.594
745.12	38.144
745.43	36.181
745.74	37.864
746.06	28.780
746.37	42.291
746.68	37.313
747.00	39.791
747.31	36.538
747.62	38.710
747.94	37.991
748.25	36.279
748.56	36.190
748.88	32.609
749.19	30.047
749.50	37.255
749.82	32.000
750.13	41.850
750.44	36.585
750.75	33.600
751.07	33.214
751.38	32.472
751.69	30.916
752.01	35.000
752.32	29.961
752.63	33.077
752.94	33.333
753.26	34.783
753.57	40.625
753.88	34.914
754.19	34.025
754.51	34.766
754.82	34.387
755.13	37.449
755.44	32.645
755.75	34.568
756.07	26.506
756.38	26.172
756.69	37.545
757.00	33.798
757.31	34.228
757.63	32.710
757.94	28.613
758.25	32.849
758.56	33.962
758.87	29.261
759.18	33.333
759.50	34.875
759.81	31.022
760.12	31.757
760.43	32.039
760.74	32.500
761.05	34.270
761.36	31.737
761.67	31.953
761.99	35.161
762.30	31.159
762.61	33.208
762.92	35.426
763.23	37.915
763.54	29.333
763.85	36.287
764.16	32.653
764.47	32.203
764.78	29.588
765.10	34.173
765.41	29.355
765.72	32.075
766.03	30.389
766.34	28.195
766.65	34.818
766.96	31.000
767.27	37.500
767.58	38.953
767.89	30.323
768.20	34.356
768.51	33.333
768.82	36.216
769.13	36.000
769.44	32.018
769.75	34.632
770.06	38.073
770.37	30.516
770.68	28.646
770.99	33.168
771.30	33.010
771.61	31.019
771.92	28.139
772.23	32.710
772.54	26.064
772.85	28.994
773.16	30.488
773.47	38.554
773.78	36.264
774.09	33.333
774.39	35.802
774.70	29.530
775.01	32.609
775.32	30.597
775.63	26.446
775.94	39.098
776.25	40.000
776.56	39.344
776.87	37.168
777.18	44.248
777.48	28.182
777.79	28.696
778.10	36.697
778.41	16.949
778.72	36.364
779.03	31.343
779.34	33.835
779.65	31.373
779.95	33.333
780.26	24.490
780.57	18.103
780.88	31.481
781.19	19.192
781.50	24.800
781.80	24.183
782.11	34.615
782.42	28.313
782.73	28.467
783.04	35.135
783.34	22.727
783.65	32.558
783.96	34.959
784.27	34.188
784.57	22.764
784.88	21.951
785.19	33.333
785.50	12.371
785.81	20.000
786.11	16.667
786.42	20.909
786.73	30.631
787.04	25.743
787.34	26.667
787.65	27.619
787.96	15.686
788.26	29.730
788.57	32.258
788.88	30.469
789.19	25.641
789.49	29.412
789.80	32.479
790.11	32.743
790.41	20.202
790.72	30.189
791.03	23.611
791.33	42.105
791.64	35.484
791.95	25.333
792.25	24.286
792.56	12.195
792.87	35.714
793.17	23.684
793.48	0.000
793.79	5.634
794.09	30.380
794.40	29.787
794.70	27.103
795.01	25.439
795.32	21.818
795.62	14.286
795.93	31.959
796.23	25.275
796.54	22.105
796.85	9.589
797.15	11.111
797.46	27.397
797.76	16.901
798.07	32.500
798.37	25.000
798.68	34.286
798.99	27.143
799.29	31.579
799.60	26.667
799.90	12.500
800.21	3.125
800.51	20.635
800.82	22.951
801.12	22.807
801.43	21.127
801.73	20.339
802.04	18.033
802.34	40.000
802.65	21.154
802.95	37.037
803.26	10.000
803.56	36.538
803.87	5.263
804.17	19.355
804.48	24.615
804.78	10.256
805.09	20.930
805.39	-12.500
805.70	20.755
806.00	35.088
806.30	32.432
806.61	26.471
806.91	20.988
807.22	16.000
807.52	28.358
807.83	4.839
808.13	6.349
808.43	18.182
808.74	30.303
809.04	22.642
809.35	31.507
809.65	38.596
809.95	32.353
810.26	23.529
810.56	26.000
810.86	8.163
811.17	25.714
811.47	5.769
811.77	3.226
812.08	13.158
812.38	35.714
812.69	30.435
812.99	25.806
813.29	7.143
813.59	-40.741
813.90	12.766
814.20	13.953
814.50	29.167
814.81	11.667
815.11	39.024
815.41	3.333
815.72	37.143
816.02	11.111
816.32	46.154
816.62	8.108
816.93	-32.353
817.23	17.391
817.53	35.294
817.84	35.294
818.14	9.375
818.44	-13.793
818.74	0.000
819.04	-18.519
819.35	-13.333
819.65	0.000
819.95	3.333
820.25	32.000
820.56	5.263
820.86	-7.500
821.16	23.404
821.46	32.759
821.76	15.385
822.07	22.500
822.37	18.605
822.67	30.000
822.97	-10.811
823.27	10.811
823.57	56.000
823.88	-8.108
824.18	-66.667
824.48	30.769
824.78	-100.000
825.08	4.348
825.38	-16.667
825.69	33.333
825.99	-15.000
826.29	-13.514
826.59	29.412
826.89	4.000
827.19	20.000
827.49	23.684
827.79	28.125
828.09	20.000
828.39	17.391
828.70	13.793
829.00	17.241
829.30	-2.778
829.60	12.500
829.90	5.556
830.20	26.923
830.50	-61.905
830.80	-32.143
831.10	25.641
831.40	-76.190
831.70	14.706
832.00	29.167
832.30	-31.579
832.60	-12.500
832.90	58.333
833.20	-82.353
833.50	-33.333
833.80	-13.333
834.10	15.000
834.40	25.000
834.70	-22.222
835.00	11.538
835.30	-4.167
835.60	24.138
835.90	-50.000
836.20	-27.273
836.50	-25.000
836.80	2.857
837.10	60.000
837.40	5.882
837.70	-54.545
838.00	4.167
838.30	25.000
838.60	-33.333
838.90	-20.000
839.19	34.783
839.49	-4.348
839.79	27.778
840.09	-21.739
840.39	-18.182
840.69	-81.250
840.99	-57.895
841.29	-43.750
841.59	-107.143
841.88	-22.222
842.18	8.333
842.48	-23.529
842.78	31.034
843.08	-14.286
843.38	-38.462
843.68	-144.444
843.97	-23.077
844.27	-127.273
844.57	-160.000
844.87	-8.000
845.17	-60.000
845.47	-71.429
845.76	-44.444
846.06	0.000
846.36	-425.000
846.66	-20.000
846.96	26.316
847.25	-25.000
847.55	-33.333
847.85	26.667
848.15	-40.000
848.44	57.692
848.74	26.316
849.04	266.667
849.34	11.111
849.63	-78.947
849.93	0.000
850.23	-20.000
850.53	9.524
850.82	8.000
851.12	-15.789
851.42	-700.000
851.71	57.143
852.01	-91.667
852.31	-23.529
852.61	46.667
852.90	0.000
853.20	0.000
853.50	-50.000
853.79	-47.368
854.09	-113.333
854.39	0.000
854.68	-8.696
854.98	-166.667
855.28	6.897
855.57	12.500
855.87	0.000
856.17	-20.000
856.46	6.897
856.76	-73.333
857.05	5.882
857.35	-146.154
857.65	54.545
857.94	-29.630
858.24	-64.286
858.53	-7.143
858.83	-75.000
859.13	-44.444
859.42	76.190
859.72	-87.500
860.01	-533.333
860.31	-150.000
860.60	-240.000
860.90	-133.333
861.20	-75.000
861.49	-185.714
861.79	-17.647
862.08	-400.000
862.38	-133.333
862.67	76.923
862.97	-17.647
863.26	0.000
863.56	23.529
863.85	200.000
864.15	-150.000
864.44	-46.154
864.74	-30.000
865.03	-62.500
865.33	-216.667
865.62	-41.176
865.92	-350.000
866.21	-128.571
866.51	-41.667
866.80	-400.000
867.10	-666.667
867.39	-41.176
867.69	21.739
867.98	-42.857
868.27	-180.000
868.57	-43.750
868.86	0.000
869.16	-11.765
869.45	50.000
869.75	-71.429
870.04	400.000
870.33	-83.333
870.63	-80.000
870.92	-122.222
871.22	8.333
871.51	-18.182
871.80	-83.333
872.10	-20.000
>>>>>End Processed Spectral Data<<<<<
