SpectraSuite Data File
++++++++++++++++++++++++++++++++++++
Date: Sat May 16 11:20:00 PDT 2015
User: schluterlab
Dark Spectrum Present: Yes
Reference Spectrum Present: Yes
Number of Sampled Component Spectra: 1
Spectrometers: USB2E3373
Integration Time (usec): 3000 (USB2E3373)
Spectra Averaged: 3 (USB2E3373)
Boxcar Smoothing: 0 (USB2E3373)
Correct for Electrical Dark: No (USB2E3373)
Strobe/Lamp Enabled: No (USB2E3373)
Correct for Detector Non-linearity: No (USB2E3373)
Correct for Stray Light: No (USB2E3373)
Number of Pixels in Processed Spectrum: 2048
>>>>>Begin Processed Spectral Data<<<<<
178.53	0.000
178.91	93.333
179.29	533.333
179.67	-1000.000
180.04	-146.154
180.42	500.000
180.80	225.000
181.18	425.000
181.56	-25.000
181.94	400.000
182.31	475.000
182.69	-7.692
183.07	-133.333
183.45	950.000
183.83	466.667
184.20	-185.714
184.58	-187.500
184.96	-250.000
185.34	100.000
185.72	-525.000
186.09	266.667
186.47	-150.000
186.85	-162.500
187.23	25.000
187.61	-25.000
187.98	-187.500
188.36	-87.500
188.74	-137.500
189.12	1800.000
189.49	471.429
189.87	-75.000
190.25	500.000
190.63	-57.143
191.00	-244.444
191.38	220.000
191.76	-13.333
192.14	400.000
192.51	-200.000
192.89	-333.333
193.27	0.000
193.65	-88.889
194.02	-200.000
194.40	633.333
194.78	-170.000
195.15	-1400.000
195.53	-227.273
195.91	-350.000
196.29	140.000
196.66	-633.333
197.04	1800.000
197.42	-175.000
197.79	-6.667
198.17	-300.000
198.55	-450.000
198.92	-1100.000
199.30	200.000
199.68	-250.000
200.05	-77.778
200.43	-155.556
200.81	-1400.000
201.18	-66.667
201.56	14.286
201.94	-53.333
202.31	0.000
202.69	60.000
203.07	-50.000
203.44	333.333
203.82	-316.667
204.19	-500.000
204.57	-250.000
204.95	-1300.000
205.32	18.750
205.70	1600.000
206.08	-1300.000
206.45	-55.556
206.83	-700.000
207.20	100.000
207.58	-700.000
207.96	-566.667
208.33	-87.500
208.71	-88.889
209.08	280.000
209.46	-100.000
209.84	900.000
210.21	0.000
210.59	-15.000
210.96	600.000
211.34	-233.333
211.71	-266.667
212.09	-125.000
212.46	500.000
212.84	-1600.000
213.22	500.000
213.59	141.667
213.97	-44.444
214.34	170.000
214.72	-160.000
215.09	-300.000
215.47	-50.000
215.84	10.000
216.22	-40.000
216.59	20.000
216.97	-500.000
217.34	1000.000
217.72	-100.000
218.09	-166.667
218.47	-185.714
218.84	228.571
219.22	-100.000
219.59	0.000
219.97	228.571
220.34	550.000
220.72	112.500
221.09	-46.154
221.47	0.000
221.84	400.000
222.22	-450.000
222.59	300.000
222.97	-87.500
223.34	-650.000
223.72	-566.667
224.09	-21.429
224.46	-450.000
224.84	-42.857
225.21	-100.000
225.59	-54.545
225.96	-112.500
226.34	14.286
226.71	-122.222
227.08	65.000
227.46	1000.000
227.83	-214.286
228.21	-187.500
228.58	350.000
228.95	-25.000
229.33	100.000
229.70	-140.000
230.08	-900.000
230.45	-66.667
230.82	-83.333
231.20	-1200.000
231.57	-300.000
231.95	1800.000
232.32	28.571
232.69	-100.000
233.07	-71.429
233.44	-1100.000
233.81	-106.667
234.19	11.111
234.56	-62.500
234.93	3.125
235.31	-242.857
235.68	-57.143
236.05	-11.765
236.43	-31.818
236.80	0.000
237.17	66.667
237.55	14.286
237.92	-27.273
238.29	-22.857
238.67	35.294
239.04	8.333
239.41	32.258
239.79	-15.385
240.16	9.524
240.53	1.818
240.91	25.641
241.28	30.909
241.65	23.077
242.02	21.311
242.40	13.115
242.77	18.182
243.14	11.864
243.51	17.143
243.89	18.987
244.26	17.978
244.63	13.684
245.00	28.421
245.38	26.271
245.75	20.354
246.12	22.400
246.49	18.898
246.87	18.699
247.24	16.102
247.61	24.576
247.98	28.169
248.36	25.874
248.73	20.253
249.10	22.293
249.47	22.222
249.84	24.432
250.22	20.238
250.59	27.684
250.96	26.178
251.33	32.701
251.70	31.731
252.08	28.910
252.45	24.645
252.82	29.048
253.19	28.085
253.56	23.790
253.94	28.692
254.31	27.039
254.68	30.488
255.05	29.032
255.42	25.794
255.79	26.882
256.16	29.020
256.54	29.412
256.91	29.924
257.28	26.374
257.65	28.014
258.02	29.560
258.39	30.100
258.76	30.743
259.14	28.395
259.51	30.492
259.88	29.573
260.25	31.988
260.62	27.974
260.99	23.739
261.36	25.915
261.73	26.879
262.10	29.444
262.47	24.786
262.85	31.143
263.22	29.513
263.59	31.077
263.96	30.145
264.33	30.623
264.70	30.663
265.07	29.945
265.44	28.941
265.81	25.065
266.18	27.342
266.55	28.186
266.92	32.494
267.29	30.024
267.66	30.864
268.03	31.884
268.40	28.873
268.77	28.434
269.14	26.682
269.51	31.264
269.88	30.046
270.25	28.438
270.62	28.375
270.99	27.477
271.36	30.070
271.73	28.027
272.10	31.808
272.47	26.667
272.84	29.778
273.21	27.752
273.58	27.912
273.95	24.781
274.32	29.412
274.69	31.291
275.06	29.448
275.43	30.357
275.80	31.976
276.17	30.335
276.54	29.124
276.91	29.835
277.28	27.383
277.65	28.512
278.02	26.722
278.39	26.916
278.76	28.088
279.13	31.225
279.50	29.225
279.87	28.964
280.23	29.150
280.60	30.219
280.97	27.767
281.34	26.886
281.71	27.500
282.08	29.435
282.45	28.717
282.82	26.744
283.19	29.091
283.56	31.319
283.92	29.859
284.29	25.279
284.66	25.899
285.03	28.699
285.40	28.782
285.77	29.298
286.14	26.534
286.51	27.176
286.87	29.401
287.24	24.915
287.61	26.446
287.98	27.556
288.35	26.942
288.72	24.109
289.08	24.915
289.45	26.936
289.82	24.913
290.19	26.601
290.56	26.446
290.93	25.437
291.29	27.391
291.66	24.638
292.03	27.159
292.40	24.096
292.77	26.863
293.13	26.179
293.50	24.220
293.87	25.613
294.24	23.982
294.60	21.061
294.97	23.672
295.34	23.704
295.71	25.000
296.08	22.581
296.44	22.031
296.81	24.359
297.18	23.662
297.55	21.610
297.91	24.268
298.28	22.329
298.65	21.339
299.02	25.134
299.38	21.791
299.75	22.147
300.12	23.974
300.48	22.379
300.85	22.412
301.22	20.440
301.59	20.806
301.95	23.174
302.32	20.991
302.69	21.542
303.05	21.856
303.42	20.250
303.79	20.574
304.15	21.919
304.52	22.870
304.89	20.661
305.25	19.658
305.62	20.799
305.99	20.141
306.35	19.978
306.72	19.362
307.09	21.226
307.45	19.069
307.82	18.994
308.19	19.799
308.55	20.479
308.92	19.441
309.29	19.351
309.65	19.936
310.02	19.114
310.38	19.892
310.75	20.287
311.12	20.661
311.48	19.207
311.85	19.979
312.22	19.670
312.58	19.736
312.95	18.654
313.31	19.980
313.68	20.101
314.05	18.398
314.41	18.410
314.78	18.681
315.14	19.052
315.51	19.352
315.87	19.264
316.24	20.505
316.61	18.714
316.97	20.199
317.34	19.171
317.70	19.017
318.07	19.590
318.43	19.569
318.80	19.343
319.16	19.043
319.53	19.549
319.89	19.755
320.26	19.216
320.62	19.135
320.99	19.204
321.35	17.931
321.72	19.345
322.08	19.486
322.45	18.812
322.81	18.060
323.18	18.828
323.54	18.669
323.91	19.741
324.27	19.011
324.64	18.647
325.00	18.237
325.37	19.729
325.73	19.773
326.10	17.449
326.46	19.002
326.83	17.957
327.19	18.515
327.56	20.443
327.92	18.692
328.29	19.134
328.65	17.455
329.01	18.993
329.38	18.020
329.74	19.872
330.11	19.402
330.47	18.074
330.84	19.615
331.20	18.682
331.56	17.685
331.93	18.561
332.29	19.817
332.66	19.227
333.02	18.462
333.38	18.638
333.75	19.858
334.11	17.867
334.48	17.299
334.84	19.685
335.20	17.996
335.57	18.051
335.93	20.770
336.29	18.866
336.66	18.062
337.02	18.198
337.38	17.469
337.75	18.613
338.11	17.442
338.47	17.260
338.84	17.332
339.20	18.190
339.56	19.340
339.93	18.254
340.29	17.803
340.65	17.133
341.02	18.971
341.38	17.860
341.74	18.120
342.11	18.174
342.47	17.768
342.83	17.632
343.20	18.190
343.56	16.653
343.92	17.028
344.28	19.176
344.65	16.667
345.01	17.059
345.37	18.937
345.73	16.612
346.10	17.171
346.46	16.409
346.82	16.760
347.19	17.584
347.55	17.255
347.91	17.953
348.27	16.627
348.63	17.851
349.00	17.900
349.36	15.535
349.72	18.312
350.08	16.199
350.45	16.627
350.81	16.799
351.17	17.042
351.53	16.309
351.89	17.704
352.26	16.744
352.62	17.588
352.98	17.642
353.34	17.666
353.70	16.293
354.07	16.916
354.43	17.075
354.79	17.036
355.15	17.332
355.51	17.344
355.87	16.917
356.24	16.521
356.60	17.808
356.96	17.167
357.32	16.627
357.68	16.858
358.04	16.859
358.40	15.855
358.77	16.692
359.13	16.220
359.49	16.478
359.85	17.226
360.21	16.438
360.57	17.620
360.93	17.852
361.29	17.115
361.66	16.845
362.02	15.385
362.38	17.241
362.74	16.777
363.10	16.356
363.46	16.382
363.82	17.128
364.18	17.366
364.54	17.513
364.90	16.003
365.26	16.833
365.62	16.322
365.98	17.568
366.35	15.915
366.71	15.856
367.07	16.937
367.43	16.747
367.79	16.495
368.15	16.074
368.51	16.923
368.87	16.690
369.23	16.491
369.59	16.458
369.95	17.125
370.31	16.667
370.67	15.907
371.03	15.889
371.39	15.559
371.75	16.667
372.11	16.141
372.47	17.354
372.83	16.968
373.19	15.643
373.55	16.538
373.91	16.287
374.27	16.359
374.63	15.942
374.99	16.829
375.35	16.622
375.71	17.758
376.07	15.880
376.42	15.033
376.78	16.993
377.14	15.797
377.50	17.021
377.86	16.645
378.22	16.332
378.58	16.430
378.94	15.783
379.30	17.063
379.66	17.183
380.02	16.459
380.38	15.710
380.74	16.295
381.09	16.286
381.45	16.468
381.81	16.273
382.17	16.165
382.53	16.292
382.89	16.388
383.25	16.195
383.61	16.509
383.97	16.595
384.32	16.145
384.68	16.566
385.04	15.519
385.40	17.042
385.76	16.646
386.12	16.302
386.48	17.389
386.83	16.626
387.19	16.378
387.55	16.475
387.91	16.775
388.27	15.259
388.62	16.526
388.98	15.809
389.34	16.340
389.70	15.956
390.06	16.594
390.42	16.346
390.77	16.088
391.13	17.019
391.49	16.344
391.85	16.209
392.20	16.566
392.56	15.516
392.92	16.657
393.28	15.959
393.64	16.597
393.99	16.000
394.35	16.423
394.71	16.059
395.07	15.945
395.42	15.614
395.78	16.468
396.14	16.636
396.50	16.575
396.85	15.793
397.21	16.464
397.57	16.170
397.92	17.155
398.28	16.667
398.64	16.240
399.00	16.292
399.35	15.840
399.71	16.144
400.07	16.955
400.42	16.363
400.78	16.458
401.14	16.527
401.49	15.743
401.85	16.290
402.21	16.806
402.57	16.505
402.92	16.614
403.28	16.360
403.63	15.938
403.99	16.594
404.35	16.184
404.70	16.501
405.06	16.032
405.42	15.806
405.77	15.950
406.13	16.127
406.49	15.818
406.84	15.597
407.20	16.843
407.55	15.389
407.91	15.285
408.27	16.728
408.62	14.973
408.98	16.374
409.34	15.905
409.69	16.320
410.05	16.131
410.40	16.677
410.76	16.301
411.11	15.773
411.47	15.026
411.83	16.015
412.18	15.223
412.54	15.863
412.89	16.221
413.25	15.643
413.60	15.188
413.96	15.465
414.31	15.780
414.67	16.000
415.03	15.847
415.38	16.200
415.74	16.688
416.09	15.601
416.45	13.823
416.80	16.060
417.16	15.681
417.51	16.021
417.87	15.793
418.22	15.487
418.58	15.019
418.93	15.757
419.29	15.621
419.64	16.080
420.00	16.646
420.35	15.789
420.71	15.666
421.06	16.568
421.42	15.691
421.77	15.410
422.12	16.172
422.48	16.355
422.83	15.376
423.19	15.535
423.54	15.159
423.90	15.095
424.25	15.611
424.61	16.104
424.96	16.384
425.31	15.484
425.67	16.103
426.02	15.433
426.38	16.697
426.73	15.371
427.09	16.483
427.44	15.795
427.79	15.407
428.15	16.517
428.50	16.246
428.85	15.947
429.21	15.495
429.56	16.406
429.92	15.681
430.27	15.753
430.62	16.301
430.98	15.787
431.33	15.368
431.68	15.550
432.04	16.228
432.39	16.068
432.74	15.288
433.10	15.532
433.45	15.486
433.80	16.013
434.16	16.013
434.51	15.945
434.86	16.110
435.22	15.924
435.57	15.973
435.92	16.002
436.28	15.668
436.63	15.941
436.98	15.750
437.34	15.830
437.69	15.694
438.04	15.372
438.39	15.945
438.75	15.425
439.10	16.047
439.45	14.725
439.81	15.663
440.16	15.786
440.51	16.471
440.86	15.442
441.22	15.478
441.57	16.000
441.92	15.294
442.27	15.855
442.63	15.933
442.98	15.519
443.33	15.211
443.68	15.685
444.03	16.257
444.39	15.810
444.74	16.410
445.09	15.022
445.44	15.419
445.79	15.451
446.15	16.320
446.50	14.970
446.85	14.828
447.20	15.628
447.55	15.470
447.91	15.890
448.26	15.363
448.61	15.450
448.96	15.742
449.31	15.163
449.66	15.283
450.02	14.626
450.37	15.768
450.72	16.045
451.07	15.273
451.42	14.746
451.77	15.679
452.12	16.031
452.47	15.806
452.83	15.201
453.18	16.003
453.53	15.050
453.88	15.311
454.23	14.873
454.58	15.475
454.93	16.373
455.28	15.360
455.63	16.830
455.98	16.205
456.34	14.612
456.69	16.823
457.04	15.550
457.39	15.490
457.74	15.948
458.09	16.067
458.44	15.358
458.79	15.359
459.14	15.516
459.49	15.927
459.84	16.020
460.19	15.215
460.54	15.306
460.89	14.574
461.24	15.301
461.59	15.533
461.94	15.341
462.29	15.783
462.64	15.942
462.99	16.600
463.34	15.665
463.69	15.776
464.04	15.700
464.39	15.651
464.74	15.307
465.09	14.913
465.44	15.736
465.79	15.849
466.14	15.765
466.49	15.774
466.84	15.486
467.19	15.025
467.54	14.747
467.89	14.858
468.24	15.439
468.59	14.366
468.94	15.241
469.29	15.140
469.64	14.825
469.99	16.003
470.34	14.362
470.68	15.552
471.03	15.210
471.38	14.306
471.73	15.245
472.08	14.859
472.43	15.187
472.78	15.133
473.13	13.585
473.48	15.061
473.83	14.826
474.17	15.732
474.52	15.217
474.87	15.676
475.22	14.808
475.57	14.944
475.92	15.713
476.27	15.200
476.61	15.099
476.96	14.980
477.31	14.370
477.66	14.388
478.01	15.667
478.36	14.248
478.70	15.163
479.05	14.873
479.40	15.233
479.75	15.087
480.10	15.476
480.45	15.087
480.79	15.054
481.14	14.952
481.49	15.344
481.84	14.702
482.19	15.624
482.53	15.246
482.88	15.377
483.23	14.319
483.58	15.634
483.92	15.098
484.27	14.976
484.62	14.989
484.97	15.199
485.31	15.456
485.66	15.910
486.01	16.066
486.36	16.265
486.70	16.249
487.05	15.957
487.40	15.598
487.75	14.907
488.09	14.299
488.44	15.189
488.79	14.751
489.13	15.101
489.48	14.927
489.83	14.891
490.17	14.933
490.52	15.217
490.87	15.012
491.22	14.853
491.56	14.722
491.91	14.933
492.26	14.764
492.60	15.033
492.95	15.326
493.30	14.483
493.64	14.010
493.99	14.675
494.34	15.190
494.68	15.262
495.03	15.057
495.37	14.897
495.72	14.489
496.07	15.298
496.41	15.239
496.76	15.525
497.11	15.120
497.45	15.805
497.80	14.707
498.14	14.833
498.49	14.566
498.84	14.417
499.18	15.887
499.53	14.418
499.87	14.527
500.22	15.049
500.56	14.357
500.91	14.778
501.26	15.284
501.60	14.781
501.95	15.072
502.29	14.218
502.64	15.606
502.98	14.662
503.33	15.367
503.67	14.655
504.02	14.534
504.36	15.000
504.71	14.336
505.06	14.578
505.40	15.070
505.75	14.990
506.09	15.369
506.44	15.238
506.78	15.404
507.13	14.933
507.47	15.284
507.82	14.300
508.16	15.699
508.51	14.786
508.85	14.130
509.19	14.652
509.54	15.433
509.88	14.415
510.23	15.356
510.57	14.921
510.92	14.984
511.26	14.726
511.61	14.471
511.95	14.925
512.30	15.063
512.64	13.745
512.98	14.191
513.33	14.717
513.67	14.740
514.02	15.045
514.36	14.460
514.70	15.110
515.05	15.323
515.39	14.648
515.74	15.416
516.08	14.928
516.42	14.448
516.77	15.020
517.11	15.503
517.46	15.191
517.80	14.922
518.14	14.070
518.49	15.123
518.83	14.303
519.17	15.453
519.52	14.170
519.86	15.173
520.20	14.242
520.55	14.277
520.89	14.277
521.23	15.079
521.58	13.981
521.92	15.263
522.26	14.286
522.61	15.019
522.95	13.976
523.29	14.922
523.64	15.116
523.98	14.831
524.32	14.016
524.66	13.354
525.01	14.965
525.35	15.657
525.69	14.769
526.04	15.078
526.38	15.150
526.72	14.432
527.06	15.430
527.41	13.465
527.75	14.587
528.09	15.023
528.43	14.033
528.78	15.138
529.12	15.173
529.46	14.175
529.80	14.655
530.15	14.552
530.49	14.036
530.83	15.128
531.17	14.478
531.51	14.534
531.86	14.747
532.20	15.385
532.54	14.572
532.88	15.152
533.22	15.107
533.57	15.666
533.91	14.856
534.25	14.393
534.59	14.428
534.93	14.686
535.27	15.419
535.62	14.514
535.96	14.932
536.30	14.005
536.64	15.007
536.98	14.760
537.32	14.375
537.66	15.275
538.01	14.777
538.35	13.919
538.69	14.037
539.03	15.098
539.37	14.837
539.71	15.344
540.05	14.462
540.39	15.374
540.73	14.651
541.07	15.505
541.42	14.247
541.76	14.352
542.10	14.922
542.44	15.123
542.78	14.993
543.12	14.596
543.46	14.178
543.80	15.050
544.14	14.238
544.48	15.748
544.82	14.411
545.16	14.889
545.50	13.863
545.84	14.882
546.18	14.424
546.52	15.149
546.86	14.316
547.20	15.049
547.54	13.567
547.88	15.063
548.22	14.220
548.56	14.028
548.90	15.701
549.24	14.085
549.58	14.891
549.92	14.770
550.26	15.968
550.60	14.794
550.94	14.307
551.28	13.770
551.62	14.328
551.96	14.761
552.30	14.355
552.64	14.989
552.98	14.926
553.32	13.925
553.66	15.645
554.00	15.494
554.34	14.440
554.68	13.231
555.02	14.616
555.36	14.162
555.69	14.040
556.03	14.456
556.37	15.505
556.71	14.961
557.05	15.004
557.39	14.477
557.73	15.463
558.07	14.167
558.41	13.313
558.75	13.992
559.08	13.696
559.42	14.395
559.76	13.650
560.10	14.094
560.44	15.535
560.78	14.405
561.12	14.769
561.45	14.041
561.79	14.983
562.13	13.604
562.47	14.216
562.81	13.296
563.15	14.416
563.48	15.826
563.82	14.672
564.16	14.672
564.50	14.651
564.84	14.418
565.17	14.324
565.51	15.385
565.85	15.348
566.19	15.744
566.52	15.264
566.86	14.412
567.20	16.041
567.54	16.125
567.88	15.355
568.21	15.380
568.55	15.217
568.89	14.911
569.23	15.919
569.56	15.343
569.90	15.421
570.24	16.535
570.57	15.782
570.91	15.811
571.25	16.472
571.59	16.047
571.92	16.429
572.26	16.207
572.60	15.917
572.93	15.454
573.27	15.305
573.61	16.031
573.95	16.232
574.28	15.898
574.62	15.963
574.96	15.553
575.29	16.159
575.63	15.822
575.97	15.372
576.30	15.758
576.64	16.475
576.98	15.277
577.31	15.876
577.65	16.551
577.98	15.860
578.32	15.891
578.66	16.096
578.99	16.074
579.33	15.649
579.67	15.851
580.00	15.303
580.34	15.778
580.67	15.984
581.01	15.905
581.35	16.242
581.68	16.164
582.02	16.413
582.35	16.204
582.69	16.321
583.02	16.490
583.36	15.777
583.70	15.719
584.03	16.002
584.37	15.697
584.70	15.517
585.04	15.646
585.37	15.656
585.71	16.038
586.04	16.135
586.38	15.638
586.72	15.896
587.05	16.228
587.39	16.252
587.72	16.061
588.06	15.763
588.39	15.095
588.73	16.113
589.06	16.017
589.40	15.802
589.73	15.652
590.07	14.894
590.40	15.720
590.73	15.314
591.07	15.205
591.40	15.468
591.74	15.204
592.07	15.360
592.41	15.287
592.74	15.565
593.08	16.478
593.41	15.428
593.75	15.727
594.08	15.708
594.41	16.118
594.75	16.233
595.08	15.639
595.42	16.402
595.75	15.583
596.09	15.522
596.42	15.466
596.75	15.308
597.09	16.073
597.42	15.452
597.75	15.368
598.09	16.222
598.42	14.980
598.76	15.490
599.09	15.785
599.42	15.648
599.76	16.119
600.09	16.298
600.42	16.825
600.76	16.234
601.09	15.420
601.42	15.473
601.76	16.005
602.09	15.337
602.42	15.638
602.76	14.915
603.09	15.927
603.42	16.116
603.76	15.716
604.09	15.979
604.42	15.862
604.76	15.744
605.09	16.049
605.42	15.824
605.75	15.610
606.09	16.314
606.42	15.249
606.75	15.887
607.09	15.968
607.42	15.845
607.75	15.364
608.08	15.951
608.42	15.043
608.75	15.561
609.08	15.830
609.41	15.047
609.75	14.676
610.08	15.588
610.41	15.422
610.74	15.474
611.07	15.822
611.41	15.229
611.74	15.321
612.07	15.414
612.40	14.925
612.73	15.509
613.07	14.089
613.40	15.435
613.73	15.204
614.06	14.827
614.39	15.220
614.72	14.916
615.06	15.489
615.39	14.704
615.72	15.209
616.05	15.240
616.38	15.148
616.71	14.775
617.05	15.862
617.38	15.418
617.71	14.865
618.04	15.155
618.37	15.157
618.70	14.863
619.03	13.744
619.36	15.363
619.69	14.788
620.03	15.152
620.36	15.049
620.69	15.147
621.02	14.612
621.35	14.194
621.68	14.262
622.01	14.887
622.34	15.217
622.67	14.609
623.00	15.149
623.33	15.373
623.66	14.697
623.99	15.113
624.32	13.914
624.65	14.202
624.99	14.937
625.32	14.671
625.65	13.831
625.98	14.632
626.31	14.274
626.64	13.891
626.97	14.384
627.30	14.638
627.63	14.421
627.96	14.273
628.29	13.511
628.62	13.658
628.95	14.272
629.28	13.910
629.61	13.248
629.94	13.894
630.26	14.215
630.59	14.975
630.92	12.312
631.25	14.718
631.58	13.968
631.91	11.489
632.24	14.000
632.57	15.000
632.90	14.023
633.23	14.720
633.56	12.515
633.89	13.679
634.22	13.577
634.55	12.260
634.88	13.180
635.20	11.860
635.53	13.613
635.86	11.965
636.19	12.454
636.52	13.740
636.85	12.154
637.18	12.500
637.51	14.374
637.83	12.117
638.16	12.895
638.49	10.759
638.82	12.741
639.15	13.489
639.48	14.656
639.81	15.491
640.13	12.703
640.46	13.675
640.79	14.986
641.12	13.963
641.45	13.056
641.77	12.126
642.10	12.840
642.43	13.050
642.76	11.654
643.09	11.111
643.41	12.381
643.74	12.083
644.07	12.324
644.40	12.318
644.73	14.191
645.05	10.351
645.38	13.079
645.71	12.887
646.04	13.782
646.36	11.169
646.69	12.111
647.02	11.913
647.35	11.733
647.67	13.504
648.00	12.127
648.33	12.985
648.66	12.419
648.98	13.057
649.31	14.308
649.64	12.969
649.96	12.402
650.29	11.639
650.62	13.941
650.94	13.491
651.27	12.652
651.60	10.727
651.92	11.644
652.25	11.018
652.58	10.733
652.90	11.396
653.23	12.742
653.56	11.538
653.88	11.639
654.21	15.604
654.54	13.123
654.86	12.841
655.19	14.470
655.52	16.175
655.84	17.705
656.17	19.714
656.49	26.524
656.82	26.545
657.15	19.750
657.47	14.151
657.80	10.720
658.13	11.592
658.45	15.277
658.78	14.081
659.10	13.524
659.43	13.013
659.75	13.415
660.08	12.604
660.41	12.272
660.73	10.231
661.06	13.623
661.38	14.643
661.71	11.281
662.03	12.500
662.36	12.154
662.68	10.127
663.01	13.163
663.33	12.925
663.66	13.305
663.98	9.375
664.31	8.501
664.63	15.265
664.96	12.148
665.28	11.931
665.61	12.474
665.93	11.934
666.26	12.753
666.58	11.642
666.91	11.359
667.23	8.991
667.56	9.977
667.88	13.122
668.21	10.369
668.53	8.879
668.86	12.240
669.18	12.100
669.50	11.449
669.83	12.652
670.15	9.417
670.48	10.280
670.80	9.567
671.13	10.835
671.45	9.685
671.77	11.777
672.10	11.243
672.42	13.653
672.75	13.636
673.07	9.730
673.39	11.658
673.72	13.976
674.04	9.766
674.37	9.485
674.69	12.910
675.01	11.277
675.34	13.232
675.66	13.607
675.98	11.894
676.31	14.706
676.63	11.954
676.95	10.841
677.28	11.137
677.60	11.765
677.92	15.639
678.25	11.160
678.57	12.757
678.89	10.063
679.22	11.530
679.54	16.568
679.86	11.200
680.18	13.498
680.51	11.546
680.83	12.571
681.15	14.451
681.48	12.170
681.80	10.887
682.12	13.280
682.44	10.806
682.77	7.576
683.09	13.417
683.41	12.389
683.73	10.731
684.06	11.183
684.38	12.762
684.70	13.786
685.02	12.992
685.34	14.230
685.67	14.205
685.99	12.476
686.31	12.567
686.63	11.702
686.96	12.939
687.28	11.368
687.60	13.867
687.92	9.144
688.24	12.008
688.56	12.826
688.89	13.034
689.21	12.254
689.53	12.184
689.85	11.581
690.17	10.090
690.49	10.855
690.82	9.157
691.14	10.142
691.46	12.639
691.78	12.115
692.10	11.441
692.42	13.111
692.74	13.519
693.06	12.584
693.39	12.528
693.71	11.964
694.03	12.095
694.35	9.707
694.67	10.875
694.99	8.184
695.31	11.990
695.63	12.500
695.95	11.911
696.27	13.965
696.59	11.230
696.91	13.483
697.23	12.760
697.56	9.856
697.88	10.586
698.20	11.777
698.52	11.211
698.84	10.922
699.16	10.952
699.48	11.250
699.80	11.779
700.12	12.846
700.44	6.704
700.76	10.787
701.08	13.372
701.40	7.553
701.72	9.877
702.04	11.218
702.36	14.157
702.68	8.683
703.00	14.203
703.32	9.742
703.64	15.000
703.96	12.500
704.28	11.538
704.60	11.392
704.91	7.619
705.23	12.621
705.55	7.770
705.87	12.969
706.19	6.944
706.51	7.639
706.83	11.803
707.15	9.873
707.47	12.948
707.79	10.825
708.11	14.758
708.43	15.212
708.74	11.429
709.06	13.370
709.38	10.057
709.70	7.500
710.02	15.337
710.34	6.271
710.66	8.571
710.98	10.410
711.29	7.419
711.61	11.821
711.93	9.508
712.25	9.635
712.57	12.892
712.89	13.309
713.20	9.622
713.52	6.716
713.84	8.185
714.16	6.885
714.48	11.429
714.80	12.308
715.11	10.375
715.43	13.253
715.75	13.084
716.07	7.213
716.39	14.381
716.70	11.847
717.02	11.481
717.34	7.252
717.66	10.788
717.97	8.607
718.29	6.303
718.61	10.714
718.93	12.186
719.24	7.721
719.56	7.925
719.88	10.909
720.20	8.240
720.51	7.895
720.83	5.622
721.15	11.475
721.46	12.157
721.78	8.812
722.10	9.200
722.42	8.678
722.73	8.765
723.05	12.048
723.37	12.941
723.68	10.526
724.00	16.260
724.32	11.523
724.63	6.224
724.95	11.157
725.27	5.263
725.58	9.914
725.90	13.095
726.22	15.867
726.53	12.928
726.85	6.275
727.16	10.902
727.48	11.538
727.80	7.787
728.11	12.185
728.43	11.157
728.74	15.625
729.06	15.152
729.38	12.451
729.69	7.480
730.01	11.024
730.32	3.984
730.64	10.256
730.96	13.433
731.27	12.143
731.59	11.897
731.90	14.724
732.22	11.963
732.53	14.901
732.85	13.423
733.16	8.696
733.48	12.892
733.80	8.897
734.11	14.483
734.43	13.946
734.74	12.760
735.06	10.345
735.37	15.902
735.69	8.387
736.00	7.744
736.32	12.252
736.63	8.621
736.95	9.783
737.26	13.245
737.58	12.230
737.89	13.262
738.21	10.150
738.52	9.615
738.83	17.187
739.15	8.547
739.46	11.694
739.78	11.538
740.09	10.839
740.41	13.636
740.72	12.044
741.04	9.524
741.35	5.628
741.66	12.037
741.98	3.333
742.29	7.042
742.61	11.765
742.92	9.813
743.23	13.158
743.55	15.315
743.86	13.333
744.18	6.190
744.49	7.389
744.80	10.152
745.12	13.402
745.43	11.558
745.74	7.767
746.06	6.829
746.37	16.300
746.68	13.433
747.00	6.806
747.31	0.962
747.62	10.138
747.94	11.790
748.25	8.372
748.56	8.571
748.88	8.696
749.19	11.737
749.50	15.686
749.82	11.111
750.13	11.454
750.44	9.350
750.75	10.400
751.07	10.714
751.38	11.808
751.69	6.107
752.01	13.462
752.32	13.619
752.63	6.923
752.94	7.540
753.26	10.870
753.57	14.286
753.88	8.190
754.19	9.544
754.51	14.453
754.82	9.881
755.13	10.288
755.44	12.397
755.75	17.284
756.07	4.016
756.38	6.250
756.69	15.884
757.00	10.801
757.31	13.423
757.63	11.526
757.94	9.827
758.25	13.081
758.56	18.059
758.87	13.920
759.18	10.000
759.50	12.811
759.81	9.124
760.12	10.473
760.43	14.239
760.74	12.187
761.05	14.326
761.36	11.078
761.67	9.763
761.99	13.548
762.30	12.319
762.61	18.491
762.92	10.314
763.23	9.953
763.54	10.222
763.85	10.970
764.16	13.061
764.47	13.559
764.78	13.109
765.10	13.669
765.41	10.323
765.72	13.522
766.03	1.767
766.34	10.150
766.65	9.312
766.96	5.000
767.27	16.146
767.58	11.628
767.89	7.742
768.20	8.589
768.51	12.022
768.82	4.865
769.13	8.500
769.44	10.965
769.75	12.121
770.06	16.972
770.37	7.981
770.68	8.333
770.99	14.851
771.30	14.563
771.61	11.574
771.92	9.091
772.23	6.075
772.54	14.894
772.85	5.917
773.16	7.317
773.47	15.663
773.78	17.582
774.09	7.333
774.39	13.580
774.70	5.369
775.01	5.797
775.32	0.000
775.63	-3.306
775.94	8.271
776.25	9.286
776.56	6.557
776.87	11.504
777.18	15.044
777.48	-2.727
777.79	7.826
778.10	-3.670
778.41	-2.542
778.72	4.959
779.03	8.955
779.34	15.789
779.65	9.804
779.95	18.841
780.26	8.844
780.57	4.310
780.88	7.407
781.19	-3.030
781.50	8.800
781.80	7.843
782.11	9.615
782.42	17.470
782.73	-1.460
783.04	10.811
783.34	9.848
783.65	6.977
783.96	8.943
784.27	2.564
784.57	1.626
784.88	0.000
785.19	14.912
785.50	-11.340
785.81	3.810
786.11	6.863
786.42	3.636
786.73	3.604
787.04	4.950
787.34	1.905
787.65	0.000
787.96	4.902
788.26	5.405
788.57	13.710
788.88	3.125
789.19	4.274
789.49	10.084
789.80	3.419
790.11	14.159
790.41	4.040
790.72	10.377
791.03	-4.167
791.33	2.632
791.64	2.151
791.95	-1.333
792.25	2.857
792.56	19.512
792.87	8.163
793.17	-1.316
793.48	0.000
793.79	-15.493
794.09	5.063
794.40	10.638
794.70	7.477
795.01	-0.877
795.32	-1.818
795.62	4.464
795.93	-10.309
796.23	-4.396
796.54	11.579
796.85	5.479
797.15	-13.889
797.46	2.740
797.76	2.817
798.07	16.250
798.37	-14.706
798.68	10.000
798.99	4.286
799.29	15.789
799.60	15.000
799.90	-18.056
800.21	-7.813
800.51	-7.937
800.82	1.639
801.12	-15.789
801.43	-7.042
801.73	-10.169
802.04	-1.639
802.34	10.909
802.65	5.769
802.95	-12.963
803.26	-15.000
803.56	-1.923
803.87	-44.737
804.17	-6.452
804.48	3.077
804.78	-33.333
805.09	-16.279
805.39	-37.500
805.70	-20.755
806.00	17.544
806.30	-8.108
806.61	-2.941
806.91	13.580
807.22	-12.000
807.52	13.433
807.83	1.613
808.13	-12.698
808.43	-30.909
808.74	4.545
809.04	3.774
809.35	0.000
809.65	17.544
809.95	17.647
810.26	-3.922
810.56	-14.000
810.86	-6.122
811.17	-31.429
811.47	-3.846
811.77	-12.903
812.08	-71.053
812.38	-7.143
812.69	-21.739
812.99	-32.258
813.29	-33.333
813.59	-103.704
813.90	-19.149
814.20	-48.837
814.50	-8.333
814.81	1.667
815.11	-29.268
815.41	-3.333
815.72	-14.286
816.02	-8.333
816.32	-10.256
816.62	-10.811
816.93	-35.294
817.23	-10.870
817.53	-23.529
817.84	-2.941
818.14	-40.625
818.44	-20.690
818.74	-19.355
819.04	-51.852
819.35	-36.667
819.65	-64.000
819.95	-36.667
820.25	-48.000
820.56	2.632
820.86	5.000
821.16	-23.404
821.46	-13.793
821.76	-25.641
822.07	-47.500
822.37	-6.977
822.67	-26.667
822.97	-24.324
823.27	0.000
823.57	4.000
823.88	-10.811
824.18	-23.810
824.48	-15.385
824.78	-176.923
825.08	-30.435
825.38	-12.500
825.69	-54.167
825.99	-100.000
826.29	-24.324
826.59	-11.765
826.89	-28.000
827.19	-20.000
827.49	0.000
827.79	-6.250
828.09	-53.333
828.39	-34.783
828.70	-58.621
829.00	-48.276
829.30	-16.667
829.60	40.625
829.90	-27.778
830.20	-38.462
830.50	-57.143
830.80	-14.286
831.10	-25.641
831.40	-19.048
831.70	-14.706
832.00	0.000
832.30	-21.053
832.60	-125.000
832.90	-150.000
833.20	-52.941
833.50	-93.333
833.80	-80.000
834.10	-45.000
834.40	-54.167
834.70	-16.667
835.00	-30.769
835.30	-29.167
835.60	-17.241
835.90	-55.556
836.20	-145.455
836.50	-141.667
836.80	17.143
837.10	40.000
837.40	-47.059
837.70	-227.273
838.00	-29.167
838.30	-68.750
838.60	-38.095
838.90	10.000
839.19	4.348
839.49	-21.739
839.79	-27.778
840.09	-65.217
840.39	-40.909
840.69	-68.750
840.99	-26.316
841.29	-62.500
841.59	-35.714
841.88	-22.222
842.18	-29.167
842.48	-82.353
842.78	0.000
843.08	-64.286
843.38	-84.615
843.68	-155.556
843.97	-146.154
844.27	-118.182
844.57	-100.000
844.87	24.000
845.17	-140.000
845.47	-92.857
845.76	-155.556
846.06	0.000
846.36	-250.000
846.66	-270.000
846.96	-5.263
847.25	-29.167
847.55	-100.000
847.85	-6.667
848.15	-140.000
848.44	-30.769
848.74	31.579
849.04	466.667
849.34	-166.667
849.63	-68.421
849.93	0.000
850.23	-85.000
850.53	-52.381
850.82	-36.000
851.12	-84.211
851.42	-650.000
851.71	28.571
852.01	-125.000
852.31	-82.353
852.61	0.000
852.90	-33.333
853.20	-183.333
853.50	-83.333
853.79	-47.368
854.09	-46.667
854.39	-14.286
854.68	-8.696
854.98	-191.667
855.28	-24.138
855.57	-37.500
855.87	-40.000
856.17	-153.333
856.46	-13.793
856.76	20.000
857.05	-82.353
857.35	-84.615
857.65	-27.273
857.94	-18.519
858.24	-114.286
858.53	-92.857
858.83	-150.000
859.13	-111.111
859.42	4.762
859.72	-212.500
860.01	-500.000
860.31	-225.000
860.60	-280.000
860.90	-144.444
861.20	-212.500
861.49	-171.429
861.79	-47.059
862.08	-650.000
862.38	-116.667
862.67	-92.308
862.97	-23.529
863.26	-25.000
863.56	-11.765
863.85	466.667
864.15	-120.000
864.44	-84.615
864.74	-60.000
865.03	-175.000
865.33	0.000
865.62	-35.294
865.92	-600.000
866.21	-78.571
866.51	-116.667
866.80	-400.000
867.10	-166.667
867.39	-41.176
867.69	17.391
867.98	28.571
868.27	-440.000
868.57	-50.000
868.86	-145.455
869.16	17.647
869.45	-33.333
869.75	-85.714
870.04	1300.000
870.33	-41.667
870.63	-300.000
870.92	-77.778
871.22	-100.000
871.51	-18.182
871.80	-25.000
872.10	-20.000
>>>>>End Processed Spectral Data<<<<<
