SpectraSuite Data File
++++++++++++++++++++++++++++++++++++
Date: Sat May 16 11:10:34 PDT 2015
User: schluterlab
Dark Spectrum Present: Yes
Reference Spectrum Present: Yes
Number of Sampled Component Spectra: 1
Spectrometers: USB2E3373
Integration Time (usec): 3000 (USB2E3373)
Spectra Averaged: 3 (USB2E3373)
Boxcar Smoothing: 0 (USB2E3373)
Correct for Electrical Dark: No (USB2E3373)
Strobe/Lamp Enabled: No (USB2E3373)
Correct for Detector Non-linearity: No (USB2E3373)
Correct for Stray Light: No (USB2E3373)
Number of Pixels in Processed Spectrum: 2048
>>>>>Begin Processed Spectral Data<<<<<
178.53	0.000
178.91	46.667
179.29	400.000
179.67	300.000
180.04	0.000
180.42	-600.000
180.80	175.000
181.18	-50.000
181.56	75.000
181.94	200.000
182.31	50.000
182.69	7.692
183.07	-166.667
183.45	1350.000
183.83	-33.333
184.20	57.143
184.58	-12.500
184.96	-150.000
185.34	81.250
185.72	-175.000
186.09	50.000
186.47	-12.500
186.85	-87.500
187.23	50.000
187.61	-25.000
187.98	-187.500
188.36	-12.500
188.74	37.500
189.12	500.000
189.49	342.857
189.87	16.667
190.25	-50.000
190.63	-28.571
191.00	-66.667
191.38	180.000
191.76	20.000
192.14	140.000
192.51	0.000
192.89	-133.333
193.27	0.000
193.65	-11.111
194.02	-200.000
194.40	366.667
194.78	0.000
195.15	-600.000
195.53	-81.818
195.91	-283.333
196.29	20.000
196.66	-133.333
197.04	1300.000
197.42	50.000
197.79	26.667
198.17	133.333
198.55	-550.000
198.92	-600.000
199.30	187.500
199.68	150.000
200.05	-11.111
200.43	-122.222
200.81	-400.000
201.18	-8.333
201.56	14.286
201.94	13.333
202.31	72.727
202.69	110.000
203.07	-70.000
203.44	366.667
203.82	-166.667
204.19	-175.000
204.57	100.000
204.95	600.000
205.32	43.750
205.70	800.000
206.08	-500.000
206.45	72.222
206.83	-250.000
207.20	300.000
207.58	0.000
207.96	-200.000
208.33	-50.000
208.71	-44.444
209.08	160.000
209.46	-28.571
209.84	-100.000
210.21	0.000
210.59	65.000
210.96	300.000
211.34	-183.333
211.71	366.667
212.09	150.000
212.46	800.000
212.84	-1300.000
213.22	266.667
213.59	-8.333
213.97	44.444
214.34	20.000
214.72	-20.000
215.09	0.000
215.47	83.333
215.84	0.000
216.22	0.000
216.59	26.667
216.97	-350.000
217.34	450.000
217.72	-42.857
218.09	0.000
218.47	-85.714
218.84	14.286
219.22	-28.571
219.59	0.000
219.97	214.286
220.34	250.000
220.72	200.000
221.09	38.462
221.47	0.000
221.84	-33.333
222.22	100.000
222.59	200.000
222.97	25.000
223.34	-50.000
223.72	-66.667
224.09	0.000
224.46	-275.000
224.84	14.286
225.21	-42.857
225.59	45.455
225.96	37.500
226.34	128.571
226.71	11.111
227.08	15.000
227.46	100.000
227.83	-85.714
228.21	-200.000
228.58	-100.000
228.95	-12.500
229.33	-600.000
229.70	140.000
230.08	0.000
230.45	66.667
230.82	83.333
231.20	1000.000
231.57	-100.000
231.95	100.000
232.32	61.905
232.69	33.333
233.07	-242.857
233.44	-250.000
233.81	53.333
234.19	-44.444
234.56	56.250
234.93	62.500
235.31	-57.143
235.68	-78.571
236.05	23.529
236.43	-13.636
236.80	25.806
237.17	-29.167
237.55	42.857
237.92	-22.727
238.29	25.714
238.67	44.118
239.04	25.000
239.41	35.484
239.79	7.692
240.16	38.095
240.53	14.545
240.91	41.026
241.28	20.000
241.65	36.923
242.02	29.508
242.40	31.148
242.77	34.848
243.14	38.983
243.51	31.429
243.89	20.253
244.26	35.955
244.63	27.368
245.00	30.526
245.38	25.424
245.75	37.168
246.12	28.000
246.49	22.047
246.87	23.577
247.24	27.119
247.61	31.356
247.98	34.507
248.36	32.867
248.73	29.114
249.10	26.115
249.47	30.409
249.84	29.545
250.22	30.952
250.59	28.814
250.96	35.602
251.33	30.332
251.70	31.731
252.08	34.123
252.45	28.910
252.82	33.810
253.19	33.191
253.56	35.484
253.94	37.131
254.31	36.481
254.68	40.244
255.05	30.645
255.42	34.127
255.79	32.258
256.16	38.039
256.54	34.559
256.91	33.712
257.28	31.502
257.65	29.433
258.02	31.132
258.39	35.452
258.76	34.797
259.14	30.556
259.51	35.410
259.88	30.793
260.25	38.199
260.62	34.727
260.99	29.970
261.36	34.146
261.73	35.260
262.10	35.556
262.47	36.752
262.85	35.714
263.22	34.670
263.59	34.154
263.96	32.754
264.33	33.604
264.70	34.254
265.07	34.890
265.44	34.625
265.81	30.491
266.18	32.658
266.55	35.539
266.92	36.524
267.29	34.140
267.66	33.827
268.03	36.473
268.40	34.272
268.77	33.494
269.14	35.035
269.51	30.575
269.88	31.881
270.25	32.634
270.62	33.867
270.99	30.856
271.36	33.800
271.73	34.753
272.10	35.927
272.47	33.111
272.84	34.444
273.21	34.404
273.58	34.505
273.95	33.553
274.32	35.747
274.69	34.136
275.06	36.605
275.43	33.929
275.80	36.456
276.17	34.519
276.54	36.253
276.91	35.185
277.28	32.657
277.65	34.298
278.02	32.777
278.39	33.399
278.76	33.865
279.13	35.178
279.50	35.388
279.87	32.558
280.23	32.186
280.60	34.195
280.97	33.786
281.34	36.364
281.71	33.462
282.08	37.097
282.45	32.587
282.82	35.465
283.19	34.364
283.56	36.813
283.92	35.336
284.29	32.528
284.66	31.475
285.03	31.907
285.40	34.502
285.77	33.860
286.14	33.574
286.51	33.037
286.87	32.849
287.24	32.082
287.61	33.058
287.98	31.889
288.35	30.579
288.72	31.070
289.08	29.831
289.45	28.451
289.82	29.066
290.19	31.199
290.56	29.587
290.93	29.094
291.29	30.470
291.66	31.723
292.03	31.083
292.40	29.970
292.77	30.745
293.13	29.268
293.50	28.529
293.87	30.368
294.24	28.205
294.60	26.515
294.97	30.349
295.34	28.000
295.71	28.274
296.08	28.418
296.44	27.182
296.81	27.350
297.18	28.310
297.55	27.825
297.91	27.197
298.28	26.164
298.65	27.476
299.02	28.075
299.38	25.134
299.75	25.543
300.12	26.154
300.48	25.320
300.85	24.640
301.22	26.003
301.59	25.878
301.95	27.582
302.32	24.381
302.69	24.969
303.05	24.176
303.42	23.875
303.79	24.880
304.15	24.408
304.52	23.921
304.89	25.030
305.25	25.397
305.62	24.559
305.99	26.855
306.35	24.972
306.72	23.690
307.09	25.539
307.45	24.972
307.82	23.128
308.19	24.609
308.55	23.420
308.92	22.771
309.29	23.351
309.65	22.269
310.02	23.974
310.38	24.108
310.75	23.258
311.12	23.760
311.48	23.382
311.85	22.451
312.22	23.893
312.58	22.889
312.95	24.057
313.31	24.176
313.68	23.719
314.05	23.937
314.41	22.535
314.78	22.577
315.14	22.606
315.51	22.492
315.87	24.782
316.24	21.672
316.61	23.800
316.97	22.886
317.34	22.832
317.70	21.985
318.07	22.761
318.43	22.753
318.80	23.005
319.16	22.702
319.53	22.932
319.89	22.389
320.26	22.255
320.62	21.154
320.99	22.189
321.35	22.069
321.72	22.416
322.08	22.750
322.45	22.772
322.81	21.230
323.18	23.343
323.54	22.643
323.91	22.892
324.27	22.148
324.64	21.846
325.00	20.942
325.37	21.900
325.73	22.397
326.10	20.461
326.46	21.716
326.83	21.702
327.19	21.018
327.56	22.998
327.92	21.665
328.29	21.991
328.65	21.636
329.01	21.555
329.38	21.409
329.74	22.344
330.11	21.124
330.47	21.708
330.84	22.456
331.20	20.758
331.56	21.787
331.93	20.693
332.29	21.096
332.66	21.422
333.02	21.991
333.38	21.147
333.75	20.748
334.11	22.133
334.48	21.094
334.84	20.997
335.20	21.277
335.57	22.292
335.93	22.560
336.29	19.486
336.66	20.441
337.02	20.270
337.38	19.430
337.75	21.598
338.11	22.004
338.47	20.107
338.84	19.510
339.20	21.265
339.56	22.282
339.93	21.076
340.29	21.258
340.65	20.105
341.02	20.911
341.38	19.461
341.74	20.660
342.11	20.222
342.47	20.086
342.83	20.655
343.20	20.154
343.56	19.102
343.92	21.452
344.28	22.372
344.65	21.617
345.01	19.748
345.37	20.598
345.73	19.231
346.10	19.787
346.46	20.146
346.82	20.850
347.19	19.556
347.55	18.860
347.91	20.000
348.27	19.491
348.63	20.921
349.00	21.400
349.36	18.423
349.72	20.462
350.08	20.128
350.45	19.070
350.81	20.064
351.17	19.614
351.53	19.491
351.89	19.806
352.26	19.535
352.62	20.891
352.98	19.620
353.34	19.984
353.70	19.459
354.07	19.119
354.43	20.870
354.79	19.651
355.15	18.930
355.51	18.672
355.87	19.289
356.24	19.380
356.60	19.098
356.96	18.707
357.32	20.111
357.68	18.314
358.04	18.553
358.40	19.026
358.77	19.706
359.13	18.898
359.49	18.443
359.85	20.198
360.21	18.569
360.57	19.880
360.93	20.444
361.29	19.357
361.66	18.674
362.02	18.713
362.38	18.929
362.74	19.487
363.10	19.225
363.46	20.228
363.82	18.367
364.18	19.609
364.54	20.086
364.90	19.287
365.26	19.757
365.62	18.888
365.98	19.844
366.35	18.592
366.71	18.816
367.07	18.772
367.43	19.492
367.79	19.175
368.15	18.350
368.51	19.161
368.87	18.750
369.23	19.509
369.59	19.583
369.95	18.887
370.31	19.831
370.67	18.583
371.03	19.242
371.39	17.963
371.75	18.741
372.11	18.364
372.47	19.450
372.83	19.958
373.19	20.357
373.55	20.056
373.91	19.061
374.27	19.644
374.63	19.600
374.99	19.750
375.35	17.429
375.71	20.257
376.07	19.713
376.42	18.212
376.78	19.281
377.14	18.780
377.50	19.987
377.86	19.181
378.22	19.095
378.58	19.271
378.94	18.927
379.30	19.683
379.66	19.369
380.02	18.895
380.38	19.154
380.74	19.109
381.09	18.981
381.45	19.391
381.81	18.814
382.17	18.546
382.53	18.967
382.89	18.840
383.25	18.904
383.61	18.809
383.97	20.269
384.32	19.712
384.68	19.891
385.04	19.022
385.40	20.024
385.76	19.939
386.12	19.675
386.48	20.297
386.83	19.325
387.19	19.008
387.55	19.503
387.91	18.909
388.27	19.180
388.62	19.231
388.98	19.443
389.34	19.523
389.70	19.671
390.06	19.640
390.42	19.423
390.77	19.432
391.13	20.435
391.49	20.025
391.85	19.389
392.20	19.903
392.56	19.426
392.92	19.624
393.28	20.838
393.64	18.942
393.99	19.815
394.35	20.438
394.71	19.456
395.07	19.774
395.42	18.892
395.78	19.673
396.14	20.312
396.50	19.572
396.85	19.618
397.21	19.866
397.57	19.757
397.92	20.550
398.28	19.944
398.64	20.286
399.00	20.506
399.35	19.673
399.71	20.035
400.07	20.896
400.42	20.681
400.78	19.499
401.14	20.419
401.49	19.693
401.85	20.012
402.21	20.381
402.57	20.024
402.92	20.831
403.28	19.730
403.63	19.233
403.99	21.069
404.35	19.746
404.70	19.953
405.06	20.761
405.42	19.742
405.77	19.740
406.13	20.386
406.49	20.731
406.84	19.376
407.20	20.436
407.55	20.203
407.91	19.365
408.27	20.159
408.62	20.265
408.98	19.891
409.34	20.232
409.69	20.290
410.05	20.255
410.40	19.804
410.76	20.747
411.11	21.135
411.47	20.269
411.83	20.049
412.18	20.483
412.54	20.012
412.89	20.049
413.25	19.540
413.60	20.170
413.96	19.470
414.31	20.122
414.67	18.857
415.03	19.987
415.38	20.364
415.74	20.232
416.09	20.269
416.45	19.709
416.80	20.611
417.16	19.801
417.51	20.223
417.87	20.259
418.22	19.595
418.58	20.796
418.93	20.417
419.29	20.514
419.64	19.975
420.00	21.021
420.35	20.461
420.71	20.408
421.06	20.769
421.42	20.316
421.77	20.380
422.12	19.418
422.48	19.776
422.83	20.444
423.19	19.989
423.54	19.942
423.90	19.838
424.25	19.457
424.61	19.903
424.96	20.421
425.31	20.514
425.67	20.458
426.02	19.851
426.38	20.266
426.73	20.456
427.09	20.159
427.44	20.114
427.79	19.884
428.15	20.946
428.50	20.528
428.85	19.664
429.21	20.421
429.56	20.417
429.92	20.792
430.27	19.641
430.62	20.219
430.98	20.021
431.33	20.117
431.68	20.375
432.04	19.978
432.39	20.741
432.74	20.683
433.10	19.921
433.45	20.438
433.80	19.989
434.16	20.688
434.51	20.000
434.86	20.738
435.22	21.325
435.57	19.890
435.92	20.516
436.28	20.950
436.63	20.972
436.98	20.275
437.34	20.496
437.69	20.828
438.04	20.250
438.39	21.540
438.75	20.373
439.10	20.711
439.45	20.338
439.81	20.482
440.16	20.216
440.51	21.235
440.86	21.053
441.22	19.679
441.57	20.368
441.92	20.460
442.27	20.671
442.63	20.762
442.98	19.695
443.33	20.264
443.68	19.802
444.03	21.365
444.39	20.411
444.74	21.200
445.09	20.779
445.44	21.441
445.79	20.704
446.15	20.646
446.50	20.523
446.85	21.190
447.20	20.327
447.55	20.829
447.91	20.494
448.26	20.391
448.61	19.921
448.96	20.840
449.31	20.180
449.66	20.435
450.02	20.222
450.37	20.522
450.72	19.718
451.07	21.245
451.42	20.384
451.77	20.407
452.12	20.322
452.47	21.159
452.83	20.850
453.18	20.936
453.53	21.144
453.88	20.813
454.23	20.254
454.58	21.255
454.93	21.788
455.28	20.714
455.63	21.376
455.98	21.145
456.34	20.330
456.69	21.076
457.04	20.959
457.39	20.933
457.74	20.378
458.09	21.346
458.44	21.594
458.79	20.908
459.14	20.707
459.49	20.663
459.84	21.304
460.19	21.122
460.54	19.540
460.89	20.908
461.24	20.947
461.59	19.988
461.94	21.260
462.29	21.203
462.64	21.673
462.99	21.954
463.34	20.594
463.69	20.738
464.04	20.387
464.39	20.729
464.74	20.686
465.09	20.385
465.44	21.320
465.79	21.771
466.14	20.829
466.49	20.898
466.84	21.489
467.19	21.446
467.54	20.253
467.89	21.147
468.24	20.546
468.59	21.237
468.94	21.093
469.29	21.637
469.64	21.159
469.99	21.269
470.34	21.376
470.68	21.802
471.03	21.955
471.38	20.833
471.73	22.797
472.08	20.683
472.43	21.042
472.78	21.267
473.13	20.808
473.48	20.868
473.83	21.712
474.17	21.338
474.52	22.187
474.87	20.862
475.22	20.826
475.57	20.889
475.92	20.788
476.27	21.029
476.61	21.634
476.96	21.353
477.31	21.367
477.66	21.195
478.01	22.690
478.36	21.687
478.70	21.623
479.05	20.822
479.40	21.865
479.75	21.305
480.10	20.635
480.45	21.470
480.79	21.175
481.14	21.726
481.49	21.200
481.84	22.238
482.19	21.517
482.53	21.449
482.88	21.073
483.23	21.315
483.58	22.525
483.92	21.309
484.27	20.735
484.62	20.778
484.97	21.785
485.31	20.736
485.66	20.358
486.01	21.048
486.36	21.316
486.70	21.857
487.05	20.968
487.40	21.261
487.75	20.999
488.09	20.877
488.44	21.888
488.79	21.542
489.13	21.948
489.48	22.594
489.83	22.227
490.17	21.942
490.52	21.603
490.87	22.079
491.22	21.952
491.56	22.361
491.91	21.660
492.26	21.604
492.60	21.218
492.95	21.656
493.30	21.105
493.64	21.157
493.99	21.893
494.34	22.333
494.68	21.582
495.03	21.367
495.37	21.681
495.72	22.151
496.07	21.680
496.41	21.816
496.76	22.055
497.11	22.468
497.45	21.552
497.80	22.261
498.14	21.513
498.49	22.351
498.84	22.233
499.18	22.222
499.53	22.552
499.87	21.236
500.22	22.500
500.56	22.011
500.91	22.118
501.26	22.319
501.60	21.666
501.95	22.271
502.29	21.634
502.64	22.914
502.98	22.185
503.33	22.227
503.67	22.222
504.02	22.839
504.36	22.549
504.71	22.340
505.06	22.217
505.40	22.705
505.75	22.358
506.09	22.801
506.44	22.807
506.78	22.830
507.13	21.885
507.47	23.161
507.82	22.561
508.16	22.746
508.51	22.669
508.85	22.930
509.19	21.873
509.54	22.939
509.88	23.032
510.23	22.746
510.57	22.804
510.92	22.879
511.26	23.179
511.61	22.300
511.95	22.953
512.30	22.870
512.64	22.037
512.98	23.047
513.33	22.790
513.67	22.781
514.02	22.260
514.36	22.770
514.70	22.977
515.05	22.756
515.39	22.434
515.74	24.258
516.08	23.689
516.42	23.569
516.77	23.570
517.11	23.341
517.46	24.103
517.80	24.248
518.14	22.403
518.49	23.072
518.83	23.323
519.17	23.683
519.52	23.077
519.86	23.596
520.20	24.267
520.55	23.569
520.89	23.043
521.23	23.810
521.58	24.389
521.92	24.699
522.26	23.810
522.61	23.638
522.95	22.399
523.29	23.135
523.64	23.923
523.98	23.934
524.32	24.324
524.66	23.727
525.01	23.507
525.35	23.840
525.69	23.748
526.04	22.911
526.38	24.634
526.72	23.180
527.06	23.828
527.41	22.904
527.75	23.630
528.09	24.355
528.43	24.066
528.78	23.995
529.12	23.624
529.46	24.034
529.80	23.370
530.15	24.211
530.49	23.609
530.83	25.213
531.17	24.512
531.51	24.180
531.86	24.819
532.20	23.414
532.54	24.666
532.88	23.320
533.22	23.930
533.57	24.021
533.91	23.471
534.25	22.879
534.59	23.048
534.93	23.771
535.27	24.229
535.62	24.936
535.96	23.142
536.30	23.233
536.64	24.236
536.98	24.435
537.32	23.704
537.66	23.557
538.01	22.887
538.35	24.662
538.69	24.198
539.03	23.494
539.37	24.218
539.71	24.350
540.05	23.372
540.39	23.684
540.73	23.428
541.07	23.429
541.42	23.700
541.76	23.189
542.10	24.983
542.44	24.783
542.78	24.627
543.12	24.779
543.46	22.603
543.80	22.876
544.14	23.371
544.48	24.672
544.82	23.139
545.16	23.810
545.50	24.159
545.84	23.853
546.18	25.243
546.52	24.111
546.86	23.433
547.20	25.246
547.54	23.072
547.88	23.756
548.22	22.739
548.56	23.714
548.90	24.057
549.24	23.546
549.58	22.653
549.92	25.088
550.26	24.855
550.60	24.182
550.94	24.453
551.28	24.304
551.62	24.298
551.96	24.023
552.30	23.136
552.64	23.856
552.98	24.317
553.32	22.944
553.66	23.648
554.00	23.881
554.34	23.321
554.68	23.757
555.02	23.444
555.36	23.364
555.69	24.140
556.03	23.298
556.37	22.902
556.71	23.908
557.05	24.686
557.39	23.534
557.73	24.581
558.07	24.567
558.41	24.084
558.75	23.802
559.08	22.879
559.42	23.507
559.76	23.926
560.10	24.385
560.44	24.855
560.78	23.452
561.12	24.086
561.45	23.836
561.79	23.972
562.13	23.983
562.47	22.829
562.81	22.843
563.15	25.122
563.48	24.050
563.82	23.259
564.16	22.989
564.50	22.715
564.84	23.479
565.17	23.541
565.51	24.055
565.85	24.003
566.19	24.242
566.52	23.092
566.86	23.515
567.20	23.850
567.54	23.686
567.88	22.725
568.21	23.658
568.55	22.269
568.89	22.962
569.23	22.999
569.56	22.783
569.90	22.935
570.24	22.585
570.57	22.039
570.91	22.271
571.25	22.795
571.59	22.198
571.92	23.006
572.26	22.888
572.60	22.960
572.93	22.793
573.27	22.866
573.61	22.283
573.95	22.592
574.28	22.527
574.62	22.674
574.96	22.358
575.29	21.977
575.63	22.538
575.97	22.060
576.30	22.499
576.64	22.402
576.98	22.369
577.31	22.384
577.65	22.858
577.98	22.317
578.32	22.101
578.66	22.375
578.99	22.689
579.33	22.557
579.67	21.912
580.00	22.321
580.34	22.260
580.67	22.358
581.01	21.846
581.35	22.281
581.68	22.156
582.02	22.379
582.35	22.285
582.69	22.681
583.02	22.347
583.36	22.331
583.70	22.120
584.03	23.303
584.37	22.598
584.70	22.416
585.04	22.937
585.37	21.862
585.71	22.230
586.04	21.809
586.38	21.545
586.72	22.210
587.05	22.487
587.39	22.671
587.72	22.830
588.06	22.228
588.39	22.672
588.73	22.330
589.06	22.506
589.40	23.154
589.73	22.911
590.07	22.251
590.40	22.989
590.73	22.431
591.07	22.336
591.40	23.310
591.74	22.676
592.07	23.018
592.41	22.760
592.74	22.598
593.08	22.691
593.41	22.533
593.75	21.695
594.08	22.538
594.41	22.773
594.75	22.046
595.08	22.594
595.42	22.688
595.75	22.455
596.09	23.555
596.42	22.913
596.75	22.941
597.09	22.752
597.42	22.392
597.75	22.808
598.09	22.006
598.42	23.023
598.76	22.467
599.09	22.297
599.42	21.992
599.76	22.197
600.09	22.634
600.42	21.990
600.76	22.448
601.09	21.914
601.42	21.963
601.76	22.508
602.09	22.168
602.42	22.387
602.76	22.933
603.09	22.460
603.42	22.683
603.76	23.055
604.09	22.427
604.42	22.065
604.76	21.805
605.09	22.468
605.42	22.385
605.75	22.639
606.09	23.205
606.42	21.617
606.75	22.499
607.09	22.100
607.42	22.931
607.75	22.163
608.08	22.775
608.42	22.706
608.75	21.869
609.08	22.504
609.41	22.322
609.75	21.892
610.08	21.814
610.41	22.940
610.74	22.292
611.07	22.312
611.41	22.138
611.74	22.931
612.07	23.040
612.40	22.388
612.73	22.348
613.07	21.959
613.40	22.660
613.73	22.943
614.06	21.636
614.39	22.548
614.72	21.676
615.06	22.228
615.39	21.921
615.72	22.596
616.05	21.204
616.38	22.925
616.71	22.643
617.05	22.919
617.38	23.220
617.71	22.174
618.04	22.609
618.37	21.447
618.70	21.969
619.03	21.666
619.36	23.326
619.69	22.613
620.03	22.245
620.36	21.871
620.69	22.398
621.02	22.070
621.35	22.742
621.68	22.459
622.01	22.896
622.34	23.292
622.67	22.656
623.00	23.030
623.33	22.313
623.66	22.009
623.99	21.805
624.32	21.577
624.65	22.737
624.99	22.554
625.32	21.557
625.65	23.232
625.98	23.161
626.31	24.062
626.64	22.510
626.97	23.031
627.30	23.064
627.63	21.589
627.96	22.106
628.29	22.335
628.62	21.777
628.95	23.524
629.28	22.274
629.61	22.277
629.94	22.306
630.26	22.664
630.59	23.518
630.92	23.423
631.25	23.286
631.58	22.011
631.91	22.021
632.24	22.000
632.57	22.000
632.90	22.644
633.23	22.547
633.56	22.339
633.89	22.995
634.22	22.078
634.55	23.197
634.88	22.491
635.20	22.222
635.53	21.247
635.86	20.907
636.19	21.245
636.52	23.297
636.85	20.337
637.18	20.250
637.51	21.437
637.83	23.036
638.16	20.526
638.49	22.759
638.82	21.107
639.15	23.217
639.48	22.049
639.81	23.237
640.13	21.351
640.46	23.219
640.79	22.829
641.12	21.862
641.45	20.947
641.77	22.156
642.10	22.356
642.43	22.458
642.76	22.835
643.09	19.841
643.41	23.968
643.74	23.847
644.07	22.621
644.40	23.015
644.73	22.277
645.05	20.200
645.38	22.020
645.71	24.399
646.04	22.353
646.36	22.688
646.69	23.356
647.02	22.563
647.35	24.007
647.67	21.715
648.00	21.968
648.33	25.295
648.66	21.129
648.98	23.089
649.31	22.615
649.64	22.344
649.96	20.251
650.29	22.131
650.62	20.482
650.94	21.248
651.27	23.050
651.60	21.280
651.92	22.603
652.25	21.202
652.58	20.954
652.90	22.151
653.23	22.581
653.56	20.401
653.88	21.967
654.21	23.154
654.54	21.927
654.86	22.953
655.19	22.350
655.52	21.844
655.84	20.216
656.17	22.053
656.49	30.394
656.82	32.066
657.15	24.284
657.47	17.695
657.80	13.400
658.13	15.677
658.45	21.218
658.78	21.241
659.10	21.220
659.43	21.280
659.75	21.086
660.08	21.302
660.41	20.380
660.73	20.242
661.06	24.058
661.38	22.857
661.71	19.120
662.03	20.766
662.36	21.109
662.68	19.409
663.01	23.355
663.33	24.490
663.66	22.747
663.98	23.438
664.31	21.029
664.63	22.788
664.96	21.475
665.28	22.343
665.61	17.970
665.93	23.045
666.26	23.482
666.58	21.206
666.91	18.486
667.23	24.781
667.56	19.955
667.88	21.719
668.21	19.585
668.53	20.794
668.86	23.326
669.18	23.516
669.50	20.794
669.83	21.898
670.15	21.076
670.48	17.757
670.80	20.501
671.13	19.413
671.45	19.144
671.77	24.411
672.10	21.499
672.42	20.849
672.75	20.909
673.07	18.559
673.39	20.947
673.72	21.850
674.04	21.019
674.37	19.381
674.69	22.131
675.01	21.489
675.34	21.258
675.66	24.838
675.98	20.705
676.31	21.267
676.63	22.299
676.95	20.354
677.28	18.561
677.60	21.493
677.92	23.348
678.25	22.538
678.57	21.811
678.89	20.335
679.22	20.126
679.54	24.458
679.86	20.000
680.18	19.392
680.51	18.436
680.83	20.381
681.15	19.846
681.48	23.327
681.80	19.960
682.12	19.920
682.44	20.825
682.77	20.563
683.09	23.480
683.41	22.345
683.73	20.320
684.06	20.860
684.38	20.921
684.70	23.251
685.02	20.079
685.34	19.103
685.67	16.098
685.99	19.849
686.31	19.928
686.63	19.681
686.96	19.409
687.28	20.424
687.60	19.141
687.92	19.455
688.24	19.685
688.56	18.637
688.89	18.162
689.21	20.131
689.53	20.690
689.85	21.826
690.17	19.731
690.49	20.323
690.82	20.241
691.14	20.519
691.46	19.956
691.78	18.943
692.10	19.703
692.42	20.667
692.74	19.313
693.06	19.326
693.39	21.253
693.71	20.090
694.03	19.438
694.35	18.284
694.67	21.040
694.99	17.136
695.31	21.684
695.63	18.622
695.95	18.114
696.27	20.200
696.59	18.984
696.91	19.382
697.23	18.750
697.56	18.510
697.88	20.946
698.20	18.201
698.52	19.283
698.84	18.689
699.16	19.762
699.48	20.500
699.80	19.549
700.12	22.166
700.44	20.112
700.76	18.076
701.08	20.058
701.40	18.429
701.72	18.519
702.04	19.872
702.36	21.386
702.68	17.365
703.00	18.841
703.32	16.619
703.64	23.824
703.96	18.605
704.28	19.231
704.60	15.190
704.91	15.556
705.23	21.036
705.55	17.230
705.87	19.454
706.19	16.667
706.51	17.708
706.83	21.639
707.15	22.930
707.47	19.835
707.79	18.299
708.11	18.066
708.43	22.693
708.74	20.519
709.06	20.334
709.38	16.379
709.70	17.187
710.02	19.939
710.34	16.832
710.66	17.143
710.98	21.451
711.29	17.419
711.61	17.572
711.93	17.705
712.25	20.930
712.57	18.118
712.89	23.741
713.20	18.900
713.52	14.552
713.84	19.929
714.16	17.377
714.48	20.635
714.80	18.462
715.11	19.885
715.43	22.590
715.75	20.249
716.07	17.377
716.39	20.736
716.70	21.603
717.02	17.407
717.34	19.847
717.66	19.917
717.97	15.984
718.29	17.227
718.61	23.016
718.93	20.430
719.24	18.382
719.56	15.094
719.88	17.818
720.20	17.228
720.51	18.421
720.83	17.671
721.15	20.902
721.46	15.686
721.78	17.241
722.10	17.600
722.42	17.769
722.73	17.530
723.05	22.088
723.37	19.608
723.68	11.336
724.00	19.106
724.32	20.576
724.63	18.257
724.95	23.967
725.27	13.596
725.58	16.379
725.90	16.667
726.22	23.616
726.53	17.871
726.85	11.373
727.16	21.805
727.48	18.077
727.80	15.574
728.11	17.227
728.43	17.769
728.74	18.359
729.06	17.803
729.38	18.288
729.69	14.567
730.01	22.441
730.32	11.952
730.64	22.344
730.96	21.642
731.27	18.571
731.59	17.042
731.90	18.405
732.22	18.405
732.53	18.212
732.85	16.107
733.16	18.116
733.48	16.028
733.80	13.879
734.11	13.103
734.43	19.388
734.74	17.211
735.06	18.495
735.37	19.572
735.69	15.484
736.00	18.182
736.32	18.874
736.63	13.103
736.95	19.928
737.26	17.550
737.58	20.144
737.89	18.996
738.21	18.045
738.52	19.615
738.83	14.844
739.15	16.667
739.46	17.742
739.78	16.434
740.09	17.133
740.41	16.434
740.72	20.803
741.04	17.857
741.35	9.091
741.66	15.278
741.98	17.143
742.29	19.718
742.61	19.251
742.92	20.561
743.23	16.667
743.55	14.865
743.86	22.667
744.18	20.000
744.49	23.153
744.80	19.797
745.12	21.649
745.43	17.085
745.74	16.505
746.06	22.439
746.37	22.467
746.68	17.910
747.00	21.466
747.31	15.865
747.62	17.512
747.94	21.397
748.25	20.930
748.56	16.667
748.88	10.870
749.19	20.188
749.50	20.588
749.82	23.111
750.13	21.145
750.44	21.545
750.75	18.000
751.07	18.929
751.38	19.188
751.69	16.412
752.01	16.923
752.32	15.564
752.63	15.769
752.94	17.460
753.26	16.522
753.57	15.179
753.88	16.810
754.19	16.598
754.51	17.969
754.82	18.182
755.13	17.695
755.44	15.289
755.75	14.403
756.07	9.639
756.38	16.016
756.69	15.523
757.00	19.512
757.31	20.470
757.63	21.807
757.94	19.075
758.25	16.570
758.56	18.329
758.87	19.318
759.18	16.000
759.50	17.794
759.81	13.869
760.12	10.473
760.43	17.152
760.74	21.250
761.05	17.416
761.36	17.365
761.67	21.006
761.99	16.129
762.30	20.290
762.61	14.717
762.92	21.525
763.23	19.905
763.54	16.444
763.85	17.300
764.16	16.735
764.47	16.525
764.78	19.850
765.10	17.266
765.41	13.226
765.72	17.925
766.03	15.548
766.34	16.541
766.65	17.004
766.96	14.000
767.27	17.708
767.58	13.372
767.89	11.613
768.20	16.564
768.51	9.836
768.82	13.514
769.13	13.500
769.44	15.789
769.75	18.182
770.06	20.642
770.37	19.718
770.68	19.792
770.99	18.812
771.30	21.359
771.61	12.963
771.92	17.316
772.23	19.626
772.54	17.021
772.85	12.426
773.16	24.390
773.47	29.518
773.78	24.725
774.09	13.333
774.39	22.222
774.70	12.081
775.01	13.768
775.32	13.433
775.63	14.876
775.94	23.308
776.25	25.714
776.56	18.033
776.87	21.239
777.18	23.894
777.48	10.909
777.79	17.391
778.10	0.917
778.41	14.407
778.72	14.050
779.03	23.881
779.34	15.789
779.65	23.529
779.95	15.942
780.26	12.925
780.57	9.483
780.88	19.444
781.19	12.121
781.50	16.000
781.80	13.725
782.11	21.154
782.42	21.084
782.73	4.380
783.04	17.568
783.34	16.667
783.65	17.054
783.96	19.512
784.27	9.402
784.57	15.447
784.88	11.382
785.19	21.053
785.50	12.371
785.81	16.190
786.11	11.765
786.42	16.364
786.73	19.820
787.04	14.851
787.34	10.476
787.65	14.286
787.96	12.745
788.26	18.919
788.57	17.742
788.88	21.094
789.19	20.513
789.49	10.084
789.80	8.547
790.11	22.124
790.41	12.121
790.72	20.755
791.03	8.333
791.33	9.211
791.64	20.430
791.95	22.667
792.25	1.429
792.56	8.537
792.87	23.469
793.17	25.000
793.48	16.216
793.79	16.901
794.09	30.380
794.40	11.702
794.70	15.888
795.01	7.895
795.32	11.818
795.62	21.429
795.93	13.402
796.23	6.593
796.54	8.421
796.85	19.178
797.15	8.333
797.46	20.548
797.76	16.901
798.07	27.500
798.37	17.647
798.68	15.714
798.99	21.429
799.29	31.579
799.60	25.000
799.90	2.778
800.21	15.625
800.51	6.349
800.82	27.869
801.12	14.035
801.43	9.859
801.73	5.085
802.04	8.197
802.34	5.455
802.65	11.538
802.95	-3.704
803.26	0.000
803.56	21.154
803.87	2.632
804.17	9.677
804.48	24.615
804.78	-7.692
805.09	9.302
805.39	3.125
805.70	-1.887
806.00	29.825
806.30	31.081
806.61	13.235
806.91	29.630
807.22	20.000
807.52	23.881
807.83	11.290
808.13	-4.762
808.43	7.273
808.74	10.606
809.04	13.208
809.35	30.137
809.65	21.053
809.95	26.471
810.26	17.647
810.56	-6.000
810.86	24.490
811.17	8.571
811.47	13.462
811.77	32.258
812.08	-28.947
812.38	14.286
812.69	-8.696
812.99	-3.226
813.29	-7.143
813.59	-59.259
813.90	6.383
814.20	-30.233
814.50	4.167
814.81	15.000
815.11	-41.463
815.41	-3.333
815.72	17.143
816.02	-13.889
816.32	20.513
816.62	16.216
816.93	-2.941
817.23	17.391
817.53	-8.824
817.84	-11.765
818.14	-21.875
818.44	20.690
818.74	-19.355
819.04	-22.222
819.35	26.667
819.65	-8.000
819.95	30.000
820.25	-24.000
820.56	10.526
820.86	-12.500
821.16	4.255
821.46	18.966
821.76	-2.564
822.07	12.500
822.37	18.605
822.67	-26.667
822.97	-2.703
823.27	0.000
823.57	40.000
823.88	18.919
824.18	4.762
824.48	-3.846
824.78	-153.846
825.08	8.696
825.38	16.667
825.69	4.167
825.99	-30.000
826.29	-10.811
826.59	-8.824
826.89	0.000
827.19	-5.714
827.49	36.842
827.79	6.250
828.09	-23.333
828.39	4.348
828.70	-10.345
829.00	20.690
829.30	16.667
829.60	34.375
829.90	-27.778
830.20	-61.538
830.50	-57.143
830.80	-21.429
831.10	28.205
831.40	-9.524
831.70	17.647
832.00	29.167
832.30	15.789
832.60	12.500
832.90	-58.333
833.20	-117.647
833.50	-33.333
833.80	-13.333
834.10	-10.000
834.40	8.333
834.70	-5.556
835.00	7.692
835.30	-25.000
835.60	10.345
835.90	5.556
836.20	-45.455
836.50	-8.333
836.80	34.286
837.10	25.714
837.40	11.765
837.70	-181.818
838.00	41.667
838.30	-12.500
838.60	19.048
838.90	45.000
839.19	21.739
839.49	-17.391
839.79	-27.778
840.09	-69.565
840.39	-13.636
840.69	-6.250
840.99	15.789
841.29	-18.750
841.59	-50.000
841.88	0.000
842.18	37.500
842.48	-35.294
842.78	13.793
843.08	-35.714
843.38	-38.462
843.68	-133.333
843.97	-69.231
844.27	-54.545
844.57	-20.000
844.87	0.000
845.17	0.000
845.47	-50.000
845.76	-33.333
846.06	0.000
846.36	-425.000
846.66	10.000
846.96	5.263
847.25	0.000
847.55	50.000
847.85	40.000
848.15	-50.000
848.44	65.385
848.74	68.421
849.04	366.667
849.34	66.667
849.63	-10.526
849.93	0.000
850.23	-60.000
850.53	9.524
850.82	28.000
851.12	0.000
851.42	-450.000
851.71	0.000
852.01	-75.000
852.31	41.176
852.61	-20.000
852.90	19.048
853.20	-116.667
853.50	-61.111
853.79	10.526
854.09	-6.667
854.39	28.571
854.68	-4.348
854.98	-50.000
855.28	37.931
855.57	18.750
855.87	20.000
856.17	-86.667
856.46	48.276
856.76	-20.000
857.05	-11.765
857.35	-92.308
857.65	-63.636
857.94	18.519
858.24	-35.714
858.53	-21.429
858.83	-41.667
859.13	-11.111
859.42	38.095
859.72	-37.500
860.01	-400.000
860.31	75.000
860.60	-200.000
860.90	-22.222
861.20	37.500
861.49	-142.857
861.79	-23.529
862.08	-600.000
862.38	-75.000
862.67	0.000
862.97	64.706
863.26	25.000
863.56	-23.529
863.85	466.667
864.15	-90.000
864.44	-69.231
864.74	30.000
865.03	-125.000
865.33	-66.667
865.62	-58.824
865.92	-500.000
866.21	28.571
866.51	-41.667
866.80	100.000
867.10	100.000
867.39	70.588
867.69	43.478
867.98	142.857
868.27	-220.000
868.57	-31.250
868.86	-63.636
869.16	-5.882
869.45	-50.000
869.75	42.857
870.04	-100.000
870.33	41.667
870.63	40.000
870.92	0.000
871.22	33.333
871.51	-18.182
871.80	-66.667
872.10	-30.000
>>>>>End Processed Spectral Data<<<<<
