SpectraSuite Data File
++++++++++++++++++++++++++++++++++++
Date: Sat May 16 11:07:35 PDT 2015
User: schluterlab
Dark Spectrum Present: Yes
Reference Spectrum Present: Yes
Number of Sampled Component Spectra: 1
Spectrometers: USB2E3373
Integration Time (usec): 3000 (USB2E3373)
Spectra Averaged: 3 (USB2E3373)
Boxcar Smoothing: 0 (USB2E3373)
Correct for Electrical Dark: No (USB2E3373)
Strobe/Lamp Enabled: No (USB2E3373)
Correct for Detector Non-linearity: No (USB2E3373)
Correct for Stray Light: No (USB2E3373)
Number of Pixels in Processed Spectrum: 2048
>>>>>Begin Processed Spectral Data<<<<<
178.53	0.000
178.91	13.333
179.29	166.667
179.67	700.000
180.04	84.615
180.42	1000.000
180.80	50.000
181.18	125.000
181.56	37.500
181.94	-100.000
182.31	375.000
182.69	-15.385
183.07	0.000
183.45	450.000
183.83	-166.667
184.20	71.429
184.58	0.000
184.96	25.000
185.34	37.500
185.72	-300.000
186.09	50.000
186.47	0.000
186.85	-50.000
187.23	62.500
187.61	200.000
187.98	-125.000
188.36	12.500
188.74	-37.500
189.12	700.000
189.49	-42.857
189.87	-33.333
190.25	25.000
190.63	35.714
191.00	-11.111
191.38	140.000
191.76	26.667
192.14	240.000
192.51	140.000
192.89	0.000
193.27	0.000
193.65	11.111
194.02	42.857
194.40	33.333
194.78	10.000
195.15	-100.000
195.53	18.182
195.91	-100.000
196.29	-60.000
196.66	233.333
197.04	1200.000
197.42	250.000
197.79	60.000
198.17	-200.000
198.55	-350.000
198.92	100.000
199.30	-25.000
199.68	200.000
200.05	-22.222
200.43	-55.556
200.81	-1000.000
201.18	-41.667
201.56	-42.857
201.94	-33.333
202.31	86.364
202.69	100.000
203.07	30.000
203.44	366.667
203.82	-66.667
204.19	50.000
204.57	100.000
204.95	-900.000
205.32	50.000
205.70	-0.000
206.08	-1200.000
206.45	11.111
206.83	-150.000
207.20	300.000
207.58	-33.333
207.96	-33.333
208.33	0.000
208.71	55.556
209.08	170.000
209.46	-71.429
209.84	-50.000
210.21	0.000
210.59	50.000
210.96	-1100.000
211.34	-100.000
211.71	66.667
212.09	25.000
212.46	400.000
212.84	-1400.000
213.22	266.667
213.59	58.333
213.97	122.222
214.34	-0.000
214.72	180.000
215.09	-200.000
215.47	-33.333
215.84	130.000
216.22	-90.000
216.59	40.000
216.97	150.000
217.34	100.000
217.72	0.000
218.09	-16.667
218.47	-71.429
218.84	100.000
219.22	114.286
219.59	0.000
219.97	57.143
220.34	25.000
220.72	87.500
221.09	-7.692
221.47	0.000
221.84	-100.000
222.22	-200.000
222.59	-500.000
222.97	62.500
223.34	550.000
223.72	-33.333
224.09	64.286
224.46	175.000
224.84	14.286
225.21	-42.857
225.59	-27.273
225.96	-50.000
226.34	185.714
226.71	55.556
227.08	55.000
227.46	400.000
227.83	85.714
228.21	0.000
228.58	400.000
228.95	50.000
229.33	-900.000
229.70	-80.000
230.08	-100.000
230.45	58.333
230.82	50.000
231.20	1000.000
231.57	-150.000
231.95	100.000
232.32	61.905
232.69	33.333
233.07	-28.571
233.44	-600.000
233.81	73.333
234.19	55.556
234.56	18.750
234.93	62.500
235.31	-128.571
235.68	-57.143
236.05	5.882
236.43	-36.364
236.80	38.710
237.17	33.333
237.55	14.286
237.92	-45.455
238.29	-2.857
238.67	14.706
239.04	41.667
239.41	-22.581
239.79	-7.692
240.16	9.524
240.53	3.636
240.91	15.385
241.28	10.909
241.65	29.231
242.02	13.115
242.40	9.836
242.77	15.152
243.14	3.390
243.51	-2.857
243.89	17.722
244.26	21.348
244.63	21.053
245.00	29.474
245.38	11.017
245.75	19.469
246.12	22.400
246.49	16.535
246.87	21.951
247.24	7.627
247.61	16.949
247.98	15.493
248.36	12.587
248.73	12.658
249.10	12.739
249.47	15.205
249.84	14.773
250.22	9.524
250.59	10.734
250.96	18.325
251.33	14.692
251.70	14.904
252.08	9.479
252.45	10.427
252.82	6.190
253.19	11.915
253.56	15.726
253.94	12.658
254.31	9.442
254.68	15.447
255.05	9.274
255.42	15.476
255.79	9.677
256.16	15.294
256.54	12.868
256.91	15.909
257.28	6.960
257.65	10.993
258.02	16.981
258.39	11.706
258.76	12.838
259.14	11.111
259.51	16.393
259.88	15.244
260.25	12.112
260.62	10.932
260.99	11.869
261.36	13.720
261.73	16.185
262.10	13.333
262.47	11.681
262.85	15.714
263.22	12.607
263.59	11.077
263.96	13.043
264.33	14.634
264.70	14.917
265.07	12.637
265.44	12.145
265.81	13.178
266.18	10.886
266.55	14.461
266.92	14.861
267.29	13.559
267.66	11.852
268.03	15.459
268.40	14.789
268.77	14.217
269.14	11.601
269.51	14.023
269.88	10.780
270.25	13.753
270.62	12.586
270.99	11.261
271.36	13.753
271.73	12.108
272.10	11.442
272.47	15.111
272.84	13.778
273.21	13.761
273.58	10.110
273.95	12.061
274.32	15.158
274.69	14.223
275.06	14.519
275.43	14.062
275.80	14.257
276.17	13.808
276.54	14.460
276.91	11.934
277.28	11.562
277.65	12.190
278.02	11.900
278.39	13.752
278.76	13.745
279.13	14.625
279.50	12.525
279.87	10.994
280.23	14.170
280.60	13.121
280.97	12.816
281.34	14.700
281.71	12.692
282.08	13.911
282.45	11.609
282.82	12.984
283.19	13.273
283.56	14.286
283.92	13.781
284.29	13.755
284.66	11.511
285.03	14.082
285.40	11.993
285.77	12.632
286.14	12.094
286.51	11.901
286.87	13.067
287.24	14.846
287.61	12.727
287.98	11.092
288.35	9.587
288.72	10.526
289.08	10.678
289.45	12.121
289.82	9.516
290.19	12.315
290.56	9.917
290.93	11.924
291.29	10.859
291.66	11.111
292.03	10.832
292.40	10.843
292.77	11.646
293.13	12.033
293.50	12.184
293.87	10.736
294.24	12.519
294.60	9.091
294.97	12.595
295.34	8.444
295.71	10.417
296.08	8.449
296.44	9.299
296.81	11.823
297.18	10.423
297.55	10.169
297.91	11.158
298.28	10.548
298.65	10.879
299.02	10.829
299.38	10.963
299.75	8.967
300.12	10.000
300.48	9.207
300.85	8.781
301.22	9.573
301.59	8.453
301.95	11.965
302.32	8.996
302.69	10.037
303.05	8.547
303.42	8.875
303.79	11.005
304.15	11.137
304.52	8.985
304.89	9.445
305.25	10.134
305.62	9.988
305.99	10.718
306.35	9.767
306.72	10.478
307.09	10.102
307.45	8.967
307.82	9.050
308.19	10.515
308.55	9.913
308.92	8.808
309.29	10.378
309.65	9.544
310.02	7.883
310.38	9.189
310.75	10.041
311.12	10.331
311.48	9.916
311.85	9.063
312.22	10.402
312.58	10.376
312.95	9.684
313.31	10.090
313.68	10.251
314.05	10.089
314.41	8.652
314.78	10.190
315.14	10.563
315.51	10.740
315.87	11.326
316.24	11.467
316.61	11.324
316.97	11.940
317.34	11.657
317.70	11.596
318.07	12.407
318.43	10.487
318.80	11.925
319.16	11.632
319.53	11.748
319.89	11.289
320.26	13.431
320.62	11.731
320.99	13.134
321.35	13.103
321.72	12.590
322.08	13.056
322.45	11.980
322.81	14.697
323.18	14.409
323.54	13.216
323.91	13.809
324.27	13.688
324.64	13.985
325.00	15.096
325.37	15.204
325.73	15.398
326.10	14.703
326.46	15.674
326.83	15.830
327.19	15.930
327.56	16.865
327.92	16.228
328.29	16.190
328.65	16.455
329.01	17.138
329.38	16.771
329.74	17.399
330.11	16.954
330.47	17.348
330.84	18.057
331.20	17.690
331.56	18.232
331.93	17.851
332.29	17.808
332.66	16.155
333.02	18.281
333.38	18.280
333.75	18.077
334.11	18.667
334.48	18.005
334.84	18.810
335.20	18.528
335.57	18.502
335.93	19.875
336.29	19.398
336.66	18.502
337.02	18.739
337.38	18.538
337.75	19.227
338.11	18.336
338.47	17.616
338.84	18.240
339.20	18.102
339.56	18.806
339.93	18.254
340.29	17.892
340.65	17.832
341.02	19.477
341.38	18.113
341.74	19.729
342.11	18.003
342.47	19.142
342.83	17.800
343.20	20.495
343.56	18.122
343.92	19.366
344.28	19.765
344.65	17.574
345.01	18.067
345.37	18.605
345.73	18.822
346.10	17.743
346.46	19.578
346.82	18.444
347.19	17.420
347.55	17.978
347.91	18.268
348.27	17.422
348.63	19.386
349.00	19.252
349.36	18.033
349.72	18.631
350.08	19.166
350.45	18.519
350.81	19.188
351.17	18.408
351.53	17.661
351.89	19.968
352.26	17.519
352.62	19.585
352.98	18.987
353.34	19.345
353.70	17.606
354.07	19.512
354.43	19.130
354.79	18.067
355.15	18.610
355.51	18.906
355.87	19.447
356.24	18.745
356.60	19.098
356.96	19.169
357.32	19.319
357.68	18.621
358.04	18.245
358.40	18.484
358.77	18.238
359.13	19.128
359.49	18.896
359.85	17.835
360.21	19.482
360.57	18.901
360.93	18.444
361.29	19.058
361.66	18.750
362.02	17.751
362.38	19.883
362.74	19.121
363.10	19.154
363.46	20.299
363.82	19.971
364.18	18.234
364.54	20.014
364.90	19.497
365.26	19.686
365.62	19.672
365.98	20.484
366.35	19.648
366.71	19.168
367.07	19.548
367.43	20.453
367.79	19.244
368.15	18.990
368.51	19.930
368.87	20.673
369.23	20.070
369.59	19.167
369.95	19.803
370.31	20.113
370.67	20.246
371.03	20.408
371.39	18.953
371.75	19.742
372.11	19.584
372.47	20.029
372.83	20.236
373.19	20.357
373.55	20.760
373.91	19.275
374.27	19.713
374.63	21.187
374.99	21.140
375.35	20.861
375.71	21.067
376.07	20.329
376.42	19.735
376.78	21.503
377.14	20.746
377.50	21.534
377.86	21.066
378.22	20.666
378.58	20.445
378.94	21.332
379.30	20.963
379.66	21.433
380.02	20.974
380.38	20.967
380.74	21.805
381.09	21.851
381.45	21.838
381.81	21.537
382.17	21.679
382.53	20.729
382.89	22.129
383.25	22.035
383.61	22.111
383.97	22.719
384.32	21.777
384.68	22.128
385.04	21.498
385.40	22.276
385.76	22.256
386.12	22.299
386.48	23.020
386.83	23.190
387.19	22.534
387.55	22.532
387.91	22.940
388.27	21.532
388.62	22.837
388.98	22.592
389.34	22.950
389.70	21.985
390.06	22.188
390.42	23.077
390.77	23.975
391.13	23.789
391.49	22.957
391.85	22.631
392.20	22.937
392.56	22.847
392.92	23.217
393.28	23.192
393.64	23.391
393.99	23.754
394.35	23.905
394.71	23.039
395.07	23.478
395.42	22.765
395.78	22.942
396.14	24.611
396.50	23.486
396.85	23.751
397.21	23.451
397.57	23.951
397.92	24.356
398.28	23.833
398.64	24.688
399.00	25.169
399.35	23.675
399.71	24.564
400.07	24.239
400.42	24.635
400.78	24.210
401.14	23.593
401.49	23.526
401.85	24.832
402.21	24.493
402.57	24.575
402.92	24.858
403.28	23.407
403.63	24.026
403.99	24.549
404.35	24.215
404.70	24.634
405.06	24.971
405.42	24.354
405.77	24.208
406.13	23.907
406.49	24.386
406.84	24.535
407.20	25.088
407.55	24.256
407.91	23.316
408.27	25.306
408.62	24.654
408.98	25.470
409.34	24.193
409.69	24.071
410.05	24.742
410.40	26.058
410.76	25.608
411.11	26.621
411.47	25.384
411.83	24.633
412.18	24.814
412.54	25.076
412.89	25.759
413.25	25.266
413.60	25.273
413.96	24.584
414.31	25.872
414.67	24.762
415.03	25.550
415.38	25.049
415.74	25.258
416.09	26.471
416.45	24.206
416.80	26.203
417.16	24.784
417.51	25.476
417.87	24.919
418.22	25.474
418.58	25.417
418.93	25.567
419.29	25.910
419.64	26.005
420.00	26.185
420.35	26.375
420.71	25.990
421.06	26.982
421.42	25.703
421.77	26.298
422.12	25.630
422.48	26.563
422.83	25.456
423.19	26.281
423.54	26.859
423.90	26.200
424.25	25.962
424.61	26.538
424.96	27.092
425.31	26.328
425.67	25.501
426.02	26.104
426.38	26.255
426.73	26.826
427.09	26.900
427.44	26.307
427.79	25.581
428.15	26.691
428.50	26.979
428.85	26.859
429.21	26.674
429.56	27.865
429.92	26.854
430.27	26.022
430.62	27.220
430.98	25.562
431.33	26.307
431.68	27.399
432.04	27.308
432.39	27.806
432.74	27.518
433.10	27.406
433.45	26.713
433.80	27.380
434.16	26.652
434.51	27.452
434.86	28.178
435.22	26.782
435.57	27.173
435.92	27.374
436.28	28.902
436.63	26.682
436.98	26.804
437.34	27.643
437.69	27.013
438.04	26.886
438.39	28.460
438.75	27.125
439.10	26.541
439.45	26.916
439.81	27.590
440.16	27.371
440.51	28.353
440.86	27.704
441.22	27.474
441.57	27.684
441.92	27.621
442.27	27.597
442.63	27.092
442.98	26.524
443.33	27.457
443.68	27.462
444.03	27.750
444.39	26.579
444.74	27.368
445.09	27.193
445.44	27.968
445.79	27.741
446.15	27.820
446.50	26.837
446.85	27.501
447.20	27.886
447.55	27.956
447.91	28.523
448.26	27.207
448.61	27.334
448.96	28.291
449.31	27.170
449.66	27.705
450.02	27.701
450.37	28.290
450.72	27.684
451.07	28.536
451.42	27.447
451.77	27.947
452.12	27.890
452.47	28.086
452.83	26.849
453.18	28.020
453.53	28.483
453.88	28.050
454.23	27.267
454.58	27.968
454.93	28.149
455.28	26.832
455.63	28.010
455.98	27.651
456.34	27.255
456.69	26.829
457.04	28.765
457.39	27.333
457.74	28.234
458.09	28.074
458.44	28.349
458.79	26.457
459.14	27.610
459.49	28.419
459.84	27.600
460.19	28.580
460.54	27.526
460.89	27.018
461.24	27.444
461.59	28.312
461.94	27.562
462.29	27.338
462.64	28.393
462.99	28.715
463.34	27.481
463.69	27.290
464.04	27.768
464.39	27.180
464.74	28.014
465.09	26.819
465.44	27.975
465.79	29.103
466.14	27.733
466.49	27.519
466.84	27.431
467.19	27.868
467.54	27.152
467.89	27.805
468.24	26.663
468.59	27.358
468.94	27.717
469.29	27.680
469.64	28.032
469.99	28.224
470.34	28.257
470.68	28.416
471.03	27.873
471.38	26.736
471.73	27.762
472.08	26.573
472.43	26.512
472.78	27.333
473.13	26.508
473.48	28.015
473.83	26.799
474.17	28.025
474.52	28.517
474.87	27.448
475.22	27.375
475.57	26.944
475.92	27.484
476.27	27.029
476.61	26.704
476.96	27.222
477.31	27.557
477.66	26.951
478.01	27.120
478.36	27.344
478.70	28.350
479.05	26.933
479.40	26.736
479.75	27.370
480.10	27.728
480.45	26.402
480.79	27.739
481.14	27.296
481.49	27.348
481.84	27.601
482.19	26.999
482.53	26.799
482.88	26.673
483.23	27.042
483.58	28.446
483.92	26.947
484.27	26.761
484.62	27.041
484.97	27.085
485.31	26.400
485.66	26.112
486.01	25.790
486.36	26.558
486.70	27.075
487.05	26.368
487.40	26.790
487.75	26.277
488.09	26.374
488.44	27.300
488.79	27.237
489.13	27.957
489.48	27.080
489.83	27.511
490.17	27.166
490.52	27.763
490.87	26.328
491.22	27.370
491.56	27.361
491.91	26.908
492.26	27.547
492.60	27.117
492.95	26.940
493.30	27.442
493.64	26.892
493.99	27.199
494.34	27.143
494.68	27.809
495.03	26.864
495.37	26.991
495.72	27.603
496.07	27.733
496.41	27.559
496.76	27.397
497.11	27.461
497.45	27.586
497.80	27.664
498.14	27.014
498.49	26.770
498.84	27.087
499.18	26.608
499.53	27.521
499.87	27.413
500.22	27.059
500.56	27.014
500.91	26.847
501.26	27.220
501.60	26.432
501.95	27.633
502.29	27.114
502.64	27.864
502.98	27.072
503.33	26.739
503.67	26.389
504.02	27.185
504.36	27.010
504.71	26.950
505.06	26.560
505.40	27.794
505.75	26.524
506.09	27.806
506.44	27.068
506.78	27.446
507.13	26.519
507.47	27.491
507.82	27.052
508.16	26.839
508.51	27.202
508.85	26.501
509.19	26.635
509.54	26.586
509.88	27.181
510.23	27.254
510.57	27.989
510.92	28.195
511.26	27.007
511.61	26.836
511.95	27.047
512.30	27.817
512.64	26.767
512.98	27.228
513.33	26.798
513.67	27.080
514.02	26.678
514.36	26.648
514.70	27.108
515.05	27.787
515.39	27.739
515.74	27.458
516.08	26.571
516.42	27.535
516.77	27.556
517.11	27.918
517.46	29.007
517.80	27.798
518.14	25.423
518.49	26.539
518.83	28.190
519.17	27.768
519.52	26.663
519.86	27.479
520.20	27.751
520.55	26.462
520.89	26.800
521.23	27.595
521.58	26.395
521.92	27.866
522.26	27.492
522.61	27.060
522.95	25.973
523.29	27.900
523.64	27.483
523.98	27.944
524.32	26.524
524.66	26.335
525.01	27.746
525.35	27.513
525.69	27.066
526.04	27.937
526.38	27.880
526.72	25.862
527.06	27.799
527.41	27.195
527.75	26.469
528.09	28.326
528.43	27.934
528.78	26.884
529.12	27.529
529.46	26.546
529.80	27.437
530.15	27.817
530.49	27.814
530.83	28.946
531.17	27.273
531.51	28.064
531.86	27.321
532.20	27.395
532.54	27.874
532.88	26.812
533.22	27.473
533.57	27.480
533.91	26.841
534.25	27.090
534.59	26.483
534.93	27.380
535.27	28.194
535.62	28.197
535.96	27.343
536.30	27.225
536.64	27.291
536.98	28.672
537.32	27.782
537.66	27.359
538.01	27.560
538.35	27.027
538.69	27.473
539.03	26.269
539.37	26.347
539.71	27.618
540.05	27.210
540.39	26.939
540.73	28.058
541.07	27.664
541.42	27.481
541.76	27.375
542.10	28.292
542.44	26.915
542.78	28.155
543.12	28.242
543.46	26.370
543.80	26.221
544.14	27.065
544.48	28.281
544.82	28.146
545.16	27.230
545.50	26.110
545.84	26.704
546.18	26.907
546.52	28.094
546.86	27.849
547.20	27.286
547.54	27.342
547.88	27.605
548.22	25.819
548.56	27.589
548.90	27.830
549.24	26.629
549.58	28.088
549.92	28.269
550.26	27.457
550.60	27.809
550.94	27.445
551.28	27.765
551.62	27.179
551.96	27.641
552.30	27.735
552.64	27.375
552.98	27.610
553.32	26.551
553.66	28.118
554.00	28.287
554.34	28.159
554.68	27.705
555.02	27.713
555.36	27.894
555.69	26.934
556.03	26.737
556.37	27.169
556.71	27.631
557.05	27.199
557.39	26.503
557.73	29.030
558.07	28.711
558.41	28.197
558.75	27.757
559.08	26.304
559.42	28.407
559.76	28.067
560.10	28.859
560.44	28.396
560.78	27.140
561.12	26.501
561.45	27.397
561.79	27.944
562.13	26.508
562.47	28.081
562.81	26.450
563.15	28.202
563.48	27.713
563.82	27.113
564.16	27.316
564.50	27.151
564.84	28.175
565.17	27.056
565.51	27.053
565.85	27.924
566.19	27.734
566.52	27.462
566.86	27.434
567.20	28.087
567.54	27.525
567.88	26.912
568.21	26.510
568.55	27.943
568.89	26.889
569.23	27.163
569.56	26.692
569.90	26.436
570.24	26.870
570.57	26.186
570.91	26.148
571.25	26.816
571.59	26.382
571.92	25.655
572.26	26.183
572.60	26.218
572.93	26.169
573.27	26.159
573.61	25.351
573.95	26.424
574.28	25.816
574.62	25.928
574.96	25.673
575.29	26.067
575.63	26.360
575.97	25.378
576.30	25.322
576.64	25.901
576.98	26.001
577.31	25.697
577.65	26.280
577.98	26.033
578.32	25.826
578.66	25.779
578.99	25.937
579.33	26.350
579.67	25.691
580.00	25.769
580.34	25.563
580.67	25.717
581.01	26.028
581.35	26.383
581.68	25.592
582.02	25.996
582.35	25.571
582.69	26.082
583.02	25.928
583.36	25.667
583.70	25.832
584.03	26.320
584.37	26.468
584.70	26.223
585.04	26.203
585.37	26.134
585.71	25.883
586.04	26.241
586.38	25.715
586.72	25.761
587.05	26.423
587.39	26.086
587.72	26.042
588.06	26.465
588.39	26.146
588.73	26.041
589.06	27.078
589.40	26.658
589.73	26.027
590.07	26.438
590.40	26.937
590.73	25.870
591.07	26.721
591.40	27.860
591.74	26.933
592.07	27.162
592.41	27.049
592.74	26.595
593.08	26.811
593.41	26.217
593.75	26.442
594.08	26.456
594.41	27.061
594.75	26.161
595.08	26.541
595.42	26.734
595.75	26.240
596.09	26.892
596.42	27.128
596.75	26.477
597.09	28.050
597.42	26.757
597.75	27.104
598.09	27.022
598.42	26.823
598.76	26.661
599.09	26.914
599.42	26.374
599.76	26.689
600.09	27.099
600.42	27.231
600.76	26.968
601.09	26.624
601.42	26.712
601.76	26.752
602.09	26.748
602.42	26.173
602.76	26.464
603.09	26.573
603.42	27.276
603.76	27.084
604.09	27.113
604.42	26.353
604.76	27.388
605.09	26.763
605.42	27.128
605.75	27.253
606.09	26.941
606.42	27.021
606.75	27.265
607.09	26.775
607.42	26.276
607.75	27.152
608.08	27.926
608.42	27.720
608.75	26.869
609.08	26.936
609.41	26.856
609.75	26.914
610.08	28.186
610.41	27.807
610.74	27.418
611.07	27.485
611.41	26.374
611.74	27.609
612.07	28.088
612.40	27.026
612.73	26.817
613.07	27.298
613.40	27.696
613.73	28.174
614.06	26.744
614.39	27.790
614.72	26.313
615.06	27.989
615.39	26.099
615.72	27.376
616.05	27.112
616.38	28.323
616.71	27.447
617.05	27.684
617.38	27.307
617.71	27.334
618.04	28.137
618.37	27.107
618.70	28.162
619.03	27.150
619.36	28.048
619.69	28.787
620.03	26.860
620.36	27.707
620.69	28.930
621.02	28.234
621.35	28.065
621.68	29.016
622.01	28.155
622.34	27.873
622.67	28.359
623.00	28.233
623.33	29.030
623.66	28.213
623.99	28.346
624.32	27.307
624.65	28.256
624.99	27.782
625.32	27.545
625.65	28.205
625.98	27.700
626.31	28.385
626.64	28.619
626.97	27.997
627.30	27.915
627.63	27.634
627.96	28.895
628.29	29.688
628.62	28.653
628.95	29.823
629.28	28.759
629.61	27.674
629.94	29.395
630.26	29.423
630.59	29.347
630.92	30.230
631.25	30.343
631.58	28.783
631.91	27.872
632.24	31.222
632.57	28.000
632.90	30.000
633.23	29.206
633.56	28.772
633.89	29.481
634.22	29.280
634.55	29.447
634.88	30.351
635.20	30.087
635.53	29.771
635.86	29.219
636.19	28.694
636.52	27.838
636.85	28.039
637.18	28.375
637.51	31.846
637.83	29.827
638.16	28.289
638.49	29.241
638.82	28.571
639.15	30.999
639.48	28.016
639.81	31.674
640.13	28.108
640.46	31.197
640.79	30.532
641.12	29.619
641.45	29.699
641.77	31.287
642.10	28.701
642.43	28.832
642.76	30.394
643.09	29.048
643.41	30.000
643.74	30.525
644.07	30.733
644.40	31.280
644.73	31.188
645.05	28.715
645.38	31.788
645.71	31.100
646.04	31.933
646.36	30.541
646.69	29.412
647.02	31.408
647.35	29.603
647.67	31.204
648.00	31.986
648.33	31.197
648.66	30.323
648.98	31.369
649.31	29.692
649.64	31.094
649.96	30.298
650.29	29.836
650.62	34.768
650.94	30.860
651.27	30.329
651.60	30.796
651.92	31.164
652.25	31.219
652.58	30.324
652.90	30.016
653.23	29.516
653.56	29.599
653.88	30.000
654.21	33.389
654.54	32.060
654.86	30.979
655.19	30.229
655.52	29.176
655.84	26.383
656.17	29.010
656.49	39.923
656.82	41.303
657.15	31.332
657.47	23.089
657.80	17.579
658.13	20.257
658.45	27.499
658.78	27.251
659.10	27.098
659.43	26.669
659.75	28.009
660.08	27.917
660.41	27.100
660.73	29.263
661.06	32.609
661.38	31.786
661.71	30.593
662.03	31.653
662.36	34.115
662.68	28.270
663.01	33.121
663.33	30.839
663.66	30.901
663.98	31.250
664.31	30.649
664.63	32.743
664.96	31.670
665.28	30.152
665.61	31.078
665.93	31.276
666.26	32.591
666.58	27.235
666.91	31.849
667.23	35.088
667.56	30.839
667.88	32.805
668.21	29.954
668.53	32.009
668.86	33.256
669.18	30.365
669.50	31.542
669.83	28.467
670.15	29.372
670.48	33.645
670.80	29.385
671.13	29.345
671.45	30.180
671.77	29.550
672.10	30.572
672.42	33.579
672.75	30.909
673.07	30.450
673.39	33.151
673.72	33.268
674.04	31.635
674.37	30.928
674.69	35.041
675.01	31.064
675.34	31.887
675.66	32.397
675.98	31.498
676.31	30.317
676.63	31.954
676.95	32.522
677.28	32.715
677.60	34.615
677.92	35.242
678.25	32.166
678.57	31.893
678.89	28.512
679.22	27.463
679.54	34.911
679.86	31.000
680.18	29.278
680.51	29.236
680.83	29.714
681.15	31.214
681.48	35.091
681.80	30.040
682.12	31.590
682.44	29.666
682.77	30.303
683.09	33.333
683.41	32.301
683.73	32.192
684.06	32.473
684.38	30.335
684.70	32.716
685.02	30.709
685.34	33.333
685.67	30.492
685.99	28.922
686.31	32.136
686.63	29.078
686.96	30.314
687.28	32.370
687.60	31.055
687.92	27.821
688.24	31.102
688.56	30.862
688.89	31.410
689.21	31.947
689.53	29.655
689.85	32.294
690.17	31.839
690.49	32.564
690.82	31.807
691.14	30.896
691.46	33.925
691.78	32.819
692.10	33.475
692.42	31.111
692.74	30.472
693.06	29.663
693.39	30.201
693.71	33.409
694.03	32.829
694.35	29.345
694.67	30.733
694.99	31.458
695.31	33.418
695.63	31.888
695.95	32.506
696.27	31.172
696.59	33.690
696.91	33.989
697.23	33.333
697.56	31.250
697.88	32.883
698.20	30.193
698.52	31.839
698.84	33.252
699.16	31.429
699.48	33.500
699.80	35.088
700.12	31.990
700.44	31.844
700.76	34.402
701.08	33.430
701.40	29.003
701.72	36.420
702.04	34.615
702.36	38.855
702.68	32.934
703.00	30.145
703.32	29.513
703.64	31.471
703.96	34.884
704.28	32.249
704.60	32.911
704.91	30.794
705.23	35.922
705.55	28.378
705.87	33.788
706.19	33.681
706.51	34.028
706.83	37.705
707.15	29.618
707.47	35.813
707.79	31.443
708.11	30.534
708.43	34.165
708.74	30.909
709.06	30.362
709.38	31.609
709.70	32.187
710.02	33.436
710.34	33.993
710.66	31.111
710.98	31.230
711.29	29.355
711.61	36.422
711.93	32.459
712.25	35.216
712.57	31.707
712.89	37.410
713.20	37.113
713.52	32.090
713.84	34.875
714.16	36.721
714.48	32.698
714.80	32.000
715.11	34.294
715.43	34.940
715.75	32.399
716.07	36.393
716.39	34.114
716.70	32.404
717.02	33.704
717.34	36.260
717.66	36.929
717.97	34.836
718.29	29.412
718.61	39.286
718.93	32.975
719.24	32.721
719.56	31.321
719.88	33.455
720.20	29.963
720.51	39.474
720.83	36.546
721.15	32.787
721.46	34.902
721.78	33.333
722.10	34.800
722.42	33.058
722.73	31.873
723.05	33.735
723.37	34.118
723.68	35.223
724.00	36.992
724.32	37.037
724.63	33.195
724.95	38.430
725.27	31.579
725.58	29.310
725.90	32.937
726.22	36.900
726.53	33.840
726.85	32.941
727.16	34.586
727.48	30.769
727.80	31.967
728.11	38.655
728.43	34.711
728.74	34.766
729.06	32.576
729.38	34.241
729.69	37.402
730.01	37.008
730.32	31.474
730.64	33.333
730.96	39.179
731.27	30.357
731.59	33.119
731.90	31.288
732.22	36.196
732.53	38.411
732.85	33.557
733.16	34.420
733.48	35.192
733.80	34.875
734.11	37.586
734.43	36.054
734.74	35.015
735.06	35.737
735.37	32.416
735.69	33.871
736.00	35.017
736.32	29.801
736.63	29.310
736.95	38.043
737.26	37.417
737.58	32.374
737.89	36.559
738.21	30.827
738.52	32.308
738.83	32.812
739.15	34.615
739.46	35.887
739.78	30.420
740.09	34.615
740.41	37.762
740.72	35.766
741.04	37.302
741.35	35.065
741.66	36.574
741.98	30.476
742.29	32.864
742.61	36.364
742.92	36.916
743.23	31.140
743.55	36.036
743.86	40.000
744.18	28.095
744.49	40.887
744.80	32.995
745.12	35.567
745.43	35.678
745.74	26.699
746.06	37.073
746.37	32.599
746.68	39.801
747.00	37.173
747.31	35.096
747.62	33.641
747.94	34.934
748.25	42.326
748.56	31.905
748.88	33.152
749.19	38.028
749.50	37.255
749.82	36.444
750.13	34.802
750.44	35.366
750.75	34.000
751.07	34.643
751.38	32.841
751.69	32.443
752.01	32.692
752.32	32.685
752.63	28.077
752.94	34.921
753.26	36.087
753.57	44.196
753.88	35.776
754.19	30.290
754.51	31.641
754.82	35.968
755.13	33.745
755.44	37.603
755.75	32.510
756.07	32.530
756.38	30.859
756.69	36.101
757.00	34.146
757.31	34.899
757.63	36.449
757.94	33.237
758.25	30.814
758.56	35.849
758.87	34.659
759.18	35.000
759.50	35.943
759.81	29.562
760.12	33.108
760.43	34.951
760.74	36.875
761.05	33.708
761.36	35.329
761.67	40.237
761.99	30.968
762.30	32.971
762.61	32.453
762.92	38.117
763.23	37.915
763.54	37.333
763.85	34.177
764.16	37.143
764.47	36.864
764.78	37.453
765.10	36.331
765.41	32.581
765.72	35.535
766.03	30.389
766.34	35.714
766.65	34.413
766.96	34.500
767.27	37.500
767.58	37.209
767.89	31.613
768.20	35.583
768.51	27.869
768.82	33.514
769.13	33.000
769.44	34.211
769.75	40.260
770.06	37.156
770.37	33.333
770.68	39.062
770.99	33.663
771.30	37.864
771.61	31.481
771.92	35.065
772.23	36.449
772.54	35.106
772.85	27.811
773.16	37.195
773.47	39.759
773.78	46.703
774.09	35.333
774.39	35.802
774.70	38.926
775.01	34.058
775.32	37.313
775.63	30.579
775.94	39.098
776.25	36.429
776.56	45.902
776.87	37.168
777.18	42.478
777.48	37.273
777.79	30.435
778.10	29.358
778.41	38.136
778.72	42.149
779.03	44.030
779.34	42.857
779.65	41.830
779.95	42.754
780.26	34.014
780.57	22.414
780.88	34.259
781.19	33.333
781.50	35.200
781.80	30.719
782.11	34.615
782.42	33.735
782.73	18.978
783.04	42.568
783.34	40.909
783.65	40.310
783.96	45.528
784.27	38.462
784.57	34.146
784.88	26.829
785.19	35.965
785.50	24.742
785.81	37.143
786.11	24.510
786.42	31.818
786.73	34.234
787.04	44.554
787.34	31.429
787.65	27.619
787.96	43.137
788.26	32.432
788.57	43.548
788.88	38.281
789.19	43.590
789.49	30.252
789.80	33.333
790.11	42.478
790.41	37.374
790.72	36.792
791.03	11.111
791.33	35.526
791.64	47.312
791.95	37.333
792.25	27.143
792.56	42.683
792.87	42.857
793.17	26.316
793.48	29.730
793.79	33.803
794.09	34.177
794.40	50.000
794.70	32.710
795.01	31.579
795.32	36.364
795.62	26.786
795.93	30.928
796.23	37.363
796.54	45.263
796.85	46.575
797.15	38.889
797.46	36.986
797.76	50.704
798.07	36.250
798.37	45.588
798.68	34.286
798.99	35.714
799.29	55.263
799.60	38.333
799.90	27.778
800.21	45.312
800.51	44.444
800.82	40.984
801.12	36.842
801.43	40.845
801.73	30.508
802.04	36.066
802.34	50.909
802.65	32.692
802.95	50.000
803.26	10.000
803.56	51.923
803.87	39.474
804.17	45.161
804.48	40.000
804.78	28.205
805.09	41.860
805.39	18.750
805.70	15.094
806.00	45.614
806.30	47.297
806.61	35.294
806.91	41.975
807.22	30.667
807.52	20.896
807.83	48.387
808.13	34.921
808.43	21.818
808.74	25.758
809.04	24.528
809.35	42.466
809.65	59.649
809.95	35.294
810.26	54.902
810.56	34.000
810.86	30.612
811.17	31.429
811.47	38.462
811.77	51.613
812.08	10.526
812.38	50.000
812.69	23.913
812.99	48.387
813.29	57.143
813.59	11.111
813.90	27.660
814.20	20.930
814.50	37.500
814.81	51.667
815.11	36.585
815.41	26.667
815.72	80.000
816.02	36.111
816.32	58.974
816.62	35.135
816.93	8.824
817.23	41.304
817.53	41.176
817.84	50.000
818.14	6.250
818.44	55.172
818.74	22.581
819.04	59.259
819.35	40.000
819.65	24.000
819.95	20.000
820.25	40.000
820.56	34.211
820.86	20.000
821.16	23.404
821.46	60.345
821.76	33.333
822.07	2.500
822.37	34.884
822.67	53.333
822.97	21.622
823.27	10.811
823.57	68.000
823.88	40.541
824.18	47.619
824.48	53.846
824.78	46.154
825.08	4.348
825.38	29.167
825.69	83.333
825.99	10.000
826.29	21.622
826.59	38.235
826.89	72.000
827.19	14.286
827.49	21.053
827.79	37.500
828.09	23.333
828.39	113.043
828.70	3.448
829.00	24.138
829.30	61.111
829.60	59.375
829.90	33.333
830.20	34.615
830.50	28.571
830.80	35.714
831.10	58.974
831.40	-9.524
831.70	44.118
832.00	8.333
832.30	21.053
832.60	37.500
832.90	0.000
833.20	11.765
833.50	6.667
833.80	66.667
834.10	5.000
834.40	41.667
834.70	88.889
835.00	23.077
835.30	45.833
835.60	48.276
835.90	61.111
836.20	0.000
836.50	-25.000
836.80	37.143
837.10	77.143
837.40	35.294
837.70	127.273
838.00	20.833
838.30	25.000
838.60	76.190
838.90	100.000
839.19	52.174
839.49	30.435
839.79	-33.333
840.09	56.522
840.39	-9.091
840.69	50.000
840.99	5.263
841.29	56.250
841.59	42.857
841.88	66.667
842.18	4.167
842.48	5.882
842.78	62.069
843.08	50.000
843.38	61.538
843.68	-11.111
843.97	-7.692
844.27	36.364
844.57	60.000
844.87	76.000
845.17	60.000
845.47	50.000
845.76	88.889
846.06	0.000
846.36	-75.000
846.66	20.000
846.96	52.632
847.25	45.833
847.55	0.000
847.85	53.333
848.15	-40.000
848.44	42.308
848.74	63.158
849.04	-233.333
849.34	-44.444
849.63	-31.579
849.93	0.000
850.23	5.000
850.53	42.857
850.82	-4.000
851.12	47.368
851.42	-200.000
851.71	50.000
852.01	41.667
852.31	11.765
852.61	73.333
852.90	-14.286
853.20	-83.333
853.50	22.222
853.79	-36.842
854.09	46.667
854.39	53.571
854.68	26.087
854.98	-8.333
855.28	62.069
855.57	31.250
855.87	5.000
856.17	20.000
856.46	31.034
856.76	-20.000
857.05	23.529
857.35	-23.077
857.65	200.000
857.94	48.148
858.24	64.286
858.53	7.143
858.83	58.333
859.13	66.667
859.42	52.381
859.72	-12.500
860.01	-33.333
860.31	-12.500
860.60	-180.000
860.90	22.222
861.20	-25.000
861.49	85.714
861.79	-11.765
862.08	-150.000
862.38	0.000
862.67	107.692
862.97	82.353
863.26	45.000
863.56	70.588
863.85	66.667
864.15	-40.000
864.44	69.231
864.74	10.000
865.03	-62.500
865.33	0.000
865.62	58.824
865.92	-75.000
866.21	-50.000
866.51	25.000
866.80	200.000
867.10	266.667
867.39	52.941
867.69	39.130
867.98	57.143
868.27	40.000
868.57	-25.000
868.86	0.000
869.16	70.588
869.45	-33.333
869.75	28.571
870.04	100.000
870.33	0.000
870.63	-60.000
870.92	11.111
871.22	-16.667
871.51	81.818
871.80	33.333
872.10	20.000
>>>>>End Processed Spectral Data<<<<<
