SpectraSuite Data File
++++++++++++++++++++++++++++++++++++
Date: Sat May 16 11:16:19 PDT 2015
User: schluterlab
Dark Spectrum Present: Yes
Reference Spectrum Present: Yes
Number of Sampled Component Spectra: 1
Spectrometers: USB2E3373
Integration Time (usec): 3000 (USB2E3373)
Spectra Averaged: 3 (USB2E3373)
Boxcar Smoothing: 0 (USB2E3373)
Correct for Electrical Dark: No (USB2E3373)
Strobe/Lamp Enabled: No (USB2E3373)
Correct for Detector Non-linearity: No (USB2E3373)
Correct for Stray Light: No (USB2E3373)
Number of Pixels in Processed Spectrum: 2048
>>>>>Begin Processed Spectral Data<<<<<
178.53	0.000
178.91	40.000
179.29	66.667
179.67	-1100.000
180.04	-15.385
180.42	200.000
180.80	200.000
181.18	325.000
181.56	-75.000
181.94	-0.000
182.31	350.000
182.69	-84.615
183.07	-333.333
183.45	1100.000
183.83	266.667
184.20	0.000
184.58	-62.500
184.96	-275.000
185.34	100.000
185.72	-225.000
186.09	83.333
186.47	-212.500
186.85	-187.500
187.23	-62.500
187.61	-250.000
187.98	-250.000
188.36	-150.000
188.74	0.000
189.12	1300.000
189.49	214.286
189.87	50.000
190.25	300.000
190.63	-21.429
191.00	-33.333
191.38	200.000
191.76	100.000
192.14	260.000
192.51	-240.000
192.89	-100.000
193.27	0.000
193.65	-88.889
194.02	-28.571
194.40	-0.000
194.78	80.000
195.15	-1000.000
195.53	-54.545
195.91	-383.333
196.29	100.000
196.66	-433.333
197.04	1900.000
197.42	-75.000
197.79	46.667
198.17	200.000
198.55	-50.000
198.92	0.000
199.30	162.500
199.68	-350.000
200.05	-100.000
200.43	-155.556
200.81	-1200.000
201.18	-58.333
201.56	114.286
201.94	-13.333
202.31	22.727
202.69	40.000
203.07	-100.000
203.44	100.000
203.82	-300.000
204.19	-225.000
204.57	-250.000
204.95	-700.000
205.32	-50.000
205.70	1200.000
206.08	-1100.000
206.45	-22.222
206.83	-550.000
207.20	0.000
207.58	-533.333
207.96	-500.000
208.33	-125.000
208.71	-88.889
209.08	150.000
209.46	-128.571
209.84	350.000
210.21	0.000
210.59	30.000
210.96	-100.000
211.34	-333.333
211.71	-366.667
212.09	375.000
212.46	700.000
212.84	-1100.000
213.22	133.333
213.59	83.333
213.97	-111.111
214.34	120.000
214.72	-110.000
215.09	-166.667
215.47	-33.333
215.84	-90.000
216.22	-160.000
216.59	0.000
216.97	-325.000
217.34	950.000
217.72	-57.143
218.09	-33.333
218.47	-142.857
218.84	85.714
219.22	14.286
219.59	0.000
219.97	242.857
220.34	325.000
220.72	162.500
221.09	-30.769
221.47	0.000
221.84	400.000
222.22	-600.000
222.59	700.000
222.97	-150.000
223.34	-600.000
223.72	-333.333
224.09	-28.571
224.46	-175.000
224.84	-42.857
225.21	-100.000
225.59	-36.364
225.96	-12.500
226.34	28.571
226.71	-122.222
227.08	50.000
227.46	600.000
227.83	-242.857
228.21	-200.000
228.58	-200.000
228.95	-12.500
229.33	-800.000
229.70	-120.000
230.08	-700.000
230.45	-16.667
230.82	-200.000
231.20	-1000.000
231.57	-350.000
231.95	1700.000
232.32	33.333
232.69	-77.778
233.07	-185.714
233.44	-850.000
233.81	-60.000
234.19	-100.000
234.56	-37.500
234.93	15.625
235.31	-200.000
235.68	-128.571
236.05	-17.647
236.43	-90.909
236.80	-6.452
237.17	-25.000
237.55	-9.524
237.92	-54.545
238.29	-5.714
238.67	-11.765
239.04	-13.889
239.41	-16.129
239.79	-48.718
240.16	-28.571
240.53	-12.727
240.91	-2.564
241.28	9.091
241.65	-9.231
242.02	3.279
242.40	-19.672
242.77	-4.545
243.14	-5.085
243.51	-22.857
243.89	-22.785
244.26	-10.112
244.63	11.579
245.00	-5.263
245.38	-5.932
245.75	0.000
246.12	-5.600
246.49	-1.575
246.87	-11.382
247.24	-4.237
247.61	-9.322
247.98	-5.634
248.36	-7.692
248.73	-3.165
249.10	-10.828
249.47	-1.754
249.84	0.568
250.22	-9.524
250.59	-1.695
250.96	-5.236
251.33	4.739
251.70	-0.481
252.08	-0.948
252.45	-0.474
252.82	-4.286
253.19	2.553
253.56	-2.016
253.94	0.000
254.31	-4.292
254.68	-0.813
255.05	-3.226
255.42	1.984
255.79	-2.509
256.16	-3.529
256.54	1.471
256.91	-2.273
257.28	-5.495
257.65	-3.901
258.02	3.145
258.39	-0.334
258.76	-5.068
259.14	-1.543
259.51	2.295
259.88	1.220
260.25	-1.242
260.62	-0.965
260.99	-1.780
261.36	-0.915
261.73	2.023
262.10	-0.556
262.47	-2.564
262.85	1.714
263.22	-2.292
263.59	-2.769
263.96	-0.870
264.33	-2.439
264.70	-1.934
265.07	-1.099
265.44	-2.067
265.81	-2.842
266.18	-1.266
266.55	-1.471
266.92	-1.259
267.29	0.969
267.66	-3.704
268.03	0.725
268.40	1.408
268.77	-1.928
269.14	-0.928
269.51	1.379
269.88	-2.294
270.25	-2.331
270.62	-0.915
270.99	-0.450
271.36	-0.932
271.73	-1.121
272.10	-1.831
272.47	-1.111
272.84	0.222
273.21	-0.229
273.58	-1.099
273.95	-2.193
274.32	-1.131
274.69	1.313
275.06	-1.227
275.43	-2.009
275.80	1.629
276.17	-1.046
276.54	0.611
276.91	-1.235
277.28	0.203
277.65	-0.826
278.02	-0.209
278.39	-0.982
278.76	-0.598
279.13	0.593
279.50	-1.193
279.87	-2.114
280.23	-1.012
280.60	-0.199
280.97	-0.194
281.34	0.967
281.71	1.538
282.08	-1.613
282.45	-3.462
282.82	-1.163
283.19	-0.364
283.56	0.916
283.92	-0.530
284.29	-0.186
284.66	0.360
285.03	1.426
285.40	-0.185
285.77	1.404
286.14	-0.542
286.51	-1.599
286.87	1.089
287.24	-0.341
287.61	1.818
287.98	-0.867
288.35	-0.496
288.72	-0.170
289.08	-3.390
289.45	-0.505
289.82	-1.384
290.19	0.985
290.56	-1.488
290.93	-0.318
291.29	-1.621
291.66	-1.771
292.03	-0.314
292.40	0.301
292.77	-1.087
293.13	-0.325
293.50	0.594
293.87	0.767
294.24	-0.905
294.60	-1.970
294.97	1.366
295.34	-0.444
295.71	0.149
296.08	-2.611
296.44	-1.431
296.81	0.000
297.18	-0.141
297.55	0.282
297.91	1.395
298.28	-1.370
298.65	-0.139
299.02	2.273
299.38	0.401
299.75	-0.543
300.12	-0.128
300.48	0.639
300.85	-0.393
301.22	-0.259
301.59	0.000
301.95	0.504
302.32	-1.173
302.69	-0.734
303.05	-0.122
303.42	-0.250
303.79	0.598
304.15	0.711
304.52	0.933
304.89	0.945
305.25	-0.122
305.62	-0.118
305.99	2.120
306.35	-0.111
306.72	-0.683
307.09	1.589
307.45	0.000
307.82	0.447
308.19	0.000
308.55	0.327
308.92	0.000
309.29	0.432
309.65	0.530
310.02	0.972
310.38	-0.324
310.75	0.410
311.12	1.343
311.48	1.775
311.85	2.163
312.22	0.927
312.58	2.035
312.95	1.325
313.31	3.097
313.68	2.211
314.05	2.572
314.41	1.107
314.78	1.199
315.14	2.270
315.51	1.621
315.87	2.614
316.24	2.235
316.61	3.647
316.97	3.085
317.34	2.890
317.70	3.432
318.07	3.265
318.43	3.933
318.80	4.695
319.16	4.128
319.53	3.665
319.89	4.233
320.26	4.608
320.62	5.096
320.99	5.075
321.35	3.941
321.72	4.708
322.08	6.133
322.45	5.446
322.81	5.091
323.18	5.860
323.54	5.638
323.91	6.858
324.27	7.605
324.64	7.221
325.00	7.243
325.37	7.240
325.73	9.361
326.10	7.617
326.46	8.406
326.83	9.617
327.19	11.510
327.56	11.329
327.92	11.810
328.29	11.688
328.65	10.455
329.01	12.721
329.38	12.667
329.74	13.553
330.11	12.693
330.47	12.534
330.84	14.024
331.20	13.628
331.56	13.491
331.93	13.410
332.29	14.338
332.66	14.486
333.02	14.751
333.38	15.950
333.75	15.761
334.11	16.000
334.48	15.975
334.84	16.885
335.20	15.957
335.57	16.787
335.93	18.442
336.29	16.032
336.66	16.564
337.02	16.216
337.38	15.686
337.75	15.979
338.11	17.531
338.47	17.349
338.84	16.697
339.20	16.784
339.56	17.112
339.93	16.490
340.29	15.323
340.65	16.434
341.02	16.948
341.38	16.512
341.74	16.765
342.11	16.297
342.47	17.082
342.83	17.045
343.20	17.079
343.56	16.245
343.92	17.279
344.28	17.157
344.65	16.502
345.01	17.143
345.37	16.944
345.73	15.876
346.10	15.454
346.46	16.978
346.82	15.638
347.19	15.776
347.55	14.848
347.91	15.906
348.27	15.513
348.63	15.428
349.00	15.752
349.36	14.598
349.72	16.799
350.08	16.199
350.45	15.918
350.81	16.561
351.17	13.666
351.53	15.434
351.89	16.006
352.26	16.822
352.62	16.283
352.98	15.981
353.34	15.108
353.70	15.830
354.07	16.286
354.43	16.206
354.79	15.848
355.15	15.655
355.51	14.766
355.87	14.704
356.24	15.250
356.60	15.471
356.96	16.320
357.32	14.648
357.68	15.479
358.04	15.781
358.40	15.545
358.77	15.688
359.13	16.067
359.49	15.722
359.85	15.168
360.21	15.525
360.57	15.813
360.93	15.630
361.29	16.816
361.66	14.710
362.02	15.459
362.38	16.288
362.74	15.385
363.10	15.495
363.46	17.593
363.82	15.743
364.18	16.498
364.54	16.726
364.90	15.094
365.26	14.836
365.62	16.964
365.98	15.861
366.35	16.338
366.71	15.504
367.07	15.949
367.43	16.678
367.79	15.876
368.15	15.576
368.51	16.993
368.87	16.896
369.23	16.702
369.59	16.667
369.95	15.927
370.31	16.174
370.67	15.401
371.03	15.816
371.39	16.832
371.75	15.665
372.11	16.284
372.47	16.486
372.83	17.038
373.19	17.643
373.55	17.523
373.91	17.070
374.27	16.769
374.63	16.632
374.99	16.829
375.35	15.882
375.71	17.623
376.07	16.838
376.42	16.159
376.78	16.732
377.14	17.356
377.50	17.537
377.86	17.230
378.22	17.337
378.58	16.492
378.94	16.584
379.30	17.367
379.66	17.183
380.02	16.637
380.38	17.704
380.74	17.526
381.09	18.043
381.45	16.945
381.81	17.725
382.17	18.233
382.53	16.657
382.89	18.242
383.25	17.580
383.61	17.983
383.97	17.820
384.32	18.023
384.68	18.501
385.04	17.693
385.40	17.772
385.76	17.988
386.12	18.051
386.48	18.441
386.83	18.528
387.19	18.769
387.55	18.413
387.91	18.435
388.27	17.189
388.62	18.089
388.98	17.747
389.34	17.687
389.70	18.697
390.06	18.583
390.42	19.103
390.77	18.423
391.13	18.820
391.49	19.027
391.85	19.701
392.20	19.114
392.56	18.693
392.92	19.053
393.28	19.116
393.64	19.363
393.99	18.954
394.35	19.161
394.71	18.715
395.07	19.460
395.42	18.474
395.78	18.982
396.14	20.062
396.50	18.654
396.85	18.816
397.21	19.806
397.57	18.663
397.92	19.028
398.28	19.389
398.64	18.798
399.00	20.225
399.35	19.053
399.71	19.628
400.07	19.642
400.42	19.526
400.78	19.618
401.14	19.042
401.49	18.160
401.85	19.768
402.21	18.415
402.57	19.053
402.92	19.761
403.28	19.240
403.63	18.574
403.99	19.577
404.35	19.263
404.70	19.134
405.06	20.012
405.42	19.127
405.77	18.552
406.13	19.591
406.49	19.233
406.84	19.376
407.20	19.494
407.55	19.443
407.91	18.459
408.27	19.424
408.62	19.363
408.98	19.163
409.34	19.317
409.69	19.219
410.05	19.588
410.40	19.313
410.76	19.561
411.11	20.200
411.47	19.246
411.83	19.743
412.18	19.493
412.54	19.280
412.89	19.380
413.25	19.481
413.60	18.530
413.96	18.669
414.31	19.388
414.67	19.238
415.03	19.858
415.38	19.063
415.74	19.523
416.09	19.373
416.45	19.709
416.80	19.376
417.16	19.535
417.51	20.683
417.87	19.223
418.22	19.785
418.58	19.512
418.93	19.742
419.29	19.950
419.64	19.598
420.00	21.081
420.35	19.456
420.71	19.688
421.06	20.473
421.42	19.614
421.77	20.436
422.12	20.817
422.48	19.455
422.83	21.014
423.19	19.655
423.54	20.403
423.90	19.838
424.25	20.305
424.61	20.869
424.96	20.831
425.31	20.961
425.67	20.516
426.02	20.195
426.38	21.113
426.73	20.573
427.09	20.159
427.44	20.852
427.79	19.767
428.15	21.245
428.50	21.114
428.85	21.643
429.21	21.195
429.56	20.729
429.92	21.192
430.27	21.486
430.62	21.212
430.98	21.171
431.33	21.345
431.68	21.555
432.04	21.768
432.39	22.450
432.74	21.103
433.10	21.384
433.45	21.416
433.80	21.948
434.16	22.569
434.51	21.753
434.86	22.847
435.22	21.826
435.57	22.154
435.92	22.216
436.28	22.136
436.63	21.933
436.98	22.337
437.34	21.737
437.69	21.762
438.04	21.554
438.39	22.022
438.75	22.119
439.10	21.655
439.45	22.390
439.81	22.289
440.16	22.544
440.51	23.118
440.86	22.383
441.22	21.448
441.57	23.000
441.92	22.609
442.27	22.998
442.63	23.122
442.98	22.404
443.33	22.845
443.68	22.460
444.03	23.183
444.39	22.761
444.74	22.577
445.09	22.917
445.44	23.129
445.79	23.508
446.15	22.344
446.50	22.373
446.85	22.627
447.20	23.136
447.55	23.702
447.91	23.077
448.26	23.017
448.61	23.316
448.96	24.258
449.31	22.717
449.66	23.183
450.02	23.213
450.37	22.667
450.72	23.390
451.07	23.570
451.42	22.615
451.77	23.399
452.12	23.123
452.47	23.615
452.83	23.529
453.18	24.858
453.53	22.948
453.88	24.880
454.23	23.458
454.58	24.425
454.93	24.118
455.28	23.646
455.63	24.017
455.98	24.217
456.34	23.761
456.69	24.703
457.04	24.216
457.39	22.907
457.74	23.509
458.09	24.304
458.44	25.231
458.79	23.711
459.14	24.130
459.49	24.926
459.84	23.777
460.19	24.642
460.54	22.928
460.89	24.215
461.24	24.104
461.59	23.857
461.94	24.443
462.29	25.789
462.64	24.572
462.99	24.967
463.34	24.375
463.69	24.427
464.04	23.667
464.39	24.074
464.74	24.941
465.09	24.354
465.44	24.478
465.79	25.212
466.14	25.086
466.49	25.389
466.84	24.730
467.19	24.688
467.54	24.430
467.89	25.339
468.24	25.416
468.59	25.297
468.94	24.180
469.29	24.756
469.64	25.943
469.99	25.253
470.34	24.516
470.68	26.453
471.03	26.015
471.38	24.028
471.73	24.755
472.08	24.766
472.43	25.740
472.78	24.600
473.13	24.387
473.48	25.080
473.83	24.752
474.17	24.331
474.52	25.831
474.87	25.000
475.22	24.661
475.57	24.389
475.92	25.702
476.27	25.257
476.61	24.563
476.96	25.657
477.31	25.619
477.66	24.903
478.01	25.500
478.36	24.358
478.70	24.933
479.05	24.986
479.40	25.337
479.75	25.484
480.10	25.050
480.45	24.516
480.79	25.716
481.14	25.590
481.49	25.218
481.84	25.012
482.19	25.263
482.53	25.663
482.88	25.534
483.23	24.883
483.58	26.457
483.92	25.418
484.27	24.590
484.62	25.832
484.97	25.214
485.31	24.320
485.66	24.094
486.01	24.467
486.36	25.013
486.70	25.883
487.05	25.030
487.40	24.653
487.75	24.340
488.09	25.139
488.44	25.034
488.79	25.292
489.13	25.599
489.48	25.367
489.83	25.983
490.17	25.294
490.52	25.272
490.87	25.589
491.22	25.362
491.56	25.417
491.91	25.382
492.26	25.896
492.60	25.024
492.95	25.702
493.30	25.298
493.64	24.965
493.99	25.669
494.34	25.333
494.68	25.234
495.03	25.621
495.37	25.516
495.72	25.737
496.07	26.232
496.41	26.308
496.76	24.840
497.11	25.294
497.45	25.910
497.80	25.563
498.14	25.737
498.49	25.465
498.84	24.903
499.18	26.170
499.53	25.621
499.87	25.724
500.22	25.588
500.56	25.463
500.91	26.207
501.26	25.085
501.60	25.181
501.95	26.570
502.29	25.461
502.64	25.507
502.98	24.677
503.33	25.517
503.67	25.431
504.02	26.123
504.36	25.735
504.71	26.140
505.06	25.012
505.40	25.749
505.75	25.610
506.09	26.138
506.44	25.965
506.78	25.439
507.13	24.974
507.47	26.865
507.82	27.001
508.16	25.855
508.51	25.502
508.85	25.259
509.19	25.746
509.54	26.057
509.88	26.064
510.23	25.419
510.57	25.767
510.92	26.101
511.26	24.668
511.61	24.622
511.95	25.162
512.30	26.388
512.64	25.431
512.98	26.238
513.33	25.041
513.67	25.684
514.02	25.112
514.36	26.260
514.70	25.297
515.05	24.871
515.39	25.548
515.74	25.131
516.08	26.282
516.42	24.816
516.77	25.765
517.11	25.515
517.46	25.299
517.80	25.812
518.14	25.181
518.49	24.925
518.83	25.341
519.17	25.873
519.52	24.407
519.86	25.209
520.20	25.978
520.55	25.046
520.89	24.546
521.23	24.542
521.58	25.643
521.92	25.902
522.26	25.651
522.61	25.158
522.95	24.059
523.29	25.768
523.64	24.859
523.98	25.843
524.32	24.639
524.66	24.161
525.01	24.213
525.35	24.613
525.69	24.789
526.04	26.305
526.38	25.461
526.72	24.713
527.06	25.000
527.41	24.620
527.75	24.950
528.09	25.414
528.43	24.393
528.78	24.686
529.12	25.864
529.46	25.515
529.80	25.113
530.15	24.018
530.49	25.097
530.83	25.213
531.17	24.512
531.51	24.648
531.86	24.951
532.20	24.561
532.54	25.468
532.88	24.111
533.22	25.134
533.57	25.000
533.91	23.658
534.25	24.136
534.59	23.298
534.93	23.460
535.27	24.544
535.62	25.512
535.96	24.499
536.30	23.364
536.64	24.568
536.98	24.788
537.32	24.188
537.66	23.354
538.01	24.880
538.35	24.932
538.69	24.064
539.03	24.441
539.37	24.351
539.71	23.482
540.05	24.332
540.39	24.515
540.73	24.534
541.07	24.590
541.42	23.633
541.76	23.522
542.10	25.051
542.44	23.917
542.78	23.474
543.12	23.218
543.46	22.877
543.80	23.545
544.14	23.304
544.48	23.491
544.82	23.613
545.16	24.145
545.50	22.948
545.84	22.253
546.18	23.509
546.52	24.395
546.86	22.222
547.20	22.855
547.54	22.590
547.88	23.026
548.22	22.805
548.56	23.580
548.90	22.776
549.24	22.074
549.58	23.712
549.92	23.746
550.26	23.338
550.60	22.546
550.94	23.869
551.28	22.573
551.62	23.043
551.96	22.576
552.30	22.718
552.64	23.293
552.98	22.705
553.32	21.645
553.66	23.288
554.00	22.672
554.34	22.022
554.68	22.953
555.02	23.372
555.36	22.358
555.69	21.633
556.03	21.684
556.37	22.333
556.71	22.906
557.05	23.060
557.39	22.123
557.73	23.414
558.07	22.909
558.41	23.111
558.75	22.586
559.08	21.946
559.42	22.511
559.76	22.316
560.10	22.371
560.44	22.327
560.78	22.617
561.12	21.118
561.45	22.329
561.79	22.787
562.13	22.020
562.47	21.499
562.81	22.631
563.15	21.903
563.48	22.115
563.82	21.839
564.16	21.771
564.50	21.707
564.84	21.825
565.17	21.950
565.51	21.317
565.85	22.110
566.19	21.739
566.52	21.200
566.86	20.860
567.20	21.368
567.54	22.268
567.88	21.106
568.21	21.253
568.55	20.891
568.89	20.229
569.23	21.101
569.56	20.092
569.90	21.086
570.24	21.308
570.57	20.633
570.91	20.333
571.25	20.752
571.59	20.512
571.92	20.030
572.26	20.371
572.60	20.323
572.93	20.006
573.27	20.183
573.61	19.186
573.95	19.691
574.28	19.472
574.62	19.929
574.96	19.766
575.29	19.411
575.63	19.485
575.97	19.525
576.30	19.868
576.64	19.661
576.98	19.383
577.31	19.356
577.65	19.615
577.98	19.327
578.32	19.217
578.66	19.124
578.99	19.274
579.33	19.141
579.67	19.300
580.00	19.668
580.34	19.178
580.67	19.147
581.01	18.761
581.35	19.125
581.68	18.874
582.02	18.708
582.35	18.791
582.69	19.259
583.02	19.076
583.36	19.113
583.70	19.380
584.03	19.046
584.37	18.755
584.70	18.927
585.04	19.013
585.37	18.282
585.71	18.747
586.04	18.845
586.38	18.578
586.72	18.461
587.05	19.060
587.39	18.274
587.72	18.768
588.06	18.102
588.39	18.997
588.73	19.161
589.06	18.990
589.40	19.787
589.73	18.484
590.07	18.937
590.40	18.967
590.73	18.153
591.07	17.951
591.40	18.804
591.74	18.375
592.07	18.153
592.41	18.811
592.74	17.794
593.08	18.709
593.41	18.553
593.75	17.804
594.08	18.296
594.41	18.558
594.75	18.913
595.08	18.346
595.42	18.100
595.75	17.494
596.09	17.656
596.42	18.781
596.75	18.370
597.09	18.789
597.42	17.765
597.75	18.291
598.09	17.668
598.42	17.676
598.76	18.106
599.09	17.640
599.42	17.839
599.76	17.705
600.09	18.015
600.42	17.888
600.76	18.004
601.09	17.850
601.42	17.293
601.76	18.030
602.09	17.669
602.42	18.230
602.76	17.158
603.09	17.379
603.42	17.526
603.76	17.870
604.09	17.781
604.42	17.277
604.76	17.314
605.09	18.128
605.42	17.465
605.75	17.551
606.09	17.103
606.42	17.344
606.75	17.175
607.09	17.909
607.42	16.945
607.75	16.954
608.08	17.488
608.42	17.881
608.75	16.729
609.08	16.561
609.41	17.439
609.75	16.967
610.08	17.843
610.41	17.157
610.74	17.408
611.07	17.495
611.41	16.541
611.74	18.355
612.07	17.669
612.40	17.271
612.73	16.855
613.07	16.731
613.40	17.679
613.73	18.093
614.06	16.365
614.39	17.024
614.72	16.257
615.06	17.011
615.39	16.332
615.72	17.599
616.05	17.173
616.38	17.818
616.71	17.117
617.05	17.310
617.38	16.842
617.71	16.400
618.04	17.081
618.37	16.792
618.70	16.428
619.03	16.655
619.36	17.054
619.69	18.162
620.03	16.529
620.36	16.948
620.69	17.014
621.02	16.667
621.35	17.177
621.68	16.803
622.01	17.476
622.34	17.081
622.67	15.391
623.00	17.215
623.33	17.090
623.66	17.208
623.99	16.466
624.32	16.295
624.65	16.409
624.99	18.447
625.32	15.344
625.65	18.260
625.98	17.136
626.31	17.292
626.64	17.406
626.97	17.209
627.30	17.447
627.63	15.544
627.96	15.840
628.29	16.912
628.62	16.332
628.95	16.929
629.28	16.353
629.61	16.094
629.94	17.486
630.26	16.998
630.59	17.688
630.92	14.915
631.25	16.935
631.58	17.037
631.91	14.894
632.24	16.333
632.57	16.111
632.90	17.241
633.23	16.706
633.56	16.140
633.89	15.684
634.22	17.473
634.55	15.385
634.88	18.380
635.20	16.979
635.53	16.921
635.86	15.365
636.19	16.361
636.52	16.726
636.85	15.523
637.18	13.375
637.51	17.844
637.83	16.778
638.16	17.105
638.49	15.310
638.82	15.701
639.15	16.732
639.48	15.045
639.81	18.257
640.13	15.946
640.46	16.524
640.79	15.266
641.12	16.079
641.45	17.791
641.77	16.617
642.10	14.502
642.43	15.630
642.76	16.850
643.09	15.556
643.41	17.143
643.74	17.170
644.07	17.785
644.40	16.532
644.73	15.017
645.05	15.192
645.38	16.556
645.71	14.948
646.04	15.798
646.36	17.103
646.69	16.782
647.02	19.134
647.35	18.773
647.67	16.606
648.00	15.641
648.33	17.707
648.66	14.677
648.98	16.242
649.31	17.385
649.64	16.563
649.96	15.699
650.29	15.902
650.62	16.695
650.94	16.863
651.27	16.984
651.60	15.052
651.92	14.555
652.25	16.361
652.58	12.777
652.90	15.891
653.23	14.677
653.56	15.217
653.88	17.213
654.21	15.436
654.54	15.781
654.86	15.891
655.19	13.181
655.52	14.286
655.84	13.891
656.17	15.387
656.49	20.899
656.82	21.769
657.15	16.312
657.47	11.994
657.80	9.264
658.13	10.459
658.45	14.259
658.78	13.626
659.10	13.748
659.43	13.503
659.75	14.162
660.08	14.062
660.41	12.929
660.73	13.421
661.06	16.087
661.38	14.821
661.71	14.149
662.03	15.323
662.36	15.139
662.68	14.557
663.01	15.711
663.33	13.605
663.66	15.880
663.98	12.277
664.31	13.870
664.63	16.150
664.96	15.618
665.28	14.751
665.61	14.376
665.93	18.107
666.26	16.397
666.58	13.514
666.91	15.590
667.23	15.570
667.56	13.379
667.88	14.480
668.21	14.516
668.53	14.486
668.86	16.859
669.18	15.753
669.50	15.187
669.83	13.139
670.15	14.350
670.48	15.421
670.80	12.301
671.13	13.544
671.45	14.640
671.77	14.561
672.10	16.174
672.42	15.314
672.75	14.000
673.07	12.793
673.39	13.115
673.72	15.157
674.04	14.013
674.37	13.402
674.69	17.213
675.01	14.255
675.34	13.883
675.66	13.823
675.98	14.317
676.31	16.290
676.63	12.874
676.95	12.168
677.28	13.457
677.60	16.968
677.92	16.960
678.25	14.223
678.57	16.255
678.89	12.369
679.22	13.836
679.54	12.032
679.86	13.400
680.18	12.928
680.51	10.987
680.83	16.000
681.15	14.644
681.48	14.604
681.80	13.105
682.12	12.072
682.44	13.163
682.77	12.121
683.09	15.723
683.41	15.487
683.73	15.982
684.06	14.409
684.38	13.389
684.70	12.140
685.02	13.976
685.34	13.840
685.67	11.932
685.99	10.586
686.31	14.004
686.63	14.184
686.96	13.678
687.28	11.946
687.60	11.523
687.92	11.868
688.24	11.220
688.56	12.425
688.89	12.393
689.21	13.567
689.53	14.713
689.85	13.140
690.17	10.538
690.49	13.857
690.82	14.217
691.14	13.679
691.46	13.525
691.78	14.978
692.10	13.983
692.42	13.778
692.74	13.305
693.06	12.135
693.39	12.975
693.71	9.255
694.03	13.607
694.35	12.190
694.67	14.421
694.99	12.788
695.31	11.990
695.63	11.224
695.95	12.159
696.27	11.721
696.59	12.299
696.91	10.674
697.23	13.802
697.56	13.942
697.88	10.360
698.20	12.634
698.52	11.659
698.84	13.592
699.16	14.048
699.48	11.250
699.80	14.035
700.12	12.343
700.44	10.894
700.76	9.329
701.08	12.500
701.40	9.668
701.72	13.272
702.04	14.423
702.36	10.843
702.68	10.479
703.00	14.203
703.32	10.315
703.64	15.294
703.96	11.919
704.28	13.314
704.60	11.392
704.91	7.619
705.23	8.738
705.55	7.770
705.87	15.358
706.19	8.681
706.51	14.236
706.83	13.443
707.15	10.510
707.47	13.499
707.79	11.856
708.11	11.196
708.43	12.219
708.74	11.429
709.06	6.685
709.38	13.218
709.70	8.750
710.02	16.564
710.34	11.551
710.66	10.159
710.98	13.565
711.29	9.355
711.61	12.460
711.93	8.852
712.25	13.953
712.57	9.408
712.89	13.669
713.20	15.464
713.52	4.104
713.84	11.744
714.16	13.770
714.48	12.063
714.80	7.077
715.11	14.121
715.43	12.952
715.75	14.019
716.07	12.459
716.39	8.696
716.70	10.801
717.02	9.630
717.34	12.977
717.66	14.938
717.97	9.426
718.29	6.723
718.61	13.889
718.93	13.620
719.24	6.985
719.56	6.415
719.88	13.091
720.20	7.865
720.51	15.038
720.83	7.229
721.15	7.377
721.46	13.725
721.78	9.579
722.10	14.400
722.42	7.438
722.73	13.147
723.05	11.245
723.37	9.804
723.68	10.121
724.00	15.447
724.32	14.403
724.63	11.618
724.95	16.942
725.27	8.772
725.58	9.483
725.90	11.508
726.22	17.343
726.53	9.506
726.85	7.451
727.16	13.158
727.48	10.385
727.80	6.967
728.11	10.504
728.43	7.438
728.74	12.891
729.06	10.606
729.38	10.117
729.69	7.480
730.01	10.630
730.32	8.765
730.64	10.623
730.96	11.940
731.27	6.429
731.59	10.932
731.90	11.043
732.22	10.736
732.53	9.603
732.85	9.732
733.16	7.971
733.48	6.969
733.80	8.897
734.11	8.621
734.43	11.565
734.74	10.682
735.06	8.777
735.37	12.538
735.69	5.161
736.00	11.448
736.32	11.258
736.63	6.897
736.95	10.507
737.26	8.278
737.58	10.791
737.89	8.961
738.21	9.774
738.52	11.154
738.83	7.812
739.15	13.248
739.46	16.129
739.78	8.392
740.09	7.692
740.41	7.692
740.72	11.314
741.04	7.143
741.35	4.329
741.66	7.870
741.98	7.619
742.29	7.512
742.61	7.487
742.92	13.084
743.23	4.825
743.55	9.910
743.86	9.333
744.18	9.048
744.49	10.345
744.80	8.629
745.12	8.763
745.43	7.035
745.74	7.767
746.06	9.268
746.37	8.370
746.68	8.458
747.00	10.471
747.31	4.808
747.62	7.373
747.94	6.987
748.25	10.233
748.56	9.048
748.88	1.630
749.19	14.554
749.50	9.314
749.82	14.222
750.13	7.489
750.44	11.382
750.75	8.800
751.07	12.500
751.38	11.439
751.69	6.870
752.01	8.846
752.32	4.280
752.63	6.538
752.94	5.556
753.26	9.565
753.57	15.625
753.88	9.483
754.19	0.000
754.51	5.078
754.82	5.929
755.13	8.642
755.44	4.959
755.75	8.642
756.07	3.213
756.38	5.078
756.69	9.025
757.00	10.453
757.31	9.732
757.63	11.526
757.94	7.225
758.25	9.593
758.56	12.668
758.87	7.955
759.18	6.333
759.50	11.388
759.81	4.015
760.12	5.068
760.43	9.061
760.74	7.813
761.05	11.236
761.36	8.084
761.67	7.692
761.99	8.387
762.30	7.971
762.61	8.679
762.92	9.865
763.23	8.531
763.54	8.000
763.85	8.861
764.16	4.490
764.47	8.051
764.78	10.112
765.10	11.151
765.41	5.161
765.72	5.975
766.03	2.473
766.34	11.278
766.65	12.955
766.96	2.500
767.27	13.542
767.58	4.070
767.89	8.387
768.20	10.429
768.51	10.383
768.82	4.324
769.13	3.500
769.44	6.579
769.75	10.823
770.06	11.468
770.37	4.225
770.68	14.062
770.99	4.950
771.30	3.883
771.61	3.241
771.92	3.463
772.23	7.944
772.54	1.064
772.85	-1.183
773.16	1.829
773.47	12.048
773.78	10.989
774.09	6.000
774.39	10.494
774.70	-1.342
775.01	2.174
775.32	0.000
775.63	-12.397
775.94	13.534
776.25	10.000
776.56	8.197
776.87	13.274
777.18	9.735
777.48	1.818
777.79	0.870
778.10	0.000
778.41	-0.847
778.72	11.570
779.03	8.209
779.34	7.519
779.65	6.536
779.95	5.797
780.26	4.762
780.57	-1.724
780.88	3.704
781.19	-7.071
781.50	4.800
781.80	6.536
782.11	5.128
782.42	10.843
782.73	-1.460
783.04	8.108
783.34	10.606
783.65	3.876
783.96	2.439
784.27	1.709
784.57	0.000
784.88	-2.439
785.19	5.263
785.50	-4.124
785.81	6.667
786.11	-1.961
786.42	-1.818
786.73	3.604
787.04	15.842
787.34	4.762
787.65	4.762
787.96	-3.922
788.26	1.802
788.57	9.677
788.88	0.000
789.19	-1.709
789.49	0.840
789.80	9.402
790.11	5.310
790.41	11.111
790.72	16.038
791.03	-8.333
791.33	3.947
791.64	6.452
791.95	5.333
792.25	-8.571
792.56	2.439
792.87	17.347
793.17	-10.526
793.48	1.351
793.79	-5.634
794.09	0.000
794.40	2.128
794.70	7.477
795.01	-4.386
795.32	4.545
795.62	-0.893
795.93	0.000
796.23	-8.791
796.54	8.421
796.85	5.479
797.15	-4.167
797.46	1.370
797.76	9.859
798.07	11.250
798.37	-11.765
798.68	2.857
798.99	1.429
799.29	3.947
799.60	-1.667
799.90	-9.722
800.21	6.250
800.51	1.587
800.82	11.475
801.12	-14.035
801.43	16.901
801.73	-20.339
802.04	22.951
802.34	-27.273
802.65	3.846
802.95	1.852
803.26	-30.000
803.56	19.231
803.87	-28.947
804.17	0.000
804.48	12.308
804.78	-56.410
805.09	4.651
805.39	-56.250
805.70	-24.528
806.00	38.596
806.30	8.108
806.61	10.294
806.91	0.000
807.22	-13.333
807.52	-1.493
807.83	-9.677
808.13	-20.635
808.43	-9.091
808.74	1.515
809.04	-9.434
809.35	1.370
809.65	-1.754
809.95	16.176
810.26	-13.725
810.56	-16.000
810.86	-10.204
811.17	0.000
811.47	-5.769
811.77	-29.032
812.08	-57.895
812.38	-7.143
812.69	-2.174
812.99	9.677
813.29	-38.095
813.59	-66.667
813.90	-8.511
814.20	-39.535
814.50	-16.667
814.81	-13.333
815.11	-24.390
815.41	-30.000
815.72	37.143
816.02	-41.667
816.32	17.949
816.62	-32.432
816.93	-38.235
817.23	2.174
817.53	-2.941
817.84	-8.824
818.14	-37.500
818.44	-27.586
818.74	-19.355
819.04	-29.630
819.35	6.667
819.65	-12.000
819.95	6.667
820.25	-60.000
820.56	-5.263
820.86	-2.500
821.16	-8.511
821.46	10.345
821.76	-41.026
822.07	-50.000
822.37	-4.651
822.67	-6.667
822.97	-10.811
823.27	-5.405
823.57	-4.000
823.88	21.622
824.18	-61.905
824.48	-11.538
824.78	-107.692
825.08	-65.217
825.38	29.167
825.69	-4.167
825.99	-5.000
826.29	-40.541
826.59	-29.412
826.89	36.000
827.19	-20.000
827.49	5.263
827.79	-18.750
828.09	-40.000
828.39	8.696
828.70	-75.862
829.00	3.448
829.30	-19.444
829.60	3.125
829.90	16.667
830.20	-23.077
830.50	-42.857
830.80	-39.286
831.10	-7.692
831.40	-33.333
831.70	2.941
832.00	8.333
832.30	21.053
832.60	12.500
832.90	-33.333
833.20	-100.000
833.50	-80.000
833.80	-33.333
834.10	-40.000
834.40	25.000
834.70	0.000
835.00	-3.846
835.30	-33.333
835.60	24.138
835.90	-61.111
836.20	-72.727
836.50	-158.333
836.80	8.571
837.10	8.571
837.40	-35.294
837.70	-54.545
838.00	-25.000
838.30	-37.500
838.60	-28.571
838.90	5.000
839.19	-8.696
839.49	-34.783
839.79	-88.889
840.09	-69.565
840.39	13.636
840.69	-143.750
840.99	-84.211
841.29	-62.500
841.59	-21.429
841.88	-33.333
842.18	-16.667
842.48	-35.294
842.78	-31.034
843.08	-50.000
843.38	-53.846
843.68	-155.556
843.97	-130.769
844.27	-90.909
844.57	-120.000
844.87	24.000
845.17	-100.000
845.47	-64.286
845.76	-177.778
846.06	0.000
846.36	-175.000
846.66	-160.000
846.96	-26.316
847.25	-37.500
847.55	-50.000
847.85	-46.667
848.15	-160.000
848.44	-15.385
848.74	-5.263
849.04	466.667
849.34	11.111
849.63	-5.263
849.93	0.000
850.23	-20.000
850.53	-23.810
850.82	-8.000
851.12	-21.053
851.42	-750.000
851.71	7.143
852.01	-41.667
852.31	-17.647
852.61	-66.667
852.90	-57.143
853.20	-183.333
853.50	5.556
853.79	-26.316
854.09	0.000
854.39	-46.429
854.68	-13.043
854.98	-275.000
855.28	27.586
855.57	-137.500
855.87	-75.000
856.17	-40.000
856.46	-27.586
856.76	-26.667
857.05	-58.824
857.35	-161.538
857.65	-72.727
857.94	-7.407
858.24	-57.143
858.53	-57.143
858.83	-183.333
859.13	-122.222
859.42	14.286
859.72	-112.500
860.01	-100.000
860.31	-62.500
860.60	-260.000
860.90	-122.222
861.20	-112.500
861.49	-271.429
861.79	11.765
862.08	-1000.000
862.38	0.000
862.67	-7.692
862.97	-11.765
863.26	55.000
863.56	-41.176
863.85	533.333
864.15	0.000
864.44	-15.385
864.74	-15.000
865.03	-225.000
865.33	-266.667
865.62	-41.176
865.92	-350.000
866.21	-85.714
866.51	-208.333
866.80	-1600.000
867.10	-233.333
867.39	-41.176
867.69	4.348
867.98	-185.714
868.27	-280.000
868.57	-25.000
868.86	-45.455
869.16	11.765
869.45	-133.333
869.75	-142.857
870.04	1400.000
870.33	-33.333
870.63	-80.000
870.92	11.111
871.22	-66.667
871.51	-72.727
871.80	-41.667
872.10	10.000
>>>>>End Processed Spectral Data<<<<<
