SpectraSuite Data File
++++++++++++++++++++++++++++++++++++
Date: Sat May 16 11:32:48 PDT 2015
User: schluterlab
Dark Spectrum Present: Yes
Reference Spectrum Present: Yes
Number of Sampled Component Spectra: 1
Spectrometers: USB2E3373
Integration Time (usec): 3000 (USB2E3373)
Spectra Averaged: 3 (USB2E3373)
Boxcar Smoothing: 0 (USB2E3373)
Correct for Electrical Dark: No (USB2E3373)
Strobe/Lamp Enabled: No (USB2E3373)
Correct for Detector Non-linearity: No (USB2E3373)
Correct for Stray Light: No (USB2E3373)
Number of Pixels in Processed Spectrum: 2048
>>>>>Begin Processed Spectral Data<<<<<
178.53	0.000
178.91	80.000
179.29	633.333
179.67	-1900.000
180.04	-100.000
180.42	1100.000
180.80	275.000
181.18	400.000
181.56	-125.000
181.94	1800.000
182.31	550.000
182.69	-38.462
183.07	-300.000
183.45	1800.000
183.83	733.333
184.20	-300.000
184.58	-225.000
184.96	-275.000
185.34	106.250
185.72	-625.000
186.09	166.667
186.47	-162.500
186.85	-125.000
187.23	-162.500
187.61	-400.000
187.98	-262.500
188.36	-125.000
188.74	-187.500
189.12	2100.000
189.49	342.857
189.87	-83.333
190.25	375.000
190.63	-42.857
191.00	-166.667
191.38	440.000
191.76	-46.667
192.14	520.000
192.51	-220.000
192.89	-333.333
193.27	0.000
193.65	-177.778
194.02	-228.571
194.40	700.000
194.78	-130.000
195.15	-1700.000
195.53	-45.455
195.91	-383.333
196.29	200.000
196.66	-533.333
197.04	1900.000
197.42	25.000
197.79	-53.333
198.17	-400.000
198.55	-800.000
198.92	-2000.000
199.30	250.000
199.68	-650.000
200.05	-133.333
200.43	-244.444
200.81	-2100.000
201.18	-66.667
201.56	157.143
201.94	-33.333
202.31	-13.636
202.69	40.000
203.07	-160.000
203.44	866.667
203.82	-333.333
204.19	-550.000
204.57	-525.000
204.95	-800.000
205.32	-50.000
205.70	1200.000
206.08	-1800.000
206.45	-72.222
206.83	-1050.000
207.20	200.000
207.58	-600.000
207.96	-233.333
208.33	-100.000
208.71	-200.000
209.08	120.000
209.46	-214.286
209.84	650.000
210.21	0.000
210.59	15.000
210.96	600.000
211.34	-350.000
211.71	-266.667
212.09	325.000
212.46	750.000
212.84	-2400.000
213.22	500.000
213.59	58.333
213.97	-77.778
214.34	130.000
214.72	-180.000
215.09	-500.000
215.47	66.667
215.84	-80.000
216.22	-150.000
216.59	-40.000
216.97	-475.000
217.34	650.000
217.72	-42.857
218.09	-200.000
218.47	-214.286
218.84	257.143
219.22	-142.857
219.59	0.000
219.97	357.143
220.34	300.000
220.72	287.500
221.09	-107.692
221.47	0.000
221.84	200.000
222.22	-550.000
222.59	1500.000
222.97	-200.000
223.34	-1350.000
223.72	-366.667
224.09	-85.714
224.46	-125.000
224.84	-21.429
225.21	-100.000
225.59	0.000
225.96	-225.000
226.34	-42.857
226.71	-100.000
227.08	-35.000
227.46	1300.000
227.83	-171.429
228.21	-212.500
228.58	450.000
228.95	-43.750
229.33	-2200.000
229.70	-200.000
230.08	-850.000
230.45	0.000
230.82	-166.667
231.20	100.000
231.57	-550.000
231.95	500.000
232.32	-14.286
232.69	-166.667
233.07	-285.714
233.44	-800.000
233.81	-100.000
234.19	-77.778
234.56	-56.250
234.93	-6.250
235.31	-214.286
235.68	-107.143
236.05	-76.471
236.43	-81.818
236.80	22.581
237.17	-4.167
237.55	0.000
237.92	-68.182
238.29	42.857
238.67	41.176
239.04	2.778
239.41	-12.903
239.79	-30.769
240.16	16.667
240.53	5.455
240.91	25.641
241.28	16.364
241.65	41.538
242.02	13.115
242.40	32.787
242.77	18.182
243.14	11.864
243.51	21.429
243.89	27.848
244.26	19.101
244.63	33.684
245.00	25.263
245.38	26.271
245.75	23.894
246.12	27.200
246.49	39.370
246.87	24.390
247.24	22.881
247.61	21.186
247.98	31.690
248.36	26.573
248.73	25.316
249.10	32.484
249.47	33.918
249.84	35.795
250.22	24.405
250.59	32.203
250.96	36.126
251.33	37.915
251.70	32.212
252.08	31.754
252.45	31.754
252.82	39.048
253.19	34.894
253.56	31.452
253.94	36.709
254.31	35.193
254.68	40.650
255.05	37.903
255.42	38.889
255.79	34.767
256.16	32.941
256.54	37.500
256.91	32.955
257.28	32.234
257.65	39.362
258.02	35.535
258.39	35.117
258.76	34.797
259.14	35.185
259.51	40.656
259.88	37.195
260.25	39.130
260.62	36.977
260.99	37.389
261.36	34.756
261.73	36.416
262.10	33.889
262.47	37.892
262.85	39.143
263.22	34.957
263.59	36.000
263.96	40.290
264.33	35.230
264.70	40.884
265.07	34.341
265.44	37.209
265.81	36.176
266.18	34.684
266.55	36.275
266.92	39.295
267.29	36.562
267.66	40.494
268.03	41.304
268.40	37.089
268.77	36.627
269.14	37.355
269.51	35.402
269.88	35.092
270.25	34.732
270.62	35.698
270.99	36.937
271.36	36.364
271.73	34.978
272.10	37.071
272.47	36.667
272.84	40.000
273.21	36.009
273.58	35.165
273.95	38.158
274.32	38.688
274.69	38.512
275.06	37.423
275.43	36.607
275.80	38.493
276.17	39.121
276.54	36.049
276.91	34.979
277.28	35.903
277.65	39.050
278.02	36.534
278.39	37.721
278.76	38.446
279.13	34.585
279.50	33.201
279.87	38.266
280.23	37.449
280.60	38.370
280.97	35.340
281.34	36.557
281.71	38.462
282.08	36.895
282.45	36.253
282.82	37.016
283.19	37.636
283.56	38.462
283.92	36.042
284.29	36.059
284.66	35.252
285.03	35.829
285.40	35.793
285.77	37.193
286.14	35.560
286.51	35.702
286.87	37.024
287.24	34.642
287.61	35.372
287.98	33.449
288.35	35.537
288.72	34.805
289.08	32.034
289.45	35.522
289.82	31.661
290.19	33.662
290.56	33.554
290.93	31.002
291.29	32.091
291.66	31.723
292.03	33.124
292.40	31.476
292.77	29.814
293.13	32.520
293.50	31.501
293.87	32.055
294.24	30.317
294.60	28.788
294.97	30.804
295.34	29.333
295.71	29.018
296.08	29.647
296.44	31.330
296.81	29.630
297.18	28.169
297.55	29.661
297.91	29.568
298.28	27.808
298.65	26.220
299.02	29.011
299.38	27.005
299.75	29.076
300.12	27.821
300.48	27.749
300.85	27.392
301.22	27.038
301.59	27.178
301.95	27.960
302.32	26.858
302.69	27.050
303.05	26.129
303.42	26.250
303.79	26.914
304.15	26.422
304.52	27.888
304.89	27.037
305.25	25.031
305.62	25.264
305.99	26.502
306.35	24.861
306.72	25.626
307.09	25.993
307.45	25.085
307.82	23.799
308.19	25.056
308.55	25.817
308.92	22.771
309.29	25.730
309.65	25.345
310.02	25.162
310.38	22.595
310.75	24.795
311.12	24.897
311.48	24.426
311.85	24.614
312.22	26.571
312.58	26.144
312.95	24.057
313.31	25.175
313.68	24.322
314.05	24.431
314.41	24.145
314.78	23.676
315.14	24.087
315.51	23.708
315.87	24.879
316.24	24.295
316.61	26.392
316.97	24.876
317.34	24.663
317.70	22.913
318.07	24.440
318.43	24.251
318.80	25.634
319.16	23.640
319.53	23.966
319.89	22.954
320.26	24.216
320.62	22.115
320.99	24.080
321.35	22.069
321.72	23.439
322.08	24.827
322.45	23.663
322.81	23.247
323.18	23.055
323.54	23.198
323.91	23.818
324.27	23.669
324.64	23.583
325.00	23.211
325.37	23.710
325.73	24.847
326.10	22.764
326.46	22.504
326.83	22.468
327.19	23.269
327.56	23.424
327.92	24.384
328.29	23.030
328.65	21.636
329.01	23.587
329.38	22.480
329.74	24.084
330.11	23.935
330.47	22.616
330.84	23.556
331.20	22.563
331.56	22.972
331.93	23.712
332.29	23.105
332.66	22.915
333.02	23.439
333.38	24.283
333.75	22.351
334.11	22.756
334.48	21.801
334.84	24.497
335.20	22.340
335.57	22.924
335.93	24.620
336.29	23.738
336.66	22.026
337.02	22.252
337.38	22.638
337.75	22.037
338.11	23.345
338.47	21.441
338.84	21.688
339.20	22.320
339.56	22.906
339.93	22.663
340.29	20.549
340.65	21.591
341.02	23.019
341.38	22.325
341.74	22.015
342.11	21.672
342.47	21.803
342.83	22.670
343.20	22.374
343.56	21.224
343.92	21.786
344.28	22.540
344.65	22.525
345.01	22.437
345.37	23.754
345.73	21.113
346.10	20.605
346.46	21.365
346.82	21.812
347.19	21.282
347.55	21.268
347.91	21.969
348.27	21.161
348.63	22.132
349.00	21.957
349.36	20.375
349.72	21.576
350.08	21.492
350.45	20.410
350.81	22.134
351.17	20.900
351.53	21.161
351.89	21.584
352.26	22.016
352.62	23.041
352.98	21.519
353.34	22.062
353.70	21.004
354.07	21.164
354.43	22.451
354.79	21.632
355.15	21.885
355.51	21.953
355.87	20.079
356.24	20.810
356.60	20.870
356.96	21.401
357.32	20.348
357.68	20.920
358.04	20.323
358.40	20.650
358.77	20.325
359.13	20.428
359.49	21.088
359.85	21.037
360.21	21.081
360.57	20.407
360.93	21.037
361.29	21.375
361.66	20.274
362.02	20.266
362.38	20.763
362.74	20.440
363.10	20.588
363.46	21.225
363.82	19.971
364.18	20.333
364.54	20.372
364.90	20.126
365.26	19.401
365.62	21.739
365.98	21.550
366.35	20.070
366.71	20.014
367.07	20.889
367.43	20.933
367.79	19.794
368.15	20.199
368.51	19.930
368.87	21.497
369.23	19.860
369.59	19.097
369.95	20.296
370.31	21.308
370.67	19.667
371.03	20.262
371.39	20.014
371.75	19.313
372.11	22.310
372.47	20.969
372.83	20.167
373.19	21.286
373.55	21.042
373.91	20.270
374.27	19.986
374.63	20.566
374.99	20.654
375.35	20.659
375.71	21.067
376.07	20.534
376.42	19.338
376.78	20.654
377.14	21.017
377.50	20.309
377.86	19.701
378.22	20.415
378.58	19.580
378.94	20.099
379.30	20.902
379.66	20.765
380.02	19.905
380.38	19.275
380.74	19.812
381.09	20.855
381.45	21.301
381.81	19.601
382.17	20.175
382.53	19.878
382.89	19.438
383.25	20.289
383.61	19.458
383.97	19.963
384.32	19.274
384.68	20.556
385.04	19.444
385.40	19.842
385.76	19.268
386.12	20.487
386.48	20.235
386.83	19.816
387.19	20.203
387.55	19.988
387.91	19.621
388.27	17.913
388.62	19.171
388.98	20.351
389.34	19.584
389.70	20.037
390.06	20.820
390.42	19.295
390.77	20.252
391.13	20.497
391.49	19.464
391.85	20.075
392.20	20.085
392.56	18.693
392.92	20.707
393.28	20.436
393.64	20.144
393.99	20.062
394.35	20.073
394.71	20.012
395.07	20.088
395.42	19.726
395.78	18.919
396.14	19.688
396.50	19.817
396.85	20.049
397.21	19.320
397.57	20.000
397.92	20.082
398.28	20.111
398.64	18.977
399.00	20.843
399.35	20.519
399.71	20.732
400.07	19.940
400.42	20.620
400.78	19.439
401.14	19.880
401.49	19.693
401.85	19.768
402.21	19.964
402.57	19.782
402.92	20.076
403.28	20.098
403.63	19.053
403.99	19.950
404.35	18.961
404.70	19.953
405.06	19.954
405.42	19.557
405.77	19.400
406.13	19.478
406.49	20.012
406.84	19.676
407.20	19.081
407.55	18.746
407.91	19.560
408.27	20.588
408.62	19.723
408.98	20.255
409.34	19.805
409.69	19.345
410.05	20.012
410.40	20.172
410.76	19.680
411.11	19.888
411.47	20.396
411.83	20.110
412.18	19.740
412.54	19.585
412.89	20.049
413.25	19.362
413.60	18.469
413.96	19.593
414.31	19.755
414.67	19.746
415.03	19.405
415.38	20.429
415.74	20.103
416.09	20.013
416.45	19.312
416.80	20.091
417.16	19.269
417.51	19.632
417.87	19.547
418.22	19.595
418.58	19.512
418.93	20.110
419.29	19.699
419.64	19.661
420.00	20.717
420.35	20.225
420.71	19.568
421.06	19.882
421.42	19.965
421.77	19.821
422.12	19.922
422.48	18.974
422.83	20.103
423.19	19.488
423.54	19.481
423.90	19.722
424.25	19.174
424.61	19.723
424.96	19.895
425.31	19.564
425.67	19.083
426.02	18.589
426.38	20.387
426.73	19.404
427.09	19.608
427.44	20.511
427.79	19.419
428.15	19.629
428.50	19.472
428.85	19.305
429.21	19.092
429.56	19.896
429.92	19.689
430.27	20.140
430.62	20.115
430.98	20.178
431.33	19.264
431.68	20.214
432.04	20.257
432.39	19.829
432.74	19.904
433.10	19.921
433.45	19.747
433.80	20.045
434.16	19.882
434.51	19.726
434.86	19.684
435.22	19.655
435.57	19.584
435.92	19.050
436.28	19.881
436.63	19.729
436.98	19.874
437.34	19.728
437.69	19.312
438.04	19.455
438.39	20.939
438.75	19.150
439.10	20.155
439.45	19.674
439.81	19.277
440.16	18.966
440.51	19.824
440.86	19.318
441.22	19.182
441.57	19.000
441.92	19.591
442.27	19.426
442.63	19.635
442.98	19.470
443.33	18.891
443.68	19.020
444.03	19.892
444.39	19.726
444.74	19.548
445.09	19.901
445.44	20.371
445.79	19.276
446.15	20.427
446.50	19.216
446.85	19.292
447.20	19.612
447.55	20.166
447.91	19.596
448.26	19.553
448.61	19.808
448.96	20.728
449.31	19.053
449.66	19.920
450.02	19.169
450.37	19.304
450.72	18.644
451.07	19.673
451.42	19.145
451.77	19.629
452.12	19.487
452.47	18.892
452.83	19.103
453.18	18.912
453.53	20.336
453.88	19.498
454.23	17.896
454.58	20.696
454.93	19.584
455.28	18.929
455.63	18.857
455.98	19.337
456.34	18.170
456.69	18.637
457.04	19.668
457.39	19.019
457.74	18.724
458.09	19.142
458.44	19.226
458.79	19.563
459.14	19.281
459.49	19.301
459.84	20.349
460.19	20.286
460.54	19.601
460.89	19.339
461.24	19.065
461.59	20.047
461.94	19.987
462.29	19.774
462.64	19.104
462.99	19.880
463.34	19.379
463.69	19.211
464.04	18.922
464.39	18.459
464.74	20.095
465.09	18.641
465.44	18.331
465.79	20.023
466.14	19.793
466.49	18.998
466.84	19.208
467.19	19.202
467.54	18.608
467.89	19.605
468.24	18.943
468.59	19.613
468.94	19.807
469.29	18.129
469.64	18.868
469.99	19.851
470.34	18.704
470.68	19.913
471.03	19.546
471.38	18.194
471.73	18.811
472.08	18.340
472.43	18.855
472.78	19.067
473.13	18.091
473.48	19.272
473.83	19.107
474.17	19.299
474.52	20.077
474.87	19.289
475.22	18.702
475.57	18.889
475.92	18.898
476.27	18.800
476.61	19.493
476.96	18.893
477.31	19.483
477.66	18.373
478.01	19.071
478.36	18.963
478.70	18.900
479.05	19.362
479.40	18.964
479.75	18.756
480.10	18.502
480.45	18.133
480.79	19.102
481.14	19.518
481.49	19.264
481.84	19.001
482.19	18.958
482.53	19.223
482.88	18.462
483.23	19.108
483.58	18.825
483.92	18.538
484.27	17.988
484.62	18.488
484.97	18.433
485.31	18.592
485.66	19.303
486.01	19.559
486.36	20.205
486.70	20.234
487.05	19.655
487.40	19.177
487.75	18.950
488.09	18.653
488.44	18.403
488.79	18.677
489.13	18.296
489.48	18.883
489.83	18.865
490.17	18.198
490.52	18.750
490.87	18.476
491.22	18.776
491.56	18.796
491.91	18.559
492.26	18.774
492.60	19.125
492.95	18.563
493.30	19.057
493.64	18.148
493.99	18.881
494.34	18.810
494.68	18.539
495.03	18.786
495.37	18.338
495.72	18.861
496.07	19.287
496.41	19.917
496.76	18.858
497.11	18.888
497.45	19.397
497.80	18.509
498.14	18.418
498.49	18.433
498.84	18.301
499.18	19.250
499.53	17.779
499.87	18.292
500.22	18.725
500.56	18.609
500.91	18.867
501.26	19.554
501.60	17.910
501.95	19.034
502.29	18.753
502.64	19.095
502.98	18.400
503.33	19.408
503.67	18.534
504.02	17.914
504.36	18.578
504.71	18.440
505.06	17.773
505.40	18.363
505.75	18.293
506.09	18.099
506.44	18.897
506.78	18.766
507.13	18.435
507.47	18.466
507.82	18.018
508.16	19.067
508.51	18.032
508.85	18.685
509.19	17.896
509.54	17.970
509.88	18.564
510.23	18.501
510.57	19.101
510.92	18.099
511.26	18.607
511.61	17.549
511.95	17.888
512.30	18.692
512.64	17.696
512.98	17.712
513.33	17.847
513.67	18.258
514.02	17.953
514.36	17.618
514.70	18.619
515.05	18.010
515.39	17.820
515.74	18.965
516.08	17.983
516.42	18.414
516.77	17.851
517.11	18.421
517.46	18.780
517.80	18.712
518.14	17.633
518.49	18.171
518.83	16.795
519.17	18.236
519.52	17.293
519.86	18.578
520.20	17.787
520.55	17.723
520.89	17.408
521.23	17.888
521.58	16.865
521.92	18.049
522.26	17.905
522.61	17.174
522.95	16.592
523.29	18.245
523.64	17.739
523.98	17.505
524.32	18.416
524.66	17.267
525.01	16.891
525.35	17.848
525.69	17.567
526.04	17.950
526.38	17.759
526.72	17.241
527.06	18.424
527.41	17.558
527.75	17.096
528.09	17.538
528.43	17.770
528.78	17.462
529.12	18.054
529.46	17.461
529.80	17.043
530.15	17.965
530.49	17.270
530.83	18.599
531.17	16.970
531.51	16.544
531.86	17.512
532.20	17.274
532.54	17.179
532.88	18.248
533.22	17.647
533.57	17.624
533.91	17.416
534.25	18.228
534.59	17.926
534.93	16.864
535.27	17.810
535.62	18.031
535.96	18.035
536.30	17.081
536.64	17.795
536.98	17.938
537.32	17.139
537.66	17.923
538.01	18.007
538.35	17.770
538.69	17.513
539.03	17.942
539.37	17.232
539.71	18.279
540.05	17.204
540.39	18.075
540.73	17.070
541.07	18.238
541.42	16.678
541.76	17.276
542.10	17.151
542.44	18.321
542.78	18.521
543.12	17.244
543.46	17.055
543.80	16.522
544.14	17.864
544.48	18.373
544.82	18.065
545.16	18.511
545.50	17.766
545.84	17.872
546.18	18.308
546.52	18.137
546.86	16.667
547.20	18.214
547.54	15.358
547.88	17.585
548.22	17.235
548.56	17.368
548.90	16.577
549.24	16.258
549.58	17.149
549.92	16.608
550.26	18.208
550.60	17.283
550.94	17.664
551.28	17.758
551.62	17.947
551.96	17.294
552.30	17.909
552.64	17.523
552.98	18.500
553.32	17.244
553.66	18.313
554.00	17.342
554.34	16.390
554.68	16.447
555.02	18.452
555.36	18.045
555.69	16.691
556.03	16.912
556.37	17.568
556.71	17.681
557.05	17.960
557.39	17.595
557.73	17.578
558.07	18.011
558.41	17.053
558.75	16.350
559.08	16.187
559.42	16.616
559.76	17.485
560.10	17.301
560.44	17.919
560.78	17.328
561.12	17.184
561.45	19.041
561.79	17.770
562.13	17.041
562.47	17.507
562.81	16.124
563.15	17.985
563.48	18.383
563.82	17.241
564.16	17.309
564.50	17.339
564.84	17.659
565.17	16.844
565.51	16.949
565.85	17.782
566.19	17.984
566.52	17.221
566.86	17.383
567.20	18.826
567.54	18.488
567.88	18.146
568.21	17.897
568.55	17.815
568.89	18.042
569.23	18.510
569.56	18.705
569.90	19.355
570.24	18.940
570.57	18.594
570.91	19.313
571.25	19.617
571.59	19.294
571.92	19.375
572.26	19.053
572.60	18.492
572.93	18.458
573.27	18.963
573.61	17.838
573.95	19.079
574.28	18.902
574.62	19.675
574.96	18.843
575.29	18.699
575.63	18.874
575.97	18.393
576.30	19.129
576.64	19.295
576.98	19.035
577.31	18.737
577.65	19.459
577.98	19.660
578.32	19.028
578.66	19.080
578.99	19.059
579.33	18.789
579.67	18.717
580.00	18.700
580.34	19.276
580.67	18.730
581.01	18.716
581.35	19.188
581.68	18.721
582.02	19.552
582.35	19.471
582.69	19.783
583.02	19.319
583.36	19.185
583.70	18.280
584.03	19.019
584.37	18.539
584.70	18.847
585.04	18.633
585.37	18.616
585.71	19.231
586.04	19.225
586.38	18.418
586.72	18.546
587.05	18.777
587.39	19.148
587.72	18.742
588.06	19.037
588.39	18.713
588.73	18.890
589.06	19.022
589.40	18.447
589.73	18.697
590.07	18.318
590.40	18.672
590.73	18.113
591.07	18.238
591.40	18.631
591.74	18.288
592.07	17.928
592.41	18.089
592.74	18.217
593.08	18.744
593.41	18.914
593.75	18.035
594.08	18.979
594.41	18.928
594.75	18.649
595.08	18.722
595.42	18.678
595.75	18.486
596.09	18.859
596.42	17.799
596.75	17.723
597.09	18.522
597.42	17.940
597.75	17.759
598.09	18.075
598.42	17.764
598.76	18.231
599.09	18.706
599.42	18.339
599.76	18.837
600.09	18.511
600.42	18.914
600.76	18.569
601.09	18.572
601.42	18.401
601.76	18.536
602.09	18.078
602.42	18.395
602.76	18.322
603.09	18.226
603.42	18.735
603.76	18.508
604.09	18.422
604.42	18.401
604.76	18.709
605.09	18.309
605.42	18.395
605.75	18.413
606.09	18.680
606.42	17.805
606.75	18.463
607.09	18.394
607.42	18.706
607.75	18.234
608.08	18.617
608.42	18.543
608.75	17.804
609.08	17.633
609.41	18.286
609.75	17.991
610.08	18.186
610.41	17.542
610.74	18.617
611.07	18.053
611.41	17.801
611.74	18.458
612.07	18.153
612.40	17.964
612.73	18.148
613.07	17.501
613.40	18.281
613.73	17.221
614.06	17.133
614.39	18.377
614.72	17.318
615.06	17.663
615.39	17.634
615.72	17.871
616.05	17.504
616.38	17.702
616.71	17.898
617.05	18.034
617.38	19.009
617.71	16.339
618.04	18.012
618.37	17.736
618.70	17.797
619.03	16.858
619.36	17.900
619.69	17.732
620.03	16.736
620.36	17.370
620.69	17.516
621.02	16.286
621.35	16.371
621.68	16.557
622.01	16.667
622.34	17.081
622.67	16.250
623.00	16.144
623.33	17.687
623.66	17.430
623.99	17.444
624.32	17.411
624.65	17.881
624.99	17.177
625.32	17.440
625.65	16.628
625.98	17.214
626.31	17.047
626.64	17.155
626.97	16.695
627.30	17.702
627.63	16.667
627.96	16.449
628.29	15.901
628.62	15.855
628.95	15.748
629.28	14.850
629.61	14.917
629.94	16.919
630.26	15.905
630.59	16.482
630.92	15.516
631.25	16.633
631.58	16.402
631.91	14.149
632.24	16.556
632.57	14.667
632.90	15.402
633.23	15.654
633.56	16.374
633.89	16.392
634.22	15.466
634.55	16.106
634.88	15.961
635.20	13.483
635.53	15.140
635.86	14.610
636.19	13.675
636.52	15.412
636.85	15.884
637.18	14.000
637.51	16.109
637.83	13.715
638.16	15.000
638.49	13.793
638.82	14.929
639.15	15.564
639.48	13.489
639.81	14.523
640.13	15.000
640.46	15.527
640.79	15.266
641.12	15.233
641.45	14.778
641.77	14.521
642.10	14.502
642.43	16.995
642.76	14.016
643.09	13.333
643.41	14.127
643.74	14.308
644.07	15.601
644.40	14.263
644.73	16.337
645.05	13.022
645.38	15.563
645.71	17.182
646.04	15.630
646.36	12.914
646.69	13.668
647.02	16.065
647.35	14.982
647.67	14.051
648.00	15.466
648.33	15.346
648.66	13.387
648.98	14.490
649.31	15.538
649.64	15.156
649.96	13.972
650.29	15.246
650.62	13.597
650.94	14.503
651.27	14.558
651.60	13.322
651.92	15.925
652.25	14.691
652.58	14.651
652.90	13.323
653.23	13.871
653.56	12.375
653.88	13.115
654.21	14.597
654.54	16.113
654.86	14.767
655.19	15.903
655.52	18.292
655.84	20.677
656.17	23.167
656.49	31.473
656.82	31.656
657.15	23.163
657.47	16.660
657.80	12.535
658.13	13.942
658.45	17.767
658.78	17.162
659.10	16.613
659.43	15.493
659.75	15.303
660.08	15.000
660.41	14.536
660.73	12.651
661.06	13.623
661.38	15.179
661.71	12.620
662.03	11.290
662.36	13.646
662.68	14.135
663.01	12.314
663.33	11.565
663.66	13.305
663.98	9.821
664.31	12.304
664.63	15.044
664.96	12.364
665.28	12.581
665.61	11.628
665.93	12.140
666.26	14.372
666.58	14.969
666.91	13.808
667.23	12.500
667.56	13.379
667.88	15.385
668.21	14.055
668.53	12.383
668.86	14.550
669.18	12.785
669.50	13.318
669.83	9.002
670.15	14.126
670.48	13.318
670.80	14.351
671.13	11.512
671.45	10.811
671.77	14.561
672.10	14.398
672.42	14.391
672.75	12.182
673.07	13.514
673.39	13.843
673.72	15.748
674.04	14.013
674.37	11.546
674.69	14.549
675.01	12.979
675.34	13.232
675.66	14.903
675.98	14.317
676.31	16.968
676.63	12.644
676.95	13.938
677.28	10.673
677.60	17.421
677.92	15.859
678.25	13.129
678.57	12.140
678.89	13.417
679.22	14.046
679.54	14.990
679.86	12.200
680.18	15.399
680.51	13.594
680.83	15.619
681.15	15.222
681.48	15.619
681.80	12.500
682.12	14.286
682.44	15.324
682.77	12.554
683.09	15.723
683.41	14.602
683.73	13.699
684.06	13.118
684.38	12.552
684.70	13.374
685.02	12.992
685.34	14.620
685.67	13.447
685.99	15.312
686.31	14.542
686.63	13.652
686.96	14.787
687.28	11.753
687.60	13.672
687.92	12.840
688.24	13.780
688.56	12.826
688.89	11.325
689.21	12.910
689.53	13.333
689.85	15.590
690.17	10.762
690.49	12.933
690.82	13.494
691.14	14.858
691.46	15.299
691.78	14.758
692.10	14.195
692.42	14.000
692.74	15.880
693.06	14.607
693.39	12.752
693.71	14.447
694.03	15.335
694.35	11.738
694.67	14.421
694.99	10.742
695.31	11.735
695.63	12.755
695.95	14.888
696.27	15.461
696.59	13.904
696.91	14.607
697.23	12.760
697.56	10.817
697.88	12.613
698.20	13.919
698.52	13.901
698.84	13.350
699.16	14.524
699.48	9.500
699.80	15.288
700.12	13.098
700.44	12.291
700.76	12.828
701.08	12.791
701.40	9.063
701.72	14.815
702.04	12.821
702.36	14.458
702.68	9.581
703.00	12.174
703.32	9.742
703.64	14.118
703.96	13.372
704.28	13.018
704.60	10.759
704.91	8.571
705.23	14.887
705.55	10.135
705.87	13.311
706.19	9.722
706.51	15.625
706.83	16.066
707.15	10.828
707.47	12.397
707.79	15.722
708.11	10.433
708.43	16.459
708.74	10.649
709.06	12.256
709.38	10.920
709.70	11.250
710.02	16.258
710.34	11.221
710.66	12.698
710.98	14.826
711.29	6.452
711.61	8.626
711.93	9.508
712.25	13.953
712.57	11.847
712.89	11.511
713.20	10.997
713.52	8.955
713.84	12.456
714.16	14.098
714.48	12.698
714.80	10.462
715.11	13.833
715.43	14.157
715.75	11.215
716.07	8.525
716.39	11.037
716.70	11.498
717.02	12.222
717.34	11.069
717.66	13.693
717.97	9.016
718.29	8.403
718.61	14.286
718.93	15.412
719.24	6.985
719.56	4.528
719.88	16.000
720.20	10.861
720.51	14.286
720.83	10.040
721.15	10.656
721.46	12.941
721.78	14.559
722.10	7.200
722.42	10.744
722.73	9.960
723.05	7.631
723.37	18.039
723.68	7.287
724.00	18.699
724.32	14.403
724.63	11.618
724.95	10.331
725.27	9.211
725.58	15.086
725.90	10.714
726.22	14.391
726.53	12.928
726.85	4.706
727.16	13.534
727.48	7.308
727.80	9.836
728.11	9.664
728.43	10.331
728.74	12.891
729.06	13.258
729.38	11.284
729.69	8.661
730.01	12.598
730.32	10.757
730.64	11.722
730.96	17.164
731.27	13.214
731.59	13.826
731.90	13.497
732.22	13.190
732.53	13.245
732.85	15.101
733.16	11.232
733.48	10.453
733.80	8.897
734.11	10.690
734.43	11.565
734.74	15.134
735.06	10.345
735.37	14.679
735.69	10.645
736.00	11.785
736.32	14.901
736.63	11.034
736.95	13.043
737.26	15.232
737.58	11.511
737.89	16.487
738.21	11.654
738.52	12.692
738.83	13.281
739.15	11.538
739.46	12.903
739.78	14.685
740.09	12.238
740.41	13.986
740.72	14.234
741.04	10.714
741.35	10.823
741.66	11.574
741.98	7.619
742.29	10.329
742.61	5.348
742.92	13.084
743.23	12.719
743.55	14.414
743.86	14.222
744.18	9.524
744.49	10.345
744.80	10.152
745.12	13.402
745.43	8.040
745.74	11.650
746.06	7.805
746.37	11.454
746.68	17.413
747.00	7.330
747.31	10.577
747.62	10.599
747.94	10.480
748.25	10.698
748.56	16.190
748.88	5.435
749.19	13.146
749.50	9.804
749.82	16.000
750.13	16.740
750.44	11.789
750.75	12.400
751.07	14.286
751.38	15.129
751.69	11.069
752.01	13.077
752.32	11.284
752.63	11.154
752.94	15.873
753.26	13.043
753.57	11.161
753.88	13.362
754.19	9.959
754.51	13.672
754.82	11.067
755.13	9.053
755.44	11.983
755.75	14.403
756.07	10.843
756.38	10.937
756.69	14.801
757.00	13.937
757.31	15.772
757.63	16.822
757.94	10.983
758.25	15.116
758.56	17.790
758.87	13.636
759.18	10.333
759.50	15.658
759.81	10.949
760.12	15.541
760.43	16.505
760.74	16.875
761.05	12.640
761.36	17.365
761.67	16.864
761.99	13.226
762.30	15.942
762.61	12.075
762.92	12.556
763.23	9.005
763.54	14.667
763.85	16.878
764.16	11.429
764.47	11.017
764.78	11.236
765.10	14.388
765.41	12.903
765.72	15.723
766.03	7.420
766.34	12.782
766.65	12.551
766.96	11.000
767.27	9.896
767.58	9.302
767.89	9.677
768.20	9.816
768.51	9.836
768.82	10.811
769.13	12.000
769.44	10.088
769.75	12.987
770.06	14.679
770.37	4.225
770.68	16.146
770.99	16.832
771.30	14.563
771.61	9.722
771.92	7.792
772.23	11.215
772.54	7.979
772.85	13.609
773.16	11.585
773.47	18.072
773.78	12.088
774.09	4.000
774.39	16.049
774.70	-0.671
775.01	5.072
775.32	5.970
775.63	-0.826
775.94	10.526
776.25	7.857
776.56	11.475
776.87	2.655
777.18	5.310
777.48	0.909
777.79	-0.870
778.10	3.670
778.41	1.695
778.72	13.223
779.03	9.701
779.34	4.511
779.65	13.725
779.95	10.870
780.26	6.122
780.57	-0.862
780.88	7.407
781.19	-10.101
781.50	4.000
781.80	7.190
782.11	13.462
782.42	4.819
782.73	0.730
783.04	16.892
783.34	9.848
783.65	6.977
783.96	7.317
784.27	15.385
784.57	8.130
784.88	10.569
785.19	8.772
785.50	-13.402
785.81	1.905
786.11	5.882
786.42	-3.636
786.73	8.108
787.04	9.901
787.34	14.286
787.65	-3.810
787.96	3.922
788.26	12.613
788.57	8.871
788.88	1.562
789.19	7.692
789.49	2.521
789.80	5.128
790.11	15.929
790.41	8.081
790.72	11.321
791.03	-6.944
791.33	3.947
791.64	3.226
791.95	-1.333
792.25	0.000
792.56	-7.317
792.87	4.082
793.17	-9.211
793.48	-13.514
793.79	2.817
794.09	1.266
794.40	3.191
794.70	15.888
795.01	-6.140
795.32	7.273
795.62	2.679
795.93	10.309
796.23	-6.593
796.54	9.474
796.85	2.740
797.15	-9.722
797.46	-1.370
797.76	11.268
798.07	8.750
798.37	-4.412
798.68	-12.857
798.99	15.714
799.29	0.000
799.60	26.667
799.90	-20.833
800.21	-12.500
800.51	1.587
800.82	-4.918
801.12	12.281
801.43	-16.901
801.73	-1.695
802.04	9.836
802.34	-20.000
802.65	-9.615
802.95	-12.963
803.26	-32.500
803.56	-3.846
803.87	-34.211
804.17	8.065
804.48	-3.077
804.78	-30.769
805.09	-16.279
805.39	-56.250
805.70	-22.642
806.00	1.754
806.30	13.514
806.61	5.882
806.91	2.469
807.22	-1.333
807.52	-5.970
807.83	-8.065
808.13	-4.762
808.43	-12.727
808.74	-7.576
809.04	-1.887
809.35	-4.110
809.65	12.281
809.95	19.118
810.26	-15.686
810.56	-20.000
810.86	-18.367
811.17	5.714
811.47	-3.846
811.77	-12.903
812.08	-50.000
812.38	-16.667
812.69	-15.217
812.99	-9.677
813.29	-40.476
813.59	-66.667
813.90	-29.787
814.20	-39.535
814.50	-12.500
814.81	-18.333
815.11	-14.634
815.41	-36.667
815.72	5.714
816.02	-16.667
816.32	10.256
816.62	-32.432
816.93	-14.706
817.23	-4.348
817.53	-32.353
817.84	-52.941
818.14	-43.750
818.44	-27.586
818.74	-58.065
819.04	-62.963
819.35	-50.000
819.65	-48.000
819.95	-3.333
820.25	-76.000
820.56	-28.947
820.86	-52.500
821.16	2.128
821.46	12.069
821.76	-56.410
822.07	-47.500
822.37	-18.605
822.67	-53.333
822.97	-21.622
823.27	-27.027
823.57	-20.000
823.88	-18.919
824.18	-33.333
824.48	-38.462
824.78	-46.154
825.08	-52.174
825.38	-33.333
825.69	-45.833
825.99	-70.000
826.29	-27.027
826.59	-35.294
826.89	4.000
827.19	-31.429
827.49	21.053
827.79	-37.500
828.09	-40.000
828.39	26.087
828.70	-93.103
829.00	-37.931
829.30	0.000
829.60	3.125
829.90	-44.444
830.20	-30.769
830.50	-85.714
830.80	-78.571
831.10	-30.769
831.40	-52.381
831.70	-29.412
832.00	-50.000
832.30	-73.684
832.60	-56.250
832.90	-141.667
833.20	-58.824
833.50	-146.667
833.80	-133.333
834.10	-30.000
834.40	-29.167
834.70	-55.556
835.00	-26.923
835.30	-62.500
835.60	-24.138
835.90	-105.556
836.20	-218.182
836.50	-166.667
836.80	-11.429
837.10	0.000
837.40	-64.706
837.70	-118.182
838.00	-25.000
838.30	-131.250
838.60	-80.952
838.90	5.000
839.19	-69.565
839.49	-43.478
839.79	-33.333
840.09	-56.522
840.39	-81.818
840.69	-62.500
840.99	-78.947
841.29	-68.750
841.59	-100.000
841.88	-94.444
842.18	-50.000
842.48	-41.176
842.78	-17.241
843.08	-71.429
843.38	-53.846
843.68	-266.667
843.97	-100.000
844.27	-245.455
844.57	-220.000
844.87	-20.000
845.17	-340.000
845.47	-57.143
845.76	-155.556
846.06	0.000
846.36	-525.000
846.66	-190.000
846.96	-26.316
847.25	-79.167
847.55	-125.000
847.85	-80.000
848.15	-100.000
848.44	-23.077
848.74	-15.789
849.04	666.667
849.34	-211.111
849.63	-94.737
849.93	0.000
850.23	-115.000
850.53	-9.524
850.82	-56.000
851.12	-15.789
851.42	-1200.000
851.71	-100.000
852.01	-108.333
852.31	-58.824
852.61	-106.667
852.90	-57.143
853.20	-200.000
853.50	-111.111
853.79	-131.579
854.09	-66.667
854.39	-21.429
854.68	-65.217
854.98	-158.333
855.28	-13.793
855.57	-62.500
855.87	-55.000
856.17	-80.000
856.46	-44.828
856.76	-33.333
857.05	-70.588
857.35	-223.077
857.65	-36.364
857.94	-33.333
858.24	-100.000
858.53	-71.429
858.83	-141.667
859.13	-122.222
859.42	-23.810
859.72	-187.500
860.01	-400.000
860.31	-175.000
860.60	-400.000
860.90	-288.889
861.20	-87.500
861.49	-428.571
861.79	-41.176
862.08	-950.000
862.38	-141.667
862.67	-53.846
862.97	-17.647
863.26	-25.000
863.56	-141.176
863.85	533.333
864.15	-140.000
864.44	-123.077
864.74	-55.000
865.03	-312.500
865.33	-216.667
865.62	-100.000
865.92	-475.000
866.21	-64.286
866.51	-191.667
866.80	-600.000
867.10	-566.667
867.39	-52.941
867.69	-4.348
867.98	-57.143
868.27	-340.000
868.57	-81.250
868.86	-145.455
869.16	-58.824
869.45	-300.000
869.75	-185.714
870.04	1300.000
870.33	-158.333
870.63	-180.000
870.92	-222.222
871.22	-116.667
871.51	-90.909
871.80	-75.000
872.10	-80.000
>>>>>End Processed Spectral Data<<<<<
