SpectraSuite Data File
++++++++++++++++++++++++++++++++++++
Date: Sat May 16 11:32:02 PDT 2015
User: schluterlab
Dark Spectrum Present: Yes
Reference Spectrum Present: Yes
Number of Sampled Component Spectra: 1
Spectrometers: USB2E3373
Integration Time (usec): 3000 (USB2E3373)
Spectra Averaged: 3 (USB2E3373)
Boxcar Smoothing: 0 (USB2E3373)
Correct for Electrical Dark: No (USB2E3373)
Strobe/Lamp Enabled: No (USB2E3373)
Correct for Detector Non-linearity: No (USB2E3373)
Correct for Stray Light: No (USB2E3373)
Number of Pixels in Processed Spectrum: 2048
>>>>>Begin Processed Spectral Data<<<<<
178.53	0.000
178.91	120.000
179.29	933.333
179.67	-1600.000
180.04	-69.231
180.42	1700.000
180.80	425.000
181.18	325.000
181.56	-200.000
181.94	400.000
182.31	250.000
182.69	-30.769
183.07	-600.000
183.45	1300.000
183.83	666.667
184.20	-285.714
184.58	0.000
184.96	-500.000
185.34	81.250
185.72	-500.000
186.09	200.000
186.47	-137.500
186.85	-212.500
187.23	87.500
187.61	-375.000
187.98	-300.000
188.36	-137.500
188.74	-175.000
189.12	1600.000
189.49	342.857
189.87	25.000
190.25	550.000
190.63	7.143
191.00	-266.667
191.38	320.000
191.76	-46.667
192.14	420.000
192.51	-200.000
192.89	-333.333
193.27	0.000
193.65	-122.222
194.02	-342.857
194.40	933.333
194.78	-110.000
195.15	-1200.000
195.53	-72.727
195.91	-416.667
196.29	120.000
196.66	-733.333
197.04	1700.000
197.42	-125.000
197.79	-20.000
198.17	-566.667
198.55	-500.000
198.92	-1400.000
199.30	275.000
199.68	-900.000
200.05	-88.889
200.43	-111.111
200.81	-1700.000
201.18	-141.667
201.56	228.571
201.94	-20.000
202.31	36.364
202.69	70.000
203.07	-10.000
203.44	366.667
203.82	-350.000
204.19	-200.000
204.57	-300.000
204.95	-1700.000
205.32	-68.750
205.70	1300.000
206.08	-2000.000
206.45	-5.556
206.83	-900.000
207.20	-100.000
207.58	-733.333
207.96	-600.000
208.33	-62.500
208.71	-144.444
209.08	220.000
209.46	-228.571
209.84	700.000
210.21	0.000
210.59	15.000
210.96	1600.000
211.34	-333.333
211.71	-266.667
212.09	300.000
212.46	1050.000
212.84	-2600.000
213.22	133.333
213.59	183.333
213.97	11.111
214.34	100.000
214.72	-110.000
215.09	-566.667
215.47	-283.333
215.84	-40.000
216.22	-110.000
216.59	-6.667
216.97	-550.000
217.34	850.000
217.72	-71.429
218.09	-233.333
218.47	-185.714
218.84	185.714
219.22	-14.286
219.59	0.000
219.97	271.429
220.34	375.000
220.72	212.500
221.09	-61.538
221.47	0.000
221.84	966.667
222.22	-400.000
222.59	1500.000
222.97	-275.000
223.34	-1400.000
223.72	-433.333
224.09	-42.857
224.46	-550.000
224.84	-21.429
225.21	-128.571
225.59	-63.636
225.96	-200.000
226.34	-185.714
226.71	-111.111
227.08	-10.000
227.46	1700.000
227.83	-214.286
228.21	-275.000
228.58	650.000
228.95	-12.500
229.33	-1800.000
229.70	-240.000
230.08	-950.000
230.45	-91.667
230.82	-266.667
231.20	-800.000
231.57	-550.000
231.95	1100.000
232.32	-9.524
232.69	-200.000
233.07	-228.571
233.44	-1000.000
233.81	-100.000
234.19	-155.556
234.56	-6.250
234.93	0.000
235.31	-300.000
235.68	-192.857
236.05	-70.588
236.43	-86.364
236.80	-6.452
237.17	-8.333
237.55	-61.905
237.92	-90.909
238.29	-42.857
238.67	2.941
239.04	-2.778
239.41	-3.226
239.79	-33.333
240.16	-21.429
240.53	-7.273
240.91	-23.077
241.28	-12.727
241.65	10.769
242.02	4.918
242.40	-26.230
242.77	-4.545
243.14	1.695
243.51	-7.143
243.89	-7.595
244.26	-6.742
244.63	17.895
245.00	8.421
245.38	4.237
245.75	8.850
246.12	1.600
246.49	4.724
246.87	4.878
247.24	4.237
247.61	0.000
247.98	7.042
248.36	-1.399
248.73	6.962
249.10	3.185
249.47	5.848
249.84	10.795
250.22	-1.786
250.59	14.689
250.96	6.283
251.33	19.905
251.70	7.212
252.08	8.531
252.45	9.005
252.82	8.095
253.19	10.638
253.56	10.484
253.94	9.283
254.31	13.305
254.68	12.602
255.05	13.710
255.42	7.937
255.79	7.885
256.16	12.549
256.54	16.544
256.91	9.091
257.28	9.158
257.65	10.638
258.02	16.038
258.39	15.050
258.76	10.135
259.14	8.333
259.51	11.803
259.88	10.366
260.25	15.217
260.62	10.932
260.99	9.792
261.36	12.500
261.73	12.717
262.10	13.889
262.47	11.681
262.85	13.714
263.22	13.467
263.59	7.385
263.96	11.594
264.33	12.195
264.70	15.193
265.07	12.637
265.44	11.886
265.81	11.111
266.18	7.848
266.55	12.255
266.92	13.854
267.29	13.801
267.66	13.580
268.03	15.700
268.40	14.085
268.77	11.566
269.14	10.673
269.51	11.264
269.88	13.073
270.25	12.121
270.62	10.069
270.99	12.387
271.36	11.189
271.73	12.108
272.10	13.043
272.47	13.333
272.84	13.333
273.21	13.532
273.58	12.747
273.95	12.281
274.32	13.575
274.69	14.223
275.06	15.542
275.43	11.830
275.80	15.071
276.17	14.226
276.54	13.849
276.91	12.346
277.28	12.576
277.65	11.570
278.02	12.526
278.39	12.967
278.76	13.546
279.13	12.253
279.50	13.320
279.87	13.319
280.23	14.170
280.60	14.712
280.97	11.845
281.34	11.992
281.71	12.692
282.08	12.097
282.45	10.387
282.82	11.434
283.19	11.455
283.56	15.934
283.92	13.074
284.29	10.967
284.66	10.971
285.03	15.686
285.40	13.284
285.77	12.807
286.14	11.733
286.51	10.835
286.87	11.071
287.24	12.116
287.61	12.397
287.98	12.132
288.35	10.083
288.72	11.885
289.08	10.508
289.45	13.300
289.82	9.343
290.19	11.823
290.56	9.752
290.93	10.652
291.29	10.859
291.66	9.501
292.03	10.675
292.40	12.199
292.77	10.248
293.13	10.894
293.50	11.590
293.87	11.503
294.24	11.765
294.60	8.485
294.97	11.533
295.34	9.926
295.71	10.268
296.08	8.449
296.44	9.299
296.81	9.972
297.18	10.986
297.55	10.452
297.91	11.994
298.28	10.274
298.65	10.181
299.02	10.695
299.38	9.091
299.75	9.647
300.12	10.897
300.48	10.230
300.85	8.519
301.22	9.444
301.59	9.753
301.95	12.091
302.32	8.083
302.69	9.792
303.05	9.524
303.42	8.750
303.79	9.928
304.15	9.123
304.52	8.401
304.89	9.799
305.25	8.791
305.62	10.106
305.99	10.954
306.35	9.323
306.72	8.200
307.09	9.875
307.45	9.875
307.82	7.709
308.19	9.620
308.55	8.497
308.92	8.593
309.29	9.189
309.65	9.756
310.02	9.179
310.38	8.432
310.75	9.426
311.12	9.711
311.48	8.768
311.85	8.754
312.22	9.475
312.58	10.173
312.95	9.582
313.31	10.090
313.68	9.548
314.05	11.078
314.41	8.954
314.78	8.791
315.14	10.069
315.51	10.841
315.87	11.036
316.24	9.913
316.61	11.228
316.97	10.249
317.34	9.441
317.70	9.926
318.07	11.007
318.43	11.610
318.80	12.394
319.16	10.694
319.53	11.184
319.89	11.665
320.26	11.176
320.62	10.577
320.99	12.239
321.35	10.936
321.72	10.645
322.08	12.265
322.45	12.970
322.81	14.025
323.18	12.872
323.54	13.401
323.91	13.253
324.27	14.544
324.64	14.351
325.00	14.660
325.37	15.747
325.73	17.235
326.10	15.855
326.46	16.462
326.83	17.872
327.19	18.932
327.56	20.613
327.92	19.541
328.29	19.567
328.65	19.636
329.01	21.290
329.38	21.499
329.74	22.161
330.11	22.575
330.47	23.524
330.84	24.198
331.20	22.383
331.56	23.974
331.93	24.600
332.29	26.301
332.66	26.163
333.02	24.072
333.38	26.523
333.75	26.358
334.11	26.933
334.48	27.626
334.84	27.384
335.20	27.305
335.57	28.881
335.93	29.096
336.29	27.015
336.66	27.137
337.02	29.009
337.38	27.540
337.75	28.534
338.11	28.444
338.47	29.093
338.84	29.220
339.20	29.086
339.56	29.679
339.93	29.277
340.29	29.318
340.65	28.497
341.02	29.174
341.38	28.054
341.74	29.636
342.11	29.266
342.47	29.442
342.83	28.128
343.20	29.633
343.56	28.490
343.92	30.134
344.28	31.791
344.65	29.208
345.01	30.504
345.37	31.312
345.73	29.133
346.10	29.926
346.46	29.976
346.82	28.629
347.19	29.006
347.55	30.177
347.91	30.630
348.27	30.310
348.63	30.452
349.00	30.310
349.36	29.586
349.72	30.334
350.08	29.591
350.45	29.157
350.81	28.662
351.17	29.984
351.53	29.037
351.89	29.911
352.26	29.457
352.62	30.031
352.98	29.984
353.34	29.816
353.70	28.803
354.07	30.527
354.43	29.802
354.79	30.032
355.15	29.792
355.51	29.453
355.87	28.854
356.24	28.991
356.60	29.976
356.96	30.331
357.32	29.137
357.68	28.046
358.04	30.100
358.40	29.466
358.77	28.671
359.13	29.074
359.49	29.327
359.85	29.573
360.21	30.061
360.57	30.196
360.93	29.259
361.29	30.045
361.66	28.887
362.02	30.104
362.38	28.980
362.74	30.037
363.10	29.914
363.46	30.627
363.82	30.102
364.18	30.318
364.54	31.380
364.90	28.861
365.26	30.314
365.62	30.292
365.98	30.370
366.35	29.577
366.71	29.246
367.07	30.064
367.43	30.817
367.79	30.653
368.15	30.014
368.51	30.839
368.87	30.975
369.23	30.386
369.59	29.861
369.95	30.514
370.31	31.153
370.67	30.080
371.03	31.414
371.39	30.552
371.75	30.758
372.11	31.349
372.47	30.875
372.83	31.293
373.19	30.429
373.55	32.512
373.91	31.650
374.27	31.759
374.63	31.056
374.99	32.476
375.35	31.225
375.71	33.626
376.07	32.033
376.42	30.397
376.78	32.092
377.14	32.814
377.50	32.366
377.86	31.534
378.22	32.035
378.58	31.439
378.94	31.689
379.30	32.115
379.66	31.451
380.02	32.442
380.38	32.387
380.74	32.063
381.09	31.986
381.45	32.220
381.81	32.123
382.17	32.456
382.53	31.793
382.89	32.356
383.25	33.594
383.61	32.193
383.97	33.129
384.32	32.228
384.68	33.011
385.04	32.669
385.40	33.354
385.76	32.317
386.12	33.604
386.48	32.673
386.83	32.699
387.19	33.473
387.55	32.283
387.91	32.187
388.27	32.268
388.62	33.413
388.98	32.526
389.34	33.109
389.70	32.095
390.06	32.318
390.42	32.885
390.77	33.186
391.13	32.981
391.49	33.063
391.85	32.544
392.20	32.585
392.56	32.254
392.92	32.173
393.28	32.262
393.64	32.952
393.99	32.923
394.35	31.630
394.71	32.860
395.07	32.517
395.42	32.062
395.78	32.244
396.14	33.832
396.50	33.150
396.85	33.374
397.21	32.260
397.57	32.827
397.92	32.436
398.28	32.944
398.64	32.897
399.00	33.315
399.35	33.145
399.71	33.275
400.07	33.552
400.42	33.516
400.78	33.214
401.14	32.994
401.49	33.608
401.85	32.703
402.21	32.718
402.57	33.434
402.92	32.725
403.28	32.047
403.63	31.216
403.99	31.821
404.35	32.488
404.70	32.651
405.06	32.353
405.42	31.980
405.77	32.353
406.13	31.289
406.49	32.175
406.84	32.274
407.20	33.216
407.55	32.299
407.91	31.541
408.27	32.843
408.62	32.351
408.98	31.413
409.34	31.810
409.69	32.451
410.05	32.262
410.40	32.066
410.76	31.950
411.11	31.858
411.47	32.801
411.83	32.641
412.18	31.559
412.54	31.544
412.89	32.199
413.25	31.700
413.60	30.620
413.96	31.855
414.31	31.682
414.67	31.810
415.03	32.924
415.38	32.466
415.74	33.312
416.09	33.120
416.45	31.019
416.80	31.274
417.16	31.229
417.51	33.093
417.87	32.104
418.22	31.795
418.58	32.285
418.93	32.679
419.29	32.309
419.64	30.842
420.00	33.597
420.35	31.756
420.71	31.753
421.06	31.834
421.42	32.201
421.77	31.937
422.12	32.736
422.48	32.443
422.83	32.745
423.19	32.350
423.54	32.853
423.90	32.389
424.25	32.975
424.61	34.017
424.96	33.938
425.31	33.650
425.67	33.123
426.02	32.243
426.38	33.575
426.73	33.898
427.09	33.885
427.44	33.977
427.79	33.547
428.15	34.111
428.50	34.252
428.85	33.393
429.21	34.200
429.56	34.479
429.92	33.868
430.27	33.848
430.62	35.423
430.98	33.769
431.33	35.379
431.68	34.584
432.04	34.639
432.39	34.644
432.74	34.592
433.10	35.228
433.45	35.003
433.80	35.442
434.16	34.713
434.51	35.781
434.86	35.149
435.22	35.523
435.57	35.679
435.92	36.284
436.28	35.371
436.63	34.087
436.98	34.422
437.34	35.027
437.69	35.473
438.04	34.714
438.39	36.402
438.75	35.623
439.10	35.869
439.45	35.365
439.81	36.024
440.16	37.252
440.51	36.000
440.86	36.379
441.22	35.710
441.57	35.895
441.92	35.959
442.27	36.526
442.63	35.622
442.98	37.077
443.33	35.750
443.68	36.738
444.03	37.083
444.39	37.298
444.74	36.894
445.09	37.061
445.44	37.648
445.79	36.665
446.15	36.857
446.50	37.235
446.85	36.275
447.20	37.538
447.55	36.906
447.91	36.889
448.26	36.704
448.61	37.804
448.96	38.487
449.31	36.866
449.66	38.695
450.02	36.066
450.37	37.623
450.72	37.401
451.07	38.278
451.42	37.670
451.77	38.241
452.12	38.617
452.47	38.602
452.83	37.274
453.18	38.899
453.53	37.811
453.88	38.876
454.23	37.304
454.58	39.279
454.93	37.972
455.28	38.560
455.63	38.575
455.98	38.373
456.34	37.802
456.69	39.212
457.04	37.984
457.39	38.577
457.74	37.862
458.09	38.341
458.44	38.857
458.79	39.070
459.14	38.277
459.49	38.070
459.84	38.898
460.19	38.126
460.54	38.475
460.89	38.621
461.24	38.980
461.59	38.687
461.94	39.338
462.29	39.786
462.64	40.184
462.99	38.487
463.34	38.082
463.69	40.140
464.04	37.844
464.39	39.606
464.74	38.239
465.09	38.785
465.44	38.635
465.79	39.538
466.14	39.816
466.49	38.803
466.84	39.256
467.19	40.274
467.54	38.354
467.89	38.656
468.24	39.964
468.59	40.412
468.94	39.614
469.29	39.636
469.64	38.275
469.99	40.243
470.34	40.281
470.68	40.407
471.03	39.917
471.38	39.306
471.73	41.748
472.08	39.558
472.43	38.932
472.78	39.667
473.13	39.032
473.48	39.885
473.83	39.454
474.17	40.191
474.52	41.560
474.87	39.802
475.22	39.823
475.57	39.333
475.92	40.065
476.27	39.371
476.61	39.775
476.96	40.581
477.31	41.335
477.66	39.900
478.01	40.411
478.36	40.021
478.70	41.057
479.05	40.671
479.40	40.622
479.75	39.806
480.10	40.278
480.45	39.942
480.79	40.227
481.14	41.295
481.49	39.739
481.84	40.314
482.19	40.429
482.53	41.004
482.88	39.582
483.23	40.423
483.58	41.027
483.92	40.898
484.27	40.186
484.62	40.130
484.97	39.634
485.31	38.688
485.66	38.148
486.01	38.254
486.36	39.455
486.70	40.119
487.05	39.406
487.40	40.037
487.75	39.528
488.09	39.376
488.44	40.562
488.79	39.866
489.13	40.472
489.48	40.661
489.83	41.004
490.17	40.531
490.52	41.395
490.87	40.693
491.22	40.962
491.56	41.204
491.91	41.317
492.26	41.179
492.60	41.579
492.95	42.123
493.30	41.115
493.64	40.762
493.99	41.539
494.34	41.810
494.68	41.994
495.03	42.065
495.37	41.691
495.72	41.257
496.07	42.328
496.41	41.964
496.76	41.598
497.11	41.639
497.45	42.768
497.80	41.921
498.14	41.798
498.49	41.838
498.84	41.505
499.18	42.690
499.53	42.231
499.87	41.602
500.22	42.157
500.56	42.371
500.91	42.562
501.26	42.601
501.60	41.839
501.95	42.415
502.29	41.852
502.64	42.150
502.98	41.735
503.33	41.588
503.67	41.715
504.02	42.298
504.36	42.304
504.71	42.351
505.06	41.538
505.40	42.764
505.75	41.819
506.09	42.164
506.44	42.707
506.78	43.402
507.13	42.533
507.47	43.453
507.82	42.953
508.16	43.005
508.51	42.504
508.85	43.168
509.19	42.282
509.54	43.340
509.88	43.138
510.23	43.187
510.57	44.074
510.92	43.340
511.26	43.222
511.61	42.333
511.95	44.127
512.30	44.145
512.64	42.960
512.98	43.784
513.33	43.053
513.67	42.602
514.02	43.121
514.36	44.211
514.70	43.463
515.05	44.368
515.39	44.233
515.74	44.270
516.08	43.919
516.42	43.569
516.77	44.656
517.11	44.050
517.46	46.352
517.80	44.585
518.14	43.961
518.49	45.248
518.83	43.264
519.17	43.576
519.52	44.592
519.86	44.863
520.20	45.905
520.55	44.123
520.89	44.834
521.23	44.628
521.58	45.016
521.92	44.775
522.26	44.889
522.61	44.043
522.95	43.906
523.29	45.329
523.64	43.785
523.98	43.666
524.32	43.872
524.66	43.106
525.01	45.151
525.35	46.198
525.69	45.478
526.04	46.084
526.38	46.085
526.72	43.870
527.06	45.508
527.41	45.941
527.75	43.234
528.09	43.878
528.43	45.836
528.78	44.033
529.12	45.711
529.46	45.168
529.80	44.351
530.15	45.267
530.49	44.373
530.83	45.776
531.17	45.253
531.51	45.278
531.86	44.503
532.20	44.062
532.54	44.652
532.88	44.401
533.22	45.388
533.57	44.974
533.91	43.758
534.25	44.437
534.59	43.973
534.93	43.871
535.27	43.990
535.62	45.077
535.96	44.926
536.30	45.550
536.64	45.020
536.98	46.116
537.32	43.884
537.66	45.010
538.01	46.598
538.35	45.743
538.69	44.719
539.03	44.144
539.37	44.178
539.71	45.230
540.05	44.894
540.39	45.568
540.73	45.404
541.07	46.038
541.42	44.159
541.76	44.319
542.10	45.172
542.44	44.237
542.78	44.505
543.12	45.621
543.46	43.288
543.80	44.147
544.14	44.862
544.48	44.619
544.82	46.076
545.16	45.272
545.50	43.674
545.84	44.993
546.18	44.799
546.52	45.092
546.86	44.658
547.20	45.921
547.54	44.628
547.88	43.132
548.22	44.037
548.56	44.890
548.90	44.744
549.24	44.289
549.58	44.107
549.92	46.219
550.26	46.893
550.60	44.239
550.94	45.693
551.28	46.050
551.62	45.421
551.96	44.935
552.30	44.460
552.64	46.165
552.98	44.919
553.32	45.022
553.66	46.936
554.00	46.411
554.34	44.188
554.68	46.053
555.02	46.310
555.36	46.154
555.69	45.630
556.03	45.614
556.37	46.159
556.71	46.528
557.05	46.711
557.39	45.509
557.73	45.952
558.07	47.325
558.41	45.699
558.75	46.540
559.08	46.226
559.42	47.397
559.76	46.856
560.10	46.085
560.44	47.038
560.78	46.277
561.12	45.480
561.45	45.411
561.79	45.714
562.13	46.283
562.47	45.868
562.81	45.969
563.15	46.326
563.48	45.750
563.82	46.721
564.16	46.045
564.50	45.968
564.84	44.709
565.17	45.424
565.51	43.677
565.85	46.315
566.19	45.652
566.52	46.249
566.86	45.259
567.20	45.763
567.54	45.836
567.88	43.886
568.21	45.582
568.55	43.107
568.89	44.135
569.23	43.174
569.56	42.371
569.90	43.037
570.24	42.202
570.57	42.074
570.91	41.652
571.25	41.958
571.59	40.805
571.92	41.637
572.26	41.372
572.60	41.235
572.93	40.787
573.27	40.518
573.61	39.690
573.95	40.899
574.28	40.419
574.62	40.696
574.96	40.055
575.29	40.625
575.63	40.642
575.97	40.102
576.30	40.312
576.64	40.731
576.98	39.587
577.31	39.785
577.65	40.192
577.98	39.589
578.32	39.907
578.66	40.062
578.99	40.817
579.33	40.417
579.67	41.085
580.00	39.856
580.34	40.215
580.67	40.279
581.01	39.808
581.35	40.122
581.68	39.256
582.02	40.444
582.35	40.378
582.69	40.753
583.02	41.048
583.36	40.634
583.70	40.220
584.03	41.649
584.37	41.488
584.70	41.449
585.04	40.228
585.37	39.905
585.71	40.203
586.04	41.185
586.38	40.845
586.72	40.699
587.05	41.631
587.39	41.464
587.72	41.598
588.06	40.743
588.39	41.299
588.73	41.129
589.06	42.168
589.40	42.047
589.73	42.174
590.07	41.806
590.40	41.697
590.73	43.143
591.07	42.254
591.40	43.414
591.74	42.528
592.07	42.793
592.41	43.270
592.74	42.006
593.08	41.881
593.41	41.809
593.75	41.378
594.08	42.775
594.41	42.662
594.75	42.393
595.08	42.331
595.42	42.919
595.75	42.154
596.09	41.676
596.42	43.249
596.75	42.950
597.09	43.277
597.42	42.776
597.75	43.091
598.09	43.019
598.42	42.333
598.76	41.819
599.09	42.028
599.42	41.446
599.76	41.789
600.09	42.786
600.42	42.195
600.76	42.712
601.09	41.891
601.42	42.224
601.76	41.822
602.09	42.699
602.42	42.140
602.76	42.501
603.09	42.581
603.42	42.546
603.76	43.079
604.09	43.452
604.42	42.590
604.76	43.306
605.09	42.586
605.42	42.686
605.75	42.044
606.09	42.590
606.42	42.438
606.75	42.894
607.09	42.611
607.42	42.782
607.75	42.914
608.08	43.742
608.42	43.898
608.75	44.112
609.08	43.449
609.41	44.145
609.75	42.955
610.08	43.235
610.41	43.277
610.74	43.665
611.07	43.966
611.41	43.268
611.74	44.165
612.07	44.844
612.40	43.710
612.73	42.488
613.07	44.304
613.40	43.733
613.73	44.469
614.06	43.218
614.39	45.547
614.72	44.078
615.06	43.696
615.39	43.136
615.72	42.857
616.05	42.739
616.38	44.457
616.71	43.904
617.05	44.089
617.38	44.211
617.71	43.919
618.04	44.658
618.37	44.340
618.70	45.176
619.03	45.633
619.36	46.723
619.69	45.872
620.03	44.284
620.36	44.444
620.69	45.944
621.02	46.043
621.35	45.968
621.68	46.639
622.01	47.573
622.34	45.652
622.67	47.031
623.00	46.519
623.33	45.896
623.66	45.569
623.99	46.466
624.32	44.717
624.65	45.548
624.99	46.453
625.32	44.536
625.65	45.688
625.98	46.401
626.31	48.042
626.64	47.029
626.97	46.832
627.30	47.915
627.63	46.028
627.96	46.910
628.29	48.529
628.62	46.800
628.95	46.752
629.28	46.711
629.61	48.086
629.94	47.826
630.26	48.509
630.59	48.543
630.92	48.048
631.25	48.488
631.58	47.513
631.91	45.957
632.24	50.778
632.57	48.889
632.90	50.460
633.23	50.234
633.56	48.421
633.89	49.882
634.22	48.996
634.55	48.798
634.88	51.149
635.20	48.939
635.53	50.000
635.86	49.244
636.19	50.183
636.52	46.953
636.85	46.811
637.18	49.500
637.51	51.425
637.83	51.398
638.16	48.816
638.49	50.207
638.82	48.777
639.15	49.157
639.48	49.935
639.81	49.931
640.13	48.784
640.46	50.712
640.79	49.440
641.12	50.212
641.45	49.928
641.77	51.946
642.10	47.885
642.43	51.593
642.76	53.228
643.09	51.746
643.41	53.333
643.74	52.305
644.07	51.014
644.40	50.891
644.73	53.630
645.05	51.085
645.38	52.483
645.71	55.498
646.04	53.109
646.36	51.832
646.69	51.557
647.02	49.819
647.35	53.791
647.67	53.285
648.00	53.603
648.33	51.096
648.66	49.355
648.98	51.911
649.31	49.846
649.64	50.625
649.96	48.823
650.29	48.525
650.62	51.119
650.94	50.590
651.27	51.993
651.60	52.422
651.92	52.055
652.25	50.918
652.58	51.618
652.90	48.957
653.23	49.355
653.56	50.669
653.88	48.689
654.21	48.993
654.54	50.664
654.86	45.746
655.19	48.281
655.52	45.125
655.84	39.431
656.17	41.552
656.49	55.916
656.82	57.944
657.15	43.974
657.47	32.917
657.80	25.276
658.13	28.781
658.45	39.023
658.78	38.989
659.10	39.153
659.43	39.192
659.75	39.693
660.08	40.000
660.41	39.226
660.73	42.794
661.06	49.420
661.38	54.286
661.71	50.287
662.03	51.613
662.36	53.305
662.68	48.101
663.01	52.654
663.33	54.875
663.66	52.361
663.98	51.563
664.31	54.139
664.63	52.434
664.96	50.976
665.28	52.928
665.61	50.529
665.93	51.235
666.26	49.798
666.58	51.351
666.91	52.339
667.23	50.439
667.56	50.113
667.88	53.167
668.21	51.843
668.53	54.206
668.86	50.808
669.18	53.425
669.50	49.299
669.83	53.771
670.15	48.879
670.48	50.000
670.80	48.519
671.13	47.856
671.45	49.550
671.77	49.893
672.10	50.493
672.42	46.679
672.75	46.000
673.07	46.667
673.39	47.359
673.72	49.016
674.04	52.017
674.37	48.247
674.69	51.025
675.01	50.426
675.34	47.722
675.66	50.756
675.98	48.018
676.31	52.715
676.63	52.184
676.95	48.451
677.28	50.580
677.60	52.262
677.92	51.101
678.25	49.891
678.57	50.000
678.89	48.218
679.22	46.541
679.54	49.507
679.86	46.000
680.18	47.148
680.51	43.203
680.83	47.238
681.15	48.362
681.48	51.116
681.80	46.774
682.12	46.680
682.44	46.169
682.77	49.134
683.09	48.008
683.41	49.336
683.73	47.489
684.06	48.602
684.38	48.954
684.70	47.531
685.02	47.441
685.34	45.419
685.67	44.129
685.99	46.314
686.31	45.601
686.63	46.631
686.96	46.026
687.28	44.509
687.60	47.852
687.92	42.607
688.24	47.244
688.56	42.685
688.89	46.154
689.21	47.921
689.53	50.115
689.85	46.102
690.17	46.637
690.49	44.111
690.82	46.988
691.14	47.877
691.46	46.341
691.78	45.154
692.10	45.551
692.42	44.222
692.74	43.777
693.06	43.820
693.39	43.848
693.71	46.275
694.03	48.164
694.35	43.567
694.67	45.154
694.99	42.455
695.31	47.959
695.63	46.684
695.95	47.146
696.27	44.638
696.59	46.791
696.91	46.629
697.23	43.490
697.56	43.269
697.88	44.369
698.20	42.612
698.52	40.807
698.84	45.631
699.16	41.667
699.48	41.250
699.80	46.115
700.12	44.332
700.44	46.089
700.76	42.857
701.08	44.477
701.40	43.505
701.72	48.457
702.04	50.321
702.36	48.494
702.68	46.707
703.00	47.826
703.32	41.547
703.64	48.824
703.96	47.093
704.28	46.154
704.60	46.519
704.91	45.079
705.23	44.660
705.55	52.365
705.87	44.710
706.19	47.569
706.51	44.444
706.83	52.459
707.15	46.815
707.47	46.832
707.79	42.526
708.11	41.730
708.43	44.140
708.74	40.519
709.06	45.961
709.38	42.816
709.70	45.938
710.02	44.785
710.34	45.545
710.66	43.810
710.98	42.587
711.29	40.000
711.61	41.214
711.93	41.967
712.25	47.176
712.57	46.341
712.89	52.878
713.20	48.110
713.52	42.537
713.84	42.705
714.16	41.639
714.48	44.444
714.80	39.692
715.11	44.092
715.43	48.494
715.75	43.925
716.07	39.016
716.39	39.799
716.70	43.902
717.02	47.407
717.34	38.168
717.66	53.527
717.97	44.262
718.29	47.899
718.61	49.603
718.93	39.427
719.24	38.235
719.56	38.868
719.88	45.818
720.20	46.442
720.51	44.361
720.83	42.169
721.15	45.082
721.46	48.627
721.78	43.678
722.10	45.200
722.42	42.975
722.73	43.825
723.05	44.980
723.37	46.667
723.68	42.510
724.00	45.122
724.32	44.856
724.63	37.759
724.95	45.455
725.27	38.158
725.58	37.069
725.90	36.508
726.22	42.804
726.53	42.966
726.85	37.255
727.16	42.481
727.48	43.077
727.80	40.574
728.11	42.437
728.43	40.496
728.74	43.359
729.06	44.318
729.38	40.467
729.69	37.008
730.01	42.913
730.32	35.458
730.64	43.223
730.96	40.299
731.27	41.071
731.59	39.871
731.90	36.810
732.22	38.957
732.53	40.066
732.85	35.235
733.16	42.391
733.48	38.328
733.80	40.569
734.11	40.345
734.43	39.456
734.74	37.389
735.06	36.050
735.37	39.755
735.69	35.161
736.00	35.690
736.32	43.046
736.63	37.586
736.95	39.855
737.26	39.404
737.58	39.568
737.89	44.803
738.21	36.466
738.52	36.923
738.83	43.750
739.15	38.462
739.46	39.113
739.78	40.559
740.09	37.762
740.41	37.063
740.72	39.416
741.04	35.714
741.35	35.931
741.66	37.037
741.98	36.667
742.29	42.723
742.61	45.455
742.92	39.252
743.23	41.667
743.55	39.189
743.86	39.111
744.18	37.143
744.49	36.946
744.80	39.086
745.12	47.423
745.43	39.196
745.74	43.689
746.06	37.561
746.37	37.885
746.68	40.299
747.00	43.979
747.31	39.423
747.62	39.171
747.94	37.991
748.25	41.395
748.56	41.429
748.88	35.870
749.19	36.150
749.50	45.588
749.82	42.667
750.13	39.648
750.44	41.463
750.75	37.200
751.07	40.357
751.38	38.376
751.69	35.496
752.01	36.923
752.32	36.965
752.63	36.154
752.94	37.698
753.26	40.000
753.57	39.732
753.88	43.103
754.19	36.100
754.51	37.500
754.82	38.735
755.13	34.979
755.44	38.843
755.75	41.152
756.07	34.538
756.38	34.766
756.69	41.516
757.00	32.753
757.31	38.926
757.63	39.564
757.94	33.526
758.25	35.465
758.56	40.701
758.87	35.795
759.18	35.667
759.50	37.722
759.81	35.401
760.12	33.784
760.43	39.806
760.74	35.625
761.05	33.989
761.36	36.527
761.67	36.686
761.99	34.194
762.30	36.232
762.61	31.698
762.92	39.462
763.23	42.180
763.54	29.333
763.85	36.287
764.16	34.694
764.47	36.864
764.78	34.457
765.10	34.532
765.41	33.548
765.72	32.704
766.03	28.975
766.34	32.331
766.65	39.676
766.96	31.000
767.27	32.812
767.58	30.814
767.89	30.968
768.20	30.675
768.51	39.344
768.82	39.459
769.13	36.500
769.44	31.140
769.75	35.931
770.06	36.697
770.37	29.108
770.68	35.417
770.99	32.673
771.30	41.262
771.61	35.185
771.92	33.766
772.23	30.841
772.54	33.511
772.85	32.544
773.16	40.244
773.47	36.145
773.78	31.319
774.09	34.667
774.39	28.395
774.70	24.832
775.01	36.957
775.32	30.597
775.63	33.058
775.94	40.602
776.25	35.000
776.56	36.885
776.87	32.743
777.18	38.053
777.48	33.636
777.79	33.043
778.10	33.945
778.41	30.508
778.72	24.793
779.03	37.313
779.34	33.083
779.65	33.987
779.95	34.058
780.26	26.531
780.57	18.966
780.88	39.815
781.19	17.172
781.50	22.400
781.80	31.373
782.11	28.205
782.42	30.723
782.73	23.358
783.04	29.730
783.34	28.030
783.65	34.884
783.96	31.707
784.27	26.496
784.57	22.764
784.88	26.016
785.19	28.070
785.50	17.526
785.81	20.952
786.11	22.549
786.42	22.727
786.73	36.036
787.04	33.663
787.34	21.905
787.65	36.190
787.96	25.490
788.26	33.333
788.57	35.484
788.88	26.562
789.19	29.915
789.49	26.050
789.80	26.496
790.11	30.088
790.41	23.232
790.72	26.415
791.03	25.000
791.33	25.000
791.64	23.656
791.95	26.667
792.25	15.714
792.56	26.829
792.87	29.592
793.17	32.895
793.48	6.757
793.79	5.634
794.09	27.848
794.40	32.979
794.70	28.972
795.01	16.667
795.32	27.273
795.62	27.679
795.93	29.897
796.23	19.780
796.54	36.842
796.85	19.178
797.15	18.056
797.46	26.027
797.76	33.803
798.07	22.500
798.37	30.882
798.68	21.429
798.99	20.000
799.29	18.421
799.60	13.333
799.90	18.056
800.21	25.000
800.51	23.810
800.82	16.393
801.12	33.333
801.43	18.310
801.73	25.424
802.04	39.344
802.34	20.000
802.65	28.846
802.95	18.519
803.26	2.500
803.56	9.615
803.87	10.526
804.17	20.968
804.48	3.077
804.78	15.385
805.09	13.953
805.39	-12.500
805.70	0.000
806.00	38.596
806.30	36.486
806.61	13.235
806.91	18.519
807.22	40.000
807.52	19.403
807.83	11.290
808.13	34.921
808.43	16.364
808.74	22.727
809.04	20.755
809.35	28.767
809.65	19.298
809.95	13.235
810.26	23.529
810.56	-6.000
810.86	16.327
811.17	22.857
811.47	-11.538
811.77	-3.226
812.08	0.000
812.38	19.048
812.69	-4.348
812.99	9.677
813.29	-4.762
813.59	-22.222
813.90	-14.894
814.20	-6.977
814.50	20.833
814.81	11.667
815.11	-7.317
815.41	-6.667
815.72	2.857
816.02	13.889
816.32	23.077
816.62	-8.108
816.93	-2.941
817.23	8.696
817.53	5.882
817.84	2.941
818.14	-3.125
818.44	-20.690
818.74	-19.355
819.04	0.000
819.35	0.000
819.65	-4.000
819.95	-16.667
820.25	-32.000
820.56	10.526
820.86	-7.500
821.16	6.383
821.46	5.172
821.76	10.256
822.07	-17.500
822.37	4.651
822.67	-26.667
822.97	10.811
823.27	-5.405
823.57	8.000
823.88	13.514
824.18	-23.810
824.48	7.692
824.78	-138.462
825.08	17.391
825.38	-54.167
825.69	-33.333
825.99	-35.000
826.29	-21.622
826.59	-11.765
826.89	4.000
827.19	-22.857
827.49	28.947
827.79	0.000
828.09	-3.333
828.39	17.391
828.70	-13.793
829.00	17.241
829.30	0.000
829.60	34.375
829.90	5.556
830.20	-38.462
830.50	-66.667
830.80	-28.571
831.10	12.821
831.40	-9.524
831.70	20.588
832.00	-4.167
832.30	-36.842
832.60	-68.750
832.90	-66.667
833.20	-94.118
833.50	-120.000
833.80	-53.333
834.10	-15.000
834.40	-20.833
834.70	-38.889
835.00	19.231
835.30	-29.167
835.60	-27.586
835.90	-50.000
836.20	-100.000
836.50	-100.000
836.80	-17.143
837.10	37.143
837.40	-41.176
837.70	-163.636
838.00	12.500
838.30	-25.000
838.60	-4.762
838.90	10.000
839.19	-43.478
839.49	-4.348
839.79	-38.889
840.09	-39.130
840.39	-22.727
840.69	-50.000
840.99	-10.526
841.29	-93.750
841.59	-78.571
841.88	-27.778
842.18	0.000
842.48	-47.059
842.78	31.034
843.08	-35.714
843.38	-30.769
843.68	-144.444
843.97	-92.308
844.27	-63.636
844.57	-20.000
844.87	-4.000
845.17	60.000
845.47	-14.286
845.76	-200.000
846.06	0.000
846.36	-450.000
846.66	-190.000
846.96	-89.474
847.25	-54.167
847.55	-108.333
847.85	-106.667
848.15	-110.000
848.44	15.385
848.74	-52.632
849.04	566.667
849.34	-44.444
849.63	-100.000
849.93	0.000
850.23	-20.000
850.53	-47.619
850.82	-48.000
851.12	-26.316
851.42	-1450.000
851.71	-35.714
852.01	-33.333
852.31	-64.706
852.61	-46.667
852.90	-28.571
853.20	-383.333
853.50	-66.667
853.79	-36.842
854.09	-40.000
854.39	7.143
854.68	-60.870
854.98	-141.667
855.28	10.345
855.57	-100.000
855.87	-20.000
856.17	-100.000
856.46	-48.276
856.76	-66.667
857.05	-100.000
857.35	-230.769
857.65	-136.364
857.94	0.000
858.24	-100.000
858.53	-121.429
858.83	-25.000
859.13	-111.111
859.42	-9.524
859.72	-225.000
860.01	-533.333
860.31	-37.500
860.60	-400.000
860.90	-177.778
861.20	-37.500
861.49	-328.571
861.79	-29.412
862.08	-1150.000
862.38	-83.333
862.67	-30.769
862.97	-17.647
863.26	10.000
863.56	-47.059
863.85	233.333
864.15	-150.000
864.44	0.000
864.74	-15.000
865.03	-137.500
865.33	-333.333
865.62	-100.000
865.92	-375.000
866.21	-57.143
866.51	-66.667
866.80	-200.000
867.10	-233.333
867.39	23.529
867.69	34.783
867.98	-171.429
868.27	-160.000
868.57	-100.000
868.86	-145.455
869.16	-58.824
869.45	-183.333
869.75	-257.143
870.04	900.000
870.33	8.333
870.63	-340.000
870.92	-188.889
871.22	-75.000
871.51	-90.909
871.80	-91.667
872.10	-30.000
>>>>>End Processed Spectral Data<<<<<
