SpectraSuite Data File
++++++++++++++++++++++++++++++++++++
Date: Sat May 16 11:34:37 PDT 2015
User: schluterlab
Dark Spectrum Present: Yes
Reference Spectrum Present: Yes
Number of Sampled Component Spectra: 1
Spectrometers: USB2E3373
Integration Time (usec): 3000 (USB2E3373)
Spectra Averaged: 3 (USB2E3373)
Boxcar Smoothing: 0 (USB2E3373)
Correct for Electrical Dark: No (USB2E3373)
Strobe/Lamp Enabled: No (USB2E3373)
Correct for Detector Non-linearity: No (USB2E3373)
Correct for Stray Light: No (USB2E3373)
Number of Pixels in Processed Spectrum: 2048
>>>>>Begin Processed Spectral Data<<<<<
178.53	0.000
178.91	46.667
179.29	633.333
179.67	-1800.000
180.04	-30.769
180.42	1500.000
180.80	425.000
181.18	300.000
181.56	-262.500
181.94	800.000
182.31	575.000
182.69	-176.923
183.07	-433.333
183.45	1400.000
183.83	633.333
184.20	-285.714
184.58	-262.500
184.96	-350.000
185.34	137.500
185.72	-475.000
186.09	233.333
186.47	-50.000
186.85	-262.500
187.23	-125.000
187.61	-425.000
187.98	-312.500
188.36	-100.000
188.74	-200.000
189.12	1500.000
189.49	200.000
189.87	-50.000
190.25	550.000
190.63	-42.857
191.00	-122.222
191.38	620.000
191.76	-40.000
192.14	440.000
192.51	-240.000
192.89	-533.333
193.27	0.000
193.65	-144.444
194.02	-314.286
194.40	600.000
194.78	-110.000
195.15	-1200.000
195.53	-81.818
195.91	-483.333
196.29	200.000
196.66	-466.667
197.04	2400.000
197.42	-375.000
197.79	6.667
198.17	-166.667
198.55	-600.000
198.92	-1200.000
199.30	175.000
199.68	-600.000
200.05	-122.222
200.43	-277.778
200.81	-1500.000
201.18	-66.667
201.56	214.286
201.94	-46.667
202.31	-22.727
202.69	-30.000
203.07	-90.000
203.44	700.000
203.82	-333.333
204.19	-400.000
204.57	-200.000
204.95	-1500.000
205.32	-25.000
205.70	1000.000
206.08	-1200.000
206.45	-61.111
206.83	-950.000
207.20	-400.000
207.58	-533.333
207.96	-400.000
208.33	-137.500
208.71	-166.667
209.08	280.000
209.46	-128.571
209.84	300.000
210.21	0.000
210.59	55.000
210.96	900.000
211.34	-216.667
211.71	-333.333
212.09	275.000
212.46	350.000
212.84	-2500.000
213.22	500.000
213.59	83.333
213.97	-77.778
214.34	170.000
214.72	-150.000
215.09	-666.667
215.47	-133.333
215.84	-100.000
216.22	-120.000
216.59	-100.000
216.97	-300.000
217.34	1000.000
217.72	-28.571
218.09	-233.333
218.47	-57.143
218.84	185.714
219.22	-28.571
219.59	0.000
219.97	71.429
220.34	700.000
220.72	312.500
221.09	-84.615
221.47	0.000
221.84	566.667
222.22	-1000.000
222.59	600.000
222.97	-362.500
223.34	-750.000
223.72	-500.000
224.09	-28.571
224.46	-425.000
224.84	-100.000
225.21	-71.429
225.59	-45.455
225.96	-100.000
226.34	-85.714
226.71	-88.889
227.08	30.000
227.46	1800.000
227.83	-271.429
228.21	-212.500
228.58	350.000
228.95	-43.750
229.33	-1600.000
229.70	-260.000
230.08	-850.000
230.45	-66.667
230.82	-200.000
231.20	-700.000
231.57	-500.000
231.95	1000.000
232.32	-14.286
232.69	-144.444
233.07	-114.286
233.44	-1050.000
233.81	-60.000
234.19	-133.333
234.56	-31.250
234.93	-15.625
235.31	-185.714
235.68	-164.286
236.05	-47.059
236.43	-90.909
236.80	-12.903
237.17	-16.667
237.55	-61.905
237.92	-109.091
238.29	-37.143
238.67	-20.588
239.04	-27.778
239.41	-61.290
239.79	-20.513
240.16	-45.238
240.53	-25.455
240.91	-41.026
241.28	-27.273
241.65	-6.154
242.02	-21.311
242.40	-26.230
242.77	-19.697
243.14	-33.898
243.51	-21.429
243.89	-18.987
244.26	-15.730
244.63	-9.474
245.00	-31.579
245.38	-5.932
245.75	0.885
246.12	-0.800
246.49	-3.150
246.87	-17.886
247.24	-11.017
247.61	-8.475
247.98	-5.634
248.36	-9.091
248.73	-4.430
249.10	-8.280
249.47	-1.754
249.84	-6.250
250.22	-20.238
250.59	-5.650
250.96	-2.618
251.33	-3.318
251.70	-2.404
252.08	-4.265
252.45	-10.427
252.82	-4.286
253.19	-4.255
253.56	-6.855
253.94	-5.907
254.31	-7.296
254.68	0.000
255.05	-8.065
255.42	-1.587
255.79	-6.093
256.16	-2.745
256.54	-1.103
256.91	-1.515
257.28	-4.762
257.65	-5.674
258.02	-1.258
258.39	-1.338
258.76	-7.770
259.14	-1.543
259.51	-1.967
259.88	-4.268
260.25	0.311
260.62	-0.322
260.99	-5.638
261.36	-3.659
261.73	0.578
262.10	1.667
262.47	-3.989
262.85	1.429
263.22	-2.579
263.59	-9.231
263.96	-2.899
264.33	-2.168
264.70	-0.829
265.07	-2.198
265.44	-3.101
265.81	-0.258
266.18	-1.013
266.55	-1.471
266.92	-1.511
267.29	-0.969
267.66	-1.728
268.03	-0.483
268.40	-0.704
268.77	-0.964
269.14	-2.320
269.51	0.460
269.88	-2.982
270.25	-4.429
270.62	-2.517
270.99	-1.577
271.36	-1.166
271.73	-1.345
272.10	-0.915
272.47	-4.667
272.84	0.889
273.21	-1.835
273.58	-2.418
273.95	-1.535
274.32	-3.167
274.69	-1.313
275.06	0.818
275.43	-3.795
275.80	-0.407
276.17	0.000
276.54	1.426
276.91	-2.058
277.28	-0.406
277.65	1.033
278.02	1.253
278.39	1.375
278.76	0.000
279.13	-0.791
279.50	-1.789
279.87	-0.634
280.23	-1.215
280.60	-3.380
280.97	-3.301
281.34	-1.547
281.71	0.962
282.08	-1.613
282.45	-4.684
282.82	-2.713
283.19	-0.727
283.56	0.000
283.92	0.530
284.29	-0.372
284.66	-0.719
285.03	1.248
285.40	-2.030
285.77	-2.456
286.14	-2.888
286.51	-1.066
286.87	-0.544
287.24	0.512
287.61	-0.496
287.98	-1.560
288.35	-2.149
288.72	-0.679
289.08	-1.356
289.45	-1.515
289.82	-2.768
290.19	-0.328
290.56	-3.802
290.93	-0.954
291.29	-3.241
291.66	-0.966
292.03	0.471
292.40	0.301
292.77	-0.776
293.13	-0.813
293.50	0.297
293.87	0.613
294.24	0.151
294.60	-0.758
294.97	0.607
295.34	-0.148
295.71	-0.149
296.08	-2.304
296.44	-1.144
296.81	0.427
297.18	-0.141
297.55	-0.706
297.91	1.116
298.28	-0.959
298.65	-0.697
299.02	2.941
299.38	0.000
299.75	-0.408
300.12	0.256
300.48	0.000
300.85	-0.262
301.22	-1.035
301.59	-0.910
301.95	0.504
302.32	-1.304
302.69	-0.245
303.05	0.244
303.42	-1.125
303.79	-0.239
304.15	0.355
304.52	1.167
304.89	1.299
305.25	0.122
305.62	-0.705
305.99	2.356
306.35	1.554
306.72	-0.569
307.09	0.454
307.45	0.114
307.82	-0.559
308.19	1.454
308.55	0.871
308.92	-0.644
309.29	-0.541
309.65	0.106
310.02	1.512
310.38	-0.216
310.75	1.434
311.12	2.479
311.48	1.044
311.85	2.575
312.22	1.339
312.58	2.238
312.95	1.121
313.31	2.398
313.68	2.714
314.05	2.671
314.41	2.616
314.78	2.597
315.14	2.962
315.51	2.533
315.87	3.969
316.24	3.693
316.61	3.935
316.97	4.776
317.34	4.721
317.70	4.267
318.07	5.037
318.43	4.307
318.80	6.761
319.16	4.784
319.53	5.733
319.89	5.174
320.26	6.176
320.62	5.385
320.99	7.463
321.35	5.616
321.72	6.960
322.08	9.298
322.45	8.812
322.81	9.222
323.18	9.606
323.54	9.427
323.91	11.585
324.27	11.502
324.64	11.792
325.00	12.478
325.37	12.036
325.73	16.273
326.10	14.703
326.46	15.149
326.83	16.085
327.19	16.347
327.56	18.143
327.92	17.587
328.29	18.009
328.65	19.364
329.01	20.495
329.38	18.644
329.74	21.886
330.11	20.399
330.47	21.163
330.84	22.548
331.20	23.195
331.56	21.969
331.93	23.002
332.29	25.205
332.66	24.759
333.02	25.068
333.38	24.462
333.75	25.022
334.11	25.511
334.48	25.243
334.84	26.334
335.20	26.418
335.57	27.437
335.93	27.037
336.29	25.952
336.66	26.520
337.02	27.027
337.38	26.381
337.75	28.358
338.11	27.102
338.47	27.580
338.84	28.857
339.20	28.120
339.56	29.412
339.93	27.601
340.29	27.104
340.65	28.934
341.02	29.764
341.38	28.222
341.74	29.213
342.11	29.608
342.47	29.013
342.83	29.723
343.20	31.255
343.56	28.408
343.92	29.549
344.28	29.773
344.65	28.465
345.01	28.824
345.37	30.150
345.73	27.741
346.10	28.782
346.46	29.732
346.82	30.313
347.19	29.992
347.55	29.374
347.91	30.079
348.27	30.390
348.63	32.149
349.00	30.867
349.36	29.899
349.72	31.688
350.08	31.917
350.45	30.496
350.81	31.210
351.17	32.235
351.53	30.390
351.89	31.366
352.26	31.628
352.62	31.951
352.98	30.854
353.34	32.694
353.70	31.583
354.07	31.786
354.43	32.253
354.79	31.933
355.15	31.869
355.51	31.875
355.87	31.858
356.24	31.851
356.60	33.280
356.96	33.410
357.32	32.067
357.68	32.874
358.04	33.641
358.40	32.947
358.77	33.230
359.13	33.053
359.49	32.275
359.85	33.232
360.21	32.496
360.57	33.810
360.93	34.148
361.29	35.501
361.66	34.375
362.02	35.207
362.38	34.629
362.74	34.139
363.10	34.505
363.46	35.969
363.82	34.913
364.18	34.298
364.54	35.525
364.90	34.521
365.26	34.665
365.62	36.422
365.98	35.846
366.35	34.859
366.71	35.166
367.07	35.356
367.43	36.582
367.79	37.388
368.15	35.917
368.51	36.294
368.87	36.195
369.23	37.404
369.59	36.528
369.95	36.716
370.31	38.397
370.67	36.804
371.03	37.026
371.39	37.058
371.75	38.126
372.11	37.661
372.47	37.889
372.83	37.622
373.19	37.643
373.55	38.353
373.91	38.122
374.27	37.440
374.63	38.923
374.99	38.943
375.35	38.089
375.71	40.041
376.07	39.151
376.42	37.815
376.78	38.889
377.14	39.864
377.50	40.619
377.86	38.687
378.22	39.824
378.58	39.284
378.94	39.211
379.30	39.488
379.66	39.587
380.02	38.740
380.38	39.215
380.74	40.621
381.09	40.480
381.45	41.587
381.81	40.835
382.17	40.100
382.53	40.669
382.89	41.746
383.25	39.193
383.61	40.566
383.97	41.457
384.32	41.990
384.68	42.684
385.04	41.244
385.40	42.422
385.76	41.829
386.12	42.224
386.48	42.760
386.83	42.331
387.19	43.096
387.55	42.277
387.91	42.324
388.27	41.616
388.62	42.248
388.98	41.793
389.34	41.738
389.70	43.544
390.06	41.392
390.42	43.590
390.77	42.713
391.13	43.416
391.49	43.107
391.85	43.204
392.20	43.325
392.56	42.883
392.92	41.700
393.28	43.456
393.64	42.995
393.99	44.308
394.35	44.526
394.71	42.742
395.07	44.758
395.42	42.133
395.78	42.426
396.14	44.984
396.50	42.446
396.85	43.615
397.21	43.074
397.57	43.343
397.92	43.560
398.28	42.944
398.64	43.010
399.00	43.876
399.35	43.517
399.71	43.380
400.07	44.239
400.42	43.978
400.78	43.649
401.14	43.293
401.49	43.927
401.85	44.905
402.21	44.517
402.57	44.357
402.92	44.745
403.28	44.240
403.63	42.301
403.99	43.940
404.35	43.357
404.70	42.598
405.06	43.483
405.42	42.497
405.77	42.760
406.13	43.441
406.49	43.859
406.84	44.331
407.20	44.287
407.55	43.762
407.91	43.718
408.27	43.199
408.62	43.536
408.98	44.148
409.34	42.779
409.69	43.541
410.05	43.663
410.40	43.899
410.76	43.450
411.11	44.389
411.47	42.519
411.83	43.888
412.18	43.750
412.54	42.831
412.89	43.196
413.25	42.326
413.60	42.406
413.96	42.884
414.31	43.853
414.67	42.667
415.03	43.014
415.38	44.893
415.74	43.299
416.09	44.757
416.45	42.460
416.80	43.433
417.16	43.123
417.51	43.861
417.87	43.495
418.22	44.311
418.58	44.159
418.93	42.735
419.29	44.103
419.64	42.965
420.00	43.439
420.35	44.175
420.71	43.697
421.06	43.669
421.42	43.677
421.77	44.668
422.12	43.928
422.48	43.079
422.83	43.679
423.19	44.432
423.54	45.764
423.90	43.725
424.25	44.457
424.61	44.089
424.96	46.109
425.31	45.221
425.67	45.387
426.02	44.521
426.38	45.493
426.73	45.120
427.09	44.914
427.44	44.716
427.79	44.477
428.15	45.362
428.50	45.748
428.85	45.923
429.21	44.715
429.56	44.740
429.92	44.138
430.27	45.713
430.62	45.611
430.98	45.165
431.33	45.678
431.68	45.469
432.04	47.062
432.39	46.325
432.74	45.084
433.10	46.314
433.45	45.596
433.80	45.073
434.16	45.943
434.51	45.753
434.86	47.276
435.22	45.991
435.57	46.940
435.92	46.073
436.28	47.062
436.63	45.789
436.98	46.564
437.34	45.718
437.69	46.849
438.04	47.192
438.39	47.052
438.75	46.740
439.10	46.696
439.45	46.047
439.81	46.928
440.16	46.224
440.51	48.059
440.86	46.385
441.22	46.269
441.57	46.632
441.92	46.803
442.27	47.186
442.63	46.942
442.98	46.219
443.33	46.842
443.68	46.847
444.03	46.464
444.39	46.794
444.74	47.577
445.09	46.546
445.44	47.327
445.79	46.915
446.15	46.988
446.50	46.598
446.85	46.434
447.20	45.403
447.55	47.403
447.91	47.838
448.26	46.536
448.61	46.520
448.96	47.283
449.31	47.069
449.66	47.396
450.02	45.983
450.37	46.609
450.72	46.949
451.07	48.649
451.42	45.539
451.77	47.636
452.12	47.616
452.47	47.418
452.83	46.942
453.18	48.640
453.53	48.943
453.88	48.086
454.23	47.461
454.58	48.291
454.93	47.481
455.28	48.375
455.63	48.464
455.98	48.735
456.34	47.078
456.69	47.780
457.04	47.818
457.39	47.129
457.74	46.958
458.09	46.984
458.44	49.134
458.79	47.982
459.14	47.519
459.49	48.135
459.84	48.510
460.19	48.031
460.54	48.155
460.89	48.038
461.24	48.087
461.59	46.835
461.94	47.295
462.29	47.588
462.64	48.682
462.99	47.791
463.34	46.995
463.69	48.728
464.04	47.100
464.39	45.938
464.74	47.518
465.09	46.001
465.44	47.208
465.79	46.531
466.14	48.446
466.49	47.553
466.84	48.259
467.19	48.130
467.54	46.519
467.89	46.979
468.24	48.040
468.59	48.220
468.94	48.103
469.29	47.823
469.64	48.181
469.99	48.481
470.34	48.764
470.68	48.910
471.03	49.553
471.38	48.542
471.73	47.902
472.08	47.925
472.43	47.812
472.78	47.800
473.13	47.780
473.48	47.862
473.83	48.139
474.17	47.580
474.52	49.233
474.87	47.203
475.22	47.139
475.57	47.111
475.92	48.110
476.27	46.457
476.61	48.169
476.96	47.624
477.31	47.255
477.66	47.537
478.01	48.514
478.36	47.564
478.70	48.105
479.05	47.431
479.40	46.891
479.75	46.738
480.10	46.577
480.45	46.760
480.79	47.779
481.14	47.366
481.49	47.773
481.84	46.694
482.19	47.236
482.53	47.396
482.88	46.654
483.23	46.479
483.58	47.086
483.92	46.727
484.27	45.414
484.62	46.609
484.97	45.401
485.31	44.608
485.66	43.008
486.01	43.419
486.36	43.899
486.70	44.947
487.05	45.634
487.40	44.685
487.75	44.975
488.09	45.275
488.44	46.211
488.79	45.985
489.13	46.063
489.48	46.819
489.83	47.467
490.17	46.713
490.52	47.237
490.87	47.344
491.22	46.987
491.56	47.315
491.91	47.901
492.26	47.406
492.60	46.670
492.95	47.644
493.30	46.212
493.64	46.685
493.99	46.893
494.34	47.429
494.68	47.987
495.03	47.180
495.37	47.443
495.72	48.330
496.07	47.208
496.41	47.615
496.76	46.393
497.11	47.244
497.45	47.557
497.80	47.374
498.14	47.299
498.49	47.363
498.84	47.330
499.18	48.051
499.53	47.540
499.87	46.573
500.22	47.206
500.56	48.124
500.91	46.995
501.26	46.919
501.60	46.702
501.95	46.908
502.29	45.914
502.64	46.346
502.98	45.855
503.33	46.194
503.67	46.169
504.02	47.513
504.36	46.078
504.71	46.454
505.06	45.582
505.40	46.956
505.75	47.307
506.09	47.169
506.44	47.318
506.78	47.015
507.13	46.756
507.47	47.001
507.82	45.741
508.16	46.580
508.51	46.316
508.85	47.516
509.19	46.625
509.54	48.467
509.88	47.979
510.23	47.956
510.57	46.825
510.92	48.980
511.26	47.422
511.61	47.516
511.95	46.713
512.30	47.334
512.64	47.691
512.98	46.865
513.33	46.623
513.67	47.180
514.02	47.595
514.36	47.258
514.70	47.595
515.05	48.828
515.39	47.347
515.74	48.284
516.08	48.357
516.42	47.082
516.77	48.065
517.11	46.854
517.46	48.505
517.80	49.579
518.14	47.886
518.49	47.938
518.83	47.359
519.17	48.668
519.52	46.327
519.86	47.013
520.20	48.350
520.55	48.492
520.89	48.403
521.23	47.802
521.58	48.464
521.92	48.385
522.26	48.190
522.61	48.226
522.95	48.564
523.29	48.213
523.64	47.595
523.98	47.740
524.32	47.643
524.66	46.273
525.01	47.784
525.35	47.874
525.69	47.560
526.04	49.021
526.38	48.377
526.72	47.573
527.06	47.656
527.41	47.525
527.75	48.119
528.09	48.246
528.43	47.934
528.78	47.236
529.12	48.015
529.46	46.585
529.80	47.385
530.15	46.813
530.49	47.671
530.83	48.788
531.17	48.418
531.51	48.024
531.86	47.202
532.20	48.043
532.54	47.393
532.88	46.640
533.22	47.326
533.57	47.389
533.91	45.318
534.25	46.323
534.59	45.472
534.93	44.555
535.27	46.759
535.62	47.123
535.96	46.606
536.30	44.634
536.64	45.418
536.98	46.116
537.32	47.063
537.66	46.979
538.01	45.704
538.35	46.757
538.69	46.056
539.03	44.956
539.37	46.174
539.71	46.097
540.05	46.676
540.39	46.884
540.73	46.925
541.07	46.448
541.42	44.970
541.76	43.987
542.10	46.388
542.44	46.302
542.78	45.251
543.12	44.467
543.46	45.137
543.80	44.482
544.14	45.467
544.48	45.079
544.82	45.670
545.16	45.137
545.50	43.809
545.84	46.036
546.18	45.839
546.52	45.448
546.86	46.795
547.20	46.062
547.54	45.110
547.88	44.725
548.22	44.364
548.56	44.823
548.90	44.407
549.24	45.830
549.58	44.672
549.92	45.936
550.26	45.882
550.60	44.381
550.94	45.620
551.28	45.974
551.62	45.643
551.96	44.790
552.30	45.087
552.64	45.461
552.98	46.601
553.32	45.166
553.66	46.503
554.00	45.345
554.34	44.910
554.68	44.079
555.02	46.020
555.36	44.644
555.69	44.556
556.03	45.333
556.37	44.808
556.71	45.240
557.05	46.194
557.39	44.840
557.73	46.608
558.07	46.496
558.41	46.372
558.75	44.867
559.08	44.047
559.42	46.708
559.76	45.399
560.10	45.861
560.44	45.954
560.78	44.885
561.12	44.790
561.45	45.548
561.79	44.878
562.13	44.530
562.47	44.538
562.81	43.140
563.15	43.947
563.48	44.713
563.82	43.611
564.16	44.151
564.50	44.220
564.84	44.378
565.17	43.037
565.51	43.546
565.85	44.287
566.19	44.269
566.52	42.531
566.86	43.805
567.20	44.249
567.54	43.887
567.88	41.485
568.21	42.506
568.55	41.676
568.89	41.451
569.23	41.370
569.56	39.260
569.90	39.339
570.24	39.797
570.57	39.086
570.91	38.150
571.25	39.235
571.59	37.933
571.92	37.917
572.26	38.556
572.60	38.194
572.93	37.659
573.27	37.317
573.61	36.794
573.95	37.759
574.28	37.002
574.62	37.570
574.96	36.790
575.29	36.916
575.63	38.200
575.97	36.812
576.30	36.640
576.64	36.867
576.98	36.153
577.31	37.020
577.65	36.211
577.98	36.579
578.32	36.224
578.66	36.171
578.99	35.968
579.33	36.699
579.67	36.419
580.00	35.590
580.34	36.546
580.67	36.332
581.01	35.878
581.35	35.893
581.68	35.477
582.02	35.598
582.35	36.147
582.69	36.225
583.02	36.981
583.36	36.821
583.70	36.303
584.03	37.527
584.37	37.240
584.70	36.505
585.04	36.481
585.37	35.990
585.71	35.631
586.04	36.550
586.38	36.167
586.72	36.640
587.05	36.647
587.39	37.012
587.72	36.687
588.06	36.836
588.39	36.742
588.73	36.572
589.06	38.267
589.40	37.582
589.73	37.854
590.07	36.854
590.40	37.712
590.73	38.505
591.07	38.279
591.40	38.908
591.74	38.445
592.07	38.829
592.41	39.193
592.74	37.125
593.08	37.110
593.41	37.500
593.75	36.433
594.08	37.168
594.41	38.078
594.75	37.637
595.08	37.669
595.42	37.500
595.75	37.633
596.09	38.456
596.42	38.257
596.75	37.818
597.09	38.869
597.42	37.582
597.75	39.017
598.09	38.364
598.42	38.003
598.76	37.832
599.09	37.885
599.42	37.370
599.76	36.920
600.09	37.023
600.42	37.030
600.76	37.326
601.09	38.017
601.42	37.159
601.76	37.967
602.09	37.914
602.42	37.737
602.76	37.516
603.09	37.500
603.42	37.309
603.76	38.133
604.09	37.325
604.42	37.760
604.76	37.069
605.09	38.653
605.42	37.677
605.75	37.947
606.09	37.111
606.42	36.741
606.75	37.742
607.09	37.936
607.42	38.292
607.75	37.483
608.08	38.545
608.42	38.127
608.75	38.271
609.08	38.091
609.41	37.519
609.75	37.250
610.08	37.451
610.41	37.398
610.74	38.491
611.07	37.982
611.41	37.670
611.74	37.789
612.07	40.011
612.40	38.326
612.73	38.665
613.07	38.470
613.40	39.737
613.73	38.910
614.06	38.935
614.39	39.853
614.72	37.207
615.06	37.283
615.39	38.416
615.72	38.240
616.05	37.604
616.38	38.886
616.71	38.619
617.05	39.023
617.38	38.885
617.71	39.005
618.04	39.876
618.37	39.182
618.70	40.352
619.03	39.133
619.36	40.874
619.69	40.416
620.03	38.981
620.36	39.662
620.69	41.206
621.02	40.868
621.35	40.887
621.68	41.639
622.01	41.586
622.34	40.606
622.67	40.156
623.00	41.393
623.33	40.224
623.66	38.922
623.99	40.752
624.32	39.509
624.65	39.294
624.99	39.806
625.32	39.895
625.65	40.171
625.98	40.532
626.31	41.925
626.64	40.251
626.97	41.524
627.30	40.851
627.63	42.314
627.96	42.907
628.29	42.555
628.62	41.165
628.95	42.421
629.28	41.635
629.61	42.395
629.94	42.628
630.26	41.153
630.59	43.317
630.92	42.843
631.25	43.448
631.58	43.280
631.91	40.638
632.24	43.000
632.57	44.111
632.90	44.483
633.23	44.042
633.56	44.094
633.89	42.571
634.22	43.329
634.55	44.952
634.88	44.498
635.20	44.320
635.53	43.893
635.86	45.088
636.19	43.223
636.52	42.174
636.85	44.284
637.18	43.125
637.51	44.981
637.83	44.208
638.16	43.158
638.49	43.310
638.82	43.115
639.15	44.617
639.48	40.726
639.81	45.920
640.13	42.973
640.46	45.584
640.79	45.518
641.12	44.570
641.45	43.185
641.77	44.910
642.10	44.864
642.43	43.096
642.76	43.937
643.09	45.238
643.41	46.667
643.74	44.515
644.07	44.774
644.40	45.057
644.73	48.185
645.05	46.745
645.38	47.020
645.71	47.079
646.04	49.580
646.36	44.503
646.69	46.021
647.02	46.751
647.35	47.834
647.67	47.628
648.00	45.870
648.33	48.567
648.66	42.742
648.98	44.427
649.31	44.769
649.64	44.063
649.96	43.171
650.29	44.754
650.62	46.472
650.94	46.712
651.27	47.660
651.60	44.464
651.92	45.548
652.25	44.407
652.58	44.634
652.90	44.302
653.23	42.742
653.56	42.140
653.88	42.787
654.21	44.966
654.54	45.515
654.86	41.252
655.19	41.261
655.52	37.491
655.84	32.231
656.17	34.064
656.49	46.036
656.82	47.432
657.15	36.190
657.47	26.933
657.80	21.115
658.13	24.177
658.45	32.667
658.78	32.936
659.10	32.653
659.43	32.670
659.75	33.832
660.08	34.271
660.41	34.843
660.73	37.954
661.06	41.449
661.38	46.429
661.71	46.463
662.03	49.194
662.36	44.136
662.68	44.937
663.01	43.949
663.33	46.259
663.66	45.494
663.98	47.098
664.31	45.861
664.63	47.566
664.96	46.638
665.28	44.252
665.61	44.609
665.93	43.621
666.26	43.117
666.58	45.738
666.91	45.212
667.23	48.684
667.56	46.712
667.88	51.357
668.21	44.470
668.53	45.794
668.86	48.268
669.18	45.205
669.50	47.897
669.83	44.526
670.15	45.964
670.48	45.794
670.80	45.103
671.13	41.535
671.45	44.144
671.77	43.897
672.10	45.168
672.42	41.144
672.75	42.909
673.07	39.820
673.39	40.437
673.72	43.307
674.04	43.737
674.37	42.268
674.69	43.648
675.01	42.979
675.34	43.384
675.66	47.300
675.98	44.493
676.31	43.891
676.63	47.586
676.95	40.929
677.28	42.459
677.60	44.118
677.92	45.374
678.25	43.545
678.57	43.210
678.89	41.509
679.22	44.025
679.54	41.026
679.86	41.200
680.18	40.114
680.51	38.734
680.83	42.857
681.15	39.884
681.48	40.162
681.80	40.121
682.12	41.851
682.44	39.686
682.77	40.693
683.09	42.977
683.41	45.796
683.73	41.553
684.06	38.495
684.38	38.703
684.70	38.889
685.02	39.370
685.34	41.910
685.67	39.394
685.99	37.807
686.31	39.677
686.63	39.007
686.96	38.078
687.28	38.150
687.60	41.211
687.92	37.549
688.24	40.945
688.56	37.275
688.89	38.462
689.21	41.357
689.53	43.218
689.85	40.980
690.17	38.565
690.49	38.337
690.82	40.723
691.14	40.330
691.46	43.681
691.78	40.308
692.10	44.492
692.42	38.889
692.74	41.845
693.06	38.652
693.39	39.597
693.71	39.729
694.03	42.333
694.35	37.698
694.67	34.279
694.99	37.084
695.31	42.092
695.63	40.306
695.95	42.680
696.27	40.648
696.59	41.711
696.91	42.697
697.23	42.969
697.56	38.462
697.88	38.739
698.20	36.617
698.52	37.668
698.84	43.689
699.16	40.714
699.48	35.250
699.80	39.098
700.12	43.577
700.44	37.430
700.76	38.192
701.08	38.372
701.40	37.160
701.72	37.654
702.04	43.590
702.36	40.060
702.68	39.222
703.00	39.420
703.32	36.963
703.64	43.529
703.96	38.953
704.28	40.828
704.60	38.608
704.91	34.921
705.23	41.748
705.55	37.838
705.87	44.369
706.19	41.319
706.51	43.403
706.83	42.951
707.15	38.854
707.47	37.190
707.79	40.206
708.11	36.641
708.43	40.648
708.74	34.286
709.06	34.819
709.38	35.920
709.70	36.875
710.02	38.957
710.34	36.304
710.66	35.556
710.98	38.170
711.29	33.548
711.61	33.866
711.93	35.410
712.25	37.874
712.57	34.843
712.89	39.568
713.20	40.550
713.52	40.672
713.84	36.299
714.16	37.049
714.48	38.730
714.80	35.077
715.11	35.447
715.43	40.361
715.75	39.875
716.07	32.459
716.39	35.117
716.70	36.585
717.02	37.778
717.34	38.931
717.66	43.568
717.97	40.984
718.29	39.076
718.61	36.508
718.93	37.993
719.24	36.029
719.56	34.717
719.88	37.091
720.20	38.577
720.51	37.218
720.83	38.554
721.15	37.705
721.46	38.431
721.78	36.015
722.10	40.800
722.42	38.017
722.73	34.661
723.05	37.349
723.37	36.078
723.68	33.198
724.00	37.398
724.32	40.741
724.63	36.515
724.95	36.364
725.27	35.965
725.58	39.655
725.90	36.508
726.22	40.590
726.53	38.783
726.85	29.020
727.16	36.090
727.48	36.538
727.80	34.426
728.11	34.034
728.43	33.884
728.74	36.328
729.06	37.500
729.38	33.463
729.69	29.134
730.01	36.220
730.32	31.873
730.64	34.432
730.96	35.075
731.27	35.000
731.59	33.762
731.90	32.515
732.22	30.982
732.53	36.093
732.85	30.201
733.16	36.594
733.48	30.662
733.80	28.826
734.11	30.000
734.43	34.354
734.74	35.015
735.06	29.467
735.37	31.804
735.69	33.548
736.00	33.670
736.32	32.450
736.63	28.621
736.95	34.420
737.26	34.106
737.58	31.295
737.89	32.975
738.21	29.699
738.52	32.308
738.83	30.469
739.15	34.615
739.46	34.274
739.78	33.916
740.09	30.769
740.41	30.070
740.72	31.022
741.04	32.143
741.35	33.766
741.66	32.407
741.98	30.952
742.29	34.272
742.61	35.829
742.92	42.991
743.23	29.825
743.55	32.883
743.86	39.556
744.18	32.381
744.49	45.320
744.80	35.533
745.12	35.052
745.43	34.673
745.74	32.524
746.06	29.756
746.37	37.445
746.68	37.811
747.00	34.555
747.31	32.692
747.62	32.719
747.94	31.878
748.25	34.419
748.56	32.381
748.88	33.152
749.19	37.089
749.50	37.745
749.82	33.333
750.13	40.529
750.44	35.772
750.75	29.600
751.07	33.929
751.38	35.055
751.69	25.954
752.01	32.308
752.32	31.907
752.63	32.308
752.94	24.206
753.26	30.000
753.57	37.500
753.88	30.172
754.19	29.876
754.51	30.078
754.82	30.435
755.13	29.218
755.44	32.645
755.75	31.687
756.07	29.719
756.38	28.516
756.69	33.213
757.00	30.314
757.31	33.221
757.63	30.530
757.94	26.879
758.25	28.198
758.56	34.771
758.87	25.568
759.18	29.000
759.50	28.826
759.81	30.292
760.12	26.351
760.43	30.421
760.74	31.875
761.05	30.618
761.36	26.946
761.67	28.107
761.99	29.355
762.30	28.986
762.61	27.547
762.92	28.700
763.23	29.384
763.54	26.222
763.85	28.692
764.16	26.122
764.47	27.966
764.78	28.464
765.10	34.173
765.41	29.032
765.72	28.931
766.03	20.848
766.34	31.955
766.65	27.530
766.96	27.500
767.27	31.250
767.58	30.233
767.89	32.258
768.20	29.448
768.51	28.415
768.82	26.486
769.13	27.500
769.44	25.877
769.75	29.004
770.06	32.110
770.37	25.822
770.68	25.000
770.99	33.168
771.30	29.612
771.61	23.611
771.92	28.571
772.23	28.972
772.54	36.702
772.85	27.219
773.16	24.390
773.47	32.530
773.78	31.868
774.09	24.000
774.39	26.543
774.70	24.832
775.01	14.493
775.32	25.373
775.63	21.488
775.94	30.075
776.25	32.143
776.56	31.148
776.87	34.513
777.18	31.858
777.48	18.182
777.79	20.000
778.10	23.853
778.41	26.271
778.72	23.967
779.03	31.343
779.34	29.323
779.65	32.026
779.95	28.986
780.26	21.769
780.57	15.517
780.88	27.778
781.19	16.162
781.50	20.000
781.80	21.569
782.11	20.513
782.42	24.699
782.73	15.328
783.04	29.730
783.34	19.697
783.65	24.031
783.96	28.455
784.27	21.368
784.57	21.138
784.88	21.138
785.19	30.702
785.50	21.649
785.81	27.619
786.11	18.627
786.42	17.273
786.73	22.523
787.04	22.772
787.34	20.000
787.65	19.048
787.96	20.588
788.26	25.225
788.57	25.806
788.88	15.625
789.19	24.786
789.49	16.807
789.80	17.094
790.11	22.124
790.41	23.232
790.72	36.792
791.03	13.889
791.33	18.421
791.64	20.430
791.95	24.000
792.25	5.714
792.56	20.732
792.87	16.327
793.17	10.526
793.48	9.459
793.79	5.634
794.09	10.127
794.40	31.915
794.70	15.888
795.01	5.263
795.32	16.364
795.62	15.179
795.93	15.464
796.23	17.582
796.54	24.211
796.85	17.808
797.15	23.611
797.46	24.658
797.76	25.352
798.07	37.500
798.37	17.647
798.68	14.286
798.99	20.000
799.29	30.263
799.60	21.667
799.90	12.500
800.21	12.500
800.51	-1.587
800.82	16.393
801.12	12.281
801.43	36.620
801.73	-1.695
802.04	22.951
802.34	-10.909
802.65	25.000
802.95	22.222
803.26	-5.000
803.56	26.923
803.87	21.053
804.17	20.968
804.48	3.077
804.78	7.692
805.09	11.628
805.39	3.125
805.70	9.434
806.00	40.351
806.30	29.730
806.61	10.294
806.91	19.753
807.22	17.333
807.52	11.940
807.83	0.000
808.13	11.111
808.43	1.818
808.74	21.212
809.04	0.000
809.35	16.438
809.65	29.825
809.95	1.471
810.26	17.647
810.56	6.000
810.86	-8.163
811.17	17.143
811.47	1.923
811.77	-3.226
812.08	-23.684
812.38	0.000
812.69	0.000
812.99	-9.677
813.29	-14.286
813.59	-40.741
813.90	2.128
814.20	-4.651
814.50	20.833
814.81	3.333
815.11	-2.439
815.41	-13.333
815.72	22.857
816.02	-22.222
816.32	25.641
816.62	0.000
816.93	-52.941
817.23	-4.348
817.53	-38.235
817.84	-20.588
818.14	-31.250
818.44	-6.897
818.74	-25.806
819.04	18.519
819.35	0.000
819.65	-48.000
819.95	-3.333
820.25	-40.000
820.56	2.632
820.86	-32.500
821.16	21.277
821.46	12.069
821.76	-15.385
822.07	-42.500
822.37	0.000
822.67	-16.667
822.97	-43.243
823.27	13.514
823.57	44.000
823.88	18.919
824.18	-61.905
824.48	-34.615
824.78	-100.000
825.08	-47.826
825.38	-29.167
825.69	-70.833
825.99	-85.000
826.29	-18.919
826.59	-32.353
826.89	-12.000
827.19	-14.286
827.49	0.000
827.79	-12.500
828.09	-43.333
828.39	-21.739
828.70	-41.379
829.00	6.897
829.30	-19.444
829.60	18.750
829.90	-22.222
830.20	-46.154
830.50	-38.095
830.80	-32.143
831.10	30.769
831.40	-14.286
831.70	-5.882
832.00	29.167
832.30	-26.316
832.60	-31.250
832.90	-33.333
833.20	-82.353
833.50	-106.667
833.80	-20.000
834.10	-40.000
834.40	-45.833
834.70	-61.111
835.00	-23.077
835.30	-79.167
835.60	6.897
835.90	-55.556
836.20	-127.273
836.50	-66.667
836.80	11.429
837.10	20.000
837.40	-35.294
837.70	-36.364
838.00	-29.167
838.30	-6.250
838.60	-38.095
838.90	-10.000
839.19	-47.826
839.49	8.696
839.79	-44.444
840.09	-39.130
840.39	-40.909
840.69	-81.250
840.99	-47.368
841.29	-93.750
841.59	-85.714
841.88	-66.667
842.18	-25.000
842.48	-70.588
842.78	-20.690
843.08	21.429
843.38	-7.692
843.68	-100.000
843.97	-46.154
844.27	-81.818
844.57	-20.000
844.87	12.000
845.17	-280.000
845.47	-7.143
845.76	-233.333
846.06	0.000
846.36	-425.000
846.66	-100.000
846.96	-26.316
847.25	-54.167
847.55	-100.000
847.85	13.333
848.15	-110.000
848.44	23.077
848.74	-21.053
849.04	333.333
849.34	-111.111
849.63	-94.737
849.93	0.000
850.23	-80.000
850.53	14.286
850.82	-28.000
851.12	-15.789
851.42	-1000.000
851.71	-121.429
852.01	-141.667
852.31	-70.588
852.61	-26.667
852.90	-28.571
853.20	-333.333
853.50	-116.667
853.79	-15.789
854.09	-33.333
854.39	-42.857
854.68	21.739
854.98	-150.000
855.28	6.897
855.57	-56.250
855.87	5.000
856.17	-146.667
856.46	-10.345
856.76	-126.667
857.05	-76.471
857.35	-161.538
857.65	-54.545
857.94	7.407
858.24	-64.286
858.53	-71.429
858.83	-50.000
859.13	-244.444
859.42	14.286
859.72	-275.000
860.01	-500.000
860.31	-212.500
860.60	-220.000
860.90	-66.667
861.20	-150.000
861.49	-228.571
861.79	-41.176
862.08	-1000.000
862.38	-116.667
862.67	-115.385
862.97	41.176
863.26	-5.000
863.56	-52.941
863.85	633.333
864.15	-110.000
864.44	-76.923
864.74	10.000
865.03	-150.000
865.33	-283.333
865.62	-35.294
865.92	-750.000
866.21	-171.429
866.51	-166.667
866.80	-1200.000
867.10	-500.000
867.39	-5.882
867.69	-21.739
867.98	-257.143
868.27	-380.000
868.57	-131.250
868.86	-163.636
869.16	23.529
869.45	-66.667
869.75	-185.714
870.04	1900.000
870.33	-50.000
870.63	-100.000
870.92	-55.556
871.22	-41.667
871.51	-109.091
871.80	-100.000
872.10	-80.000
>>>>>End Processed Spectral Data<<<<<
