SpectraSuite Data File
++++++++++++++++++++++++++++++++++++
Date: Sat May 16 11:44:39 PDT 2015
User: schluterlab
Dark Spectrum Present: Yes
Reference Spectrum Present: Yes
Number of Sampled Component Spectra: 1
Spectrometers: USB2E3373
Integration Time (usec): 3000 (USB2E3373)
Spectra Averaged: 3 (USB2E3373)
Boxcar Smoothing: 0 (USB2E3373)
Correct for Electrical Dark: No (USB2E3373)
Strobe/Lamp Enabled: No (USB2E3373)
Correct for Detector Non-linearity: No (USB2E3373)
Correct for Stray Light: No (USB2E3373)
Number of Pixels in Processed Spectrum: 2048
>>>>>Begin Processed Spectral Data<<<<<
178.53	0.000
178.91	93.333
179.29	566.667
179.67	-900.000
180.04	-76.923
180.42	1200.000
180.80	275.000
181.18	525.000
181.56	-75.000
181.94	1600.000
182.31	425.000
182.69	-92.308
183.07	-500.000
183.45	1750.000
183.83	533.333
184.20	-114.286
184.58	-62.500
184.96	-575.000
185.34	131.250
185.72	-300.000
186.09	266.667
186.47	-100.000
186.85	-200.000
187.23	-137.500
187.61	-325.000
187.98	-250.000
188.36	-25.000
188.74	-162.500
189.12	1800.000
189.49	357.143
189.87	-141.667
190.25	175.000
190.63	-85.714
191.00	-200.000
191.38	460.000
191.76	-46.667
192.14	580.000
192.51	-240.000
192.89	-100.000
193.27	0.000
193.65	-133.333
194.02	-385.714
194.40	600.000
194.78	-110.000
195.15	-200.000
195.53	-136.364
195.91	-433.333
196.29	280.000
196.66	-733.333
197.04	2300.000
197.42	-75.000
197.79	6.667
198.17	-500.000
198.55	-450.000
198.92	-1500.000
199.30	225.000
199.68	-550.000
200.05	-255.556
200.43	-177.778
200.81	-2000.000
201.18	-125.000
201.56	85.714
201.94	-13.333
202.31	-54.545
202.69	50.000
203.07	-70.000
203.44	233.333
203.82	-283.333
204.19	-350.000
204.57	-525.000
204.95	-1500.000
205.32	-25.000
205.70	2000.000
206.08	-2000.000
206.45	-88.889
206.83	-650.000
207.20	-150.000
207.58	-533.333
207.96	-333.333
208.33	-62.500
208.71	-122.222
209.08	270.000
209.46	-200.000
209.84	950.000
210.21	0.000
210.59	30.000
210.96	1500.000
211.34	-300.000
211.71	-233.333
212.09	275.000
212.46	1500.000
212.84	-1800.000
213.22	300.000
213.59	216.667
213.97	-166.667
214.34	110.000
214.72	-130.000
215.09	-133.333
215.47	-266.667
215.84	-70.000
216.22	-20.000
216.59	-66.667
216.97	-450.000
217.34	850.000
217.72	-114.286
218.09	-133.333
218.47	-285.714
218.84	171.429
219.22	-171.429
219.59	0.000
219.97	300.000
220.34	450.000
220.72	237.500
221.09	-76.923
221.47	0.000
221.84	533.333
222.22	-400.000
222.59	1000.000
222.97	-200.000
223.34	-800.000
223.72	-400.000
224.09	-35.714
224.46	-225.000
224.84	-42.857
225.21	-128.571
225.59	-190.909
225.96	-137.500
226.34	-214.286
226.71	-66.667
227.08	-5.000
227.46	2100.000
227.83	-14.286
228.21	-300.000
228.58	650.000
228.95	-81.250
229.33	-1800.000
229.70	-280.000
230.08	-1050.000
230.45	-33.333
230.82	-166.667
231.20	-900.000
231.57	-400.000
231.95	1900.000
232.32	14.286
232.69	-200.000
233.07	-300.000
233.44	-600.000
233.81	-66.667
234.19	-33.333
234.56	-31.250
234.93	-12.500
235.31	-214.286
235.68	-171.429
236.05	-58.824
236.43	-68.182
236.80	-38.710
237.17	-50.000
237.55	-57.143
237.92	-86.364
238.29	-28.571
238.67	-23.529
239.04	-2.778
239.41	-38.710
239.79	-48.718
240.16	-30.952
240.53	-25.455
240.91	-20.513
241.28	-7.273
241.65	12.308
242.02	-4.918
242.40	-24.590
242.77	4.545
243.14	-1.695
243.51	-10.000
243.89	-12.658
244.26	4.494
244.63	-8.421
245.00	9.474
245.38	-2.542
245.75	11.504
246.12	0.000
246.49	3.937
246.87	2.439
247.24	-6.780
247.61	7.627
247.98	-3.521
248.36	-4.196
248.73	4.430
249.10	-1.911
249.47	6.433
249.84	9.659
250.22	-1.190
250.59	3.390
250.96	6.806
251.33	4.265
251.70	7.212
252.08	3.791
252.45	9.479
252.82	2.857
253.19	6.383
253.56	1.210
253.94	6.751
254.31	3.433
254.68	5.691
255.05	2.419
255.42	8.730
255.79	5.735
256.16	4.706
256.54	6.618
256.91	7.955
257.28	8.425
257.65	7.092
258.02	10.377
258.39	6.020
258.76	6.081
259.14	7.407
259.51	13.770
259.88	5.488
260.25	9.938
260.62	8.039
260.99	7.122
261.36	10.366
261.73	8.960
262.10	10.278
262.47	9.117
262.85	10.286
263.22	6.017
263.59	2.154
263.96	6.087
264.33	7.859
264.70	7.182
265.07	6.868
265.44	9.044
265.81	8.269
266.18	5.063
266.55	6.618
266.92	11.083
267.29	7.990
267.66	6.173
268.03	8.937
268.40	7.277
268.77	7.952
269.14	5.336
269.51	9.425
269.88	3.899
270.25	6.061
270.62	5.492
270.99	6.306
271.36	7.226
271.73	8.072
272.10	5.721
272.47	2.222
272.84	8.444
273.21	6.881
273.58	8.132
273.95	7.018
274.32	6.561
274.69	9.847
275.06	8.384
275.43	7.366
275.80	9.776
276.17	8.159
276.54	9.776
276.91	8.025
277.28	9.331
277.65	7.438
278.02	7.516
278.39	9.234
278.76	9.761
279.13	9.289
279.50	6.561
279.87	6.131
280.23	8.502
280.60	8.549
280.97	5.437
281.34	7.350
281.71	9.231
282.08	7.661
282.45	5.499
282.82	6.783
283.19	7.455
283.56	8.608
283.92	9.894
284.29	6.320
284.66	7.194
285.03	11.230
285.40	10.148
285.77	8.596
286.14	7.401
286.51	8.703
286.87	7.078
287.24	10.068
287.61	8.760
287.98	6.759
288.35	6.612
288.72	8.319
289.08	6.271
289.45	9.428
289.82	6.228
290.19	8.703
290.56	8.099
290.93	8.108
291.29	8.428
291.66	8.052
292.03	10.832
292.40	11.145
292.77	8.075
293.13	7.317
293.50	7.429
293.87	8.742
294.24	9.050
294.60	8.030
294.97	9.712
295.34	8.889
295.71	7.887
296.08	8.141
296.44	6.152
296.81	9.687
297.18	8.451
297.55	8.898
297.91	10.739
298.28	8.630
298.65	7.810
299.02	10.160
299.38	9.225
299.75	8.424
300.12	8.462
300.48	8.568
300.85	7.602
301.22	8.668
301.59	8.453
301.95	10.831
302.32	8.605
302.69	9.302
303.05	9.035
303.42	8.750
303.79	10.167
304.15	9.360
304.52	9.335
304.89	10.508
305.25	8.181
305.62	8.461
305.99	9.776
306.35	9.545
306.72	9.453
307.09	9.308
307.45	9.308
307.82	9.162
308.19	8.501
308.55	9.368
308.92	8.163
309.29	9.189
309.65	9.014
310.02	8.747
310.38	8.541
310.75	9.631
311.12	10.950
311.48	9.290
311.85	10.093
312.22	8.651
312.58	9.664
312.95	8.461
313.31	9.491
313.68	9.648
314.05	10.781
314.41	8.149
314.78	9.391
315.14	9.970
315.51	9.929
315.87	10.358
316.24	10.107
316.61	11.036
316.97	10.348
317.34	9.634
317.70	8.998
318.07	10.728
318.43	9.738
318.80	10.704
319.16	8.443
319.53	8.647
319.89	9.784
320.26	10.882
320.62	8.269
320.99	9.652
321.35	8.670
321.72	10.031
322.08	9.298
322.45	9.406
322.81	11.143
323.18	10.567
323.54	10.074
323.91	10.287
324.27	11.312
324.64	9.141
325.00	10.995
325.37	10.226
325.73	11.374
326.10	9.832
326.46	11.033
326.83	10.894
327.19	11.927
327.56	12.095
327.92	11.895
328.29	12.727
328.65	12.000
329.01	13.339
329.38	11.864
329.74	12.912
330.11	13.055
330.47	12.352
330.84	12.832
331.20	13.538
331.56	13.309
331.93	13.766
332.29	13.425
332.66	13.521
333.02	13.303
333.38	15.502
333.75	13.446
334.11	14.756
334.48	13.945
334.84	15.836
335.20	14.716
335.57	14.170
335.93	16.652
336.29	13.552
336.66	14.361
337.02	15.315
337.38	13.547
337.75	15.277
338.11	14.490
338.47	15.214
338.84	14.973
339.20	15.378
339.56	16.043
339.93	15.785
340.29	14.349
340.65	15.122
341.02	15.261
341.38	15.417
341.74	15.326
342.11	15.358
342.47	15.279
342.83	14.610
343.20	15.884
343.56	15.347
343.92	14.858
344.28	15.728
344.65	14.521
345.01	15.798
345.37	16.030
345.73	15.139
346.10	14.718
346.46	14.785
346.82	15.638
347.19	16.023
347.55	14.687
347.91	15.827
348.27	15.831
348.63	17.044
349.00	16.388
349.36	14.208
349.72	16.322
350.08	15.958
350.45	15.760
350.81	16.162
351.17	15.434
351.53	14.956
351.89	15.602
352.26	16.279
352.62	17.127
352.98	16.218
353.34	17.186
353.70	15.367
354.07	16.837
354.43	17.470
354.79	15.452
355.15	17.093
355.51	16.016
355.87	16.759
356.24	16.283
356.60	18.131
356.96	17.090
357.32	16.627
357.68	16.398
358.04	16.320
358.40	15.623
358.77	17.079
359.13	16.526
359.49	16.402
359.85	16.921
360.21	17.047
360.57	18.148
360.93	17.556
361.29	17.862
361.66	15.930
362.02	15.754
362.38	16.288
362.74	16.996
363.10	17.073
363.46	18.661
363.82	17.638
364.18	18.017
364.54	18.442
364.90	17.261
365.26	17.404
365.62	18.318
365.98	18.350
366.35	17.746
366.71	16.561
367.07	17.572
367.43	18.737
367.79	18.625
368.15	17.354
368.51	17.552
368.87	18.544
369.23	18.807
369.59	18.403
369.95	18.675
370.31	18.847
370.67	18.221
371.03	17.857
371.39	17.963
371.75	19.671
372.11	18.867
372.47	18.800
372.83	19.471
373.19	18.571
373.55	19.916
373.91	19.417
374.27	17.796
374.63	18.841
374.99	19.819
375.35	18.304
375.71	20.999
376.07	18.549
376.42	18.543
376.78	18.693
377.14	20.136
377.50	19.278
377.86	19.636
378.22	18.781
378.58	18.530
378.94	18.496
379.30	19.805
379.66	19.429
380.02	19.548
380.38	20.363
380.74	19.930
381.09	20.621
381.45	20.286
381.81	19.480
382.17	21.241
382.53	19.635
382.89	21.112
383.25	21.192
383.61	20.047
383.97	19.963
384.32	20.463
384.68	21.040
385.04	20.954
385.40	20.998
385.76	21.646
386.12	20.675
386.48	21.906
386.83	21.472
387.19	22.295
387.55	21.866
387.91	21.340
388.27	21.472
388.62	21.514
388.98	21.563
389.34	22.399
389.70	21.985
390.06	21.131
390.42	22.308
390.77	22.082
391.13	21.863
391.49	22.645
391.85	22.444
392.20	22.937
392.56	21.319
392.92	21.734
393.28	22.445
393.64	23.151
393.99	22.585
394.35	23.844
394.71	22.174
395.07	21.971
395.42	22.348
395.78	21.936
396.14	22.928
396.50	22.936
396.85	22.455
397.21	23.026
397.57	22.979
397.92	22.658
398.28	23.389
398.64	23.200
399.00	23.371
399.35	22.943
399.71	23.635
400.07	23.642
400.42	23.662
400.78	23.733
401.14	23.054
401.49	23.703
401.85	23.917
402.21	23.897
402.57	23.726
402.92	24.984
403.28	23.652
403.63	23.487
403.99	24.239
404.35	23.430
404.70	23.347
405.06	24.337
405.42	23.063
405.77	23.020
406.13	23.509
406.49	23.607
406.84	22.855
407.20	24.146
407.55	23.559
407.91	23.705
408.27	24.694
408.62	24.594
408.98	23.833
409.34	24.436
409.69	23.503
410.05	22.923
410.40	24.464
410.76	23.711
411.11	24.190
411.47	23.593
411.83	24.144
412.18	24.381
412.54	23.246
412.89	24.180
413.25	23.259
413.60	22.965
413.96	23.229
414.31	24.648
414.67	23.492
415.03	24.062
415.38	24.073
415.74	24.162
416.09	24.425
416.45	24.339
416.80	23.927
417.16	24.385
417.51	25.607
417.87	23.883
418.22	24.273
418.58	25.802
418.93	23.544
419.29	24.153
419.64	23.304
420.00	24.423
420.35	24.956
420.71	25.270
421.06	24.497
421.42	23.653
421.77	25.126
422.12	23.951
422.48	24.479
422.83	25.285
423.19	24.666
423.54	25.130
423.90	23.655
424.25	23.869
424.61	24.970
424.96	25.571
425.31	24.595
425.67	24.527
426.02	23.924
426.38	25.711
426.73	25.833
427.09	24.877
427.44	24.886
427.79	25.116
428.15	26.092
428.50	25.455
428.85	24.940
429.21	25.125
429.56	24.948
429.92	24.850
430.27	25.324
430.62	24.922
430.98	24.987
431.33	24.653
431.68	25.952
432.04	25.686
432.39	26.211
432.74	25.480
433.10	24.986
433.45	24.467
433.80	25.364
434.16	24.395
434.51	26.466
434.86	25.952
435.22	26.002
435.57	25.949
435.92	24.912
436.28	25.638
436.63	25.551
436.98	25.315
437.34	25.576
437.69	25.613
438.04	25.298
438.39	25.872
438.75	24.272
439.10	25.652
439.45	25.407
439.81	25.602
440.16	26.065
440.51	26.706
440.86	26.142
441.22	25.650
441.57	25.947
441.92	26.036
442.27	25.595
442.63	25.322
442.98	24.887
443.33	25.371
443.68	25.638
444.03	26.768
444.39	26.187
444.74	26.872
445.09	25.548
445.44	26.280
445.79	26.313
446.15	26.835
446.50	25.694
446.85	25.808
447.20	25.945
447.55	26.740
447.91	27.007
448.26	26.983
448.61	26.203
448.96	27.003
449.31	25.479
449.66	26.674
450.02	25.429
450.37	25.971
450.72	26.215
451.07	27.530
451.42	26.208
451.77	26.810
452.12	26.996
452.47	26.196
452.83	26.441
453.18	27.451
453.53	27.052
453.88	27.811
454.23	26.602
454.58	27.470
454.93	26.259
455.28	27.342
455.63	27.457
455.98	28.313
456.34	26.366
456.69	27.142
457.04	26.798
457.39	26.854
457.74	26.403
458.09	27.030
458.44	28.002
458.79	27.018
459.14	27.268
459.49	27.353
459.84	25.913
460.19	26.730
460.54	26.860
460.89	26.962
461.24	26.655
461.59	27.140
461.94	27.753
462.29	28.112
462.64	27.009
462.99	28.849
463.34	26.806
463.69	26.718
464.04	27.709
464.39	27.479
464.74	27.719
465.09	26.819
465.44	27.806
465.79	27.975
466.14	28.654
466.49	27.461
466.84	28.992
467.19	28.117
467.54	27.342
467.89	29.162
468.24	28.444
468.59	28.357
468.94	28.039
469.29	27.940
469.64	27.763
469.99	29.710
470.34	28.457
470.68	28.634
471.03	28.975
471.38	28.889
471.73	29.790
472.08	29.384
472.43	29.151
472.78	28.600
473.13	28.960
473.48	29.355
473.83	29.032
474.17	28.917
474.52	30.115
474.87	28.263
475.22	28.968
475.57	28.833
475.92	28.942
476.27	28.743
476.61	29.127
476.96	29.067
477.31	29.171
477.66	29.552
478.01	30.416
478.36	30.068
478.70	29.632
479.05	29.638
479.40	29.741
479.75	28.848
480.10	29.117
480.45	28.627
480.79	30.355
481.14	30.105
481.49	30.010
481.84	29.820
482.19	30.059
482.53	29.356
482.88	29.805
483.23	30.235
483.58	30.250
483.92	29.193
484.27	29.907
484.62	29.374
484.97	28.644
485.31	28.128
485.66	27.006
486.01	27.188
486.36	28.502
486.70	29.458
487.05	28.679
487.40	28.686
487.75	28.748
488.09	29.030
488.44	29.567
488.79	30.492
489.13	29.973
489.48	30.954
489.83	30.699
490.17	31.084
490.52	29.755
490.87	29.007
491.22	30.873
491.56	29.861
491.91	30.153
492.26	30.425
492.60	30.114
492.95	30.271
493.30	30.586
493.64	30.418
493.99	30.210
494.34	30.857
494.68	30.993
495.03	30.497
495.37	30.236
495.72	30.697
496.07	31.159
496.41	32.098
496.76	30.959
497.11	31.653
497.45	32.136
497.80	31.216
498.14	30.747
498.49	31.040
498.84	30.825
499.18	31.043
499.53	30.248
499.87	31.371
500.22	31.863
500.56	32.066
500.91	31.182
501.26	31.441
501.60	30.621
501.95	32.609
502.29	31.601
502.64	31.165
502.98	31.960
503.33	31.720
503.67	31.801
504.02	31.048
504.36	31.912
504.71	31.358
505.06	31.653
505.40	32.884
505.75	33.232
506.09	32.659
506.44	32.632
506.78	33.317
507.13	32.492
507.47	33.438
507.82	32.679
508.16	32.953
508.51	32.664
508.85	32.402
509.19	33.438
509.54	34.091
509.88	33.936
510.23	33.281
510.57	33.228
510.92	33.781
511.26	33.918
511.61	33.315
511.95	33.728
512.30	33.975
512.64	34.224
512.98	33.938
513.33	34.706
513.67	33.948
514.02	33.893
514.36	34.681
514.70	34.352
515.05	34.991
515.39	34.371
515.74	35.893
516.08	34.582
516.42	34.504
516.77	34.547
517.11	34.783
517.46	35.825
517.80	35.680
518.14	34.722
518.49	34.967
518.83	35.371
519.17	36.234
519.52	35.570
519.86	35.603
520.20	36.247
520.55	35.815
520.89	36.318
521.23	35.409
521.58	35.674
521.92	36.162
522.26	36.508
522.61	35.171
522.95	34.844
523.29	36.238
523.64	36.165
523.98	35.010
524.32	36.392
524.66	35.342
525.01	36.673
525.35	37.178
525.69	36.825
526.04	36.619
526.38	37.492
526.72	36.335
527.06	36.784
527.41	37.162
527.75	36.304
528.09	35.936
528.43	37.377
528.78	35.867
529.12	37.388
529.46	36.469
529.80	37.444
530.15	36.252
530.49	36.028
530.83	37.001
531.17	36.498
531.51	37.910
531.86	36.274
532.20	36.910
532.54	37.166
532.88	37.022
533.22	37.433
533.57	37.663
533.91	35.830
534.25	35.512
534.59	36.352
534.93	36.465
535.27	35.872
535.62	37.084
535.96	36.328
536.30	35.929
536.64	37.185
536.98	37.994
537.32	36.766
537.66	37.407
538.01	36.976
538.35	37.365
538.69	37.032
539.03	36.628
539.37	38.124
539.71	37.091
540.05	37.217
540.39	38.504
540.73	37.802
541.07	37.773
541.42	36.529
541.76	36.013
542.10	37.137
542.44	36.509
542.78	37.178
543.12	37.203
543.46	35.548
543.80	35.050
544.14	36.602
544.48	36.549
544.82	37.145
545.16	37.156
545.50	35.801
545.84	36.857
546.18	36.685
546.52	37.411
546.86	35.969
547.20	36.990
547.54	35.537
547.88	35.965
548.22	35.518
548.56	35.137
548.90	36.321
549.24	37.001
549.58	36.274
549.92	37.314
550.26	37.211
550.60	36.984
550.94	37.445
551.28	36.870
551.62	37.297
551.96	37.554
552.30	37.073
552.64	36.735
552.98	38.052
553.32	36.219
553.66	36.986
554.00	37.669
554.34	35.379
554.68	36.257
555.02	38.205
555.36	36.233
555.69	36.103
556.03	36.140
556.37	36.984
556.71	37.724
557.05	37.916
557.39	36.451
557.73	37.856
558.07	38.508
558.41	37.622
558.75	36.882
559.08	35.331
559.42	37.213
559.76	38.267
560.10	37.584
560.44	37.861
560.78	37.926
561.12	37.267
561.45	37.671
561.79	37.003
562.13	36.676
562.47	36.555
562.81	37.624
563.15	36.809
563.48	37.111
563.82	37.661
564.16	36.714
564.50	36.290
564.84	36.442
565.17	36.936
565.51	37.549
565.85	36.917
566.19	38.274
566.52	35.877
566.86	36.030
567.20	36.985
567.54	35.972
567.88	35.958
568.21	35.515
568.55	34.305
568.89	35.388
569.23	33.225
569.56	33.165
569.90	34.264
570.24	34.235
570.57	32.127
570.91	32.642
571.25	32.685
571.59	32.501
571.92	32.857
572.26	32.295
572.60	32.485
572.93	31.620
573.27	31.433
573.61	31.546
573.95	32.038
574.28	31.693
574.62	31.571
574.96	31.007
575.29	31.225
575.63	31.802
575.97	31.257
576.30	32.091
576.64	31.097
576.98	31.202
577.31	31.514
577.65	31.380
577.98	30.600
578.32	31.088
578.66	30.842
578.99	30.666
579.33	31.500
579.67	30.713
580.00	31.225
580.34	30.993
580.67	31.307
581.01	30.644
581.35	30.717
581.68	30.115
582.02	31.247
582.35	30.670
582.69	30.952
583.02	31.631
583.36	30.934
583.70	31.132
584.03	31.923
584.37	31.448
584.70	31.536
585.04	30.962
585.37	30.573
585.71	31.060
586.04	31.662
586.38	31.195
586.72	31.144
587.05	32.116
587.39	31.248
587.72	31.590
588.06	31.499
588.39	31.586
588.73	31.804
589.06	32.225
589.40	32.600
589.73	32.507
590.07	32.993
590.40	32.841
590.73	32.747
591.07	32.910
591.40	32.756
591.74	33.058
592.07	32.973
592.41	32.824
592.74	32.706
593.08	31.960
593.41	31.513
593.75	31.454
594.08	32.890
594.41	32.532
594.75	32.125
595.08	32.368
595.42	32.298
595.75	31.643
596.09	32.208
596.42	32.774
596.75	33.506
597.09	33.170
597.42	32.649
597.75	32.950
598.09	32.851
598.42	32.788
598.76	31.603
599.09	31.650
599.42	31.565
599.76	31.446
600.09	32.099
600.42	31.941
600.76	32.429
601.09	31.333
601.42	31.777
601.76	32.087
602.09	31.534
602.42	32.510
602.76	31.990
603.09	32.258
603.42	32.957
603.76	32.270
604.09	32.359
604.42	32.182
604.76	32.403
605.09	32.640
605.42	32.225
605.75	32.255
606.09	32.420
606.42	31.378
606.75	32.374
607.09	32.819
607.42	31.426
607.75	32.627
608.08	32.942
608.42	32.734
608.75	30.981
609.08	32.440
609.41	32.636
609.75	32.911
610.08	32.892
610.41	32.530
610.74	33.027
611.07	32.252
611.41	33.838
611.74	32.494
612.07	34.318
612.40	33.742
612.73	33.172
613.07	32.031
613.40	33.552
613.73	33.079
614.06	33.773
614.39	33.653
614.72	32.961
615.06	32.174
615.39	31.850
615.72	32.319
616.05	33.462
616.38	34.359
616.71	33.273
617.05	33.474
617.38	33.003
617.71	33.538
618.04	33.602
618.37	33.711
618.70	34.746
619.03	34.259
619.36	34.672
619.69	34.602
620.03	33.264
620.36	34.459
620.69	35.248
621.02	34.779
621.35	35.484
621.68	35.574
622.01	36.327
622.34	35.559
622.67	34.688
623.00	36.266
623.33	34.552
623.66	34.490
623.99	35.188
624.32	36.086
624.65	34.879
624.99	34.951
625.32	34.656
625.65	35.587
625.98	34.194
626.31	36.460
626.64	35.649
626.97	35.959
627.30	35.064
627.63	34.629
627.96	36.641
628.29	37.776
628.62	37.822
628.95	38.287
629.28	37.782
629.61	37.684
629.94	36.200
630.26	36.779
630.59	37.889
630.92	37.437
631.25	36.996
631.58	36.614
631.91	35.000
632.24	38.556
632.57	37.111
632.90	38.046
633.23	38.785
633.56	38.129
633.89	38.679
634.22	39.079
634.55	39.303
634.88	37.969
635.20	38.452
635.53	37.913
635.86	38.035
636.19	37.851
636.52	37.754
636.85	38.387
637.18	35.000
637.51	39.529
637.83	38.482
638.16	37.368
638.49	37.241
638.82	38.095
639.15	40.597
639.48	37.613
639.81	38.589
640.13	37.162
640.46	39.031
640.79	40.336
641.12	38.505
641.45	39.024
641.77	38.323
642.10	38.520
642.43	41.123
642.76	38.425
643.09	39.048
643.41	40.317
643.74	40.223
644.07	41.654
644.40	38.574
644.73	39.439
645.05	38.731
645.38	40.728
645.71	41.237
646.04	40.840
646.36	38.918
646.69	39.965
647.02	41.155
647.35	41.877
647.67	40.328
648.00	40.773
648.33	41.147
648.66	37.097
648.98	39.172
649.31	37.538
649.64	39.844
649.96	38.776
650.29	37.377
650.62	39.759
650.94	39.966
651.27	39.861
651.60	38.927
651.92	41.952
652.25	38.564
652.58	38.671
652.90	39.165
653.23	39.516
653.56	36.957
653.88	38.689
654.21	37.919
654.54	38.870
654.86	38.684
655.19	33.668
655.52	31.217
655.84	28.258
656.17	30.303
656.49	40.796
656.82	43.032
657.15	32.829
657.47	24.347
657.80	18.589
658.13	21.615
658.45	29.329
658.78	29.291
659.10	29.963
659.43	30.190
659.75	31.314
660.08	31.667
660.41	32.432
660.73	32.673
661.06	37.246
661.38	40.357
661.71	40.153
662.03	40.121
662.36	42.644
662.68	38.397
663.01	43.737
663.33	41.043
663.66	40.773
663.98	39.509
664.31	39.821
664.63	43.142
664.96	39.479
665.28	40.130
665.61	39.958
665.93	39.095
666.26	39.069
666.58	40.541
666.91	40.980
667.23	39.693
667.56	42.404
667.88	43.213
668.21	40.783
668.53	38.785
668.86	40.878
669.18	42.922
669.50	42.056
669.83	40.876
670.15	39.686
670.48	39.019
670.80	38.497
671.13	38.826
671.45	37.613
671.77	41.113
672.10	37.475
672.42	38.192
672.75	39.455
673.07	35.676
673.39	37.341
673.72	40.551
674.04	38.217
674.37	37.113
674.69	37.705
675.01	36.170
675.34	36.443
675.66	39.309
675.98	40.308
676.31	41.403
676.63	41.609
676.95	35.841
677.28	37.587
677.60	39.367
677.92	42.952
678.25	38.512
678.57	40.741
678.89	37.317
679.22	39.203
679.54	39.250
679.86	35.200
680.18	38.593
680.51	36.499
680.83	38.095
681.15	37.765
681.48	38.540
681.80	37.903
682.12	36.217
682.44	36.739
682.77	37.229
683.09	39.623
683.41	38.938
683.73	34.932
684.06	36.559
684.38	36.192
684.70	38.272
685.02	37.205
685.34	38.791
685.67	32.765
685.99	32.514
686.31	37.343
686.63	36.170
686.96	34.750
687.28	36.802
687.60	37.109
687.92	35.603
688.24	38.189
688.56	35.471
688.89	33.547
689.21	38.074
689.53	40.460
689.85	38.307
690.17	37.892
690.49	36.490
690.82	40.241
691.14	38.679
691.46	37.694
691.78	36.564
692.10	36.864
692.42	35.333
692.74	36.695
693.06	34.831
693.39	38.255
693.71	36.343
694.03	36.717
694.35	34.763
694.67	35.225
694.99	36.317
695.31	39.796
695.63	39.541
695.95	38.710
696.27	35.162
696.59	36.898
696.91	39.045
697.23	37.240
697.56	37.500
697.88	36.036
698.20	34.261
698.52	34.081
698.84	38.107
699.16	34.524
699.48	36.750
699.80	36.591
700.12	39.043
700.44	37.151
700.76	39.359
701.08	38.663
701.40	35.952
701.72	37.963
702.04	39.744
702.36	38.855
702.68	34.731
703.00	36.522
703.32	34.670
703.64	39.118
703.96	41.279
704.28	36.982
704.60	35.759
704.91	35.556
705.23	37.864
705.55	36.486
705.87	41.297
706.19	35.069
706.51	37.153
706.83	38.033
707.15	37.580
707.47	40.220
707.79	32.990
708.11	31.298
708.43	35.411
708.74	33.766
709.06	36.212
709.38	33.908
709.70	37.500
710.02	37.730
710.34	36.634
710.66	35.873
710.98	36.593
711.29	34.194
711.61	34.505
711.93	36.066
712.25	35.548
712.57	36.934
712.89	35.252
713.20	37.801
713.52	38.433
713.84	35.587
714.16	36.393
714.48	36.825
714.80	34.154
715.11	36.888
715.43	38.554
715.75	36.760
716.07	34.426
716.39	37.793
716.70	38.328
717.02	35.556
717.34	36.260
717.66	42.739
717.97	41.393
718.29	37.395
718.61	37.302
718.93	40.860
719.24	34.926
719.56	30.566
719.88	34.545
720.20	36.330
720.51	39.098
720.83	32.129
721.15	33.197
721.46	37.647
721.78	32.950
722.10	33.600
722.42	38.430
722.73	35.060
723.05	35.743
723.37	36.471
723.68	35.223
724.00	38.618
724.32	38.272
724.63	31.120
724.95	32.645
725.27	32.895
725.58	35.345
725.90	31.746
726.22	38.745
726.53	33.840
726.85	30.588
727.16	34.586
727.48	31.538
727.80	29.508
728.11	30.672
728.43	39.669
728.74	34.375
729.06	35.606
729.38	31.907
729.69	35.433
730.01	37.402
730.32	34.661
730.64	37.729
730.96	36.567
731.27	32.500
731.59	34.727
731.90	32.515
732.22	33.129
732.53	36.093
732.85	31.879
733.16	36.232
733.48	32.404
733.80	32.028
734.11	37.931
734.43	30.952
734.74	36.202
735.06	35.737
735.37	34.862
735.69	29.677
736.00	30.976
736.32	28.146
736.63	32.069
736.95	30.797
737.26	35.430
737.58	31.295
737.89	37.634
738.21	27.820
738.52	31.154
738.83	34.766
739.15	33.333
739.46	38.710
739.78	32.168
740.09	31.119
740.41	30.420
740.72	34.307
741.04	32.540
741.35	32.035
741.66	36.574
741.98	30.952
742.29	33.803
742.61	32.620
742.92	39.720
743.23	32.895
743.55	31.081
743.86	41.333
744.18	30.000
744.49	39.901
744.80	36.041
745.12	35.052
745.43	33.668
745.74	37.379
746.06	36.585
746.37	31.278
746.68	34.328
747.00	37.173
747.31	34.615
747.62	35.945
747.94	29.694
748.25	35.814
748.56	31.905
748.88	30.978
749.19	33.803
749.50	38.235
749.82	29.333
750.13	40.969
750.44	33.740
750.75	32.400
751.07	33.571
751.38	32.103
751.69	28.626
752.01	33.077
752.32	29.572
752.63	33.846
752.94	33.730
753.26	34.783
753.57	39.286
753.88	33.190
754.19	30.290
754.51	31.641
754.82	33.202
755.13	28.395
755.44	35.124
755.75	34.568
756.07	31.727
756.38	31.250
756.69	33.574
757.00	28.571
757.31	33.221
757.63	37.072
757.94	31.214
758.25	31.395
758.56	33.154
758.87	29.545
759.18	32.667
759.50	35.943
759.81	32.482
760.12	30.743
760.43	31.715
760.74	31.250
761.05	30.056
761.36	28.743
761.67	30.769
761.99	30.323
762.30	32.609
762.61	30.189
762.92	32.287
763.23	32.701
763.54	32.889
763.85	32.911
764.16	28.980
764.47	33.475
764.78	34.831
765.10	34.173
765.41	29.677
765.72	32.704
766.03	24.735
766.34	31.203
766.65	29.555
766.96	35.000
767.27	30.729
767.58	36.047
767.89	38.710
768.20	34.356
768.51	31.148
768.82	30.270
769.13	30.500
769.44	32.895
769.75	29.004
770.06	30.734
770.37	33.803
770.68	27.083
770.99	33.663
771.30	31.553
771.61	28.241
771.92	26.840
772.23	31.308
772.54	31.915
772.85	34.911
773.16	31.098
773.47	38.554
773.78	41.758
774.09	34.667
774.39	30.247
774.70	28.859
775.01	28.986
775.32	29.851
775.63	24.793
775.94	33.083
776.25	37.143
776.56	44.262
776.87	42.478
777.18	37.168
777.48	33.636
777.79	20.870
778.10	30.275
778.41	21.186
778.72	31.405
779.03	35.075
779.34	39.098
779.65	30.065
779.95	34.783
780.26	25.850
780.57	16.379
780.88	32.407
781.19	16.162
781.50	28.000
781.80	25.490
782.11	26.923
782.42	30.723
782.73	26.277
783.04	30.405
783.34	28.788
783.65	23.256
783.96	30.894
784.27	38.462
784.57	38.211
784.88	21.138
785.19	32.456
785.50	14.433
785.81	20.952
786.11	29.412
786.42	23.636
786.73	34.234
787.04	30.693
787.34	20.952
787.65	17.143
787.96	17.647
788.26	27.027
788.57	32.258
788.88	25.000
789.19	23.932
789.49	26.891
789.80	33.333
790.11	30.973
790.41	33.333
790.72	32.075
791.03	23.611
791.33	17.105
791.64	22.581
791.95	37.333
792.25	21.429
792.56	29.268
792.87	26.531
793.17	21.053
793.48	4.054
793.79	18.310
794.09	22.785
794.40	19.149
794.70	29.907
795.01	19.298
795.32	23.636
795.62	28.571
795.93	18.557
796.23	32.967
796.54	33.684
796.85	15.068
797.15	12.500
797.46	27.397
797.76	22.535
798.07	27.500
798.37	29.412
798.68	22.857
798.99	27.143
799.29	21.053
799.60	20.000
799.90	20.833
800.21	14.063
800.51	15.873
800.82	24.590
801.12	-7.018
801.43	25.352
801.73	20.339
802.04	13.115
802.34	18.182
802.65	15.385
802.95	20.370
803.26	15.000
803.56	36.538
803.87	-23.684
804.17	29.032
804.48	30.769
804.78	7.692
805.09	16.279
805.39	-28.125
805.70	18.868
806.00	52.632
806.30	37.838
806.61	26.471
806.91	28.395
807.22	26.667
807.52	26.866
807.83	8.065
808.13	19.048
808.43	0.000
808.74	22.727
809.04	9.434
809.35	21.918
809.65	38.596
809.95	29.412
810.26	27.451
810.56	8.000
810.86	16.327
811.17	17.143
811.47	17.308
811.77	-12.903
812.08	-15.789
812.38	38.095
812.69	10.870
812.99	3.226
813.29	-7.143
813.59	-40.741
813.90	0.000
814.20	9.302
814.50	14.583
814.81	15.000
815.11	0.000
815.41	-16.667
815.72	34.286
816.02	-16.667
816.32	35.897
816.62	-16.216
816.93	-11.765
817.23	32.609
817.53	11.765
817.84	2.941
818.14	-28.125
818.44	-6.897
818.74	-9.677
819.04	7.407
819.35	6.667
819.65	4.000
819.95	13.333
820.25	32.000
820.56	2.632
820.86	7.500
821.16	10.638
821.46	0.000
821.76	0.000
822.07	-50.000
822.37	-6.977
822.67	13.333
822.97	16.216
823.27	10.811
823.57	12.000
823.88	5.405
824.18	-23.810
824.48	-3.846
824.78	-92.308
825.08	17.391
825.38	-12.500
825.69	-4.167
825.99	-60.000
826.29	8.108
826.59	2.941
826.89	36.000
827.19	-5.714
827.49	-28.947
827.79	-15.625
828.09	-10.000
828.39	26.087
828.70	-51.724
829.00	10.345
829.30	16.667
829.60	31.250
829.90	22.222
830.20	-3.846
830.50	-52.381
830.80	-35.714
831.10	15.385
831.40	9.524
831.70	35.294
832.00	-25.000
832.30	-36.842
832.60	-37.500
832.90	-75.000
833.20	-52.941
833.50	-53.333
833.80	-33.333
834.10	-5.000
834.40	-16.667
834.70	-38.889
835.00	3.846
835.30	-62.500
835.60	27.586
835.90	-66.667
836.20	-45.455
836.50	-83.333
836.80	22.857
837.10	11.429
837.40	29.412
837.70	-36.364
838.00	8.333
838.30	-12.500
838.60	4.762
838.90	45.000
839.19	-30.435
839.49	-13.043
839.79	-27.778
840.09	-26.087
840.39	4.545
840.69	-50.000
840.99	-21.053
841.29	-62.500
841.59	-107.143
841.88	-66.667
842.18	-8.333
842.48	-70.588
842.78	24.138
843.08	-64.286
843.38	-123.077
843.68	-222.222
843.97	-53.846
844.27	-172.727
844.57	-180.000
844.87	24.000
845.17	-160.000
845.47	-35.714
845.76	-155.556
846.06	0.000
846.36	-300.000
846.66	-180.000
846.96	-63.158
847.25	-12.500
847.55	-66.667
847.85	26.667
848.15	-190.000
848.44	38.462
848.74	-26.316
849.04	300.000
849.34	-11.111
849.63	-36.842
849.93	0.000
850.23	-55.000
850.53	0.000
850.82	-8.000
851.12	21.053
851.42	-750.000
851.71	0.000
852.01	-66.667
852.31	-5.882
852.61	-13.333
852.90	-61.905
853.20	-283.333
853.50	-55.556
853.79	-15.789
854.09	-46.667
854.39	0.000
854.68	-39.130
854.98	-200.000
855.28	3.448
855.57	-56.250
855.87	-10.000
856.17	13.333
856.46	-3.448
856.76	-13.333
857.05	-35.294
857.35	-161.538
857.65	-45.455
857.94	-3.704
858.24	-150.000
858.53	-121.429
858.83	-25.000
859.13	-122.222
859.42	57.143
859.72	-87.500
860.01	-800.000
860.31	-175.000
860.60	-520.000
860.90	-166.667
861.20	-275.000
861.49	-100.000
861.79	-82.353
862.08	-450.000
862.38	-200.000
862.67	-46.154
862.97	-23.529
863.26	25.000
863.56	-88.235
863.85	400.000
864.15	-160.000
864.44	-92.308
864.74	10.000
865.03	-237.500
865.33	-333.333
865.62	-58.824
865.92	-475.000
866.21	-150.000
866.51	-100.000
866.80	-2100.000
867.10	-500.000
867.39	-5.882
867.69	34.783
867.98	28.571
868.27	-340.000
868.57	-81.250
868.86	-163.636
869.16	5.882
869.45	-233.333
869.75	-128.571
870.04	1600.000
870.33	-116.667
870.63	-80.000
870.92	-166.667
871.22	-33.333
871.51	-63.636
871.80	-8.333
872.10	30.000
>>>>>End Processed Spectral Data<<<<<
