SpectraSuite Data File
++++++++++++++++++++++++++++++++++++
Date: Sat May 16 11:39:59 PDT 2015
User: schluterlab
Dark Spectrum Present: Yes
Reference Spectrum Present: Yes
Number of Sampled Component Spectra: 1
Spectrometers: USB2E3373
Integration Time (usec): 3000 (USB2E3373)
Spectra Averaged: 3 (USB2E3373)
Boxcar Smoothing: 0 (USB2E3373)
Correct for Electrical Dark: No (USB2E3373)
Strobe/Lamp Enabled: No (USB2E3373)
Correct for Detector Non-linearity: No (USB2E3373)
Correct for Stray Light: No (USB2E3373)
Number of Pixels in Processed Spectrum: 2048
>>>>>Begin Processed Spectral Data<<<<<
178.53	0.000
178.91	153.333
179.29	566.667
179.67	-800.000
180.04	-138.462
180.42	900.000
180.80	400.000
181.18	550.000
181.56	-125.000
181.94	2100.000
182.31	400.000
182.69	-107.692
183.07	-966.667
183.45	1500.000
183.83	566.667
184.20	-285.714
184.58	-112.500
184.96	-150.000
185.34	125.000
185.72	-625.000
186.09	366.667
186.47	-225.000
186.85	-250.000
187.23	-87.500
187.61	-175.000
187.98	-387.500
188.36	-112.500
188.74	-200.000
189.12	1700.000
189.49	200.000
189.87	-58.333
190.25	550.000
190.63	-71.429
191.00	-188.889
191.38	340.000
191.76	-26.667
192.14	560.000
192.51	-220.000
192.89	-300.000
193.27	0.000
193.65	-133.333
194.02	-171.429
194.40	400.000
194.78	-130.000
195.15	-1500.000
195.53	-154.545
195.91	-333.333
196.29	60.000
196.66	-600.000
197.04	1700.000
197.42	-200.000
197.79	-6.667
198.17	-433.333
198.55	-700.000
198.92	-1500.000
199.30	250.000
199.68	-700.000
200.05	-88.889
200.43	-255.556
200.81	-1200.000
201.18	-25.000
201.56	200.000
201.94	-26.667
202.31	22.727
202.69	-60.000
203.07	-120.000
203.44	733.333
203.82	-383.333
204.19	-350.000
204.57	-250.000
204.95	-1400.000
205.32	-50.000
205.70	1500.000
206.08	-2200.000
206.45	-50.000
206.83	-1000.000
207.20	-50.000
207.58	-666.667
207.96	-400.000
208.33	-175.000
208.71	-88.889
209.08	160.000
209.46	-228.571
209.84	1000.000
210.21	0.000
210.59	30.000
210.96	1300.000
211.34	-300.000
211.71	-266.667
212.09	500.000
212.46	1050.000
212.84	-1600.000
213.22	500.000
213.59	100.000
213.97	-22.222
214.34	140.000
214.72	-60.000
215.09	-400.000
215.47	-166.667
215.84	-190.000
216.22	-90.000
216.59	-46.667
216.97	-375.000
217.34	1100.000
217.72	-214.286
218.09	-283.333
218.47	-271.429
218.84	271.429
219.22	-228.571
219.59	0.000
219.97	171.429
220.34	675.000
220.72	137.500
221.09	-92.308
221.47	0.000
221.84	466.667
222.22	-600.000
222.59	800.000
222.97	-212.500
223.34	-750.000
223.72	-300.000
224.09	-35.714
224.46	-450.000
224.84	-64.286
225.21	-200.000
225.59	-90.909
225.96	-212.500
226.34	-185.714
226.71	-177.778
227.08	-25.000
227.46	2200.000
227.83	-57.143
228.21	-250.000
228.58	650.000
228.95	-12.500
229.33	-900.000
229.70	-200.000
230.08	-900.000
230.45	-108.333
230.82	-150.000
231.20	-1200.000
231.57	-650.000
231.95	2000.000
232.32	0.000
232.69	-188.889
233.07	-171.429
233.44	-800.000
233.81	-120.000
234.19	-22.222
234.56	-31.250
234.93	-3.125
235.31	-257.143
235.68	-78.571
236.05	-105.882
236.43	-54.545
236.80	-12.903
237.17	-70.833
237.55	-52.381
237.92	-104.545
238.29	-60.000
238.67	-44.118
239.04	-27.778
239.41	-38.710
239.79	-64.103
240.16	-52.381
240.53	-27.273
240.91	-28.205
241.28	-14.545
241.65	0.000
242.02	-19.672
242.40	-18.033
242.77	-31.818
243.14	-30.508
243.51	-27.143
243.89	-13.924
244.26	-12.360
244.63	-6.316
245.00	-18.947
245.38	-7.627
245.75	-2.655
246.12	-4.800
246.49	-13.386
246.87	-13.008
247.24	-11.864
247.61	-21.186
247.98	-14.789
248.36	-13.287
248.73	-4.430
249.10	-14.650
249.47	-5.848
249.84	-2.841
250.22	-16.667
250.59	-1.695
250.96	-4.188
251.33	-3.318
251.70	-4.808
252.08	-7.109
252.45	-7.583
252.82	-6.190
253.19	-4.681
253.56	-9.274
253.94	-6.751
254.31	-5.579
254.68	-2.846
255.05	-4.839
255.42	-3.175
255.79	-4.301
256.16	-5.490
256.54	-0.735
256.91	-3.788
257.28	-12.821
257.65	-3.546
258.02	3.774
258.39	-3.010
258.76	-6.081
259.14	-8.025
259.51	-3.607
259.88	-2.744
260.25	-4.037
260.62	-5.145
260.99	-3.858
261.36	-4.878
261.73	-1.156
262.10	-0.556
262.47	-6.838
262.85	-0.571
263.22	-4.585
263.59	-8.000
263.96	-3.478
264.33	-2.168
264.70	-1.934
265.07	-3.571
265.44	-5.168
265.81	-3.359
266.18	-4.810
266.55	-2.451
266.92	-1.008
267.29	-2.663
267.66	-2.222
268.03	0.000
268.40	-1.408
268.77	-3.133
269.14	-2.552
269.51	-1.839
269.88	-4.128
270.25	-4.662
270.62	-4.348
270.99	-2.928
271.36	-0.699
271.73	-3.812
272.10	-3.204
272.47	-4.444
272.84	0.667
273.21	-3.211
273.58	-2.418
273.95	-3.947
274.32	-2.715
274.69	-1.751
275.06	-0.204
275.43	-2.455
275.80	0.815
276.17	-1.464
276.54	-0.611
276.91	-3.909
277.28	-1.014
277.65	-3.099
278.02	-2.505
278.39	-1.572
278.76	-1.992
279.13	-2.569
279.50	-2.386
279.87	-3.594
280.23	-1.619
280.60	-1.392
280.97	-4.660
281.34	-3.482
281.71	-1.538
282.08	-3.629
282.45	-5.092
282.82	-1.357
283.19	-2.909
283.56	0.000
283.92	0.353
284.29	-3.717
284.66	-1.439
285.03	-1.248
285.40	-1.661
285.77	-1.053
286.14	-1.986
286.51	-3.020
286.87	-1.633
287.24	-1.024
287.61	-0.496
287.98	-3.293
288.35	-3.471
288.72	-1.868
289.08	-4.407
289.45	-2.862
289.82	-3.979
290.19	-0.821
290.56	-4.132
290.93	-2.544
291.29	-3.241
291.66	-1.771
292.03	-0.471
292.40	-1.506
292.77	-1.863
293.13	-1.301
293.50	-0.743
293.87	-1.227
294.24	-0.151
294.60	-3.030
294.97	-0.607
295.34	-3.111
295.71	-0.744
296.08	-3.226
296.44	-3.004
296.81	-0.570
297.18	-2.394
297.55	-0.424
297.91	0.418
298.28	-1.096
298.65	-2.092
299.02	0.401
299.38	-2.005
299.75	-0.815
300.12	-0.641
300.48	-0.895
300.85	-1.311
301.22	-1.035
301.59	-1.170
301.95	0.504
302.32	-2.868
302.69	-0.734
303.05	-1.465
303.42	-1.750
303.79	-0.239
304.15	-0.948
304.52	-1.167
304.89	-0.472
305.25	-2.076
305.62	-1.175
305.99	-0.236
306.35	0.333
306.72	-2.392
307.09	0.454
307.45	-1.476
307.82	-2.235
308.19	-0.447
308.55	-0.545
308.92	-2.148
309.29	-0.865
309.65	0.000
310.02	-0.648
310.38	-0.432
310.75	-0.512
311.12	-0.723
311.48	0.418
311.85	0.721
312.22	-0.927
312.58	0.407
312.95	-0.612
313.31	-0.300
313.68	0.704
314.05	0.396
314.41	-0.704
314.78	-1.598
315.14	0.790
315.51	0.912
315.87	1.162
316.24	0.680
316.61	0.480
316.97	-0.199
317.34	0.578
317.70	0.649
318.07	1.119
318.43	1.124
318.80	1.315
319.16	0.375
319.53	1.222
319.89	0.564
320.26	0.588
320.62	1.058
320.99	1.493
321.35	-0.099
321.72	0.205
322.08	1.682
322.45	1.386
322.81	2.017
323.18	1.921
323.54	2.957
323.91	3.336
324.27	2.567
324.64	2.651
325.00	4.276
325.37	4.434
325.73	5.249
326.10	4.074
326.46	5.517
326.83	5.447
327.19	5.505
327.56	7.155
327.92	6.372
328.29	6.234
328.65	5.636
329.01	7.597
329.38	8.296
329.74	8.516
330.11	7.888
330.47	8.629
330.84	9.624
331.20	10.921
331.56	9.936
331.93	10.924
332.29	10.959
332.66	11.501
333.02	11.131
333.38	11.380
333.75	11.932
334.11	11.556
334.48	11.121
334.84	13.386
335.20	12.766
335.57	11.191
335.93	13.608
336.29	11.692
336.66	11.101
337.02	13.153
337.38	11.854
337.75	11.853
338.11	12.433
338.47	12.456
338.84	12.250
339.20	12.214
339.56	13.993
339.93	12.522
340.29	12.223
340.65	11.801
341.02	12.732
341.38	13.395
341.74	12.701
342.11	12.287
342.47	12.618
342.83	12.510
343.20	12.810
343.56	12.571
343.92	13.189
344.28	14.886
344.65	12.129
345.01	12.941
345.37	13.206
345.73	11.784
346.10	11.529
346.46	12.185
346.82	12.430
347.19	12.654
347.55	11.717
347.91	12.913
348.27	11.615
348.63	13.893
349.00	12.729
349.36	12.412
349.72	13.455
350.08	13.232
350.45	13.475
350.81	12.818
351.17	12.621
351.53	11.933
351.89	12.288
352.26	13.101
352.62	14.363
352.98	13.133
353.34	12.710
353.70	12.664
354.07	13.218
354.43	12.806
354.79	12.758
355.15	12.380
355.51	13.125
355.87	12.885
356.24	12.470
356.60	13.296
356.96	13.087
357.32	12.906
357.68	13.027
358.04	13.626
358.40	13.070
358.77	13.679
359.13	12.930
359.49	12.925
359.85	12.805
360.21	13.394
360.57	13.705
360.93	13.481
361.29	14.350
361.66	12.500
362.02	13.092
362.38	13.280
362.74	13.407
363.10	13.128
363.46	14.316
363.82	13.921
364.18	14.327
364.54	15.368
364.90	13.347
365.26	13.053
365.62	14.113
365.98	14.580
366.35	13.592
366.71	13.672
367.07	14.044
367.43	15.100
367.79	15.739
368.15	13.656
368.51	14.126
368.87	14.423
369.23	14.035
369.59	14.931
369.95	15.011
370.31	14.909
370.67	14.172
371.03	14.359
371.39	14.215
371.75	14.521
372.11	15.208
372.47	14.606
372.83	14.812
373.19	14.786
373.55	16.045
373.91	15.718
374.27	14.921
374.63	15.183
374.99	15.577
375.35	15.814
375.71	16.205
376.07	15.264
376.42	15.099
376.78	16.275
377.14	15.525
377.50	16.248
377.86	16.385
378.22	16.960
378.58	16.430
378.94	15.105
379.30	17.063
379.66	17.001
380.02	16.162
380.38	16.495
380.74	16.823
381.09	17.282
381.45	17.064
381.81	16.394
382.17	16.667
382.53	16.413
382.89	17.404
383.25	16.737
383.61	17.158
383.97	17.759
384.32	17.209
384.68	18.803
385.04	17.633
385.40	18.442
385.76	18.171
386.12	17.739
386.48	18.131
386.83	18.405
387.19	18.470
387.55	17.626
387.91	18.494
388.27	17.250
388.62	17.969
388.98	18.353
389.34	18.299
389.70	18.331
390.06	18.272
390.42	18.846
390.77	17.539
391.13	18.758
391.49	17.842
391.85	18.017
392.20	18.325
392.56	17.593
392.92	18.254
393.28	19.059
393.64	18.461
393.99	18.831
394.35	19.221
394.71	18.530
395.07	19.460
395.42	17.640
395.78	17.976
396.14	19.128
396.50	19.144
396.85	18.816
397.21	18.955
397.57	19.027
397.92	18.618
398.28	18.833
398.64	18.977
399.00	18.989
399.35	18.433
399.71	19.396
400.07	19.164
400.42	19.465
400.78	18.843
401.14	18.263
401.49	18.219
401.85	18.670
402.21	18.892
402.57	18.932
402.92	18.565
403.28	18.199
403.63	18.274
403.99	17.899
404.35	18.176
404.70	18.490
405.06	18.570
405.42	18.204
405.77	18.156
406.13	18.853
406.49	18.274
406.84	18.896
407.20	18.610
407.55	18.746
407.91	17.940
408.27	18.689
408.62	18.160
408.98	17.890
409.34	18.342
409.69	18.399
410.05	17.708
410.40	19.252
410.76	18.317
411.11	18.454
411.47	18.606
411.83	18.521
412.18	18.007
412.54	17.877
412.89	17.315
413.25	17.532
413.60	17.436
413.96	17.437
414.31	18.287
414.67	17.841
415.03	18.758
415.38	17.827
415.74	18.621
416.09	17.967
416.45	16.733
416.80	18.596
417.16	17.209
417.51	18.188
417.87	17.152
418.22	19.216
418.58	18.293
418.93	18.087
419.29	18.695
419.64	17.776
420.00	19.259
420.35	18.569
420.71	18.667
421.06	18.580
421.42	17.799
421.77	18.872
422.12	19.306
422.48	18.332
422.83	18.793
423.19	18.318
423.54	19.366
423.90	18.508
424.25	18.552
424.61	19.542
424.96	19.134
425.31	18.278
425.67	19.198
426.02	18.474
426.38	18.996
426.73	19.813
427.09	19.363
427.44	20.000
427.79	18.837
428.15	18.911
428.50	19.120
428.85	19.544
429.21	18.816
429.56	18.854
429.92	19.238
430.27	18.943
430.62	19.645
430.98	19.498
431.33	19.264
431.68	19.732
432.04	20.257
432.39	19.658
432.74	19.484
433.10	20.146
433.45	19.171
433.80	19.933
434.16	20.204
434.51	20.164
434.86	20.387
435.22	20.657
435.57	19.890
435.92	20.106
436.28	20.356
436.63	20.464
436.98	19.588
437.34	20.083
437.69	21.237
438.04	20.817
438.39	19.675
438.75	21.013
439.10	21.099
439.45	19.855
439.81	20.301
440.16	21.011
440.51	21.235
440.86	20.243
441.22	19.569
441.57	20.632
441.92	21.074
442.27	20.455
442.63	21.191
442.98	20.824
443.33	21.417
443.68	20.427
444.03	20.580
444.39	20.509
444.74	21.090
445.09	20.998
445.44	20.315
445.79	20.806
446.15	21.139
446.50	20.305
446.85	21.088
447.20	20.684
447.55	21.823
447.91	21.336
448.26	21.508
448.61	20.091
448.96	21.401
449.31	20.519
449.66	22.038
450.02	20.443
450.37	21.101
450.72	20.791
451.07	20.930
451.42	20.260
451.77	21.125
452.12	21.990
452.47	21.537
452.83	20.384
453.18	21.126
453.53	21.393
453.88	22.010
454.23	20.254
454.58	22.312
454.93	21.411
455.28	20.841
455.63	21.683
455.98	20.843
456.34	21.029
456.69	21.576
457.04	22.188
457.39	21.112
457.74	21.677
458.09	21.288
458.44	22.460
458.79	22.141
459.14	22.133
459.49	21.788
459.84	21.360
460.19	22.315
460.54	21.113
460.89	20.740
461.24	21.494
461.59	22.274
461.94	22.151
462.29	21.799
462.64	22.332
462.99	21.821
463.34	21.134
463.69	21.183
464.04	21.558
464.39	21.565
464.74	22.636
465.09	21.407
465.44	21.545
465.79	20.869
466.14	22.842
466.49	21.531
466.84	21.789
467.19	20.636
467.54	21.329
467.89	21.147
468.24	22.684
468.59	22.548
468.94	21.608
469.29	21.897
469.64	21.765
469.99	22.350
470.34	21.977
470.68	21.875
471.03	21.886
471.38	21.458
471.73	21.259
472.08	21.419
472.43	21.557
472.78	22.133
473.13	21.670
473.48	22.017
473.83	21.464
474.17	21.911
474.52	22.570
474.87	21.853
475.22	21.770
475.57	21.444
475.92	22.408
476.27	21.314
476.61	22.085
476.96	22.750
477.31	22.551
477.66	21.970
478.01	22.474
478.36	22.158
478.70	22.531
479.05	21.904
479.40	22.383
479.75	21.713
480.10	21.726
480.45	21.518
480.79	21.422
481.14	22.127
481.49	21.684
481.84	22.145
482.19	22.385
482.53	22.254
482.88	22.449
483.23	21.831
483.58	22.757
483.92	21.930
484.27	21.577
484.62	22.030
484.97	22.136
485.31	20.928
485.66	20.289
486.01	20.772
486.36	21.403
486.70	21.611
487.05	21.114
487.40	21.928
487.75	21.364
488.09	21.186
488.44	21.245
488.79	21.861
489.13	21.301
489.48	21.697
489.83	22.838
490.17	22.551
490.52	22.600
490.87	21.755
491.22	21.906
491.56	21.852
491.91	22.710
492.26	21.840
492.60	21.408
492.95	22.561
493.30	22.010
493.64	21.392
493.99	22.036
494.34	22.143
494.68	22.331
495.03	21.702
495.37	22.321
495.72	21.562
496.07	22.431
496.41	21.769
496.76	22.009
497.11	22.044
497.45	22.222
497.80	22.061
498.14	21.464
498.49	22.300
498.84	21.845
499.18	23.246
499.53	21.822
499.87	21.429
500.22	21.863
500.56	22.711
500.91	22.315
501.26	22.513
501.60	21.907
501.95	22.850
502.29	21.540
502.64	22.254
502.98	22.377
503.33	22.227
503.67	22.797
504.02	21.729
504.36	22.647
504.71	22.340
505.06	22.067
505.40	22.106
505.75	22.002
506.09	22.144
506.44	22.807
506.78	21.375
507.13	22.554
507.47	22.066
507.82	21.322
508.16	22.591
508.51	21.381
508.85	21.480
509.19	22.240
509.54	22.040
509.88	23.191
510.23	23.061
510.57	22.487
510.92	22.986
511.26	22.275
511.61	21.706
511.95	22.091
512.30	22.155
512.64	21.703
512.98	22.882
513.33	21.582
513.67	22.111
514.02	21.980
514.36	21.717
514.70	22.241
515.05	22.470
515.39	22.607
515.74	23.560
516.08	21.902
516.42	22.606
516.77	23.628
517.11	22.998
517.46	23.266
517.80	23.285
518.14	21.981
518.49	21.877
518.83	22.374
519.17	22.202
519.52	22.556
519.86	23.297
520.20	22.861
520.55	22.277
520.89	22.229
521.23	22.466
521.58	22.508
521.92	22.419
522.26	22.730
522.61	22.053
522.95	22.719
523.29	22.445
523.64	22.486
523.98	22.597
524.32	23.004
524.66	21.801
525.01	23.121
525.35	22.874
525.69	21.861
526.04	22.193
526.38	22.724
526.72	21.201
527.06	22.656
527.41	21.848
527.75	20.924
528.09	21.443
528.43	22.426
528.78	22.048
529.12	22.727
529.46	21.585
529.80	21.110
530.15	21.571
530.49	21.604
530.83	22.135
531.17	21.751
531.51	21.835
531.86	22.186
532.20	21.795
532.54	21.725
532.88	21.673
533.22	21.992
533.57	21.802
533.91	21.223
534.25	21.622
534.59	20.050
534.93	21.344
535.27	22.215
535.62	21.228
535.96	21.396
536.30	20.877
536.64	22.178
536.98	20.904
537.32	21.838
537.66	21.317
538.01	21.237
538.35	22.162
538.69	21.257
539.03	21.801
539.37	21.490
539.71	21.681
540.05	22.001
540.39	21.260
540.73	22.046
541.07	22.404
541.42	20.932
541.76	19.535
542.10	21.540
542.44	21.252
542.78	20.556
543.12	20.638
543.46	20.548
543.80	21.204
544.14	21.222
544.48	22.047
544.82	21.448
545.16	20.926
545.50	19.650
545.84	21.280
546.18	21.775
546.52	21.906
546.86	20.869
547.20	20.886
547.54	20.799
547.88	22.031
548.22	19.528
548.56	21.777
548.90	21.024
549.24	20.533
549.58	20.466
549.92	21.625
550.26	21.604
550.60	21.266
550.94	21.752
551.28	21.595
551.62	20.827
551.96	21.780
552.30	20.767
552.64	20.619
552.98	20.743
553.32	21.212
553.66	20.764
554.00	21.891
554.34	19.350
554.68	20.322
555.02	21.274
555.36	21.064
555.69	20.702
556.03	21.193
556.37	20.341
556.71	21.976
557.05	21.656
557.39	20.416
557.73	21.736
558.07	21.025
558.41	20.942
558.75	21.141
559.08	20.467
559.42	20.674
559.76	20.245
560.10	19.985
560.44	20.954
560.78	20.946
561.12	20.428
561.45	20.548
561.79	20.000
562.13	21.529
562.47	20.658
562.81	20.226
563.15	20.924
563.48	21.147
563.82	20.757
564.16	20.892
564.50	20.094
564.84	20.437
565.17	20.159
565.51	20.339
565.85	21.163
566.19	21.344
566.52	20.874
566.86	20.038
567.20	20.642
567.54	20.910
567.88	19.821
568.21	20.358
568.55	19.565
568.89	19.732
569.23	19.112
569.56	19.630
569.90	19.119
570.24	19.053
570.57	18.383
570.91	18.497
571.25	18.807
571.59	18.920
571.92	18.304
572.26	18.634
572.60	19.299
572.93	18.705
573.27	18.018
573.61	18.038
573.95	18.201
574.28	18.048
574.62	18.454
574.96	17.846
575.29	18.369
575.63	18.184
575.97	17.907
576.30	17.923
576.64	18.172
576.98	17.915
577.31	17.759
577.65	18.363
577.98	17.957
578.32	17.891
578.66	18.107
578.99	18.414
579.33	17.734
579.67	17.931
580.00	17.981
580.34	17.979
580.67	18.019
581.01	17.779
581.35	18.178
581.68	17.595
582.02	18.010
582.35	17.677
582.69	18.072
583.02	18.037
583.36	18.208
583.70	17.640
584.03	18.373
584.37	17.970
584.70	17.764
585.04	17.949
585.37	17.876
585.71	17.900
586.04	18.060
586.38	17.990
586.72	18.546
587.05	18.465
587.39	17.891
587.72	17.653
588.06	17.992
588.39	18.456
588.73	18.407
589.06	18.446
589.40	18.928
589.73	18.661
590.07	18.245
590.40	18.635
590.73	18.313
591.07	18.689
591.40	18.804
591.74	19.244
592.07	17.838
592.41	17.792
592.74	18.255
593.08	17.988
593.41	17.566
593.75	17.606
594.08	17.865
594.41	18.299
594.75	18.498
595.08	18.459
595.42	18.389
595.75	18.376
596.09	18.122
596.42	18.535
596.75	18.327
597.09	18.433
597.42	17.983
597.75	18.601
598.09	18.798
598.42	18.427
598.76	17.608
599.09	17.798
599.42	17.762
599.76	18.535
600.09	18.244
600.42	18.762
600.76	17.928
601.09	18.078
601.42	17.768
601.76	18.185
602.09	18.078
602.42	17.531
602.76	17.823
603.09	18.387
603.42	18.211
603.76	18.389
604.09	17.541
604.42	17.111
604.76	17.968
605.09	18.626
605.42	18.484
605.75	17.939
606.09	18.472
606.42	17.553
606.75	18.635
607.09	17.909
607.42	17.650
607.75	17.616
608.08	18.165
608.42	18.354
608.75	17.103
609.08	17.681
609.41	18.037
609.75	17.504
610.08	18.186
610.41	18.024
610.74	18.037
611.07	18.458
611.41	17.600
611.74	17.995
612.07	18.636
612.40	17.591
612.73	18.148
613.07	17.997
613.40	18.555
613.73	18.311
614.06	17.518
614.39	18.038
614.72	16.927
615.06	17.826
615.39	17.851
615.72	18.631
616.05	17.338
616.38	18.108
616.71	18.198
617.05	18.637
617.38	18.638
617.71	17.629
618.04	17.950
618.37	18.365
618.70	18.253
619.03	17.129
619.36	19.239
619.69	18.306
620.03	18.044
620.36	18.636
620.69	18.378
621.02	18.493
621.35	18.387
621.68	18.197
622.01	19.175
622.34	18.168
622.67	18.359
623.00	18.057
623.33	18.134
623.66	17.873
623.99	18.496
624.32	17.634
624.65	18.028
624.99	18.073
625.32	18.563
625.65	18.260
625.98	18.310
626.31	19.005
626.64	17.824
626.97	18.579
627.30	19.234
627.63	17.358
627.96	18.190
628.29	17.831
628.62	17.670
628.95	20.079
629.28	18.233
629.61	17.763
629.94	19.187
630.26	19.384
630.59	18.894
630.92	18.418
631.25	20.766
631.58	18.730
631.91	17.340
632.24	18.889
632.57	18.889
632.90	18.966
633.23	21.262
633.56	16.842
633.89	19.811
634.22	19.481
634.55	20.433
634.88	18.742
635.20	18.727
635.53	18.448
635.86	19.773
636.19	19.170
636.52	18.757
636.85	18.532
637.18	16.875
637.51	19.827
637.83	17.710
638.16	17.763
638.49	18.897
638.82	17.375
639.15	19.974
639.48	16.472
639.81	19.502
640.13	20.135
640.46	17.379
640.79	19.748
641.12	17.913
641.45	18.651
641.77	16.766
642.10	18.278
642.43	17.299
642.76	18.898
643.09	18.413
643.41	20.952
643.74	21.622
644.07	19.189
644.40	20.097
644.73	18.647
645.05	17.028
645.38	18.874
645.71	20.790
646.04	19.832
646.36	17.976
646.69	22.318
647.02	18.412
647.35	18.592
647.67	20.620
648.00	20.738
648.33	20.236
648.66	16.452
648.98	17.357
649.31	17.692
649.64	17.812
649.96	17.739
650.29	16.721
650.62	19.105
650.94	18.044
651.27	19.064
651.60	19.204
651.92	19.692
652.25	17.529
652.58	16.184
652.90	18.620
653.23	16.774
653.56	16.555
653.88	17.049
654.21	16.946
654.54	18.605
654.86	16.693
655.19	18.052
655.52	16.629
655.84	15.067
656.17	16.133
656.49	22.209
656.82	22.976
657.15	17.569
657.47	13.235
657.80	9.924
658.13	11.333
658.45	15.541
658.78	15.491
659.10	15.318
659.43	15.156
659.75	16.168
660.08	15.417
660.41	16.581
660.73	15.292
661.06	17.681
661.38	18.036
661.71	19.120
662.03	17.944
662.36	19.616
662.68	17.722
663.01	18.259
663.33	19.501
663.66	19.099
663.98	15.179
664.31	16.779
664.63	20.133
664.96	18.004
665.28	18.221
665.61	18.393
665.93	15.844
666.26	16.802
666.58	16.840
666.91	17.817
667.23	22.368
667.56	18.821
667.88	20.588
668.21	17.281
668.53	19.159
668.86	18.707
669.18	18.721
669.50	16.822
669.83	13.869
670.15	16.592
670.48	18.692
670.80	15.034
671.13	16.930
671.45	17.117
671.77	17.559
672.10	18.540
672.42	16.421
672.75	16.727
673.07	15.495
673.39	17.486
673.72	18.110
674.04	15.924
674.37	16.082
674.69	15.984
675.01	17.447
675.34	14.967
675.66	19.438
675.98	16.520
676.31	19.231
676.63	19.080
676.95	16.372
677.28	15.545
677.60	19.683
677.92	18.943
678.25	14.880
678.57	17.078
678.89	16.143
679.22	15.933
679.54	15.976
679.86	17.000
680.18	17.110
680.51	14.153
680.83	18.095
681.15	17.726
681.48	20.284
681.80	15.726
682.12	18.310
682.44	16.699
682.77	13.636
683.09	19.497
683.41	19.690
683.73	14.155
684.06	17.634
684.38	18.201
684.70	16.049
685.02	18.110
685.34	17.154
685.67	14.583
685.99	13.422
686.31	19.390
686.63	14.362
686.96	14.787
687.28	15.222
687.60	15.039
687.92	13.035
688.24	14.567
688.56	13.226
688.89	15.171
689.21	15.974
689.53	16.322
689.85	17.817
690.17	14.798
690.49	15.704
690.82	15.663
691.14	14.151
691.46	15.299
691.78	18.502
692.10	17.797
692.42	13.333
692.74	14.163
693.06	15.506
693.39	15.213
693.71	16.930
694.03	14.687
694.35	14.673
694.67	14.894
694.99	14.578
695.31	12.245
695.63	14.541
695.95	14.144
696.27	15.461
696.59	15.775
696.91	18.539
697.23	14.323
697.56	15.865
697.88	14.865
698.20	13.062
698.52	9.641
698.84	16.505
699.16	15.238
699.48	10.000
699.80	14.286
700.12	15.617
700.44	11.732
700.76	12.536
701.08	15.988
701.40	12.991
701.72	11.111
702.04	16.987
702.36	12.048
702.68	11.976
703.00	13.333
703.32	12.607
703.64	19.706
703.96	15.698
704.28	15.680
704.60	12.342
704.91	11.111
705.23	12.945
705.55	15.203
705.87	14.676
706.19	14.236
706.51	10.069
706.83	20.000
707.15	12.102
707.47	16.253
707.79	16.753
708.11	12.468
708.43	14.713
708.74	13.247
709.06	17.270
709.38	12.644
709.70	12.500
710.02	17.791
710.34	12.871
710.66	13.333
710.98	11.356
711.29	15.806
711.61	12.780
711.93	12.131
712.25	16.279
712.57	13.937
712.89	16.547
713.20	17.869
713.52	9.701
713.84	13.879
714.16	17.705
714.48	14.603
714.80	11.077
715.11	15.562
715.43	16.566
715.75	13.396
716.07	14.426
716.39	12.375
716.70	12.195
717.02	15.185
717.34	14.504
717.66	11.618
717.97	9.426
718.29	12.185
718.61	13.095
718.93	14.337
719.24	9.926
719.56	10.943
719.88	13.455
720.20	11.985
720.51	17.669
720.83	12.851
721.15	15.164
721.46	11.765
721.78	14.176
722.10	14.800
722.42	5.785
722.73	10.359
723.05	15.663
723.37	11.373
723.68	11.741
724.00	12.602
724.32	11.523
724.63	15.353
724.95	15.289
725.27	12.281
725.58	9.483
725.90	11.508
726.22	15.498
726.53	15.209
726.85	9.020
727.16	13.158
727.48	13.462
727.80	10.656
728.11	14.706
728.43	14.050
728.74	11.328
729.06	13.636
729.38	8.560
729.69	9.055
730.01	12.205
730.32	7.171
730.64	10.623
730.96	11.194
731.27	11.071
731.59	12.862
731.90	12.270
732.22	13.804
732.53	15.232
732.85	10.403
733.16	10.870
733.48	10.801
733.80	8.897
734.11	11.034
734.43	11.224
734.74	10.089
735.06	8.777
735.37	13.150
735.69	7.419
736.00	10.774
736.32	9.603
736.63	13.448
736.95	10.145
737.26	13.907
737.58	9.712
737.89	15.771
738.21	5.263
738.52	11.538
738.83	9.375
739.15	10.256
739.46	18.548
739.78	9.091
740.09	11.538
740.41	9.091
740.72	12.044
741.04	11.111
741.35	8.225
741.66	7.870
741.98	9.524
742.29	11.737
742.61	9.626
742.92	11.682
743.23	11.404
743.55	12.162
743.86	17.333
744.18	8.571
744.49	15.271
744.80	14.721
745.12	13.918
745.43	12.060
745.74	8.738
746.06	6.829
746.37	11.454
746.68	10.945
747.00	9.424
747.31	10.096
747.62	14.286
747.94	15.721
748.25	9.302
748.56	14.286
748.88	4.891
749.19	11.737
749.50	18.137
749.82	13.778
750.13	16.740
750.44	12.195
750.75	8.800
751.07	16.071
751.38	8.118
751.69	3.817
752.01	15.385
752.32	8.949
752.63	8.077
752.94	10.317
753.26	8.261
753.57	10.268
753.88	14.655
754.19	4.979
754.51	8.594
754.82	12.253
755.13	7.819
755.44	7.438
755.75	8.642
756.07	5.221
756.38	9.375
756.69	9.025
757.00	10.801
757.31	11.745
757.63	16.511
757.94	11.272
758.25	6.105
758.56	13.747
758.87	9.659
759.18	8.333
759.50	12.456
759.81	6.934
760.12	7.770
760.43	9.709
760.74	13.750
761.05	10.112
761.36	12.275
761.67	11.834
761.99	10.968
762.30	9.783
762.61	9.811
762.92	14.798
763.23	10.900
763.54	12.000
763.85	14.768
764.16	10.204
764.47	9.746
764.78	9.363
765.10	10.791
765.41	10.968
765.72	9.119
766.03	6.007
766.34	10.526
766.65	9.312
766.96	8.500
767.27	11.458
767.58	16.279
767.89	9.677
768.20	11.043
768.51	4.918
768.82	5.946
769.13	10.500
769.44	9.211
769.75	4.762
770.06	12.385
770.37	6.103
770.68	14.062
770.99	11.881
771.30	9.223
771.61	11.111
771.92	9.091
772.23	6.542
772.54	2.128
772.85	4.734
773.16	7.927
773.47	12.048
773.78	15.385
774.09	8.667
774.39	8.642
774.70	1.342
775.01	3.623
775.32	2.239
775.63	-1.653
775.94	11.278
776.25	5.000
776.56	11.475
776.87	16.814
777.18	-7.965
777.48	0.909
777.79	5.217
778.10	0.000
778.41	5.932
778.72	3.306
779.03	5.970
779.34	13.534
779.65	11.765
779.95	8.696
780.26	-2.721
780.57	3.448
780.88	0.926
781.19	2.020
781.50	5.600
781.80	4.575
782.11	6.410
782.42	3.614
782.73	1.460
783.04	8.108
783.34	-4.545
783.65	7.752
783.96	3.252
784.27	2.564
784.57	-2.439
784.88	-6.504
785.19	8.772
785.50	-8.247
785.81	-2.857
786.11	-1.961
786.42	0.000
786.73	9.910
787.04	-3.960
787.34	-1.905
787.65	-0.952
787.96	0.000
788.26	0.000
788.57	9.677
788.88	9.375
789.19	5.128
789.49	-0.840
789.80	-0.855
790.11	7.080
790.41	-4.040
790.72	7.547
791.03	-6.944
791.33	-5.263
791.64	20.430
791.95	-10.667
792.25	-25.714
792.56	1.220
792.87	16.327
793.17	-6.579
793.48	0.000
793.79	-15.493
794.09	-5.063
794.40	-5.319
794.70	-4.673
795.01	-9.649
795.32	9.091
795.62	4.464
795.93	-10.309
796.23	0.000
796.54	7.368
796.85	-1.370
797.15	-8.333
797.46	5.479
797.76	8.451
798.07	0.000
798.37	1.471
798.68	-1.429
798.99	2.857
799.29	18.421
799.60	3.333
799.90	-20.833
800.21	-10.938
800.51	-7.937
800.82	-21.311
801.12	-21.053
801.43	-16.901
801.73	-33.898
802.04	8.197
802.34	-25.455
802.65	-7.692
802.95	1.852
803.26	-35.000
803.56	1.923
803.87	-34.211
804.17	0.000
804.48	1.538
804.78	-7.692
805.09	-23.256
805.39	-46.875
805.70	-39.623
806.00	8.772
806.30	8.108
806.61	-7.353
806.91	4.938
807.22	6.667
807.52	1.493
807.83	-14.516
808.13	-12.698
808.43	-18.182
808.74	-3.030
809.04	-18.868
809.35	-2.740
809.65	5.263
809.95	10.294
810.26	-11.765
810.56	-18.000
810.86	-24.490
811.17	-22.857
811.47	-17.308
811.77	-35.484
812.08	-68.421
812.38	-19.048
812.69	-19.565
812.99	-32.258
813.29	-11.905
813.59	-51.852
813.90	-12.766
814.20	-41.860
814.50	-18.750
814.81	-3.333
815.11	-36.585
815.41	-36.667
815.72	-8.571
816.02	-38.889
816.32	-7.692
816.62	-21.622
816.93	-35.294
817.23	-26.087
817.53	-14.706
817.84	-5.882
818.14	-40.625
818.44	-51.724
818.74	-58.065
819.04	-51.852
819.35	-50.000
819.65	-80.000
819.95	-16.667
820.25	-16.000
820.56	-21.053
820.86	-37.500
821.16	-4.255
821.46	0.000
821.76	-38.462
822.07	-30.000
822.37	-23.256
822.67	-30.000
822.97	-59.459
823.27	0.000
823.57	8.000
823.88	-5.405
824.18	-66.667
824.48	-42.308
824.78	-138.462
825.08	-52.174
825.38	-29.167
825.69	-29.167
825.99	-95.000
826.29	-35.135
826.59	-23.529
826.89	16.000
827.19	-37.143
827.49	13.158
827.79	-37.500
828.09	-43.333
828.39	-13.043
828.70	-58.621
829.00	-24.138
829.30	-5.556
829.60	0.000
829.90	-61.111
830.20	-61.538
830.50	-33.333
830.80	-32.143
831.10	-10.256
831.40	-57.143
831.70	-50.000
832.00	-33.333
832.30	-47.368
832.60	-43.750
832.90	-116.667
833.20	-129.412
833.50	-26.667
833.80	-93.333
834.10	-115.000
834.40	-50.000
834.70	-44.444
835.00	-53.846
835.30	-12.500
835.60	-34.483
835.90	-72.222
836.20	-218.182
836.50	-100.000
836.80	-11.429
837.10	28.571
837.40	-23.529
837.70	-63.636
838.00	-66.667
838.30	-37.500
838.60	-76.190
838.90	-70.000
839.19	-73.913
839.49	-56.522
839.79	-72.222
840.09	-65.217
840.39	-86.364
840.69	-93.750
840.99	-47.368
841.29	-25.000
841.59	-21.429
841.88	-127.778
842.18	-33.333
842.48	-100.000
842.78	-24.138
843.08	-57.143
843.38	-69.231
843.68	-177.778
843.97	-107.692
844.27	-27.273
844.57	-140.000
844.87	-4.000
845.17	-480.000
845.47	-50.000
845.76	-222.222
846.06	0.000
846.36	-425.000
846.66	-200.000
846.96	-63.158
847.25	-33.333
847.55	-133.333
847.85	-33.333
848.15	-170.000
848.44	7.692
848.74	-42.105
849.04	700.000
849.34	-100.000
849.63	-63.158
849.93	0.000
850.23	-15.000
850.53	-57.143
850.82	-20.000
851.12	-21.053
851.42	-1150.000
851.71	-71.429
852.01	-100.000
852.31	-64.706
852.61	-73.333
852.90	-38.095
853.20	-166.667
853.50	-77.778
853.79	-78.947
854.09	-153.333
854.39	-25.000
854.68	-52.174
854.98	-200.000
855.28	-41.379
855.57	-31.250
855.87	-70.000
856.17	-73.333
856.46	-44.828
856.76	-66.667
857.05	-88.235
857.35	-146.154
857.65	-109.091
857.94	-3.704
858.24	-171.429
858.53	-114.286
858.83	-66.667
859.13	-244.444
859.42	-9.524
859.72	-200.000
860.01	-266.667
860.31	-212.500
860.60	-380.000
860.90	-222.222
861.20	-187.500
861.49	-185.714
861.79	-29.412
862.08	-750.000
862.38	-191.667
862.67	-38.462
862.97	0.000
863.26	-25.000
863.56	-94.118
863.85	600.000
864.15	-150.000
864.44	-138.462
864.74	-65.000
865.03	-225.000
865.33	-416.667
865.62	-70.588
865.92	-250.000
866.21	-150.000
866.51	-175.000
866.80	-1000.000
867.10	-366.667
867.39	-70.588
867.69	-30.435
867.98	-242.857
868.27	-500.000
868.57	-118.750
868.86	-27.273
869.16	-29.412
869.45	-300.000
869.75	-157.143
870.04	2100.000
870.33	-25.000
870.63	-340.000
870.92	-111.111
871.22	-83.333
871.51	-145.455
871.80	-50.000
872.10	-10.000
>>>>>End Processed Spectral Data<<<<<
