SpectraSuite Data File
++++++++++++++++++++++++++++++++++++
Date: Sat May 16 11:20:33 PDT 2015
User: schluterlab
Dark Spectrum Present: Yes
Reference Spectrum Present: Yes
Number of Sampled Component Spectra: 1
Spectrometers: USB2E3373
Integration Time (usec): 3000 (USB2E3373)
Spectra Averaged: 3 (USB2E3373)
Boxcar Smoothing: 0 (USB2E3373)
Correct for Electrical Dark: No (USB2E3373)
Strobe/Lamp Enabled: No (USB2E3373)
Correct for Detector Non-linearity: No (USB2E3373)
Correct for Stray Light: No (USB2E3373)
Number of Pixels in Processed Spectrum: 2048
>>>>>Begin Processed Spectral Data<<<<<
178.53	0.000
178.91	140.000
179.29	666.667
179.67	-700.000
180.04	-30.769
180.42	1300.000
180.80	150.000
181.18	400.000
181.56	-137.500
181.94	1400.000
182.31	450.000
182.69	-38.462
183.07	-266.667
183.45	1300.000
183.83	366.667
184.20	-214.286
184.58	37.500
184.96	-300.000
185.34	56.250
185.72	-550.000
186.09	133.333
186.47	-162.500
186.85	-137.500
187.23	-50.000
187.61	-275.000
187.98	-225.000
188.36	-137.500
188.74	-362.500
189.12	1400.000
189.49	371.429
189.87	-41.667
190.25	275.000
190.63	-71.429
191.00	-222.222
191.38	400.000
191.76	-60.000
192.14	740.000
192.51	-140.000
192.89	-133.333
193.27	0.000
193.65	-111.111
194.02	-185.714
194.40	433.333
194.78	-60.000
195.15	-400.000
195.53	-145.455
195.91	-316.667
196.29	220.000
196.66	-100.000
197.04	1800.000
197.42	-350.000
197.79	33.333
198.17	-366.667
198.55	-550.000
198.92	-800.000
199.30	125.000
199.68	-700.000
200.05	11.111
200.43	-233.333
200.81	-2100.000
201.18	-100.000
201.56	185.714
201.94	-46.667
202.31	-13.636
202.69	-20.000
203.07	30.000
203.44	533.333
203.82	-133.333
204.19	-500.000
204.57	-75.000
204.95	-1000.000
205.32	31.250
205.70	800.000
206.08	-1800.000
206.45	-77.778
206.83	-1150.000
207.20	150.000
207.58	-300.000
207.96	-266.667
208.33	-75.000
208.71	-33.333
209.08	190.000
209.46	-71.429
209.84	300.000
210.21	0.000
210.59	45.000
210.96	300.000
211.34	-166.667
211.71	-333.333
212.09	275.000
212.46	950.000
212.84	-2600.000
213.22	700.000
213.59	175.000
213.97	-100.000
214.34	140.000
214.72	-30.000
215.09	-433.333
215.47	-183.333
215.84	-150.000
216.22	-170.000
216.59	13.333
216.97	-300.000
217.34	800.000
217.72	-57.143
218.09	-300.000
218.47	-100.000
218.84	157.143
219.22	-128.571
219.59	0.000
219.97	71.429
220.34	575.000
220.72	175.000
221.09	-30.769
221.47	0.000
221.84	433.333
222.22	-750.000
222.59	300.000
222.97	-175.000
223.34	-650.000
223.72	-233.333
224.09	-71.429
224.46	-325.000
224.84	7.143
225.21	-185.714
225.59	-100.000
225.96	-137.500
226.34	-85.714
226.71	-55.556
227.08	35.000
227.46	1900.000
227.83	-200.000
228.21	-275.000
228.58	650.000
228.95	-37.500
229.33	-1200.000
229.70	-340.000
230.08	-1200.000
230.45	-16.667
230.82	-116.667
231.20	-1500.000
231.57	50.000
231.95	1900.000
232.32	28.571
232.69	-44.444
233.07	-242.857
233.44	-1050.000
233.81	-73.333
234.19	0.000
234.56	-56.250
234.93	3.125
235.31	-242.857
235.68	-135.714
236.05	-64.706
236.43	-54.545
236.80	9.677
237.17	-45.833
237.55	-42.857
237.92	-122.727
238.29	-17.143
238.67	-5.882
239.04	-22.222
239.41	-51.613
239.79	-38.462
240.16	-21.429
240.53	-30.909
240.91	-25.641
241.28	-18.182
241.65	3.077
242.02	-11.475
242.40	-6.557
242.77	-12.121
243.14	-35.593
243.51	-30.000
243.89	-11.392
244.26	-7.865
244.63	-10.526
245.00	-13.684
245.38	-3.390
245.75	-6.195
246.12	-5.600
246.49	-7.087
246.87	-11.382
247.24	-11.864
247.61	-16.102
247.98	-7.746
248.36	-1.399
248.73	-5.696
249.10	-4.459
249.47	-4.094
249.84	-0.568
250.22	-16.667
250.59	-4.520
250.96	-6.283
251.33	2.370
251.70	-4.808
252.08	-2.844
252.45	-3.318
252.82	-2.857
253.19	-1.277
253.56	-4.032
253.94	-3.376
254.31	-3.004
254.68	3.659
255.05	-3.226
255.42	-0.794
255.79	-1.075
256.16	-0.784
256.54	0.735
256.91	-1.515
257.28	-1.465
257.65	-2.482
258.02	2.830
258.39	1.338
258.76	-3.378
259.14	-1.543
259.51	0.656
259.88	1.524
260.25	0.621
260.62	-0.643
260.99	1.187
261.36	0.305
261.73	-0.867
262.10	0.556
262.47	-1.709
262.85	0.857
263.22	-2.292
263.59	-7.077
263.96	-2.899
264.33	2.981
264.70	-1.657
265.07	-0.824
265.44	-0.258
265.81	0.517
266.18	-0.506
266.55	-1.225
266.92	4.030
267.29	-1.695
267.66	-1.481
268.03	0.000
268.40	-0.235
268.77	0.000
269.14	-1.856
269.51	2.299
269.88	-2.523
270.25	-0.699
270.62	-1.831
270.99	-0.901
271.36	-2.564
271.73	-1.345
272.10	1.831
272.47	-1.333
272.84	1.556
273.21	-1.835
273.58	0.000
273.95	0.439
274.32	-1.357
274.69	1.313
275.06	2.454
275.43	-1.562
275.80	1.222
276.17	0.000
276.54	3.055
276.91	-0.206
277.28	1.014
277.65	-0.207
278.02	0.418
278.39	-0.196
278.76	-0.398
279.13	0.198
279.50	2.187
279.87	-0.634
280.23	2.024
280.60	0.000
280.97	-1.942
281.34	-1.161
281.71	1.154
282.08	-0.806
282.45	-2.240
282.82	-1.550
283.19	0.909
283.56	0.183
283.92	2.297
284.29	-0.372
284.66	0.719
285.03	2.852
285.40	-0.185
285.77	0.702
286.14	0.181
286.51	-1.954
286.87	2.359
287.24	0.853
287.61	2.149
287.98	-0.693
288.35	-0.992
288.72	-0.340
289.08	0.169
289.45	0.168
289.82	0.173
290.19	0.328
290.56	-0.661
290.93	-0.795
291.29	0.648
291.66	0.483
292.03	0.471
292.40	1.205
292.77	1.398
293.13	0.976
293.50	1.634
293.87	1.687
294.24	0.603
294.60	-1.970
294.97	1.973
295.34	-0.593
295.71	0.000
296.08	-1.229
296.44	-0.572
296.81	0.427
297.18	1.972
297.55	0.141
297.91	2.232
298.28	-0.137
298.65	0.418
299.02	2.139
299.38	0.134
299.75	1.223
300.12	0.897
300.48	1.407
300.85	0.000
301.22	1.811
301.59	1.300
301.95	2.771
302.32	0.391
302.69	1.714
303.05	1.587
303.42	0.625
303.79	0.957
304.15	1.896
304.52	0.933
304.89	1.181
305.25	1.587
305.62	1.528
305.99	3.062
306.35	2.331
306.72	0.683
307.09	2.838
307.45	1.930
307.82	1.006
308.19	2.125
308.55	1.743
308.92	0.215
309.29	0.649
309.65	2.651
310.02	1.944
310.38	1.838
310.75	3.176
311.12	2.893
311.48	2.192
311.85	2.163
312.22	4.016
312.58	3.662
312.95	3.262
313.31	2.997
313.68	3.618
314.05	3.462
314.41	3.622
314.78	2.997
315.14	4.245
315.51	3.647
315.87	5.131
316.24	4.179
316.61	4.415
316.97	5.572
317.34	3.757
317.70	4.267
318.07	5.410
318.43	4.307
318.80	6.103
319.16	3.752
319.53	5.169
319.89	5.927
320.26	5.588
320.62	5.192
320.99	5.970
321.35	5.616
321.72	5.015
322.08	7.023
322.45	6.436
322.81	6.532
323.18	7.589
323.54	7.486
323.91	8.712
324.27	7.319
324.64	7.770
325.00	9.511
325.37	8.235
325.73	10.061
326.10	8.415
326.46	8.844
326.83	8.681
327.19	10.425
327.56	10.477
327.92	9.771
328.29	11.342
328.65	10.364
329.01	11.396
329.38	11.775
329.74	12.821
330.11	12.058
330.47	11.807
330.84	13.199
331.20	13.267
331.56	12.306
331.93	13.943
332.29	12.877
332.66	12.730
333.02	12.760
333.38	13.441
333.75	14.515
334.11	13.422
334.48	13.592
334.84	13.911
335.20	14.539
335.57	14.170
335.93	14.414
336.29	13.818
336.66	13.744
337.02	15.315
337.38	14.171
337.75	14.223
338.11	14.222
338.47	14.769
338.84	14.428
339.20	14.675
339.56	14.795
339.93	14.638
340.29	14.615
340.65	14.423
341.02	15.261
341.38	14.827
341.74	14.733
342.11	14.078
342.47	14.077
342.83	13.602
343.20	15.884
343.56	12.653
343.92	14.858
344.28	15.896
344.65	14.686
345.01	14.286
345.37	14.203
345.73	14.321
346.10	13.410
346.46	13.241
346.82	13.633
347.19	13.969
347.55	15.088
347.91	14.961
348.27	15.354
348.63	15.428
349.00	15.115
349.36	13.193
349.72	15.525
350.08	14.836
350.45	13.712
350.81	13.615
351.17	14.871
351.53	14.081
351.89	14.632
352.26	15.581
352.62	16.206
352.98	15.269
353.34	15.428
353.70	14.517
354.07	16.050
354.43	15.889
354.79	15.293
355.15	14.856
355.51	14.297
355.87	15.099
356.24	15.012
356.60	16.600
356.96	15.166
357.32	14.331
357.68	15.402
358.04	15.396
358.40	14.772
358.77	14.838
359.13	14.920
359.49	15.873
359.85	15.320
360.21	15.906
360.57	16.491
360.93	16.519
361.29	15.845
361.66	15.320
362.02	16.494
362.38	17.095
362.74	15.385
363.10	15.782
363.46	16.453
363.82	16.035
364.18	16.425
364.54	16.941
364.90	16.632
365.26	15.407
365.62	17.605
365.98	16.501
366.35	16.268
366.71	15.856
367.07	17.149
367.43	17.021
367.79	16.357
368.15	16.074
368.51	17.273
368.87	17.720
369.23	17.053
369.59	17.569
369.95	16.913
370.31	17.581
370.67	15.907
371.03	17.638
371.39	16.832
371.75	17.954
372.11	16.930
372.47	17.787
372.83	17.942
373.19	18.286
373.55	19.071
373.91	17.354
374.27	18.549
374.63	18.288
374.99	18.985
375.35	18.170
375.71	19.514
376.07	18.549
376.42	18.344
376.78	19.477
377.14	18.712
377.50	19.278
377.86	18.791
378.22	19.095
378.58	18.592
378.94	18.989
379.30	19.013
379.66	19.733
380.02	19.608
380.38	18.852
380.74	19.168
381.09	19.859
381.45	19.391
381.81	19.419
382.17	19.674
382.53	19.149
382.89	19.498
383.25	20.470
383.61	20.578
383.97	19.473
384.32	20.150
384.68	20.012
385.04	19.626
385.40	20.572
385.76	20.061
386.12	20.175
386.48	20.854
386.83	20.123
387.19	20.801
387.55	20.230
387.91	20.688
388.27	19.542
388.62	20.433
388.98	20.170
389.34	20.441
389.70	20.463
390.06	20.758
390.42	21.218
390.77	21.009
391.13	22.174
391.49	21.273
391.85	21.509
392.20	20.752
392.56	21.136
392.92	21.164
393.28	21.584
393.64	21.227
393.99	21.415
394.35	20.803
394.71	21.557
395.07	21.343
395.42	20.620
395.78	20.679
396.14	21.807
396.50	21.468
396.85	21.468
397.21	21.507
397.57	21.763
397.92	21.897
398.28	22.500
398.64	21.118
399.00	21.966
399.35	21.815
399.71	21.893
400.07	21.910
400.42	21.655
400.78	21.407
401.14	20.838
401.49	21.108
401.85	21.965
402.21	21.156
402.57	21.177
402.92	22.530
403.28	21.140
403.63	20.731
403.99	21.877
404.35	21.558
404.70	21.533
405.06	22.722
405.42	21.648
405.77	21.097
406.13	21.522
406.49	22.229
406.84	20.696
407.20	21.496
407.55	21.849
407.91	20.661
408.27	21.752
408.62	21.648
408.98	21.407
409.34	21.389
409.69	20.920
410.05	21.225
410.40	21.888
410.76	21.873
411.11	20.823
411.47	21.483
411.83	22.188
412.18	22.401
412.54	21.721
412.89	21.810
413.25	21.370
413.60	21.446
413.96	21.319
414.31	21.835
414.67	22.349
415.03	21.928
415.38	21.145
415.74	21.843
416.09	21.547
416.45	21.032
416.80	22.172
417.16	21.728
417.51	22.062
417.87	22.783
418.22	22.124
418.58	21.887
418.93	21.704
419.29	22.522
419.64	22.048
420.00	22.661
420.35	22.886
420.71	21.549
421.06	22.840
421.42	22.834
421.77	22.166
422.12	22.496
422.48	22.501
422.83	22.323
423.19	22.661
423.54	22.882
423.90	22.788
424.25	23.360
424.61	24.186
424.96	23.581
425.31	23.533
425.67	23.438
426.02	22.892
426.38	23.775
426.73	22.735
427.09	23.346
427.44	22.955
427.79	22.209
428.15	23.399
428.50	23.871
428.85	23.681
429.21	22.966
429.56	23.229
429.92	23.246
430.27	23.878
430.62	24.086
430.98	24.412
431.33	24.333
431.68	24.504
432.04	25.070
432.39	24.900
432.74	24.400
433.10	24.367
433.45	23.892
433.80	24.356
434.16	23.912
434.51	25.041
434.86	24.722
435.22	24.332
435.57	25.092
435.92	25.147
436.28	25.104
436.63	24.929
436.98	24.685
437.34	25.989
437.69	24.621
438.04	25.355
438.39	25.993
438.75	24.680
439.10	24.931
439.45	25.287
439.81	25.843
440.16	25.724
440.51	26.235
440.86	25.333
441.22	24.655
441.57	24.789
441.92	25.217
442.27	24.946
442.63	26.073
442.98	25.903
443.33	26.139
443.68	26.003
444.03	25.295
444.39	25.795
444.74	26.267
445.09	26.042
445.44	26.449
445.79	26.568
446.15	25.685
446.50	26.293
446.85	25.859
447.20	25.485
447.55	26.243
447.91	26.165
448.26	25.363
448.61	25.014
448.96	25.994
449.31	26.156
449.66	26.903
450.02	25.817
450.37	26.725
450.72	25.763
451.07	27.656
451.42	25.279
451.77	27.050
452.12	26.639
452.47	26.259
452.83	25.451
453.18	26.692
453.53	26.057
453.88	26.914
454.23	26.179
454.58	26.414
454.93	28.401
455.28	26.514
455.63	26.413
455.98	26.807
456.34	25.349
456.69	27.079
457.04	26.859
457.39	26.316
457.74	26.698
458.09	26.798
458.44	26.848
458.79	27.018
459.14	26.184
459.49	27.057
459.84	26.813
460.19	26.432
460.54	25.832
460.89	26.345
461.24	26.958
461.59	26.964
461.94	27.689
462.29	27.397
462.64	26.548
462.99	26.841
463.34	25.726
463.69	27.799
464.04	27.182
464.39	25.747
464.74	26.891
465.09	25.436
465.44	26.283
465.79	27.073
466.14	27.445
466.49	26.713
466.84	27.491
467.19	26.309
467.54	25.253
467.89	26.880
468.24	27.257
468.59	26.796
468.94	27.010
469.29	26.121
469.64	27.426
469.99	27.211
470.34	27.321
470.68	28.416
471.03	26.497
471.38	26.458
471.73	26.923
472.08	26.305
472.43	27.413
472.78	26.800
473.13	25.447
473.48	27.377
473.83	27.481
474.17	26.752
474.52	28.389
474.87	27.214
475.22	25.900
475.57	26.889
475.92	26.782
476.27	27.029
476.61	26.648
476.96	27.110
477.31	26.749
477.66	27.559
478.01	28.147
478.36	26.454
478.70	26.802
479.05	26.339
479.40	26.943
479.75	26.911
480.10	26.736
480.45	26.112
480.79	26.950
481.14	27.597
481.49	26.960
481.84	27.416
482.19	27.227
482.53	27.178
482.88	27.385
483.23	26.995
483.58	27.891
483.92	26.995
484.27	26.362
484.62	26.436
484.97	26.461
485.31	25.888
485.66	25.493
486.01	25.496
486.36	26.506
486.70	27.075
487.05	26.466
487.40	26.656
487.75	26.811
488.09	26.035
488.44	26.590
488.79	25.999
489.13	26.550
489.48	27.121
489.83	27.249
490.17	26.643
490.52	27.717
490.87	26.605
491.22	26.436
491.56	26.759
491.91	26.718
492.26	26.462
492.60	27.212
492.95	26.844
493.30	26.584
493.64	26.516
493.99	27.055
494.34	26.952
494.68	27.434
495.03	26.816
495.37	26.450
495.72	27.554
496.07	27.780
496.41	27.374
496.76	26.301
497.11	27.367
497.45	27.107
497.80	27.514
498.14	27.063
498.49	27.072
498.84	27.282
499.18	27.924
499.53	26.985
499.87	25.869
500.22	26.912
500.56	26.663
500.91	26.897
501.26	27.026
501.60	26.673
501.95	28.068
502.29	25.555
502.64	27.063
502.98	26.497
503.33	26.598
503.67	26.628
504.02	26.702
504.36	26.569
504.71	26.494
505.06	26.810
505.40	26.447
505.75	27.033
506.09	28.210
506.44	26.867
506.78	27.446
507.13	26.725
507.47	26.552
507.82	27.517
508.16	26.218
508.51	26.636
508.85	26.915
509.19	27.263
509.54	27.590
509.88	27.287
510.23	27.830
510.57	27.407
510.92	27.873
511.26	28.070
511.61	27.268
511.95	27.317
512.30	27.708
512.64	26.433
512.98	27.998
513.33	28.007
513.67	27.638
514.02	27.349
514.36	27.756
514.70	27.221
515.05	27.273
515.39	27.105
515.74	28.214
516.08	27.147
516.42	28.612
516.77	27.036
517.11	27.117
517.46	28.529
517.80	28.400
518.14	27.295
518.49	27.436
518.83	27.774
519.17	28.301
519.52	27.068
519.86	28.554
520.20	28.178
520.55	27.938
520.89	27.677
521.23	27.900
521.58	28.213
521.92	28.689
522.26	28.063
522.61	27.693
522.95	28.015
523.29	27.962
523.64	27.920
523.98	28.453
524.32	28.598
524.66	26.708
525.01	27.810
525.35	29.188
525.69	27.456
526.04	28.525
526.38	28.390
526.72	26.692
527.06	28.125
527.41	26.469
527.75	27.063
528.09	27.995
528.43	27.803
528.78	27.513
529.12	28.425
529.46	27.835
529.80	27.308
530.15	28.203
530.49	27.943
530.83	28.618
531.17	28.013
531.51	27.997
531.86	27.716
532.20	27.665
532.54	27.473
532.88	27.931
533.22	27.941
533.57	27.219
533.91	26.467
534.25	27.153
534.59	26.608
534.93	26.882
535.27	28.005
535.62	27.430
535.96	26.761
536.30	27.683
536.64	27.357
536.98	28.672
537.32	27.091
537.66	26.612
538.01	27.560
538.35	27.770
538.69	26.270
539.03	28.165
539.37	27.545
539.71	27.752
540.05	27.485
540.39	28.116
540.73	27.505
541.07	29.098
541.42	26.941
541.76	26.977
542.10	28.494
542.44	28.181
542.78	27.815
543.12	27.902
543.46	26.986
543.80	27.425
544.14	26.998
544.48	27.493
544.82	27.943
545.16	28.236
545.50	26.783
545.84	28.581
546.18	28.017
546.52	28.450
546.86	28.846
547.20	28.411
547.54	26.584
547.88	27.737
548.22	26.016
548.56	27.188
548.90	27.493
549.24	27.540
549.58	27.664
549.92	28.057
550.26	28.179
550.60	27.383
550.94	28.686
551.28	28.217
551.62	27.843
551.96	28.148
552.30	26.690
552.64	28.220
552.98	28.802
553.32	28.066
553.66	28.695
554.00	28.358
554.34	28.159
554.68	27.632
555.02	27.858
555.36	28.037
555.69	28.295
556.03	28.351
556.37	28.094
556.71	28.561
557.05	28.086
557.39	26.726
557.73	28.446
558.07	27.581
558.41	27.749
558.75	28.213
559.08	26.926
559.42	27.795
559.76	28.221
560.10	28.337
560.44	28.468
560.78	29.228
561.12	27.053
561.45	28.630
561.79	28.502
562.13	26.999
562.47	27.941
562.81	27.228
563.15	27.502
563.48	28.196
563.82	27.383
564.16	27.113
564.50	27.285
564.84	27.910
565.17	26.790
565.51	28.162
565.85	28.195
566.19	27.866
566.52	27.593
566.86	26.802
567.20	27.845
567.54	28.293
567.88	27.806
568.21	26.957
568.55	27.359
568.89	26.889
569.23	27.534
569.56	26.818
569.90	26.987
570.24	27.433
570.57	26.327
570.91	26.012
571.25	26.265
571.59	26.756
571.92	26.042
572.26	25.584
572.60	26.342
572.93	25.797
573.27	25.945
573.61	25.695
573.95	25.812
574.28	26.100
574.62	25.724
574.96	25.499
575.29	25.508
575.63	25.591
575.97	25.620
576.30	25.459
576.64	25.822
576.98	25.404
577.31	25.435
577.65	25.788
577.98	25.431
578.32	25.405
578.66	25.801
578.99	25.388
579.33	25.446
579.67	25.361
580.00	25.843
580.34	25.563
580.67	25.545
581.01	25.571
581.35	26.194
581.68	25.134
582.02	25.610
582.35	25.420
582.69	26.303
583.02	25.862
583.36	25.429
583.70	26.037
584.03	26.105
584.37	25.954
584.70	25.720
585.04	25.772
585.37	25.322
585.71	25.641
586.04	26.064
586.38	26.143
586.72	25.874
587.05	25.998
587.39	25.731
587.72	25.909
588.06	26.245
588.39	26.773
588.73	26.645
589.06	26.950
589.40	27.104
589.73	26.239
590.07	26.329
590.40	26.568
590.73	27.069
591.07	26.721
591.40	26.776
591.74	26.238
592.07	27.072
592.41	27.346
592.74	26.672
593.08	26.571
593.41	26.414
593.75	26.311
594.08	27.139
594.41	26.470
594.75	26.840
595.08	27.105
595.42	27.023
595.75	26.277
596.09	27.086
596.42	27.291
596.75	26.822
597.09	27.605
597.42	26.582
597.75	26.616
598.09	26.977
598.42	26.337
598.76	26.080
599.09	26.204
599.42	26.682
599.76	27.067
600.09	27.137
600.42	26.965
600.76	27.119
601.09	26.244
601.42	26.157
601.76	26.752
602.09	26.135
602.42	27.284
602.76	26.174
603.09	25.766
603.42	27.236
603.76	27.044
604.09	26.952
604.42	26.520
604.76	26.864
605.09	26.944
605.42	26.640
605.75	27.469
606.09	27.231
606.42	26.979
606.75	26.836
607.09	27.040
607.42	27.069
607.75	26.843
608.08	27.429
608.42	27.152
608.75	26.215
609.08	26.206
609.41	27.205
609.75	26.816
610.08	27.941
610.41	26.843
610.74	26.886
611.07	27.535
611.41	25.920
611.74	27.147
612.07	28.034
612.40	26.599
612.73	27.141
613.07	25.757
613.40	27.094
613.73	27.575
614.06	26.908
614.39	28.072
614.72	27.486
615.06	26.848
615.39	26.641
615.72	27.322
616.05	27.333
616.38	27.336
616.71	26.246
617.05	27.563
617.38	27.245
617.71	27.641
618.04	27.702
618.37	27.987
618.70	27.901
619.03	26.947
619.36	27.202
619.69	29.002
620.03	27.824
620.36	27.989
620.69	27.925
621.02	28.919
621.35	27.742
621.68	27.623
622.01	27.832
622.34	27.873
622.67	27.891
623.00	28.156
623.33	27.985
623.66	26.662
623.99	27.594
624.32	27.827
624.65	27.815
624.99	27.409
625.32	27.919
625.65	27.661
625.98	27.308
626.31	28.303
626.64	27.531
626.97	28.425
627.30	29.191
627.63	26.684
627.96	28.808
628.29	27.298
628.62	27.985
628.95	29.134
629.28	28.853
629.61	28.165
629.94	28.922
630.26	28.827
630.59	28.241
630.92	27.828
631.25	29.234
631.58	28.783
631.91	26.702
632.24	29.222
632.57	28.556
632.90	29.310
633.23	28.271
633.56	29.240
633.89	29.599
634.22	27.981
634.55	28.125
634.88	29.021
635.20	28.464
635.53	28.244
635.86	27.582
636.19	28.571
636.52	28.554
636.85	27.437
637.18	27.625
637.51	30.359
637.83	29.294
638.16	28.947
638.49	28.552
638.82	28.443
639.15	30.739
639.48	26.848
639.81	29.322
640.13	28.243
640.46	29.487
640.79	30.392
641.12	30.465
641.45	29.555
641.77	29.192
642.10	28.550
642.43	28.528
642.76	31.654
643.09	31.587
643.41	29.841
643.74	31.638
644.07	29.953
644.40	29.660
644.73	29.703
645.05	29.382
645.38	30.629
645.71	34.192
646.04	30.084
646.36	28.272
646.69	29.931
647.02	31.047
647.35	30.144
647.67	29.380
648.00	29.701
648.33	32.546
648.66	27.419
648.98	30.096
649.31	29.077
649.64	32.031
649.96	30.298
650.29	28.361
650.62	31.325
650.94	28.162
651.27	29.983
651.60	29.066
651.92	29.452
652.25	28.715
652.58	26.065
652.90	30.337
653.23	28.871
653.56	28.763
653.88	29.508
654.21	29.362
654.54	28.571
654.86	27.769
655.19	28.797
655.52	27.513
655.84	26.017
656.17	28.298
656.49	38.211
656.82	39.865
657.15	30.451
657.47	22.258
657.80	17.407
658.13	19.573
658.45	26.499
658.78	25.884
659.10	25.878
659.43	25.321
659.75	26.672
660.08	25.833
660.41	25.931
660.73	26.623
661.06	30.145
661.38	30.357
661.71	27.151
662.03	28.427
662.36	30.064
662.68	31.857
663.01	30.786
663.33	32.426
663.66	31.974
663.98	31.920
664.31	28.859
664.63	32.743
664.96	27.766
665.28	31.887
665.61	29.810
665.93	30.247
666.26	30.364
666.58	30.769
666.91	29.176
667.23	29.605
667.56	29.252
667.88	31.222
668.21	29.724
668.53	28.505
668.86	33.949
669.18	26.941
669.50	30.374
669.83	28.710
670.15	28.924
670.48	28.738
670.80	26.424
671.13	28.894
671.45	29.279
671.77	27.409
672.10	31.558
672.42	29.151
672.75	30.909
673.07	27.568
673.39	29.690
673.72	31.102
674.04	28.238
674.37	28.247
674.69	30.738
675.01	26.383
675.34	30.369
675.66	30.670
675.98	27.974
676.31	30.769
676.63	31.264
676.95	28.319
677.28	29.466
677.60	29.412
677.92	30.396
678.25	27.790
678.57	32.305
678.89	27.463
679.22	28.721
679.54	30.375
679.86	27.400
680.18	30.418
680.51	28.305
680.83	30.667
681.15	26.782
681.48	29.817
681.80	29.435
682.12	29.980
682.44	28.487
682.77	28.788
683.09	29.350
683.41	28.982
683.73	28.995
684.06	26.667
684.38	30.126
684.70	30.247
685.02	30.906
685.34	29.045
685.67	25.189
685.99	26.087
686.31	28.905
686.63	28.014
686.96	26.987
687.28	28.709
687.60	29.883
687.92	23.541
688.24	29.724
688.56	26.052
688.89	26.496
689.21	29.103
689.53	28.046
689.85	25.835
690.17	30.269
690.49	28.868
690.82	27.711
691.14	23.585
691.46	32.816
691.78	27.753
692.10	28.390
692.42	26.444
692.74	27.682
693.06	29.213
693.39	28.635
693.71	27.314
694.03	29.374
694.35	26.411
694.67	26.714
694.99	28.645
695.31	28.571
695.63	29.592
695.95	29.032
696.27	30.673
696.59	32.888
696.91	29.213
697.23	28.646
697.56	27.644
697.88	27.027
698.20	28.908
698.52	26.009
698.84	28.883
699.16	28.810
699.48	27.750
699.80	28.070
700.12	29.975
700.44	27.095
700.76	26.822
701.08	27.616
701.40	25.076
701.72	26.235
702.04	30.769
702.36	29.518
702.68	27.844
703.00	26.087
703.32	26.361
703.64	30.000
703.96	26.744
704.28	27.515
704.60	26.899
704.91	26.032
705.23	27.184
705.55	30.068
705.87	28.669
706.19	26.736
706.51	29.167
706.83	28.525
707.15	31.210
707.47	30.579
707.79	25.515
708.11	26.209
708.43	27.182
708.74	29.091
709.06	22.284
709.38	27.586
709.70	29.063
710.02	27.607
710.34	24.752
710.66	28.571
710.98	25.868
711.29	24.516
711.61	25.879
711.93	27.541
712.25	28.239
712.57	30.662
712.89	30.935
713.20	30.928
713.52	25.746
713.84	24.555
714.16	27.541
714.48	26.667
714.80	29.231
715.11	27.089
715.43	28.614
715.75	27.726
716.07	27.541
716.39	27.759
716.70	25.784
717.02	29.259
717.34	30.916
717.66	28.216
717.97	22.131
718.29	30.672
718.61	26.587
718.93	23.297
719.24	26.838
719.56	21.887
719.88	29.818
720.20	28.839
720.51	30.451
720.83	29.719
721.15	28.689
721.46	30.588
721.78	24.904
722.10	27.600
722.42	29.752
722.73	27.888
723.05	30.522
723.37	28.627
723.68	26.316
724.00	29.268
724.32	25.926
724.63	22.822
724.95	27.686
725.27	25.439
725.58	26.724
725.90	21.825
726.22	29.889
726.53	27.376
726.85	21.176
727.16	27.820
727.48	28.462
727.80	23.361
728.11	28.992
728.43	27.686
728.74	22.656
729.06	24.621
729.38	29.183
729.69	25.984
730.01	26.772
730.32	23.904
730.64	25.641
730.96	27.239
731.27	22.500
731.59	28.939
731.90	23.620
732.22	25.767
732.53	32.781
732.85	23.154
733.16	23.188
733.48	26.132
733.80	22.064
734.11	26.897
734.43	28.912
734.74	27.300
735.06	26.959
735.37	27.217
735.69	23.548
736.00	20.875
736.32	24.503
736.63	22.069
736.95	25.725
737.26	25.166
737.58	27.698
737.89	28.674
738.21	24.060
738.52	27.692
738.83	26.172
739.15	27.350
739.46	27.419
739.78	24.825
740.09	24.126
740.41	22.028
740.72	28.467
741.04	28.571
741.35	18.615
741.66	29.167
741.98	20.952
742.29	24.883
742.61	31.016
742.92	32.710
743.23	21.491
743.55	25.676
743.86	27.556
744.18	27.619
744.49	30.542
744.80	26.904
745.12	25.773
745.43	31.658
745.74	30.097
746.06	23.902
746.37	29.956
746.68	27.363
747.00	25.131
747.31	25.000
747.62	31.336
747.94	21.834
748.25	29.767
748.56	24.762
748.88	22.826
749.19	32.394
749.50	36.275
749.82	26.222
750.13	29.956
750.44	27.642
750.75	25.200
751.07	27.500
751.38	22.878
751.69	24.046
752.01	26.154
752.32	24.125
752.63	26.154
752.94	26.587
753.26	26.957
753.57	25.000
753.88	23.276
754.19	24.481
754.51	24.609
754.82	26.482
755.13	26.337
755.44	26.860
755.75	27.160
756.07	18.876
756.38	26.172
756.69	24.188
757.00	27.526
757.31	24.161
757.63	29.283
757.94	23.410
758.25	22.384
758.56	29.111
758.87	26.705
759.18	22.333
759.50	23.843
759.81	19.708
760.12	21.622
760.43	25.243
760.74	26.250
761.05	28.652
761.36	26.048
761.67	25.740
761.99	23.548
762.30	24.275
762.61	23.774
762.92	25.112
763.23	26.540
763.54	21.333
763.85	25.738
764.16	27.347
764.47	26.271
764.78	24.719
765.10	26.259
765.41	22.258
765.72	24.214
766.03	22.615
766.34	20.301
766.65	27.126
766.96	26.000
767.27	27.604
767.58	28.488
767.89	32.903
768.20	23.313
768.51	26.230
768.82	25.405
769.13	22.000
769.44	26.754
769.75	25.541
770.06	26.147
770.37	23.474
770.68	20.312
770.99	26.238
771.30	19.903
771.61	21.759
771.92	24.675
772.23	23.832
772.54	19.149
772.85	23.669
773.16	26.829
773.47	27.108
773.78	25.275
774.09	17.333
774.39	27.160
774.70	14.765
775.01	21.739
775.32	17.164
775.63	15.702
775.94	22.556
776.25	20.000
776.56	14.754
776.87	25.664
777.18	28.319
777.48	15.455
777.79	20.870
778.10	23.853
778.41	22.881
778.72	17.355
779.03	17.910
779.34	23.308
779.65	21.569
779.95	23.188
780.26	18.367
780.57	22.414
780.88	19.444
781.19	11.111
781.50	11.200
781.80	22.222
782.11	23.077
782.42	26.506
782.73	13.139
783.04	18.243
783.34	26.515
783.65	22.481
783.96	26.016
784.27	19.658
784.57	22.764
784.88	17.073
785.19	21.053
785.50	3.093
785.81	15.238
786.11	15.686
786.42	18.182
786.73	24.324
787.04	25.743
787.34	25.714
787.65	13.333
787.96	16.667
788.26	22.523
788.57	22.581
788.88	20.312
789.19	17.094
789.49	19.328
789.80	22.222
790.11	17.699
790.41	24.242
790.72	26.415
791.03	15.278
791.33	10.526
791.64	23.656
791.95	13.333
792.25	4.286
792.56	14.634
792.87	27.551
793.17	19.737
793.48	-1.351
793.79	2.817
794.09	10.127
794.40	3.191
794.70	14.953
795.01	9.649
795.32	19.091
795.62	16.964
795.93	7.216
796.23	14.286
796.54	11.579
796.85	17.808
797.15	4.167
797.46	17.808
797.76	32.394
798.07	22.500
798.37	19.118
798.68	28.571
798.99	10.000
799.29	11.842
799.60	10.000
799.90	-4.167
800.21	23.438
800.51	15.873
800.82	8.197
801.12	21.053
801.43	7.042
801.73	1.695
802.04	16.393
802.34	16.364
802.65	-3.846
802.95	31.481
803.26	0.000
803.56	13.462
803.87	-26.316
804.17	11.290
804.48	9.231
804.78	-2.564
805.09	6.977
805.39	-6.250
805.70	-20.755
806.00	40.351
806.30	25.676
806.61	22.059
806.91	8.642
807.22	16.000
807.52	19.403
807.83	11.290
808.13	-4.762
808.43	12.727
808.74	19.697
809.04	16.981
809.35	26.027
809.65	10.526
809.95	7.353
810.26	13.725
810.56	4.000
810.86	8.163
811.17	-20.000
811.47	3.846
811.77	16.129
812.08	-39.474
812.38	0.000
812.69	-17.391
812.99	12.903
813.29	-16.667
813.59	-70.370
813.90	12.766
814.20	9.302
814.50	2.083
814.81	1.667
815.11	0.000
815.41	0.000
815.72	0.000
816.02	-13.889
816.32	17.949
816.62	0.000
816.93	-26.471
817.23	28.261
817.53	8.824
817.84	0.000
818.14	-50.000
818.44	-37.931
818.74	-25.806
819.04	0.000
819.35	-16.667
819.65	-20.000
819.95	-33.333
820.25	-36.000
820.56	-31.579
820.86	-40.000
821.16	17.021
821.46	8.621
821.76	0.000
822.07	-22.500
822.37	-13.953
822.67	-33.333
822.97	-16.216
823.27	10.811
823.57	8.000
823.88	2.703
824.18	-57.143
824.48	-15.385
824.78	-38.462
825.08	8.696
825.38	-12.500
825.69	-50.000
825.99	-50.000
826.29	18.919
826.59	-11.765
826.89	-20.000
827.19	-28.571
827.49	28.947
827.79	-21.875
828.09	-23.333
828.39	21.739
828.70	-27.586
829.00	-48.276
829.30	13.889
829.60	21.875
829.90	-66.667
830.20	-23.077
830.50	-71.429
830.80	-42.857
831.10	-10.256
831.40	-47.619
831.70	23.529
832.00	0.000
832.30	-21.053
832.60	-87.500
832.90	-50.000
833.20	-76.471
833.50	-120.000
833.80	-73.333
834.10	-40.000
834.40	-12.500
834.70	-16.667
835.00	19.231
835.30	-58.333
835.60	-24.138
835.90	-38.889
836.20	-145.455
836.50	-41.667
836.80	-17.143
837.10	25.714
837.40	-82.353
837.70	-90.909
838.00	-20.833
838.30	-62.500
838.60	-19.048
838.90	15.000
839.19	-43.478
839.49	-4.348
839.79	-33.333
840.09	-86.957
840.39	-4.545
840.69	-56.250
840.99	-31.579
841.29	-37.500
841.59	-42.857
841.88	-33.333
842.18	-8.333
842.48	-100.000
842.78	-24.138
843.08	-100.000
843.38	23.077
843.68	-166.667
843.97	-107.692
844.27	-145.455
844.57	-260.000
844.87	4.000
845.17	-180.000
845.47	-64.286
845.76	-166.667
846.06	0.000
846.36	-425.000
846.66	-150.000
846.96	-57.895
847.25	-12.500
847.55	-25.000
847.85	-60.000
848.15	-40.000
848.44	38.462
848.74	-36.842
849.04	600.000
849.34	-55.556
849.63	-42.105
849.93	0.000
850.23	-105.000
850.53	-14.286
850.82	-20.000
851.12	0.000
851.42	-900.000
851.71	-50.000
852.01	-141.667
852.31	-41.176
852.61	-53.333
852.90	-90.476
853.20	-166.667
853.50	-55.556
853.79	-47.368
854.09	-40.000
854.39	14.286
854.68	-39.130
854.98	-208.333
855.28	-6.897
855.57	-68.750
855.87	-5.000
856.17	-80.000
856.46	3.448
856.76	-33.333
857.05	-70.588
857.35	-161.538
857.65	-109.091
857.94	11.111
858.24	-71.429
858.53	-28.571
858.83	-116.667
859.13	-144.444
859.42	-33.333
859.72	-87.500
860.01	-566.667
860.31	-75.000
860.60	-320.000
860.90	-111.111
861.20	-75.000
861.49	-85.714
861.79	64.706
862.08	-400.000
862.38	-191.667
862.67	-92.308
862.97	-70.588
863.26	45.000
863.56	-29.412
863.85	533.333
864.15	-190.000
864.44	-53.846
864.74	60.000
865.03	-187.500
865.33	-233.333
865.62	-11.765
865.92	-625.000
866.21	-64.286
866.51	-50.000
866.80	-100.000
867.10	-266.667
867.39	17.647
867.69	8.696
867.98	-57.143
868.27	-520.000
868.57	-43.750
868.86	-209.091
869.16	-23.529
869.45	-100.000
869.75	-171.429
870.04	1000.000
870.33	-100.000
870.63	-60.000
870.92	-133.333
871.22	-25.000
871.51	-81.818
871.80	-108.333
872.10	50.000
>>>>>End Processed Spectral Data<<<<<
