SpectraSuite Data File
++++++++++++++++++++++++++++++++++++
Date: Sat May 16 11:29:10 PDT 2015
User: schluterlab
Dark Spectrum Present: Yes
Reference Spectrum Present: Yes
Number of Sampled Component Spectra: 1
Spectrometers: USB2E3373
Integration Time (usec): 3000 (USB2E3373)
Spectra Averaged: 3 (USB2E3373)
Boxcar Smoothing: 0 (USB2E3373)
Correct for Electrical Dark: No (USB2E3373)
Strobe/Lamp Enabled: No (USB2E3373)
Correct for Detector Non-linearity: No (USB2E3373)
Correct for Stray Light: No (USB2E3373)
Number of Pixels in Processed Spectrum: 2048
>>>>>Begin Processed Spectral Data<<<<<
178.53	0.000
178.91	126.667
179.29	733.333
179.67	-1300.000
180.04	-30.769
180.42	1600.000
180.80	325.000
181.18	450.000
181.56	-37.500
181.94	1800.000
182.31	300.000
182.69	-46.154
183.07	-466.667
183.45	1300.000
183.83	433.333
184.20	-100.000
184.58	-62.500
184.96	-450.000
185.34	81.250
185.72	-500.000
186.09	166.667
186.47	-200.000
186.85	-175.000
187.23	37.500
187.61	-300.000
187.98	-312.500
188.36	-162.500
188.74	-187.500
189.12	1200.000
189.49	342.857
189.87	-16.667
190.25	475.000
190.63	7.143
191.00	-188.889
191.38	360.000
191.76	-13.333
192.14	380.000
192.51	-120.000
192.89	-433.333
193.27	0.000
193.65	-177.778
194.02	-300.000
194.40	633.333
194.78	-180.000
195.15	-1300.000
195.53	-145.455
195.91	-400.000
196.29	200.000
196.66	-233.333
197.04	2700.000
197.42	-250.000
197.79	0.000
198.17	-633.333
198.55	-550.000
198.92	-1000.000
199.30	287.500
199.68	-750.000
200.05	-133.333
200.43	-166.667
200.81	-2500.000
201.18	-50.000
201.56	314.286
201.94	-26.667
202.31	-40.909
202.69	-30.000
203.07	-140.000
203.44	533.333
203.82	-250.000
204.19	-150.000
204.57	-275.000
204.95	-1800.000
205.32	-12.500
205.70	700.000
206.08	-2200.000
206.45	-61.111
206.83	-1250.000
207.20	350.000
207.58	-833.333
207.96	-533.333
208.33	-212.500
208.71	-100.000
209.08	230.000
209.46	-257.143
209.84	1150.000
210.21	0.000
210.59	10.000
210.96	300.000
211.34	-233.333
211.71	-300.000
212.09	100.000
212.46	900.000
212.84	-2300.000
213.22	700.000
213.59	150.000
213.97	-144.444
214.34	170.000
214.72	-50.000
215.09	-133.333
215.47	-233.333
215.84	-60.000
216.22	-170.000
216.59	-26.667
216.97	-400.000
217.34	700.000
217.72	-28.571
218.09	-283.333
218.47	-314.286
218.84	228.571
219.22	-228.571
219.59	0.000
219.97	200.000
220.34	325.000
220.72	187.500
221.09	-76.923
221.47	0.000
221.84	233.333
222.22	-300.000
222.59	800.000
222.97	-212.500
223.34	-500.000
223.72	-566.667
224.09	-100.000
224.46	-325.000
224.84	-71.429
225.21	-214.286
225.59	-9.091
225.96	-137.500
226.34	-142.857
226.71	-133.333
227.08	10.000
227.46	1800.000
227.83	-157.143
228.21	-212.500
228.58	600.000
228.95	-6.250
229.33	-1300.000
229.70	-80.000
230.08	-950.000
230.45	41.667
230.82	-266.667
231.20	-1200.000
231.57	-600.000
231.95	2000.000
232.32	14.286
232.69	-111.111
233.07	-285.714
233.44	-1300.000
233.81	-53.333
234.19	-166.667
234.56	-62.500
234.93	31.250
235.31	-28.571
235.68	-107.143
236.05	-100.000
236.43	-54.545
236.80	3.226
237.17	8.333
237.55	-14.286
237.92	-95.455
238.29	-22.857
238.67	-20.588
239.04	27.778
239.41	-19.355
239.79	12.821
240.16	14.286
240.53	9.091
240.91	25.641
241.28	21.818
241.65	24.615
242.02	31.148
242.40	34.426
242.77	39.394
243.14	20.339
243.51	35.714
243.89	22.785
244.26	29.213
244.63	28.421
245.00	32.632
245.38	31.356
245.75	32.743
246.12	28.800
246.49	37.008
246.87	34.959
247.24	32.203
247.61	27.119
247.98	31.690
248.36	27.273
248.73	36.076
249.10	36.943
249.47	24.561
249.84	40.341
250.22	30.357
250.59	38.418
250.96	39.791
251.33	42.180
251.70	32.212
252.08	32.227
252.45	29.384
252.82	36.667
253.19	31.489
253.56	33.065
253.94	32.489
254.31	37.339
254.68	42.276
255.05	38.710
255.42	41.667
255.79	31.183
256.16	40.000
256.54	44.485
256.91	38.258
257.28	32.967
257.65	38.298
258.02	38.365
258.39	37.793
258.76	36.149
259.14	37.037
259.51	37.377
259.88	37.500
260.25	40.062
260.62	42.444
260.99	36.499
261.36	39.024
261.73	40.751
262.10	38.889
262.47	40.741
262.85	40.286
263.22	35.530
263.59	39.385
263.96	39.420
264.33	37.127
264.70	40.884
265.07	39.286
265.44	37.984
265.81	37.984
266.18	38.228
266.55	37.255
266.92	39.798
267.29	37.288
267.66	37.037
268.03	39.855
268.40	41.549
268.77	39.759
269.14	38.747
269.51	40.690
269.88	32.798
270.25	37.762
270.62	38.444
270.99	35.811
271.36	41.492
271.73	38.341
272.10	39.130
272.47	37.556
272.84	39.778
273.21	37.615
273.58	40.440
273.95	38.816
274.32	40.045
274.69	41.138
275.06	39.059
275.43	38.393
275.80	38.697
276.17	38.912
276.54	41.752
276.91	41.152
277.28	38.945
277.65	40.496
278.02	40.710
278.39	41.257
278.76	41.235
279.13	38.735
279.50	41.352
279.87	39.746
280.23	39.069
280.60	39.165
280.97	39.612
281.34	40.426
281.71	39.808
282.08	43.750
282.45	38.697
282.82	38.566
283.19	36.182
283.56	40.110
283.92	40.636
284.29	37.361
284.66	35.971
285.03	39.394
285.40	40.959
285.77	40.175
286.14	39.350
286.51	36.234
286.87	38.838
287.24	39.590
287.61	36.198
287.98	37.088
288.35	36.198
288.72	34.975
289.08	32.881
289.45	35.185
289.82	36.678
290.19	35.961
290.56	34.711
290.93	34.817
291.29	35.170
291.66	35.588
292.03	34.380
292.40	33.133
292.77	32.764
293.13	33.821
293.50	33.581
293.87	33.129
294.24	33.183
294.60	31.970
294.97	34.446
295.34	31.704
295.71	32.738
296.08	32.258
296.44	29.900
296.81	33.761
297.18	29.437
297.55	32.345
297.91	31.381
298.28	31.918
298.65	30.683
299.02	32.888
299.38	31.283
299.75	30.978
300.12	30.128
300.48	29.412
300.85	29.096
301.22	28.849
301.59	29.129
301.95	29.597
302.32	29.074
302.69	29.865
303.05	29.182
303.42	29.125
303.79	30.024
304.15	28.318
304.52	26.954
304.89	28.217
305.25	28.571
305.62	28.555
305.99	29.918
306.35	27.969
306.72	26.538
307.09	29.058
307.45	27.242
307.82	26.480
308.19	28.300
308.55	27.342
308.92	26.423
309.29	26.919
309.65	25.769
310.02	26.998
310.38	26.595
310.75	26.742
311.12	26.963
311.48	26.827
311.85	26.365
312.22	26.880
312.58	26.144
312.95	26.504
313.31	27.572
313.68	27.136
314.05	26.706
314.41	25.252
314.78	25.475
315.14	25.370
315.51	26.342
315.87	26.621
316.24	25.753
316.61	25.912
316.97	26.468
317.34	25.337
317.70	25.510
318.07	25.560
318.43	25.187
318.80	25.352
319.16	25.516
319.53	25.470
319.89	24.271
320.26	26.667
320.62	25.577
320.99	24.876
321.35	23.448
321.72	24.258
322.08	26.409
322.45	24.059
322.81	25.841
323.18	25.072
323.54	25.878
323.91	25.209
324.27	25.000
324.64	25.137
325.00	23.997
325.37	24.344
325.73	26.422
326.10	24.446
326.46	24.518
326.83	24.340
327.19	25.271
327.56	25.298
327.92	25.743
328.29	24.329
328.65	24.727
329.01	24.647
329.38	23.729
329.74	24.542
330.11	24.207
330.47	24.523
330.84	25.115
331.20	23.466
331.56	24.521
331.93	23.890
332.29	24.658
332.66	24.934
333.02	24.525
333.38	25.538
333.75	25.467
334.11	24.711
334.48	23.654
334.84	24.234
335.20	24.113
335.57	23.466
335.93	24.172
336.29	23.826
336.66	23.348
337.02	23.874
337.38	23.351
337.75	23.881
338.11	23.792
338.47	23.932
338.84	24.319
339.20	23.023
339.56	24.242
339.93	24.427
340.29	22.675
340.65	23.164
341.02	22.850
341.38	23.673
341.74	23.370
342.11	23.464
342.47	22.747
342.83	23.342
343.20	22.545
343.56	22.531
343.92	23.205
344.28	25.147
344.65	22.690
345.01	22.521
345.37	23.671
345.73	22.504
346.10	22.895
346.46	21.365
346.82	23.015
347.19	22.514
347.55	22.873
347.91	22.283
348.27	22.912
348.63	23.506
349.00	22.673
349.36	22.248
349.72	23.646
350.08	21.893
350.45	21.986
350.81	23.010
351.17	22.347
351.53	21.718
351.89	23.605
352.26	22.636
352.62	23.041
352.98	22.152
353.34	22.942
353.70	21.081
354.07	22.266
354.43	23.478
354.79	22.742
355.15	21.885
355.51	22.109
355.87	22.609
356.24	21.604
356.60	23.691
356.96	21.555
357.32	22.090
357.68	21.379
358.04	21.401
358.40	22.506
358.77	21.329
359.13	22.035
359.49	23.129
359.85	21.113
360.21	21.233
360.57	22.666
360.93	22.296
361.29	22.870
361.66	21.723
362.02	22.411
362.38	21.203
362.74	21.538
363.10	20.445
363.46	22.080
363.82	21.793
364.18	22.069
364.54	23.016
364.90	21.733
365.26	21.469
365.62	21.810
365.98	22.262
366.35	22.113
366.71	21.494
367.07	21.665
367.43	21.688
367.79	22.131
368.15	20.768
368.51	22.727
368.87	22.253
369.23	22.175
369.59	21.944
369.95	21.705
370.31	22.785
370.67	20.969
371.03	20.991
371.39	21.004
371.75	22.246
372.11	22.238
372.47	21.547
372.83	21.558
373.19	22.357
373.55	21.534
373.91	22.119
374.27	22.245
374.63	20.911
374.99	22.392
375.35	22.073
375.71	22.890
376.07	22.040
376.42	19.735
376.78	21.373
377.14	22.169
377.50	21.728
377.86	22.497
378.22	21.482
378.58	21.865
378.94	21.455
379.30	22.060
379.66	21.554
380.02	21.212
380.38	21.208
380.74	21.512
381.09	22.203
381.45	20.943
381.81	21.658
382.17	21.241
382.53	21.398
382.89	22.309
383.25	22.396
383.61	20.932
383.97	21.678
384.32	21.589
384.68	21.524
385.04	21.135
385.40	21.789
385.76	22.073
386.12	21.924
386.48	22.153
386.83	21.350
387.19	22.534
387.55	21.805
387.91	21.162
388.27	20.808
388.62	21.575
388.98	21.987
389.34	21.665
389.70	21.255
390.06	21.193
390.42	22.051
390.77	21.893
391.13	22.236
391.49	21.023
391.85	22.444
392.20	20.874
392.56	21.014
392.92	21.791
393.28	21.699
393.64	21.046
393.99	22.154
394.35	23.054
394.71	21.186
395.07	22.285
395.42	20.441
395.78	20.302
396.14	22.181
396.50	21.284
396.85	20.173
397.21	20.960
397.57	21.945
397.92	22.717
398.28	21.444
398.64	21.356
399.00	22.640
399.35	22.266
399.71	21.777
400.07	22.448
400.42	22.567
400.78	21.348
401.14	20.958
401.49	21.108
401.85	22.148
402.21	21.395
402.57	22.633
402.92	21.838
403.28	21.262
403.63	20.731
403.99	21.877
404.35	20.713
404.70	21.943
405.06	22.203
405.42	21.710
405.77	22.002
406.13	21.522
406.49	22.109
406.84	21.416
407.20	22.144
407.55	21.533
407.91	20.855
408.27	22.059
408.62	21.768
408.98	21.710
409.34	22.669
409.69	21.865
410.05	21.771
410.40	20.907
410.76	21.932
411.11	22.382
411.47	21.995
411.83	21.516
412.18	20.792
412.54	21.049
412.89	21.324
413.25	20.248
413.60	21.750
413.96	21.010
414.31	21.529
414.67	20.698
415.03	22.510
415.38	22.381
415.74	21.585
416.09	21.036
416.45	20.569
416.80	21.196
417.16	21.860
417.51	22.390
417.87	22.006
418.22	22.250
418.58	22.208
418.93	21.950
419.29	20.765
419.64	21.545
420.00	22.357
420.35	21.230
420.71	21.669
421.06	21.420
421.42	21.604
421.77	21.943
422.12	21.600
422.48	21.593
422.83	22.779
423.19	21.437
423.54	21.729
423.90	20.937
424.25	21.210
424.61	22.135
424.96	21.358
425.31	21.129
425.67	22.178
426.02	21.457
426.38	22.565
426.73	20.690
427.09	21.630
427.44	22.045
427.79	21.337
428.15	22.861
428.50	22.229
428.85	21.523
429.21	21.638
429.56	21.458
429.92	21.944
430.27	21.834
430.62	21.891
430.98	21.798
431.33	22.412
431.68	21.555
432.04	21.377
432.39	21.937
432.74	21.343
433.10	21.666
433.45	21.013
433.80	21.725
434.16	21.870
434.51	21.479
434.86	22.554
435.22	21.325
435.57	21.787
435.92	21.923
436.28	22.433
436.63	21.764
436.98	21.077
437.34	21.618
437.69	22.112
438.04	21.044
438.39	21.119
438.75	21.246
439.10	22.210
439.45	21.967
439.81	21.446
440.16	21.522
440.51	21.588
440.86	21.631
441.22	21.227
441.57	22.105
441.92	21.330
442.27	22.673
442.63	21.513
442.98	20.767
443.33	21.691
443.68	22.199
444.03	21.857
444.39	22.516
444.74	21.751
445.09	21.272
445.44	21.666
445.79	21.826
446.15	21.796
446.50	20.686
446.85	21.344
447.20	20.991
447.55	22.597
447.91	21.280
448.26	21.564
448.61	21.166
448.96	22.913
449.31	21.759
449.66	22.324
450.02	21.440
450.37	21.449
450.72	22.316
451.07	21.747
451.42	21.314
451.77	22.801
452.12	21.871
452.47	21.851
452.83	20.909
453.18	21.632
453.53	21.642
453.88	21.950
454.23	21.221
454.58	21.939
454.93	22.922
455.28	21.734
455.63	22.113
455.98	21.807
456.34	21.601
456.69	23.139
457.04	22.004
457.39	21.411
457.74	22.800
458.09	21.636
458.44	22.748
458.79	22.085
459.14	23.160
459.49	22.143
459.84	21.529
460.19	22.315
460.54	22.444
460.89	21.861
461.24	22.283
461.59	21.747
461.94	21.833
462.29	22.633
462.64	21.871
462.99	22.624
463.34	22.417
463.69	23.092
464.04	22.086
464.39	21.983
464.74	22.340
465.09	21.888
465.44	22.673
465.79	21.715
466.14	23.015
466.49	22.395
466.84	22.689
467.19	22.257
467.54	22.278
467.89	22.133
468.24	21.793
468.59	22.299
468.94	23.473
469.29	22.287
469.64	22.776
469.99	23.295
470.34	22.445
470.68	21.948
471.03	23.262
471.38	22.153
471.73	23.636
472.08	22.624
472.43	22.458
472.78	22.733
473.13	22.730
473.48	22.719
473.83	21.650
474.17	22.739
474.52	23.977
474.87	22.611
475.22	22.832
475.57	22.389
475.92	22.732
476.27	21.886
476.61	23.549
476.96	22.135
477.31	22.551
477.66	22.966
478.01	23.771
478.36	23.049
478.70	22.371
479.05	22.769
479.40	23.005
479.75	22.375
480.10	22.470
480.45	22.244
480.79	22.310
481.14	22.730
481.49	22.652
481.84	22.561
482.19	23.253
482.53	23.106
482.88	22.164
483.23	23.192
483.58	22.988
483.92	22.647
484.27	22.242
484.62	22.505
484.97	22.681
485.31	21.248
485.66	21.481
486.01	20.993
486.36	21.975
486.70	22.124
487.05	22.087
487.40	22.409
487.75	21.786
488.09	21.927
488.44	22.361
488.79	22.497
489.13	23.165
489.48	23.165
489.83	22.969
490.17	23.335
490.52	23.324
490.87	23.141
491.22	23.354
491.56	23.796
491.91	23.473
492.26	23.585
492.60	23.549
492.95	23.132
493.30	23.392
493.64	22.849
493.99	23.566
494.34	23.381
494.68	23.596
495.03	23.566
495.37	23.255
495.72	23.281
496.07	23.510
496.41	23.715
496.76	23.973
497.11	24.023
497.45	24.569
497.80	22.861
498.14	23.919
498.49	23.807
498.84	22.718
499.18	24.366
499.53	24.403
499.87	23.793
500.22	24.706
500.56	23.962
500.91	23.350
501.26	24.406
501.60	22.773
501.95	23.961
502.29	23.477
502.64	23.857
502.98	22.760
503.33	23.778
503.67	23.515
504.02	23.129
504.36	24.118
504.71	23.151
505.06	24.663
505.40	24.351
505.75	23.526
506.09	24.065
506.44	23.709
506.78	23.934
507.13	24.305
507.47	24.100
507.82	23.490
508.16	24.508
508.51	24.420
508.85	23.602
509.19	25.170
509.54	24.683
509.88	24.149
510.23	24.895
510.57	24.762
510.92	24.597
511.26	24.774
511.61	24.298
511.95	24.353
512.30	24.519
512.64	24.318
512.98	24.862
513.33	23.723
513.67	25.014
514.02	23.546
514.36	24.044
514.70	24.052
515.05	25.100
515.39	25.317
515.74	25.596
516.08	24.611
516.42	25.212
516.77	25.072
517.11	25.400
517.46	25.538
517.80	26.113
518.14	24.396
518.49	25.403
518.83	24.688
519.17	25.636
519.52	24.754
519.86	25.687
520.20	24.939
520.55	25.292
520.89	24.984
521.23	25.153
521.58	24.828
521.92	25.522
522.26	25.841
522.61	25.285
522.95	25.463
523.29	24.828
523.64	24.547
523.98	25.461
524.32	24.827
524.66	24.286
525.01	25.819
525.35	26.418
525.69	26.090
526.04	26.240
526.38	25.971
526.72	25.223
527.06	26.432
527.41	25.215
527.75	25.347
528.09	25.347
528.43	25.639
528.78	25.628
529.12	25.864
529.46	25.709
529.80	24.790
530.15	25.177
530.49	25.032
530.83	25.999
531.17	25.455
531.51	26.323
531.86	25.872
532.20	26.181
532.54	26.404
532.88	25.494
533.22	25.401
533.57	26.110
533.91	24.719
534.25	24.953
534.59	24.859
534.93	25.140
535.27	26.054
535.62	25.192
535.96	24.887
536.30	24.935
536.64	25.697
536.98	25.353
537.32	26.054
537.66	25.187
538.01	25.361
538.35	25.000
538.69	25.401
539.03	26.202
539.37	25.349
539.71	26.017
540.05	25.771
540.39	25.900
540.73	25.570
541.07	26.025
541.42	24.038
541.76	24.850
542.10	25.726
542.44	25.983
542.78	25.373
543.12	24.983
543.46	24.795
543.80	24.615
544.14	25.118
544.48	25.328
544.82	24.493
545.16	25.084
545.50	25.437
545.84	26.217
546.18	25.589
546.52	24.822
546.86	25.000
547.20	26.442
547.54	24.380
547.88	25.282
548.22	24.771
548.56	24.382
548.90	25.270
549.24	25.718
549.58	25.970
549.92	25.442
550.26	25.578
550.60	25.889
550.94	26.569
551.28	26.336
551.62	25.258
551.96	26.194
552.30	26.132
552.64	25.616
552.98	25.088
553.32	24.315
553.66	25.523
554.00	26.368
554.34	24.477
554.68	25.219
555.02	26.339
555.36	26.096
555.69	24.355
556.03	25.333
556.37	25.818
556.71	25.913
557.05	25.795
557.39	24.276
557.73	26.331
558.07	25.471
558.41	25.654
558.75	25.247
559.08	24.358
559.42	25.191
559.76	26.227
560.10	25.429
560.44	25.795
560.78	24.983
561.12	25.190
561.45	25.479
561.79	24.599
562.13	25.105
562.47	24.160
562.81	25.743
563.15	25.472
563.48	25.916
563.82	25.220
564.16	24.882
564.50	26.411
564.84	25.331
565.17	24.867
565.51	25.228
565.85	25.828
566.19	26.087
566.52	25.571
566.86	24.210
567.20	25.666
567.54	26.108
567.88	24.288
568.21	24.217
568.55	24.072
568.89	23.459
569.23	23.184
569.56	23.203
569.90	23.603
570.24	23.337
570.57	23.023
570.91	23.427
571.25	22.763
571.59	22.729
571.92	22.798
572.26	23.038
572.60	22.557
572.93	22.298
573.27	22.835
573.61	22.168
573.95	22.539
574.28	22.268
574.62	21.810
574.96	21.934
575.29	22.231
575.63	22.299
575.97	22.627
576.30	22.006
576.64	22.141
576.98	21.971
577.31	21.669
577.65	21.807
577.98	21.756
578.32	21.238
578.66	22.065
578.99	21.758
579.33	22.256
579.67	21.836
580.00	21.801
580.34	21.526
580.67	22.138
581.01	21.527
581.35	21.692
581.68	21.489
582.02	21.682
582.35	21.700
582.69	22.077
583.02	22.149
583.36	21.806
583.70	21.889
584.03	22.171
584.37	22.598
584.70	22.125
585.04	21.696
585.37	21.742
585.71	21.964
586.04	22.138
586.38	21.278
586.72	22.069
587.05	22.005
587.39	22.426
587.72	21.954
588.06	22.201
588.39	21.760
588.73	21.998
589.06	22.315
589.40	22.467
589.73	22.592
590.07	22.032
590.40	22.288
590.73	23.231
591.07	23.320
591.40	23.180
591.74	23.067
592.07	22.973
592.41	22.972
592.74	22.483
593.08	22.485
593.41	22.533
593.75	21.991
594.08	21.999
594.41	22.625
594.75	22.424
595.08	22.744
595.42	22.543
595.75	21.683
596.09	22.235
596.42	23.200
596.75	22.423
597.09	23.330
597.42	23.134
597.75	23.118
598.09	23.272
598.42	22.581
598.76	22.633
599.09	22.218
599.42	22.991
599.76	22.461
600.09	22.786
600.42	22.560
600.76	22.712
601.09	21.952
601.42	22.042
601.76	23.209
602.09	22.331
602.42	22.840
602.76	22.102
603.09	21.935
603.42	22.603
603.76	22.776
604.09	22.787
604.42	21.982
604.76	22.460
605.09	22.288
605.42	22.961
605.75	22.553
606.09	22.250
606.42	21.952
606.75	22.370
607.09	23.555
607.42	22.359
607.75	22.605
608.08	22.594
608.42	22.280
608.75	22.710
609.08	21.481
609.41	22.272
609.75	22.964
610.08	23.235
610.41	22.410
610.74	23.501
611.07	23.377
611.41	22.844
611.74	22.828
612.07	24.168
612.40	23.667
612.73	23.156
613.07	22.069
613.40	23.974
613.73	23.215
614.06	22.735
614.39	23.675
614.72	22.514
615.06	23.261
615.39	22.897
615.72	23.194
616.05	22.860
616.38	23.447
616.71	22.643
617.05	24.306
617.38	23.406
617.71	23.342
618.04	23.230
618.37	23.585
618.70	23.338
619.03	23.561
619.36	24.031
619.69	24.480
620.03	23.072
620.36	23.136
620.69	24.767
621.02	25.038
621.35	24.113
621.68	25.000
622.01	24.757
622.34	25.311
622.67	24.297
623.00	24.713
623.33	24.627
623.66	23.043
623.99	25.188
624.32	23.810
624.65	24.135
624.99	25.168
625.32	24.551
625.65	24.942
625.98	24.178
626.31	24.715
626.64	25.188
626.97	25.171
627.30	24.936
627.63	23.230
627.96	25.674
628.29	25.460
628.62	25.215
628.95	24.409
629.28	25.846
629.61	25.123
629.94	25.520
630.26	25.547
630.59	25.930
630.92	24.925
631.25	26.613
631.58	25.820
631.91	24.255
632.24	26.333
632.57	25.667
632.90	26.782
633.23	25.234
633.56	25.731
633.89	27.005
634.22	26.446
634.55	25.120
634.88	26.119
635.20	26.966
635.53	26.845
635.86	26.448
636.19	26.618
636.52	26.523
636.85	26.474
637.18	26.250
637.51	27.633
637.83	25.965
638.16	25.921
638.49	24.690
638.82	27.413
639.15	27.108
639.48	25.681
639.81	26.694
640.13	25.270
640.46	27.778
640.79	27.451
641.12	25.811
641.45	27.977
641.77	29.641
642.10	27.492
642.43	25.645
642.76	27.559
643.09	25.714
643.41	28.095
643.74	28.299
644.07	29.017
644.40	28.525
644.73	27.393
645.05	28.715
645.38	30.132
645.71	29.897
646.04	28.067
646.36	27.923
646.69	27.336
647.02	28.700
647.35	26.173
647.67	27.737
648.00	29.350
648.33	27.487
648.66	26.613
648.98	28.344
649.31	26.154
649.64	28.906
649.96	26.374
650.29	26.066
650.62	27.711
650.94	26.307
651.27	25.823
651.60	27.509
651.92	26.884
652.25	28.047
652.58	26.065
652.90	25.201
653.23	26.452
653.56	26.589
653.88	26.393
654.21	27.349
654.54	25.914
654.86	24.559
655.19	25.645
655.52	23.280
655.84	20.725
656.17	22.627
656.49	30.454
656.82	31.493
657.15	23.557
657.47	17.439
657.80	13.237
658.13	15.500
658.45	20.558
658.78	20.699
659.10	20.149
659.43	20.392
659.75	20.260
660.08	20.156
660.41	21.402
660.73	21.892
661.06	25.507
661.38	28.750
661.71	26.769
662.03	29.234
662.36	29.211
662.68	28.270
663.01	28.875
663.33	28.345
663.66	29.614
663.98	26.786
664.31	27.069
664.63	30.531
664.96	26.681
665.28	26.681
665.61	25.159
665.93	28.807
666.26	29.555
666.58	28.898
666.91	29.621
667.23	30.044
667.56	26.531
667.88	27.828
668.21	26.728
668.53	28.037
668.86	27.021
669.18	26.484
669.50	28.271
669.83	27.981
670.15	27.803
670.48	26.168
670.80	27.335
671.13	23.928
671.45	25.676
671.77	26.767
672.10	24.852
672.42	27.860
672.75	25.091
673.07	24.685
673.39	26.047
673.72	26.772
674.04	26.327
674.37	26.598
674.69	27.254
675.01	26.170
675.34	24.946
675.66	28.942
675.98	28.634
676.31	30.090
676.63	25.977
676.95	25.664
677.28	25.754
677.60	26.244
677.92	31.057
678.25	26.915
678.57	27.572
678.89	25.786
679.22	25.786
679.54	30.572
679.86	26.800
680.18	28.137
680.51	24.022
680.83	26.857
681.15	25.434
681.48	29.006
681.80	23.992
682.12	23.742
682.44	25.147
682.77	24.675
683.09	28.721
683.41	26.991
683.73	23.516
684.06	26.452
684.38	25.105
684.70	25.720
685.02	25.591
685.34	21.637
685.67	24.432
685.99	24.764
686.31	26.750
686.63	24.468
686.96	25.139
687.28	24.277
687.60	24.805
687.92	22.374
688.24	24.606
688.56	23.647
688.89	25.641
689.21	26.039
689.53	29.425
689.85	26.503
690.17	25.112
690.49	26.559
690.82	25.542
691.14	27.594
691.46	25.055
691.78	26.211
692.10	25.424
692.42	23.778
692.74	22.532
693.06	27.191
693.39	28.859
693.71	25.056
694.03	25.270
694.35	27.088
694.67	25.059
694.99	23.785
695.31	26.786
695.63	21.684
695.95	26.303
696.27	24.938
696.59	25.401
696.91	26.966
697.23	26.562
697.56	23.798
697.88	24.775
698.20	23.983
698.52	20.628
698.84	27.184
699.16	24.762
699.48	23.250
699.80	26.316
700.12	26.196
700.44	21.788
700.76	23.907
701.08	21.512
701.40	27.492
701.72	29.321
702.04	27.885
702.36	27.108
702.68	26.647
703.00	25.507
703.32	21.203
703.64	28.235
703.96	27.907
704.28	24.260
704.60	21.835
704.91	23.175
705.23	25.566
705.55	21.284
705.87	26.962
706.19	25.347
706.51	25.000
706.83	29.836
707.15	20.701
707.47	27.824
707.79	22.680
708.11	19.338
708.43	26.683
708.74	22.338
709.06	24.513
709.38	21.264
709.70	22.500
710.02	27.301
710.34	24.422
710.66	22.540
710.98	22.713
711.29	24.194
711.61	23.323
711.93	23.607
712.25	25.249
712.57	22.648
712.89	26.259
713.20	28.179
713.52	23.881
713.84	24.555
714.16	21.639
714.48	24.127
714.80	20.615
715.11	22.190
715.43	27.711
715.75	25.545
716.07	24.918
716.39	23.077
716.70	25.784
717.02	21.111
717.34	26.336
717.66	20.747
717.97	25.000
718.29	26.471
718.61	28.968
718.93	24.373
719.24	22.059
719.56	16.981
719.88	21.818
720.20	27.341
720.51	24.436
720.83	23.695
721.15	27.459
721.46	30.588
721.78	27.969
722.10	24.800
722.42	24.793
722.73	22.709
723.05	24.498
723.37	26.667
723.68	24.291
724.00	28.455
724.32	20.988
724.63	24.896
724.95	28.512
725.27	21.491
725.58	22.414
725.90	26.190
726.22	22.509
726.53	23.574
726.85	18.824
727.16	25.940
727.48	23.846
727.80	20.082
728.11	21.008
728.43	23.554
728.74	23.047
729.06	20.455
729.38	21.790
729.69	19.685
730.01	24.409
730.32	17.928
730.64	22.711
730.96	22.388
731.27	18.929
731.59	21.222
731.90	21.472
732.22	21.472
732.53	22.848
732.85	23.490
733.16	24.275
733.48	21.603
733.80	19.573
734.11	23.793
734.43	22.449
734.74	22.552
735.06	18.495
735.37	20.795
735.69	22.258
736.00	18.519
736.32	25.166
736.63	18.621
736.95	22.826
737.26	21.854
737.58	21.583
737.89	26.165
738.21	18.797
738.52	23.077
738.83	23.047
739.15	20.513
739.46	25.403
739.78	20.629
740.09	19.580
740.41	20.629
740.72	22.993
741.04	18.254
741.35	17.749
741.66	22.685
741.98	18.571
742.29	26.291
742.61	21.925
742.92	19.626
743.23	18.421
743.55	19.369
743.86	24.444
744.18	20.952
744.49	25.616
744.80	27.919
745.12	20.619
745.43	23.116
745.74	19.903
746.06	17.073
746.37	24.670
746.68	24.378
747.00	19.372
747.31	22.596
747.62	21.198
747.94	24.891
748.25	22.791
748.56	22.381
748.88	19.022
749.19	21.127
749.50	27.451
749.82	21.778
750.13	23.348
750.44	22.358
750.75	18.800
751.07	23.214
751.38	18.450
751.69	18.321
752.01	24.615
752.32	17.899
752.63	18.462
752.94	18.651
753.26	20.000
753.57	29.911
753.88	21.121
754.19	19.502
754.51	21.875
754.82	20.949
755.13	18.930
755.44	21.074
755.75	23.045
756.07	18.474
756.38	17.578
756.69	23.105
757.00	20.557
757.31	21.477
757.63	24.922
757.94	18.208
758.25	18.605
758.56	24.798
758.87	19.318
759.18	17.000
759.50	23.843
759.81	19.343
760.12	17.230
760.43	20.712
760.74	20.312
761.05	22.472
761.36	21.557
761.67	19.822
761.99	16.774
762.30	20.652
762.61	19.623
762.92	20.179
763.23	18.483
763.54	20.444
763.85	22.363
764.16	19.592
764.47	16.949
764.78	15.730
765.10	21.942
765.41	16.774
765.72	20.755
766.03	18.021
766.34	19.549
766.65	20.243
766.96	18.000
767.27	21.354
767.58	22.674
767.89	21.935
768.20	25.767
768.51	19.126
768.82	18.919
769.13	20.000
769.44	15.789
769.75	21.645
770.06	19.725
770.37	12.676
770.68	25.521
770.99	15.842
771.30	22.816
771.61	22.222
771.92	20.346
772.23	21.495
772.54	21.809
772.85	18.935
773.16	19.512
773.47	27.711
773.78	22.527
774.09	22.667
774.39	26.543
774.70	14.094
775.01	15.942
775.32	19.403
775.63	11.570
775.94	23.308
776.25	19.286
776.56	25.410
776.87	18.584
777.18	22.124
777.48	17.273
777.79	9.565
778.10	11.009
778.41	15.254
778.72	19.835
779.03	27.612
779.34	20.301
779.65	16.340
779.95	17.391
780.26	12.245
780.57	5.172
780.88	16.667
781.19	6.061
781.50	14.400
781.80	20.261
782.11	14.103
782.42	25.301
782.73	15.328
783.04	20.270
783.34	13.636
783.65	18.605
783.96	17.886
784.27	3.419
784.57	16.260
784.88	13.008
785.19	25.439
785.50	6.186
785.81	14.286
786.11	1.961
786.42	5.455
786.73	19.820
787.04	22.772
787.34	19.048
787.65	14.286
787.96	15.686
788.26	14.414
788.57	25.806
788.88	13.281
789.19	11.966
789.49	10.084
789.80	12.821
790.11	18.584
790.41	26.263
790.72	23.585
791.03	4.167
791.33	13.158
791.64	21.505
791.95	0.000
792.25	10.000
792.56	4.878
792.87	15.306
793.17	1.316
793.48	1.351
793.79	8.451
794.09	5.063
794.40	8.511
794.70	10.280
795.01	8.772
795.32	6.364
795.62	14.286
795.93	10.309
796.23	9.890
796.54	13.684
796.85	15.068
797.15	0.000
797.46	24.658
797.76	4.225
798.07	5.000
798.37	20.588
798.68	1.429
798.99	2.857
799.29	22.368
799.60	10.000
799.90	16.667
800.21	9.375
800.51	22.222
800.82	13.115
801.12	0.000
801.43	2.817
801.73	3.390
802.04	13.115
802.34	10.909
802.65	-7.692
802.95	14.815
803.26	-2.500
803.56	9.615
803.87	-21.053
804.17	9.677
804.48	6.154
804.78	-28.205
805.09	4.651
805.39	15.625
805.70	1.887
806.00	33.333
806.30	31.081
806.61	14.706
806.91	22.222
807.22	14.667
807.52	11.940
807.83	6.452
808.13	-4.762
808.43	3.636
808.74	4.545
809.04	-3.774
809.35	17.808
809.65	5.263
809.95	23.529
810.26	7.843
810.56	-14.000
810.86	18.367
811.17	-22.857
811.47	15.385
811.77	-32.258
812.08	-42.105
812.38	-11.905
812.69	-8.696
812.99	-32.258
813.29	7.143
813.59	-44.444
813.90	4.255
814.20	-18.605
814.50	8.333
814.81	15.000
815.11	-2.439
815.41	-16.667
815.72	25.714
816.02	-16.667
816.32	0.000
816.62	10.811
816.93	-20.588
817.23	-6.522
817.53	-14.706
817.84	-5.882
818.14	-3.125
818.44	-62.069
818.74	-6.452
819.04	-11.111
819.35	20.000
819.65	-36.000
819.95	0.000
820.25	-24.000
820.56	5.263
820.86	-15.000
821.16	6.383
821.46	18.966
821.76	-7.692
822.07	17.500
822.37	-13.953
822.67	-33.333
822.97	-8.108
823.27	13.514
823.57	20.000
823.88	-16.216
824.18	-47.619
824.48	-23.077
824.78	-153.846
825.08	-17.391
825.38	-25.000
825.69	-4.167
825.99	-110.000
826.29	-18.919
826.59	-14.706
826.89	4.000
827.19	-17.143
827.49	21.053
827.79	-9.375
828.09	-16.667
828.39	4.348
828.70	-34.483
829.00	-13.793
829.30	-16.667
829.60	28.125
829.90	-27.778
830.20	-65.385
830.50	-95.238
830.80	-57.143
831.10	2.564
831.40	-38.095
831.70	-14.706
832.00	-37.500
832.30	-26.316
832.60	-31.250
832.90	-58.333
833.20	-29.412
833.50	-126.667
833.80	-66.667
834.10	-65.000
834.40	-50.000
834.70	-55.556
835.00	3.846
835.30	-54.167
835.60	-13.793
835.90	-94.444
836.20	-163.636
836.50	-125.000
836.80	2.857
837.10	17.143
837.40	-52.941
837.70	-27.273
838.00	-50.000
838.30	-125.000
838.60	-28.571
838.90	5.000
839.19	-47.826
839.49	-34.783
839.79	-50.000
840.09	-56.522
840.39	-50.000
840.69	-131.250
840.99	-26.316
841.29	-50.000
841.59	-85.714
841.88	-38.889
842.18	-20.833
842.48	-82.353
842.78	-6.897
843.08	-57.143
843.38	-30.769
843.68	-211.111
843.97	-69.231
844.27	-45.455
844.57	-380.000
844.87	16.000
845.17	-220.000
845.47	-85.714
845.76	-144.444
846.06	0.000
846.36	-525.000
846.66	-150.000
846.96	-31.579
847.25	-25.000
847.55	-83.333
847.85	46.667
848.15	-130.000
848.44	0.000
848.74	-26.316
849.04	333.333
849.34	-144.444
849.63	-47.368
849.93	0.000
850.23	-75.000
850.53	0.000
850.82	-40.000
851.12	-42.105
851.42	-350.000
851.71	14.286
852.01	-166.667
852.31	-82.353
852.61	-106.667
852.90	-28.571
853.20	-250.000
853.50	-11.111
853.79	-73.684
854.09	-33.333
854.39	-21.429
854.68	-39.130
854.98	-233.333
855.28	-31.034
855.57	-18.750
855.87	-15.000
856.17	-73.333
856.46	-34.483
856.76	-40.000
857.05	-58.824
857.35	-107.692
857.65	-81.818
857.94	-25.926
858.24	-192.857
858.53	-57.143
858.83	-75.000
859.13	-155.556
859.42	19.048
859.72	-250.000
860.01	-533.333
860.31	-112.500
860.60	-420.000
860.90	-177.778
861.20	-187.500
861.49	-171.429
861.79	-29.412
862.08	-1100.000
862.38	-108.333
862.67	-15.385
862.97	-5.882
863.26	-10.000
863.56	-141.176
863.85	766.667
864.15	-100.000
864.44	-84.615
864.74	-25.000
865.03	-262.500
865.33	-250.000
865.62	-64.706
865.92	-550.000
866.21	-121.429
866.51	-91.667
866.80	-1400.000
867.10	-533.333
867.39	-64.706
867.69	13.043
867.98	-142.857
868.27	-420.000
868.57	-37.500
868.86	-109.091
869.16	-47.059
869.45	-216.667
869.75	-257.143
870.04	1000.000
870.33	-50.000
870.63	-100.000
870.92	-222.222
871.22	-83.333
871.51	-100.000
871.80	-75.000
872.10	-40.000
>>>>>End Processed Spectral Data<<<<<
