SpectraSuite Data File
++++++++++++++++++++++++++++++++++++
Date: Sat May 16 11:30:28 PDT 2015
User: schluterlab
Dark Spectrum Present: Yes
Reference Spectrum Present: Yes
Number of Sampled Component Spectra: 1
Spectrometers: USB2E3373
Integration Time (usec): 3000 (USB2E3373)
Spectra Averaged: 3 (USB2E3373)
Boxcar Smoothing: 0 (USB2E3373)
Correct for Electrical Dark: No (USB2E3373)
Strobe/Lamp Enabled: No (USB2E3373)
Correct for Detector Non-linearity: No (USB2E3373)
Correct for Stray Light: No (USB2E3373)
Number of Pixels in Processed Spectrum: 2048
>>>>>Begin Processed Spectral Data<<<<<
178.53	0.000
178.91	126.667
179.29	533.333
179.67	-600.000
180.04	-76.923
180.42	-100.000
180.80	225.000
181.18	300.000
181.56	-187.500
181.94	1300.000
182.31	400.000
182.69	-138.462
183.07	-166.667
183.45	1400.000
183.83	466.667
184.20	-228.571
184.58	-125.000
184.96	-525.000
185.34	118.750
185.72	-475.000
186.09	266.667
186.47	-150.000
186.85	-162.500
187.23	-75.000
187.61	-25.000
187.98	-187.500
188.36	-100.000
188.74	-112.500
189.12	900.000
189.49	257.143
189.87	-66.667
190.25	100.000
190.63	-14.286
191.00	-166.667
191.38	440.000
191.76	-60.000
192.14	640.000
192.51	-20.000
192.89	-366.667
193.27	0.000
193.65	-100.000
194.02	-228.571
194.40	433.333
194.78	-100.000
195.15	-1700.000
195.53	-81.818
195.91	-400.000
196.29	180.000
196.66	-800.000
197.04	1800.000
197.42	-325.000
197.79	33.333
198.17	-266.667
198.55	-600.000
198.92	-1800.000
199.30	225.000
199.68	-750.000
200.05	-200.000
200.43	-100.000
200.81	-1600.000
201.18	-108.333
201.56	257.143
201.94	-20.000
202.31	4.545
202.69	0.000
203.07	-150.000
203.44	566.667
203.82	-433.333
204.19	-475.000
204.57	-300.000
204.95	-800.000
205.32	-31.250
205.70	1500.000
206.08	-1200.000
206.45	-11.111
206.83	-1350.000
207.20	-450.000
207.58	-866.667
207.96	-366.667
208.33	-250.000
208.71	-244.444
209.08	130.000
209.46	-271.429
209.84	900.000
210.21	0.000
210.59	25.000
210.96	1800.000
211.34	-233.333
211.71	-433.333
212.09	200.000
212.46	1300.000
212.84	-1600.000
213.22	400.000
213.59	108.333
213.97	-88.889
214.34	170.000
214.72	-180.000
215.09	-300.000
215.47	-150.000
215.84	-140.000
216.22	0.000
216.59	-53.333
216.97	-50.000
217.34	900.000
217.72	-185.714
218.09	-316.667
218.47	-371.429
218.84	214.286
219.22	-57.143
219.59	0.000
219.97	171.429
220.34	375.000
220.72	125.000
221.09	-100.000
221.47	0.000
221.84	400.000
222.22	-850.000
222.59	800.000
222.97	-137.500
223.34	-850.000
223.72	-300.000
224.09	-78.571
224.46	-200.000
224.84	-42.857
225.21	-200.000
225.59	-127.273
225.96	-137.500
226.34	-42.857
226.71	-55.556
227.08	-5.000
227.46	1300.000
227.83	-100.000
228.21	-312.500
228.58	750.000
228.95	-87.500
229.33	-1600.000
229.70	-460.000
230.08	-950.000
230.45	-33.333
230.82	-166.667
231.20	-1300.000
231.57	-800.000
231.95	2000.000
232.32	-14.286
232.69	-166.667
233.07	-185.714
233.44	-1050.000
233.81	-113.333
234.19	-77.778
234.56	-25.000
234.93	31.250
235.31	-257.143
235.68	-100.000
236.05	-94.118
236.43	-27.273
236.80	-9.677
237.17	-29.167
237.55	-38.095
237.92	-50.000
238.29	-5.714
238.67	-20.588
239.04	16.667
239.41	-19.355
239.79	-41.026
240.16	-23.810
240.53	-21.818
240.91	15.385
241.28	14.545
241.65	18.462
242.02	11.475
242.40	1.639
242.77	15.152
243.14	6.780
243.51	-5.714
243.89	3.797
244.26	15.730
244.63	14.737
245.00	16.842
245.38	16.949
245.75	21.239
246.12	10.400
246.49	8.661
246.87	9.756
247.24	15.254
247.61	5.085
247.98	14.085
248.36	13.986
248.73	20.886
249.10	8.917
249.47	20.468
249.84	20.455
250.22	15.476
250.59	15.819
250.96	17.801
251.33	21.327
251.70	20.673
252.08	18.957
252.45	13.270
252.82	19.048
253.19	21.277
253.56	18.952
253.94	15.612
254.31	14.592
254.68	19.919
255.05	19.758
255.42	23.810
255.79	17.563
256.16	17.647
256.54	20.221
256.91	23.485
257.28	12.821
257.65	17.376
258.02	24.528
258.39	19.732
258.76	19.932
259.14	19.136
259.51	23.279
259.88	25.915
260.25	20.497
260.62	20.579
260.99	15.134
261.36	19.207
261.73	22.254
262.10	23.611
262.47	20.228
262.85	24.857
263.22	22.063
263.59	20.615
263.96	19.420
264.33	19.512
264.70	23.481
265.07	21.154
265.44	18.863
265.81	18.605
266.18	20.506
266.55	21.078
266.92	22.418
267.29	18.160
267.66	22.963
268.03	24.879
268.40	19.718
268.77	22.410
269.14	18.561
269.51	20.460
269.88	19.725
270.25	23.077
270.62	19.908
270.99	21.847
271.36	22.378
271.73	22.197
272.10	22.883
272.47	20.000
272.84	23.778
273.21	20.642
273.58	21.538
273.95	19.079
274.32	21.041
274.69	23.632
275.06	22.495
275.43	19.420
275.80	21.181
276.17	22.803
276.54	20.774
276.91	23.457
277.28	18.256
277.65	19.835
278.02	20.877
278.39	21.022
278.76	19.323
279.13	20.949
279.50	20.477
279.87	20.930
280.23	22.874
280.60	19.682
280.97	19.223
281.34	19.923
281.71	21.923
282.08	19.758
282.45	19.959
282.82	21.318
283.19	20.909
283.56	21.978
283.92	17.668
284.29	19.888
284.66	20.144
285.03	21.569
285.40	21.587
285.77	20.351
286.14	20.217
286.51	20.071
286.87	21.597
287.24	20.478
287.61	20.826
287.98	18.544
288.35	18.843
288.72	20.034
289.08	17.966
289.45	19.865
289.82	17.647
290.19	20.690
290.56	19.504
290.93	18.124
291.29	17.828
291.66	17.230
292.03	17.268
292.40	17.169
292.77	15.839
293.13	19.675
293.50	18.574
293.87	17.945
294.24	17.949
294.60	14.394
294.97	17.602
295.34	16.000
295.71	16.667
296.08	14.439
296.44	15.594
296.81	18.091
297.18	16.620
297.55	16.667
297.91	17.155
298.28	13.973
298.65	17.155
299.02	16.711
299.38	15.775
299.75	14.810
300.12	15.513
300.48	16.624
300.85	15.334
301.22	15.136
301.59	14.694
301.95	15.743
302.32	14.733
302.69	16.157
303.05	14.286
303.42	13.875
303.79	14.593
304.15	15.047
304.52	13.302
304.89	14.522
305.25	15.263
305.62	14.219
305.99	16.254
306.35	14.872
306.72	14.920
307.09	15.210
307.45	14.188
307.82	14.078
308.19	13.199
308.55	14.161
308.92	14.715
309.29	13.514
309.65	13.362
310.02	14.363
310.38	14.811
310.75	14.139
311.12	15.186
311.48	13.674
311.85	14.830
312.22	13.800
312.58	13.428
312.95	13.863
313.31	14.585
313.68	15.477
314.05	14.936
314.41	12.877
314.78	13.087
315.14	14.808
315.51	12.563
315.87	15.586
316.24	13.314
316.61	14.012
316.97	13.134
317.34	13.776
317.70	13.729
318.07	14.646
318.43	14.419
318.80	14.836
319.16	13.133
319.53	13.252
319.89	13.829
320.26	13.235
320.62	14.423
320.99	14.328
321.35	13.005
321.72	13.511
322.08	14.243
322.45	13.564
322.81	14.697
323.18	14.025
323.54	14.233
323.91	13.809
324.27	14.639
324.64	13.346
325.00	14.660
325.37	13.575
325.73	14.961
326.10	13.198
326.46	13.923
326.83	14.213
327.19	14.012
327.56	13.799
327.92	14.359
328.29	14.113
328.65	12.455
329.01	14.576
329.38	14.184
329.74	14.652
330.11	13.599
330.47	13.806
330.84	15.124
331.20	13.448
331.56	13.582
331.93	13.854
332.29	13.790
332.66	13.784
333.02	13.394
333.38	14.337
333.75	13.891
334.11	13.067
334.48	13.151
334.84	14.873
335.20	13.475
335.57	13.357
335.93	15.040
336.29	14.260
336.66	13.744
337.02	13.063
337.38	13.102
337.75	13.521
338.11	13.864
338.47	13.790
338.84	13.339
339.20	12.830
339.56	14.260
339.93	12.875
340.29	13.640
340.65	13.287
341.02	14.503
341.38	12.300
341.74	13.209
342.11	13.652
342.47	14.249
342.83	13.098
343.20	13.578
343.56	12.980
343.92	13.272
344.28	14.634
344.65	13.944
345.01	13.782
345.37	14.037
345.73	12.357
346.10	12.756
346.46	12.754
346.82	14.515
347.19	12.243
347.55	12.921
347.91	13.543
348.27	12.331
348.63	13.732
349.00	14.956
349.36	12.100
349.72	13.694
350.08	14.435
350.45	12.687
350.81	14.490
351.17	12.942
351.53	11.456
351.89	13.339
352.26	13.178
352.62	14.593
352.98	13.608
353.34	13.189
353.70	12.587
354.07	13.454
354.43	13.597
354.79	13.312
355.15	13.179
355.51	12.656
355.87	12.964
356.24	12.311
356.60	13.215
356.96	13.087
357.32	12.827
357.68	11.418
358.04	13.780
358.40	12.916
358.77	12.597
359.13	12.854
359.49	13.454
359.85	12.576
360.21	12.405
360.57	13.479
360.93	13.185
361.29	13.154
361.66	12.957
362.02	12.352
362.38	12.913
362.74	13.260
363.10	13.702
363.46	14.031
363.82	13.411
364.18	13.242
364.54	13.438
364.90	12.648
365.26	12.268
365.62	13.970
365.98	13.442
366.35	13.169
366.71	12.755
367.07	12.703
367.43	14.345
367.79	13.058
368.15	12.304
368.51	14.126
368.87	14.011
369.23	13.123
369.59	13.333
369.95	12.967
370.31	13.643
370.67	12.509
371.03	13.192
371.39	12.518
371.75	13.305
372.11	14.204
372.47	13.160
372.83	13.769
373.19	13.286
373.55	13.863
373.91	12.376
374.27	13.210
374.63	12.767
374.99	13.561
375.35	14.132
375.71	14.922
376.07	12.799
376.42	12.848
376.78	13.268
377.14	13.492
377.50	13.798
377.86	14.174
378.22	13.882
378.58	13.712
378.94	13.317
379.30	13.711
379.66	14.147
380.02	13.012
380.38	13.293
380.74	13.482
381.09	13.181
381.45	14.260
381.81	13.370
382.17	12.970
382.53	13.131
382.89	13.517
383.25	14.570
383.61	14.151
383.97	14.268
384.32	13.955
384.68	14.208
385.04	13.527
385.40	13.999
385.76	13.354
386.12	13.179
386.48	13.800
386.83	14.110
387.19	13.867
387.55	14.537
387.91	14.582
388.27	13.571
388.62	13.582
388.98	13.628
389.34	13.647
389.70	14.068
390.06	14.108
390.42	14.872
390.77	14.006
391.13	14.969
391.49	14.286
391.85	14.776
392.20	14.138
392.56	13.928
392.92	14.661
393.28	14.868
393.64	14.552
393.99	14.277
394.35	15.572
394.71	14.515
395.07	14.187
395.42	13.766
395.78	14.268
396.14	15.202
396.50	14.985
396.85	15.423
397.21	13.973
397.57	15.562
397.92	14.637
398.28	15.000
398.64	14.396
399.00	15.225
399.35	14.262
399.71	15.273
400.07	14.746
400.42	14.781
400.78	15.325
401.14	14.850
401.49	14.623
401.85	14.887
402.21	15.375
402.57	15.352
402.92	14.789
403.28	15.135
403.63	14.380
403.99	14.916
404.35	14.734
404.70	15.272
405.06	14.879
405.42	14.330
405.77	14.253
406.13	14.764
406.49	14.620
406.84	14.817
407.20	14.841
407.55	14.883
407.91	14.702
408.27	15.074
408.62	15.394
408.98	15.039
409.34	15.235
409.69	15.438
410.05	15.525
410.40	15.389
410.76	15.293
411.11	15.025
411.47	14.962
411.83	15.465
412.18	15.099
412.54	14.826
412.89	14.945
413.25	14.522
413.60	13.791
413.96	13.925
414.31	14.985
414.67	14.095
415.03	14.166
415.38	14.379
415.74	14.884
416.09	15.217
416.45	14.418
416.80	15.150
417.16	14.352
417.51	15.890
417.87	14.498
418.22	14.855
418.58	15.854
418.93	14.776
419.29	15.245
419.64	13.945
420.00	15.553
420.35	15.376
420.71	14.646
421.06	14.793
421.42	14.344
421.77	14.685
422.12	14.941
422.48	14.270
422.83	14.636
423.19	14.699
423.54	14.640
423.90	14.517
424.25	14.084
424.61	15.018
424.96	15.565
425.31	14.980
425.67	14.499
426.02	14.228
426.38	14.398
426.73	14.319
427.09	14.767
427.44	14.830
427.79	14.535
428.15	14.363
428.50	15.367
428.85	14.748
429.21	14.001
429.56	15.260
429.92	14.780
430.27	13.709
430.62	15.308
430.98	14.532
431.33	15.155
431.68	15.228
432.04	15.053
432.39	14.188
432.74	13.969
433.10	14.350
433.45	14.853
433.80	13.942
434.16	15.207
434.51	14.740
434.86	15.290
435.22	14.254
435.57	15.361
435.92	14.009
436.28	14.184
436.63	14.415
436.98	15.178
437.34	14.589
437.69	14.644
438.04	14.861
438.39	15.644
438.75	14.552
439.10	14.659
439.45	14.122
439.81	15.482
440.16	14.537
440.51	15.059
440.86	13.592
441.22	13.875
441.57	14.474
441.92	15.243
442.27	14.989
442.63	14.378
442.98	14.334
443.33	15.211
443.68	13.705
444.03	14.735
444.39	14.293
444.74	15.198
445.09	13.925
445.44	14.800
445.79	14.992
446.15	15.060
446.50	14.045
446.85	14.982
447.20	14.607
447.55	14.862
447.91	15.385
448.26	14.358
448.61	13.922
448.96	15.350
449.31	14.205
449.66	15.226
450.02	14.127
450.37	14.377
450.72	14.294
451.07	14.959
451.42	14.250
451.77	14.901
452.12	15.197
452.47	14.861
452.83	13.687
453.18	15.117
453.53	14.179
453.88	14.773
454.23	13.241
454.58	14.792
454.93	14.798
455.28	14.213
455.63	14.496
455.98	14.639
456.34	14.295
456.69	14.509
457.04	14.813
457.39	14.474
457.74	14.117
458.09	14.559
458.44	15.704
458.79	13.677
459.14	14.661
459.49	14.920
459.84	14.952
460.19	14.797
460.54	14.640
460.89	13.845
461.24	14.572
461.59	15.182
461.94	14.831
462.29	14.592
462.64	14.888
462.99	15.395
463.34	13.774
463.69	14.822
464.04	14.880
464.39	14.397
464.74	15.189
465.09	14.853
465.44	14.834
465.79	15.398
466.14	15.362
466.49	14.277
466.84	14.466
467.19	14.900
467.54	14.494
467.89	14.797
468.24	14.608
468.59	15.053
468.94	14.662
469.29	14.620
469.64	14.892
469.99	15.260
470.34	13.961
470.68	15.480
471.03	14.797
471.38	14.861
471.73	14.336
472.08	13.922
472.43	14.093
472.78	14.667
473.13	13.718
473.48	15.061
473.83	15.261
474.17	13.885
474.52	15.345
474.87	15.268
475.22	14.513
475.57	14.222
475.92	15.551
476.27	15.086
476.61	15.155
476.96	15.484
477.31	14.693
477.66	14.555
478.01	14.695
478.36	13.777
478.70	14.789
479.05	15.306
479.40	14.249
479.75	14.424
480.10	14.831
480.45	14.120
480.79	15.054
481.14	15.404
481.49	15.344
481.84	15.349
482.19	15.167
482.53	15.152
482.88	14.665
483.23	14.742
483.58	14.986
483.92	14.811
484.27	14.577
484.62	14.428
484.97	15.043
485.31	14.528
485.66	14.351
486.01	14.614
486.36	15.136
486.70	15.571
487.05	14.960
487.40	14.637
487.75	14.683
488.09	14.392
488.44	14.817
488.79	14.574
489.13	14.644
489.48	15.212
489.83	14.978
490.17	15.411
490.52	15.399
490.87	14.180
491.22	14.479
491.56	14.815
491.91	15.029
492.26	14.198
492.60	14.748
492.95	15.088
493.30	14.388
493.64	14.433
493.99	14.723
494.34	15.048
494.68	15.028
495.03	14.627
495.37	14.651
495.72	14.784
496.07	15.533
496.41	15.609
496.76	15.023
497.11	15.026
497.45	15.469
497.80	14.807
498.14	14.735
498.49	14.917
498.84	14.951
499.18	15.058
499.53	15.246
499.87	14.141
500.22	15.000
500.56	15.258
500.91	14.975
501.26	15.332
501.60	14.925
501.95	15.314
502.29	14.549
502.64	15.417
502.98	15.046
503.33	15.930
503.67	15.230
504.02	15.258
504.36	15.294
504.71	14.742
505.06	15.477
505.40	15.719
505.75	15.346
506.09	15.521
506.44	15.840
506.78	16.357
507.13	15.191
507.47	15.649
507.82	15.436
508.16	15.337
508.51	15.507
508.85	15.683
509.19	15.228
509.54	15.803
509.88	15.691
510.23	15.723
510.57	16.667
510.92	16.058
511.26	15.311
511.61	15.227
511.95	16.218
512.30	15.173
512.64	15.136
512.98	15.787
513.33	15.376
513.67	15.578
514.02	15.492
514.36	16.177
514.70	15.393
515.05	15.780
515.39	15.167
515.74	16.347
516.08	16.542
516.42	16.374
516.77	16.811
517.11	16.648
517.46	16.089
517.80	15.824
518.14	16.123
518.49	16.198
518.83	15.193
519.17	16.282
519.52	16.136
519.86	17.622
520.20	16.932
520.55	15.323
520.89	15.091
521.23	16.911
521.58	16.113
521.92	16.719
522.26	16.063
522.61	16.160
522.95	15.635
523.29	16.176
523.64	16.115
523.98	16.423
524.32	16.028
524.66	15.280
525.01	16.699
525.35	17.075
525.69	16.331
526.04	15.862
526.38	16.423
526.72	15.773
527.06	16.341
527.41	16.568
527.75	16.106
528.09	16.744
528.43	15.738
528.78	17.023
529.12	17.414
529.46	16.302
529.80	16.527
530.15	16.742
530.49	15.847
530.83	17.420
531.17	15.421
531.51	16.477
531.86	16.722
532.20	17.544
532.54	15.909
532.88	16.337
533.22	15.976
533.57	17.167
533.91	16.292
534.25	16.530
534.59	16.365
534.93	16.428
535.27	16.803
535.62	16.880
535.96	16.290
536.30	16.492
536.64	16.268
536.98	16.172
537.32	16.655
537.66	16.429
538.01	17.388
538.35	17.095
538.69	15.709
539.03	17.062
539.37	16.633
539.71	16.077
540.05	16.244
540.39	16.690
540.73	16.655
541.07	17.281
541.42	16.408
541.76	15.216
542.10	17.016
542.44	17.455
542.78	17.503
543.12	15.886
543.46	15.205
543.80	16.321
544.14	16.655
544.48	16.142
544.82	16.441
545.16	17.036
545.50	15.410
545.84	16.620
546.18	15.811
546.52	16.785
546.86	16.738
547.20	18.003
547.54	15.771
547.88	16.058
548.22	15.727
548.56	17.168
548.90	16.644
549.24	16.048
549.58	16.514
549.92	15.972
550.26	16.763
550.60	16.501
550.94	17.226
551.28	16.479
551.62	15.953
551.96	16.932
552.30	17.352
552.64	16.327
552.98	16.748
553.32	15.729
553.66	16.583
554.00	16.205
554.34	16.462
554.68	16.374
555.02	17.873
555.36	16.535
555.69	15.688
556.03	16.842
556.37	16.003
556.71	15.891
557.05	16.999
557.39	16.110
557.73	17.578
558.07	17.634
558.41	16.604
558.75	17.034
559.08	16.420
559.42	16.462
559.76	16.564
560.10	16.629
560.44	17.847
560.78	16.841
561.12	16.632
561.45	17.192
561.79	16.376
562.13	15.989
562.47	16.807
562.81	15.912
563.15	16.165
563.48	17.208
563.82	17.106
564.16	16.836
564.50	16.599
564.84	17.460
565.17	16.180
565.51	16.884
565.85	16.903
566.19	17.325
566.52	16.569
566.86	16.498
567.20	17.978
567.54	17.247
567.88	16.918
568.21	16.107
568.55	16.437
568.89	16.700
569.23	17.029
569.56	16.099
569.90	17.349
570.24	16.986
570.57	16.520
570.91	16.525
571.25	16.796
571.59	17.047
571.92	17.083
572.26	16.836
572.60	16.444
572.93	16.631
573.27	16.280
573.61	16.461
573.95	17.084
574.28	16.857
574.62	17.056
574.96	16.476
575.29	16.616
575.63	16.724
575.97	16.289
576.30	16.470
576.64	16.423
576.98	16.945
577.31	16.424
577.65	16.864
577.98	16.546
578.32	16.712
578.66	17.090
578.99	16.862
579.33	16.403
579.67	16.739
580.00	16.295
580.34	16.585
580.67	16.450
581.01	16.545
581.35	16.390
581.68	16.298
582.02	16.853
582.35	16.714
582.69	16.925
583.02	17.175
583.36	17.183
583.70	16.667
584.03	16.918
584.37	16.725
584.70	16.653
585.04	16.886
585.37	16.301
585.71	17.150
586.04	16.971
586.38	17.028
586.72	16.770
587.05	16.426
587.39	16.389
587.72	16.963
588.06	17.084
588.39	17.175
588.73	17.109
589.06	17.040
589.40	17.554
589.73	17.139
590.07	16.533
590.40	17.897
590.73	16.673
591.07	16.762
591.40	16.984
591.74	16.855
592.07	16.667
592.41	17.240
592.74	16.795
593.08	18.091
593.41	17.039
593.75	16.848
594.08	16.858
594.41	17.338
594.75	17.592
595.08	17.218
595.42	16.655
595.75	16.832
596.09	16.880
596.42	17.471
596.75	16.990
597.09	17.542
597.42	17.023
597.75	16.696
598.09	17.126
598.42	17.057
598.76	16.154
599.09	16.969
599.42	16.455
599.76	16.912
600.09	16.908
600.42	17.357
600.76	16.987
601.09	16.673
601.42	16.700
601.76	16.978
602.09	17.301
602.42	16.502
602.76	17.200
603.09	16.492
603.42	17.607
603.76	16.833
604.09	17.301
604.42	17.236
604.76	17.314
605.09	16.772
605.42	17.553
605.75	17.637
606.09	17.186
606.42	16.590
606.75	17.776
607.09	17.997
607.42	17.165
607.75	17.307
608.08	17.759
608.42	17.266
608.75	17.196
609.08	16.464
609.41	16.741
609.75	17.114
610.08	18.039
610.41	17.301
610.74	17.408
611.07	17.596
611.41	16.692
611.74	17.943
612.07	17.454
612.40	16.791
612.73	17.340
613.07	17.226
613.40	18.391
613.73	17.929
614.06	17.133
614.39	16.855
614.72	16.927
615.06	17.011
615.39	16.495
615.72	17.056
616.05	17.007
616.38	17.528
616.71	16.877
617.05	18.154
617.38	17.523
617.71	17.015
618.04	17.702
618.37	16.792
618.70	17.731
619.03	16.994
619.36	17.970
619.69	18.378
620.03	16.667
620.36	17.440
620.69	17.588
621.02	18.037
621.35	17.258
621.68	17.213
622.01	17.557
622.34	17.857
622.67	17.578
623.00	17.827
623.33	17.239
623.66	15.953
623.99	16.842
624.32	17.039
624.65	17.292
624.99	18.073
625.32	17.216
625.65	17.094
625.98	17.136
626.31	17.210
626.64	18.326
626.97	16.438
627.30	16.511
627.63	16.667
627.96	16.884
628.29	17.096
628.62	17.287
628.95	18.504
629.28	16.447
629.61	18.351
629.94	17.108
630.26	18.588
630.59	18.995
630.92	17.818
631.25	17.641
631.58	17.566
631.91	16.489
632.24	18.111
632.57	18.000
632.90	17.816
633.23	18.224
633.56	17.427
633.89	18.160
634.22	17.828
634.55	17.909
634.88	18.017
635.20	16.604
635.53	18.066
635.86	18.262
636.19	17.705
636.52	17.682
636.85	15.523
637.18	16.750
637.51	18.340
637.83	17.177
638.16	16.974
638.49	15.448
638.82	16.088
639.15	17.899
639.48	15.694
639.81	19.087
640.13	17.973
640.46	17.949
640.79	18.768
641.12	18.195
641.45	18.938
641.77	17.365
642.10	18.580
642.43	17.602
642.76	17.165
643.09	18.413
643.41	18.095
643.74	19.396
644.07	17.941
644.40	15.721
644.73	17.327
645.05	14.691
645.38	19.205
645.71	17.526
646.04	17.311
646.36	16.754
646.69	17.820
647.02	16.426
647.35	17.329
647.67	18.066
648.00	17.047
648.33	19.393
648.66	17.581
648.98	16.561
649.31	18.462
649.64	17.500
649.96	17.582
650.29	17.049
650.62	18.589
650.94	17.201
651.27	16.984
651.60	17.474
651.92	17.295
652.25	16.694
652.58	16.525
652.90	18.620
653.23	17.742
653.56	16.890
653.88	17.377
654.21	18.121
654.54	19.269
654.86	18.138
655.19	17.192
655.52	18.065
655.84	18.071
656.17	20.057
656.49	27.320
656.82	27.923
657.15	21.110
657.47	15.324
657.80	11.628
658.13	13.233
658.45	17.390
658.78	16.880
659.10	16.912
659.43	15.952
659.75	16.444
660.08	15.885
660.41	15.778
660.73	16.282
661.06	17.536
661.38	18.571
661.71	16.444
662.03	16.935
662.36	17.910
662.68	18.776
663.01	17.410
663.33	18.141
663.66	17.597
663.98	16.741
664.31	14.989
664.63	18.142
664.96	15.835
665.28	18.221
665.61	16.279
665.93	17.284
666.26	19.433
666.58	19.335
666.91	16.036
667.23	19.079
667.56	17.460
667.88	19.005
668.21	16.129
668.53	15.888
668.86	17.090
669.18	18.493
669.50	15.888
669.83	17.032
670.15	17.489
670.48	13.084
670.80	15.945
671.13	17.156
671.45	16.667
671.77	16.702
672.10	17.949
672.42	16.974
672.75	15.818
673.07	16.036
673.39	15.665
673.72	16.142
674.04	17.410
674.37	15.876
674.69	20.082
675.01	15.957
675.34	15.401
675.66	19.438
675.98	16.300
676.31	19.005
676.63	19.770
676.95	16.372
677.28	16.473
677.60	18.326
677.92	17.181
678.25	16.849
678.57	16.872
678.89	13.836
679.22	18.029
679.54	17.949
679.86	14.800
680.18	17.490
680.51	15.829
680.83	16.952
681.15	15.607
681.48	19.473
681.80	17.137
682.12	19.115
682.44	14.342
682.77	16.450
683.09	20.755
683.41	17.478
683.73	15.525
684.06	15.269
684.38	18.619
684.70	17.078
685.02	15.157
685.34	17.349
685.67	16.856
685.99	16.257
686.31	16.876
686.63	16.135
686.96	16.451
687.28	18.112
687.60	17.773
687.92	14.202
688.24	19.291
688.56	18.637
688.89	16.453
689.21	18.162
689.53	16.782
689.85	18.263
690.17	15.695
690.49	14.088
690.82	18.072
691.14	18.632
691.46	16.630
691.78	16.300
692.10	18.644
692.42	19.111
692.74	19.313
693.06	15.506
693.39	17.226
693.71	16.027
694.03	19.006
694.35	15.801
694.67	16.312
694.99	13.555
695.31	15.561
695.63	15.816
695.95	15.633
696.27	16.209
696.59	17.914
696.91	19.101
697.23	18.750
697.56	16.587
697.88	16.441
698.20	13.704
698.52	17.713
698.84	17.476
699.16	16.429
699.48	16.250
699.80	17.544
700.12	16.625
700.44	14.804
700.76	16.618
701.08	14.244
701.40	13.595
701.72	19.444
702.04	19.872
702.36	15.060
702.68	13.174
703.00	20.000
703.32	16.046
703.64	17.941
703.96	16.860
704.28	15.976
704.60	14.241
704.91	13.968
705.23	15.210
705.55	17.230
705.87	16.041
706.19	18.403
706.51	16.667
706.83	17.377
707.15	15.605
707.47	18.733
707.79	17.268
708.11	15.522
708.43	17.955
708.74	12.727
709.06	16.435
709.38	14.655
709.70	12.812
710.02	22.699
710.34	9.241
710.66	14.286
710.98	14.196
711.29	16.129
711.61	14.377
711.93	15.082
712.25	16.944
712.57	16.028
712.89	19.065
713.20	20.275
713.52	13.806
713.84	14.947
714.16	13.443
714.48	16.190
714.80	15.692
715.11	18.444
715.43	16.265
715.75	20.249
716.07	14.426
716.39	11.706
716.70	16.028
717.02	14.815
717.34	18.702
717.66	20.332
717.97	11.885
718.29	15.126
718.61	17.857
718.93	17.921
719.24	13.971
719.56	18.113
719.88	12.364
720.20	15.730
720.51	17.669
720.83	16.867
721.15	14.754
721.46	18.431
721.78	15.326
722.10	16.800
722.42	17.769
722.73	18.327
723.05	15.663
723.37	14.510
723.68	17.814
724.00	13.821
724.32	16.049
724.63	11.618
724.95	21.488
725.27	15.351
725.58	13.362
725.90	16.667
726.22	18.450
726.53	16.730
726.85	10.980
727.16	13.910
727.48	20.385
727.80	14.344
728.11	14.706
728.43	16.942
728.74	17.188
729.06	16.288
729.38	14.397
729.69	14.173
730.01	12.598
730.32	12.351
730.64	18.315
730.96	15.672
731.27	17.143
731.59	13.826
731.90	17.791
732.22	17.791
732.53	19.536
732.85	8.725
733.16	16.304
733.48	16.376
733.80	12.811
734.11	14.483
734.43	16.327
734.74	19.585
735.06	15.047
735.37	16.208
735.69	15.806
736.00	15.825
736.32	18.212
736.63	14.828
736.95	14.493
737.26	18.874
737.58	14.029
737.89	18.638
738.21	14.286
738.52	15.385
738.83	17.578
739.15	13.248
739.46	18.548
739.78	15.734
740.09	12.937
740.41	13.636
740.72	17.518
741.04	16.667
741.35	10.823
741.66	13.889
741.98	13.333
742.29	17.371
742.61	18.182
742.92	18.224
743.23	11.842
743.55	17.568
743.86	16.444
744.18	14.286
744.49	19.212
744.80	19.797
745.12	16.495
745.43	16.080
745.74	16.019
746.06	13.171
746.37	15.859
746.68	12.438
747.00	17.277
747.31	15.865
747.62	13.825
747.94	17.467
748.25	16.279
748.56	21.429
748.88	9.239
749.19	16.432
749.50	19.118
749.82	17.333
750.13	17.621
750.44	20.732
750.75	20.800
751.07	19.286
751.38	15.129
751.69	17.176
752.01	14.231
752.32	14.397
752.63	10.769
752.94	13.095
753.26	14.783
753.57	18.304
753.88	12.931
754.19	13.693
754.51	16.406
754.82	15.415
755.13	14.815
755.44	15.702
755.75	16.049
756.07	12.048
756.38	15.234
756.69	18.051
757.00	16.376
757.31	17.114
757.63	17.445
757.94	15.029
758.25	18.314
758.56	18.868
758.87	17.330
759.18	16.333
759.50	16.726
759.81	13.139
760.12	14.527
760.43	20.388
760.74	16.875
761.05	17.978
761.36	16.467
761.67	17.751
761.99	18.387
762.30	13.406
762.61	15.849
762.92	18.834
763.23	12.322
763.54	14.222
763.85	21.519
764.16	15.102
764.47	17.797
764.78	17.228
765.10	19.065
765.41	16.129
765.72	17.925
766.03	15.548
766.34	13.534
766.65	15.385
766.96	13.000
767.27	16.146
767.58	20.349
767.89	17.419
768.20	17.178
768.51	18.579
768.82	14.054
769.13	11.500
769.44	12.281
769.75	14.719
770.06	16.055
770.37	11.268
770.68	16.146
770.99	13.366
771.30	13.107
771.61	8.333
771.92	7.792
772.23	14.486
772.54	12.766
772.85	16.568
773.16	20.122
773.47	21.687
773.78	23.077
774.09	7.333
774.39	8.642
774.70	12.752
775.01	12.319
775.32	10.448
775.63	4.959
775.94	12.782
776.25	16.429
776.56	16.393
776.87	15.044
777.18	11.504
777.48	5.455
777.79	6.957
778.10	15.596
778.41	10.169
778.72	14.876
779.03	15.672
779.34	16.541
779.65	13.072
779.95	10.145
780.26	16.327
780.57	4.310
780.88	21.296
781.19	-4.040
781.50	12.000
781.80	10.458
782.11	8.333
782.42	22.289
782.73	2.920
783.04	16.216
783.34	12.879
783.65	10.078
783.96	8.943
784.27	6.838
784.57	8.130
784.88	5.691
785.19	17.544
785.50	7.216
785.81	12.381
786.11	1.961
786.42	8.182
786.73	13.514
787.04	5.941
787.34	6.667
787.65	-7.619
787.96	8.824
788.26	16.216
788.57	12.903
788.88	14.844
789.19	8.547
789.49	12.605
789.80	11.111
790.11	14.159
790.41	4.040
790.72	17.925
791.03	-11.111
791.33	1.316
791.64	10.753
791.95	1.333
792.25	-5.714
792.56	2.439
792.87	15.306
793.17	9.211
793.48	-4.054
793.79	-18.310
794.09	-6.329
794.40	-5.319
794.70	4.673
795.01	5.263
795.32	9.091
795.62	8.036
795.93	2.062
796.23	2.198
796.54	11.579
796.85	0.000
797.15	-8.333
797.46	13.699
797.76	4.225
798.07	3.750
798.37	1.471
798.68	0.000
798.99	7.143
799.29	11.842
799.60	10.000
799.90	2.778
800.21	-4.688
800.51	-6.349
800.82	-1.639
801.12	5.263
801.43	9.859
801.73	1.695
802.04	24.590
802.34	-10.909
802.65	-28.846
802.95	-16.667
803.26	-37.500
803.56	-1.923
803.87	-28.947
804.17	1.613
804.48	10.769
804.78	-7.692
805.09	-4.651
805.39	-43.750
805.70	-20.755
806.00	26.316
806.30	20.270
806.61	11.765
806.91	7.407
807.22	8.000
807.52	5.970
807.83	-1.613
808.13	-3.175
808.43	-23.636
808.74	-3.030
809.04	3.774
809.35	6.849
809.65	15.789
809.95	13.235
810.26	3.922
810.56	-16.000
810.86	-24.490
811.17	-22.857
811.47	-11.538
811.77	-12.903
812.08	-26.316
812.38	4.762
812.69	-19.565
812.99	-12.903
813.29	7.143
813.59	-74.074
813.90	-2.128
814.20	-16.279
814.50	-12.500
814.81	-10.000
815.11	-14.634
815.41	-30.000
815.72	17.143
816.02	-13.889
816.32	12.821
816.62	-18.919
816.93	-52.941
817.23	0.000
817.53	-14.706
817.84	-14.706
818.14	-46.875
818.44	-37.931
818.74	-35.484
819.04	-33.333
819.35	0.000
819.65	-60.000
819.95	3.333
820.25	-44.000
820.56	-18.421
820.86	-15.000
821.16	-10.638
821.46	-8.621
821.76	-15.385
822.07	-35.000
822.37	-34.884
822.67	-50.000
822.97	-21.622
823.27	-8.108
823.57	28.000
823.88	-29.730
824.18	-76.190
824.48	-7.692
824.78	-130.769
825.08	-8.696
825.38	-54.167
825.69	-33.333
825.99	-65.000
826.29	-54.054
826.59	-29.412
826.89	-28.000
827.19	-31.429
827.49	2.632
827.79	-46.875
828.09	-50.000
828.39	-56.522
828.70	-65.517
829.00	-44.828
829.30	0.000
829.60	21.875
829.90	-50.000
830.20	-11.538
830.50	-47.619
830.80	-42.857
831.10	-25.641
831.40	-90.476
831.70	-20.588
832.00	-54.167
832.30	-36.842
832.60	-12.500
832.90	-66.667
833.20	-129.412
833.50	-126.667
833.80	-113.333
834.10	-70.000
834.40	-45.833
834.70	-22.222
835.00	-7.692
835.30	-41.667
835.60	10.345
835.90	-77.778
836.20	-127.273
836.50	-141.667
836.80	-22.857
837.10	5.714
837.40	-82.353
837.70	-181.818
838.00	-4.167
838.30	-100.000
838.60	-14.286
838.90	-45.000
839.19	-8.696
839.49	-39.130
839.79	-77.778
840.09	-21.739
840.39	-81.818
840.69	-87.500
840.99	-57.895
841.29	-75.000
841.59	-178.571
841.88	-72.222
842.18	-58.333
842.48	-58.824
842.78	-31.034
843.08	-50.000
843.38	-61.538
843.68	-77.778
843.97	15.385
844.27	-181.818
844.57	-180.000
844.87	-40.000
845.17	-220.000
845.47	-21.429
845.76	-200.000
846.06	0.000
846.36	-325.000
846.66	-190.000
846.96	-15.789
847.25	-12.500
847.55	-125.000
847.85	60.000
848.15	-100.000
848.44	23.077
848.74	-52.632
849.04	1166.667
849.34	0.000
849.63	-42.105
849.93	0.000
850.23	-95.000
850.53	-14.286
850.82	-16.000
851.12	-73.684
851.42	-1000.000
851.71	-7.143
852.01	-58.333
852.31	-47.059
852.61	-66.667
852.90	-19.048
853.20	-233.333
853.50	-77.778
853.79	-52.632
854.09	-120.000
854.39	-28.571
854.68	4.348
854.98	-216.667
855.28	-20.690
855.57	-81.250
855.87	-50.000
856.17	-80.000
856.46	-3.448
856.76	-40.000
857.05	-76.471
857.35	-192.308
857.65	-63.636
857.94	-14.815
858.24	-135.714
858.53	-107.143
858.83	-75.000
859.13	-233.333
859.42	-28.571
859.72	-100.000
860.01	-400.000
860.31	-262.500
860.60	-340.000
860.90	-11.111
861.20	-200.000
861.49	-271.429
861.79	-94.118
862.08	-1100.000
862.38	-133.333
862.67	-53.846
862.97	-35.294
863.26	-40.000
863.56	-29.412
863.85	500.000
864.15	-130.000
864.44	-69.231
864.74	-55.000
865.03	-287.500
865.33	-216.667
865.62	-105.882
865.92	-725.000
866.21	-150.000
866.51	-116.667
866.80	-1400.000
867.10	-466.667
867.39	-58.824
867.69	-26.087
867.98	-100.000
868.27	-300.000
868.57	-68.750
868.86	-163.636
869.16	11.765
869.45	-133.333
869.75	-300.000
870.04	1200.000
870.33	-8.333
870.63	-100.000
870.92	-144.444
871.22	-41.667
871.51	-136.364
871.80	-108.333
872.10	10.000
>>>>>End Processed Spectral Data<<<<<
