SpectraSuite Data File
++++++++++++++++++++++++++++++++++++
Date: Sat May 16 11:36:27 PDT 2015
User: schluterlab
Dark Spectrum Present: Yes
Reference Spectrum Present: Yes
Number of Sampled Component Spectra: 1
Spectrometers: USB2E3373
Integration Time (usec): 3000 (USB2E3373)
Spectra Averaged: 3 (USB2E3373)
Boxcar Smoothing: 0 (USB2E3373)
Correct for Electrical Dark: No (USB2E3373)
Strobe/Lamp Enabled: No (USB2E3373)
Correct for Detector Non-linearity: No (USB2E3373)
Correct for Stray Light: No (USB2E3373)
Number of Pixels in Processed Spectrum: 2048
>>>>>Begin Processed Spectral Data<<<<<
178.53	0.000
178.91	153.333
179.29	533.333
179.67	-1300.000
180.04	-15.385
180.42	1500.000
180.80	350.000
181.18	225.000
181.56	-150.000
181.94	1900.000
182.31	250.000
182.69	-92.308
183.07	-400.000
183.45	1750.000
183.83	700.000
184.20	-142.857
184.58	-250.000
184.96	-375.000
185.34	125.000
185.72	-425.000
186.09	150.000
186.47	-275.000
186.85	-387.500
187.23	-12.500
187.61	-175.000
187.98	-200.000
188.36	-212.500
188.74	-212.500
189.12	2300.000
189.49	385.714
189.87	-141.667
190.25	675.000
190.63	-35.714
191.00	-166.667
191.38	580.000
191.76	-40.000
192.14	800.000
192.51	-340.000
192.89	-666.667
193.27	0.000
193.65	-122.222
194.02	-242.857
194.40	700.000
194.78	-70.000
195.15	-1200.000
195.53	-118.182
195.91	-466.667
196.29	80.000
196.66	-833.333
197.04	1500.000
197.42	-75.000
197.79	46.667
198.17	-433.333
198.55	-700.000
198.92	-2200.000
199.30	300.000
199.68	-750.000
200.05	-155.556
200.43	-188.889
200.81	-1800.000
201.18	-133.333
201.56	157.143
201.94	-86.667
202.31	4.545
202.69	-30.000
203.07	-100.000
203.44	600.000
203.82	-233.333
204.19	-525.000
204.57	-200.000
204.95	-2100.000
205.32	-25.000
205.70	1400.000
206.08	-2600.000
206.45	-66.667
206.83	-950.000
207.20	-100.000
207.58	-600.000
207.96	-600.000
208.33	-137.500
208.71	-100.000
209.08	260.000
209.46	-157.143
209.84	900.000
210.21	0.000
210.59	10.000
210.96	900.000
211.34	-266.667
211.71	-200.000
212.09	400.000
212.46	1200.000
212.84	-3300.000
213.22	800.000
213.59	133.333
213.97	-33.333
214.34	70.000
214.72	-130.000
215.09	-333.333
215.47	-133.333
215.84	-80.000
216.22	-130.000
216.59	-6.667
216.97	-325.000
217.34	1000.000
217.72	-271.429
218.09	-216.667
218.47	-342.857
218.84	214.286
219.22	-85.714
219.59	0.000
219.97	314.286
220.34	300.000
220.72	200.000
221.09	-69.231
221.47	0.000
221.84	500.000
222.22	-650.000
222.59	1200.000
222.97	-250.000
223.34	-1250.000
223.72	-766.667
224.09	-142.857
224.46	-550.000
224.84	-71.429
225.21	-300.000
225.59	-63.636
225.96	-175.000
226.34	-57.143
226.71	-55.556
227.08	5.000
227.46	1100.000
227.83	-257.143
228.21	-187.500
228.58	800.000
228.95	-68.750
229.33	-2300.000
229.70	-200.000
230.08	-1450.000
230.45	-133.333
230.82	-166.667
231.20	-700.000
231.57	-650.000
231.95	1500.000
232.32	-19.048
232.69	-155.556
233.07	-200.000
233.44	-1100.000
233.81	-66.667
234.19	-211.111
234.56	-87.500
234.93	-12.500
235.31	-228.571
235.68	-157.143
236.05	-100.000
236.43	-109.091
236.80	-38.710
237.17	-75.000
237.55	-57.143
237.92	-63.636
238.29	-42.857
238.67	-32.353
239.04	-36.111
239.41	-54.839
239.79	-74.359
240.16	-47.619
240.53	-14.545
240.91	-30.769
241.28	-18.182
241.65	-7.692
242.02	-19.672
242.40	-21.311
242.77	-16.667
243.14	-25.424
243.51	-31.429
243.89	-21.519
244.26	-15.730
244.63	-5.263
245.00	-10.526
245.38	-0.847
245.75	-7.965
246.12	-11.200
246.49	-9.449
246.87	-8.943
247.24	-16.102
247.61	-17.797
247.98	-12.676
248.36	-6.993
248.73	-12.025
249.10	-10.191
249.47	-2.339
249.84	-4.545
250.22	-17.857
250.59	-7.345
250.96	-9.948
251.33	-1.422
251.70	-4.808
252.08	-7.109
252.45	-10.427
252.82	-8.095
253.19	-4.681
253.56	-6.452
253.94	-2.110
254.31	-3.863
254.68	-4.065
255.05	-4.435
255.42	-2.778
255.79	-2.509
256.16	-9.804
256.54	0.735
256.91	-3.030
257.28	-5.861
257.65	-5.319
258.02	-0.629
258.39	-4.348
258.76	-4.730
259.14	-2.469
259.51	-0.328
259.88	-4.268
260.25	0.000
260.62	-5.145
260.99	-4.451
261.36	-1.524
261.73	-2.890
262.10	-2.500
262.47	-2.849
262.85	0.000
263.22	-6.017
263.59	-5.231
263.96	-0.870
264.33	-1.897
264.70	-3.867
265.07	-0.824
265.44	-1.550
265.81	-2.067
266.18	-4.304
266.55	-3.186
266.92	-3.275
267.29	-3.148
267.66	-4.444
268.03	-1.208
268.40	-1.408
268.77	-1.205
269.14	-3.712
269.51	-2.529
269.88	-4.128
270.25	-3.730
270.62	-1.373
270.99	-1.802
271.36	-3.030
271.73	-2.466
272.10	-2.059
272.47	-4.667
272.84	-1.111
273.21	-1.606
273.58	-1.978
273.95	-2.851
274.32	-2.036
274.69	0.000
275.06	-1.431
275.43	-4.688
275.80	0.611
276.17	-2.092
276.54	-2.037
276.91	-2.881
277.28	-2.028
277.65	-1.240
278.02	1.461
278.39	-1.375
278.76	-2.191
279.13	-3.557
279.50	-2.187
279.87	-3.171
280.23	-0.607
280.60	-3.380
280.97	-3.883
281.34	-3.482
281.71	-0.962
282.08	-1.411
282.45	-3.666
282.82	-2.907
283.19	-1.455
283.56	-0.549
283.92	-1.590
284.29	-2.045
284.66	-1.079
285.03	1.783
285.40	-1.476
285.77	-2.281
286.14	-2.527
286.51	-3.020
286.87	-0.544
287.24	-0.853
287.61	-2.479
287.98	-2.426
288.35	-1.983
288.72	-2.377
289.08	-2.373
289.45	-1.347
289.82	-1.903
290.19	-0.657
290.56	-3.967
290.93	-2.862
291.29	-1.945
291.66	-1.932
292.03	0.314
292.40	-0.301
292.77	0.000
293.13	-1.138
293.50	-0.892
293.87	-1.074
294.24	0.000
294.60	-2.727
294.97	-0.455
295.34	-2.519
295.71	-1.935
296.08	-2.919
296.44	-2.575
296.81	-0.712
297.18	-0.704
297.55	0.282
297.91	0.000
298.28	-1.918
298.65	-0.976
299.02	1.471
299.38	-2.139
299.75	-1.223
300.12	-1.154
300.48	0.384
300.85	-0.917
301.22	0.647
301.59	0.260
301.95	1.637
302.32	-2.347
302.69	-1.591
303.05	-1.709
303.42	-1.375
303.79	-0.359
304.15	-0.592
304.52	0.467
304.89	-0.118
305.25	-1.099
305.62	-0.235
305.99	2.120
306.35	0.555
306.72	-0.342
307.09	-0.341
307.45	0.341
307.82	-0.670
308.19	0.447
308.55	0.980
308.92	0.000
309.29	0.541
309.65	0.848
310.02	1.188
310.38	-0.432
310.75	0.615
311.12	1.446
311.48	1.670
311.85	0.618
312.22	2.266
312.58	1.831
312.95	1.121
313.31	0.999
313.68	2.915
314.05	3.462
314.41	1.911
314.78	1.199
315.14	2.073
315.51	2.330
315.87	2.711
316.24	1.944
316.61	3.167
316.97	2.189
317.34	2.987
317.70	2.505
318.07	3.731
318.43	3.933
318.80	3.850
319.16	2.345
319.53	3.665
319.89	3.951
320.26	4.510
320.62	4.135
320.99	4.279
321.35	4.433
321.72	4.606
322.08	5.045
322.45	4.158
322.81	6.820
323.18	7.589
323.54	6.654
323.91	7.970
324.27	9.030
324.64	8.410
325.00	8.377
325.37	9.321
325.73	10.499
326.10	8.946
326.46	10.508
326.83	11.489
327.19	11.927
327.56	13.373
327.92	11.895
328.29	13.160
328.65	12.455
329.01	13.958
329.38	14.095
329.74	14.744
330.11	15.594
330.47	15.259
330.84	15.674
331.20	15.975
331.56	16.408
331.93	16.163
332.29	17.078
332.66	19.315
333.02	18.009
333.38	18.011
333.75	19.947
334.11	18.311
334.48	18.800
334.84	19.773
335.20	20.124
335.57	18.412
335.93	20.591
336.29	18.423
336.66	19.559
337.02	19.820
337.38	19.430
337.75	20.281
338.11	20.483
338.47	19.573
338.84	21.143
339.20	20.299
339.56	21.301
339.93	19.929
340.29	19.398
340.65	18.969
341.02	20.573
341.38	19.882
341.74	21.592
342.11	19.795
342.47	20.343
342.83	20.235
343.20	21.008
343.56	19.918
343.92	21.369
344.28	21.783
344.65	21.040
345.01	19.916
345.37	20.847
345.73	19.967
346.10	18.234
346.46	19.253
346.82	19.246
347.19	19.638
347.55	19.342
347.91	20.157
348.27	20.048
348.63	20.921
349.00	21.002
349.36	17.721
349.72	19.586
350.08	19.888
350.45	19.228
350.81	20.064
351.17	20.257
351.53	19.411
351.89	20.857
352.26	21.085
352.62	21.889
352.98	20.411
353.34	21.023
353.70	20.077
354.07	20.692
354.43	20.949
354.79	20.602
355.15	20.767
355.51	21.094
355.87	19.209
356.24	21.048
356.60	21.354
356.96	20.092
357.32	19.161
357.68	20.536
358.04	20.554
358.40	21.036
358.77	19.552
359.13	20.811
359.49	19.426
359.85	21.646
360.21	21.385
360.57	21.084
360.93	20.444
361.29	21.824
361.66	19.893
362.02	20.192
362.38	20.763
362.74	21.172
363.10	20.014
363.46	21.724
363.82	20.845
364.18	20.984
364.54	22.445
364.90	21.314
365.26	21.184
365.62	22.880
365.98	21.479
366.35	21.338
366.71	21.705
367.07	21.736
367.43	21.757
367.79	20.619
368.15	21.977
368.51	21.748
368.87	23.764
369.23	21.684
369.59	21.528
369.95	21.142
370.31	21.941
370.67	21.909
371.03	21.574
371.39	21.216
371.75	23.462
372.11	21.951
372.47	23.066
372.83	23.088
373.19	21.429
373.55	23.223
373.91	23.613
374.27	22.656
374.63	21.946
374.99	22.531
375.35	22.544
375.71	23.565
376.07	22.861
376.42	22.185
376.78	22.941
377.14	24.000
377.50	23.856
377.86	23.862
378.22	23.618
378.58	24.398
378.94	24.229
379.30	23.339
379.66	24.772
380.02	24.064
380.38	24.592
380.74	24.443
381.09	24.839
381.45	25.418
381.81	24.743
382.17	25.000
382.53	25.167
382.89	25.778
383.25	24.142
383.61	25.825
383.97	25.658
384.32	25.594
384.68	25.937
385.04	25.785
385.40	26.293
385.76	25.732
386.12	25.734
386.48	26.733
386.83	26.196
387.19	26.420
387.55	25.984
387.91	26.023
388.27	25.332
388.62	26.202
388.98	26.227
389.34	26.132
389.70	26.431
390.06	25.295
390.42	26.923
390.77	26.372
391.13	27.391
391.49	27.511
391.85	26.434
392.20	25.728
392.56	25.962
392.92	26.811
393.28	27.153
393.64	26.819
393.99	27.138
394.35	27.129
394.71	27.548
395.07	27.181
395.42	25.745
395.78	27.216
396.14	27.664
396.50	27.034
396.85	26.218
397.21	26.914
397.57	26.930
397.92	27.225
398.28	27.722
398.64	26.175
399.00	28.034
399.35	26.888
399.71	27.120
400.07	28.179
400.42	27.859
400.78	26.893
401.14	27.545
401.49	27.300
401.85	27.822
402.21	27.473
402.57	27.002
402.92	28.005
403.28	27.022
403.63	26.723
403.99	27.408
404.35	26.691
404.70	27.150
405.06	27.451
405.42	26.384
405.77	25.962
406.13	27.030
406.49	26.423
406.84	27.115
407.20	27.503
407.55	27.549
407.91	25.907
408.27	27.512
408.62	27.841
408.98	27.714
409.34	27.971
409.69	26.087
410.05	27.047
410.40	27.345
410.76	27.445
411.11	27.120
411.47	27.430
411.83	26.528
412.18	27.166
412.54	27.517
412.89	27.704
413.25	27.037
413.60	27.157
413.96	26.741
414.31	27.584
414.67	27.238
415.03	27.749
415.38	27.456
415.74	28.673
416.09	27.494
416.45	27.646
416.80	27.763
417.16	27.907
417.51	27.380
417.87	26.796
418.22	27.307
418.58	27.599
418.93	26.977
419.29	28.294
419.64	26.696
420.00	28.190
420.35	27.912
420.71	28.151
421.06	27.692
421.42	27.810
421.77	27.806
422.12	27.644
422.48	28.167
422.83	28.189
423.19	28.341
423.54	28.357
423.90	28.629
424.25	28.450
424.61	29.312
424.96	29.491
425.31	28.284
425.67	29.054
426.02	28.055
426.38	29.038
426.73	28.638
427.09	28.799
427.44	28.636
427.79	28.198
428.15	29.862
428.50	29.560
428.85	28.357
429.21	29.330
429.56	30.000
429.92	29.709
430.27	29.412
430.62	29.258
430.98	29.378
431.33	28.869
431.68	29.330
432.04	30.162
432.39	30.370
432.74	30.276
433.10	29.826
433.45	29.361
433.80	29.115
434.16	29.661
434.51	29.808
434.86	29.818
435.22	30.512
435.57	29.988
435.92	29.660
436.28	30.089
436.63	29.791
436.98	29.267
437.34	30.419
437.69	30.630
438.04	30.289
438.39	30.325
438.75	30.908
439.10	30.483
439.45	29.753
439.81	30.542
440.16	29.642
440.51	30.941
440.86	30.596
441.22	30.680
441.57	30.158
441.92	30.946
442.27	30.790
442.63	30.633
442.98	30.474
443.33	30.862
443.68	30.120
444.03	31.336
444.39	29.956
444.74	32.048
445.09	31.524
445.44	30.951
445.79	31.209
446.15	31.325
446.50	30.212
446.85	31.144
447.20	31.256
447.55	30.884
447.91	30.825
448.26	30.615
448.61	31.183
448.96	31.933
449.31	30.496
449.66	31.883
450.02	29.640
450.37	30.609
450.72	31.243
451.07	31.741
451.42	30.793
451.77	31.119
452.12	32.896
452.47	31.801
452.83	30.635
453.18	31.626
453.53	30.970
453.88	32.057
454.23	31.137
454.58	32.132
454.93	31.549
455.28	31.931
455.63	32.187
455.98	32.470
456.34	31.258
456.69	31.895
457.04	31.715
457.39	30.443
457.74	31.010
458.09	31.903
458.44	32.506
458.79	30.942
459.14	31.945
459.49	31.380
459.84	31.254
460.19	31.325
460.54	30.792
460.89	31.110
461.24	31.876
461.59	32.298
461.94	32.909
462.29	32.281
462.64	31.423
462.99	32.798
463.34	32.140
463.69	31.552
464.04	31.283
464.39	31.422
464.74	30.851
465.09	31.088
465.44	32.205
465.79	31.134
466.14	31.588
466.49	31.491
466.84	31.933
467.19	32.357
467.54	31.076
467.89	31.936
468.24	31.532
468.59	31.480
468.94	31.897
469.29	31.124
469.64	31.536
469.99	31.803
470.34	32.131
470.68	31.831
471.03	32.209
471.38	31.875
471.73	31.888
472.08	31.928
472.43	31.532
472.78	32.333
473.13	31.875
473.48	31.780
473.83	32.506
474.17	31.911
474.52	33.632
474.87	32.809
475.22	31.622
475.57	31.278
475.92	32.883
476.27	31.200
476.61	31.380
476.96	32.197
477.31	32.293
477.66	32.097
478.01	33.495
478.36	31.325
478.70	32.248
479.05	32.829
479.40	32.902
479.75	32.518
480.10	31.845
480.45	31.141
480.79	32.182
481.14	33.166
481.49	32.720
481.84	32.362
482.19	32.755
482.53	31.581
482.88	32.226
483.23	31.643
483.58	33.117
483.92	31.677
484.27	30.970
484.62	31.188
484.97	31.333
485.31	30.176
485.66	29.665
486.01	29.724
486.36	31.106
486.70	31.491
487.05	30.528
487.40	31.036
487.75	30.825
488.09	29.895
488.44	31.089
488.79	31.270
489.13	31.571
489.48	32.055
489.83	31.747
490.17	32.564
490.52	32.835
490.87	31.732
491.22	32.835
491.56	33.241
491.91	31.918
492.26	32.453
492.60	31.827
492.95	32.175
493.30	31.968
493.64	31.876
493.99	31.979
494.34	32.190
494.68	32.865
495.03	32.027
495.37	32.399
495.72	31.974
496.07	31.534
496.41	32.376
496.76	32.192
497.11	31.983
497.45	32.854
497.80	31.266
498.14	31.974
498.49	30.889
498.84	32.379
499.18	32.602
499.53	32.343
499.87	31.564
500.22	31.961
500.56	31.416
500.91	32.562
501.26	32.994
501.60	32.065
501.95	33.333
502.29	31.932
502.64	32.485
502.98	30.906
503.33	31.814
503.67	32.663
504.02	31.820
504.36	31.127
504.71	31.307
505.06	31.653
505.40	32.086
505.75	32.571
506.09	32.204
506.44	31.579
506.78	32.163
507.13	32.029
507.47	31.664
507.82	31.699
508.16	32.746
508.51	32.561
508.85	31.832
509.19	31.293
509.54	31.712
509.88	32.500
510.23	32.338
510.57	32.381
510.92	32.760
511.26	31.951
511.61	30.940
511.95	32.166
512.30	32.161
512.64	31.608
512.98	31.408
513.33	32.125
513.67	31.993
514.02	31.879
514.36	32.022
514.70	32.371
515.05	31.961
515.39	32.122
515.74	32.693
516.08	31.758
516.42	32.918
516.77	31.196
517.11	32.838
517.46	32.356
517.80	32.551
518.14	32.488
518.49	32.756
518.83	31.988
519.17	32.327
519.52	31.521
519.86	32.915
520.20	32.885
520.55	33.046
520.89	32.498
521.23	31.807
521.58	32.414
521.92	32.616
522.26	32.889
522.61	32.446
522.95	32.929
523.29	33.417
523.64	32.105
523.98	32.527
524.32	31.678
524.66	30.807
525.01	32.177
525.35	32.152
525.69	31.490
526.04	32.311
526.38	32.654
526.72	32.503
527.06	32.096
527.41	32.145
527.75	31.683
528.09	32.363
528.43	31.738
528.78	31.219
529.12	32.586
529.46	32.990
529.80	31.698
530.15	31.616
530.49	32.083
530.83	32.744
531.17	32.660
531.51	30.676
531.86	30.612
532.20	31.646
532.54	31.551
532.88	32.082
533.22	32.553
533.57	32.963
533.91	30.899
534.25	31.175
534.59	30.981
534.93	30.305
535.27	32.033
535.62	32.097
535.96	31.028
536.30	29.712
536.64	31.873
536.98	31.568
537.32	31.375
537.66	30.210
538.01	30.997
538.35	31.757
538.69	31.350
539.03	31.077
539.37	31.803
539.71	31.488
540.05	31.117
540.39	32.756
540.73	30.684
541.07	32.582
541.42	30.993
541.76	30.565
542.10	31.668
542.44	31.179
542.78	31.479
543.12	32.111
543.46	28.699
543.80	30.569
544.14	29.550
544.48	30.184
544.82	31.935
545.16	31.590
545.50	29.744
545.84	31.085
546.18	31.415
546.52	31.081
546.86	31.339
547.20	31.575
547.54	30.234
547.88	30.856
548.22	29.489
548.56	29.993
548.90	30.795
549.24	30.904
549.58	29.781
549.92	32.014
550.26	30.925
550.60	29.374
550.94	32.482
551.28	31.001
551.62	30.945
551.96	31.042
552.30	30.941
552.64	30.331
552.98	30.834
553.32	31.025
553.66	30.209
554.00	31.059
554.34	30.975
554.68	29.532
555.02	30.463
555.36	29.978
555.69	30.229
556.03	30.035
556.37	30.156
556.71	30.494
557.05	30.155
557.39	30.735
557.73	31.291
558.07	30.897
558.41	29.918
558.75	31.027
559.08	30.350
559.42	31.317
559.76	31.518
560.10	31.394
560.44	31.214
560.78	29.367
561.12	30.642
561.45	30.548
561.79	30.314
562.13	29.734
562.47	29.902
562.81	29.986
563.15	31.211
563.48	29.302
563.82	30.291
564.16	29.412
564.50	28.831
564.84	28.968
565.17	29.708
565.51	29.009
565.85	30.358
566.19	30.040
566.52	30.202
566.86	29.709
567.20	29.722
567.54	29.238
567.88	28.532
568.21	29.139
568.55	29.215
568.89	28.032
569.23	28.089
569.56	27.533
569.90	27.695
570.24	28.035
570.57	26.889
570.91	26.726
571.25	27.173
571.59	27.349
571.92	26.726
572.26	27.082
572.60	26.900
572.93	26.076
573.27	26.280
573.61	25.667
573.95	26.291
574.28	25.816
574.62	26.335
574.96	25.673
575.29	25.940
575.63	26.307
575.97	25.809
576.30	25.760
576.64	26.162
576.98	25.678
577.31	26.269
577.65	25.408
577.98	25.452
578.32	25.384
578.66	25.691
578.99	25.818
579.33	25.973
579.67	25.514
580.00	25.322
580.34	25.783
580.67	25.178
581.01	25.274
581.35	24.932
581.68	25.019
582.02	24.986
582.35	25.534
582.69	25.216
583.02	26.039
583.36	25.810
583.70	25.294
584.03	25.862
584.37	25.359
584.70	25.430
585.04	25.975
585.37	25.537
585.71	25.157
586.04	25.279
586.38	25.742
586.72	25.676
587.05	25.970
587.39	25.102
587.72	25.644
588.06	26.190
588.39	26.089
588.73	26.252
589.06	25.767
589.40	26.898
589.73	25.850
590.07	25.929
590.40	26.458
590.73	26.230
591.07	26.107
591.40	26.690
591.74	26.759
592.07	26.396
592.41	25.860
592.74	26.172
593.08	25.850
593.41	26.020
593.75	25.288
594.08	25.773
594.41	26.543
594.75	26.614
595.08	25.789
595.42	25.975
595.75	25.358
596.09	25.960
596.42	26.350
596.75	27.253
597.09	27.337
597.42	25.884
597.75	26.129
598.09	26.254
598.42	25.586
598.76	25.706
599.09	25.730
599.42	25.298
599.76	25.217
600.09	26.374
600.42	25.598
600.76	25.650
601.09	24.991
601.42	25.366
601.76	25.350
602.09	25.603
602.42	25.679
602.76	25.509
603.09	25.887
603.42	25.786
603.76	25.768
604.09	25.711
604.42	25.146
604.76	25.861
605.09	27.125
605.42	25.754
605.75	26.046
606.09	25.363
606.42	25.974
606.75	25.204
607.09	25.540
607.42	26.144
607.75	24.857
608.08	26.525
608.42	25.402
608.75	25.000
609.08	26.011
609.41	26.059
609.75	25.744
610.08	26.471
610.41	26.602
610.74	26.451
611.07	26.065
611.41	25.265
611.74	27.301
612.07	27.766
612.40	25.800
612.73	25.363
613.07	25.592
613.40	26.929
613.73	26.485
614.06	26.194
614.39	26.607
614.72	25.363
615.06	26.467
615.39	25.122
615.72	25.693
616.05	25.732
616.38	27.394
616.71	26.186
617.05	26.055
617.38	27.554
617.71	25.737
618.04	27.081
618.37	26.667
618.70	27.053
619.03	26.134
619.36	27.132
619.69	27.351
620.03	26.446
620.36	26.793
620.69	26.849
621.02	27.245
621.35	27.661
621.68	26.148
622.01	26.699
622.34	27.795
622.67	27.578
623.00	27.238
623.33	28.507
623.66	26.366
623.99	26.015
624.32	27.083
624.65	26.932
624.99	27.409
625.32	26.796
625.65	27.040
625.98	26.917
626.31	28.222
626.64	26.946
626.97	27.397
627.30	27.404
627.63	27.461
627.96	27.415
628.29	28.033
628.62	27.507
628.95	28.642
629.28	27.820
629.61	27.870
629.94	28.450
630.26	29.423
630.59	29.749
630.92	26.426
631.25	28.125
631.58	28.783
631.91	28.191
632.24	29.333
632.57	27.667
632.90	29.310
633.23	29.439
633.56	28.538
633.89	29.009
634.22	27.981
634.55	29.207
634.88	29.504
635.20	28.215
635.53	29.517
635.86	27.456
636.19	27.228
636.52	27.957
636.85	28.159
637.18	27.125
637.51	28.253
637.83	29.427
638.16	28.026
638.49	29.931
638.82	27.671
639.15	28.794
639.48	27.756
639.81	30.014
640.13	28.378
640.46	29.202
640.79	30.952
641.12	28.773
641.45	30.129
641.77	29.192
642.10	29.607
642.43	28.832
642.76	28.976
643.09	28.730
643.41	30.635
643.74	29.571
644.07	29.953
644.40	29.335
644.73	30.528
645.05	29.883
645.38	29.636
645.71	30.069
646.04	30.756
646.36	29.843
646.69	28.720
647.02	29.603
647.35	31.227
647.67	29.745
648.00	31.283
648.33	29.680
648.66	28.065
648.98	29.140
649.31	27.385
649.64	27.969
649.96	27.630
650.29	28.033
650.62	29.432
650.94	27.993
651.27	28.596
651.60	28.028
651.92	30.822
652.25	27.045
652.58	26.746
652.90	27.608
653.23	28.710
653.56	29.097
653.88	29.016
654.21	28.523
654.54	27.575
654.86	29.535
655.19	26.218
655.52	25.472
655.84	22.235
656.17	23.852
656.49	32.406
656.82	33.607
657.15	25.994
657.47	19.194
657.80	14.556
658.13	16.787
658.45	23.067
658.78	22.413
659.10	23.263
659.43	22.382
659.75	22.659
660.08	23.125
660.41	23.813
660.73	24.642
661.06	29.420
661.38	28.214
661.71	28.298
662.03	31.855
662.36	29.424
662.68	28.692
663.01	32.059
663.33	29.252
663.66	29.185
663.98	28.348
664.31	29.978
664.63	31.195
664.96	28.850
665.28	30.152
665.61	27.907
665.93	31.276
666.26	28.340
666.58	29.314
666.91	26.503
667.23	31.140
667.56	30.159
667.88	28.959
668.21	27.650
668.53	26.869
668.86	30.716
669.18	29.224
669.50	29.439
669.83	29.440
670.15	28.700
670.48	27.570
670.80	28.246
671.13	24.831
671.45	28.153
671.77	29.979
672.10	28.402
672.42	25.461
672.75	29.273
673.07	23.604
673.39	25.137
673.72	28.740
674.04	28.875
674.37	25.155
674.69	30.533
675.01	28.723
675.34	27.983
675.66	29.374
675.98	25.551
676.31	29.864
676.63	23.678
676.95	28.319
677.28	27.378
677.60	30.317
677.92	31.718
678.25	28.009
678.57	27.984
678.89	24.109
679.22	27.044
679.54	30.375
679.86	25.000
680.18	25.475
680.51	23.650
680.83	27.619
681.15	23.121
681.48	29.006
681.80	25.605
682.12	26.358
682.44	26.130
682.77	27.056
683.09	26.834
683.41	26.106
683.73	27.397
684.06	25.161
684.38	27.824
684.70	24.691
685.02	27.756
685.34	25.731
685.67	24.621
685.99	25.142
686.31	25.494
686.63	24.291
686.96	24.769
687.28	26.204
687.60	24.609
687.92	22.957
688.24	25.591
688.56	25.852
688.89	25.000
689.21	24.508
689.53	26.437
689.85	28.062
690.17	25.785
690.49	25.866
690.82	27.470
691.14	22.642
691.46	29.268
691.78	26.872
692.10	24.364
692.42	25.778
692.74	26.180
693.06	25.393
693.39	22.819
693.71	25.282
694.03	25.702
694.35	22.573
694.67	25.059
694.99	23.529
695.31	25.510
695.63	24.745
695.95	24.318
696.27	28.429
696.59	27.273
696.91	24.157
697.23	25.260
697.56	23.077
697.88	22.297
698.20	23.983
698.52	22.870
698.84	22.087
699.16	25.476
699.48	23.750
699.80	25.063
700.12	25.441
700.44	25.140
700.76	23.615
701.08	25.000
701.40	24.169
701.72	26.852
702.04	25.962
702.36	27.108
702.68	24.251
703.00	23.188
703.32	23.209
703.64	27.353
703.96	23.256
704.28	24.852
704.60	22.468
704.91	23.175
705.23	25.890
705.55	23.649
705.87	29.693
706.19	24.306
706.51	25.694
706.83	27.869
707.15	24.204
707.47	27.548
707.79	22.938
708.11	18.321
708.43	22.693
708.74	22.338
709.06	21.448
709.38	24.425
709.70	23.125
710.02	26.074
710.34	24.422
710.66	25.079
710.98	23.975
711.29	20.323
711.61	23.003
711.93	23.279
712.25	28.239
712.57	27.875
712.89	22.662
713.20	27.491
713.52	21.642
713.84	29.181
714.16	21.967
714.48	24.444
714.80	24.923
715.11	23.919
715.43	28.313
715.75	27.103
716.07	22.951
716.39	23.077
716.70	27.526
717.02	26.667
717.34	22.137
717.66	23.237
717.97	20.902
718.29	26.471
718.61	31.746
718.93	22.939
719.24	16.912
719.56	18.491
719.88	21.818
720.20	23.221
720.51	28.195
720.83	24.096
721.15	22.131
721.46	25.490
721.78	22.605
722.10	26.000
722.42	21.901
722.73	22.709
723.05	21.687
723.37	25.882
723.68	23.887
724.00	28.862
724.32	25.103
724.63	15.353
724.95	25.620
725.27	20.614
725.58	17.241
725.90	23.413
726.22	26.937
726.53	24.335
726.85	14.902
727.16	23.684
727.48	24.615
727.80	15.984
728.11	19.748
728.43	23.967
728.74	22.656
729.06	26.136
729.38	22.957
729.69	22.835
730.01	25.197
730.32	21.514
730.64	24.176
730.96	26.493
731.27	20.000
731.59	23.473
731.90	22.393
732.22	19.018
732.53	24.503
732.85	22.148
733.16	24.638
733.48	19.164
733.80	18.861
734.11	24.483
734.43	20.748
734.74	21.068
735.06	23.824
735.37	20.183
735.69	18.387
736.00	18.519
736.32	24.172
736.63	17.586
736.95	19.565
737.26	20.530
737.58	23.741
737.89	23.297
738.21	18.045
738.52	20.000
738.83	21.875
739.15	22.650
739.46	22.984
739.78	22.028
740.09	18.881
740.41	18.881
740.72	26.277
741.04	15.873
741.35	21.212
741.66	19.907
741.98	18.571
742.29	21.127
742.61	19.251
742.92	26.168
743.23	22.807
743.55	19.369
743.86	23.111
744.18	21.429
744.49	23.153
744.80	25.381
745.12	23.711
745.43	19.598
745.74	23.786
746.06	20.976
746.37	23.348
746.68	26.866
747.00	21.466
747.31	20.673
747.62	22.581
747.94	22.707
748.25	22.326
748.56	21.429
748.88	19.022
749.19	24.413
749.50	27.941
749.82	24.000
750.13	24.229
750.44	21.545
750.75	17.200
751.07	22.500
751.38	16.974
751.69	14.504
752.01	19.231
752.32	21.012
752.63	15.385
752.94	22.222
753.26	19.130
753.57	18.304
753.88	16.379
754.19	17.427
754.51	20.703
754.82	19.763
755.13	24.280
755.44	21.074
755.75	18.930
756.07	16.064
756.38	17.578
756.69	17.690
757.00	17.422
757.31	21.812
757.63	24.611
757.94	17.052
758.25	15.116
758.56	23.989
758.87	19.602
759.18	16.000
759.50	20.285
759.81	16.788
760.12	16.554
760.43	21.683
760.74	23.125
761.05	19.944
761.36	19.760
761.67	20.710
761.99	18.710
762.30	20.652
762.61	20.000
762.92	26.009
763.23	24.645
763.54	16.889
763.85	23.207
764.16	22.449
764.47	19.915
764.78	19.101
765.10	22.662
765.41	19.032
765.72	18.553
766.03	15.194
766.34	20.301
766.65	17.409
766.96	18.500
767.27	23.958
767.58	19.767
767.89	10.968
768.20	20.245
768.51	21.311
768.82	15.676
769.13	18.000
769.44	18.860
769.75	14.719
770.06	18.807
770.37	16.432
770.68	15.625
770.99	16.832
771.30	24.757
771.61	13.426
771.92	13.853
772.23	17.757
772.54	17.021
772.85	15.976
773.16	16.463
773.47	24.096
773.78	21.978
774.09	14.667
774.39	18.519
774.70	7.383
775.01	14.493
775.32	13.433
775.63	8.264
775.94	21.805
776.25	26.429
776.56	20.492
776.87	15.044
777.18	18.584
777.48	10.000
777.79	6.957
778.10	8.257
778.41	8.475
778.72	17.355
779.03	24.627
779.34	13.534
779.65	17.647
779.95	17.391
780.26	17.007
780.57	1.724
780.88	23.148
781.19	4.040
781.50	-0.800
781.80	14.379
782.11	17.949
782.42	13.855
782.73	8.029
783.04	21.622
783.34	11.364
783.65	18.605
783.96	15.447
784.27	17.094
784.57	15.447
784.88	10.569
785.19	20.175
785.50	-2.062
785.81	12.381
786.11	2.941
786.42	7.273
786.73	13.514
787.04	22.772
787.34	15.238
787.65	13.333
787.96	11.765
788.26	5.405
788.57	12.903
788.88	10.937
789.19	3.419
789.49	20.168
789.80	13.675
790.11	13.274
790.41	12.121
790.72	19.811
791.03	-1.389
791.33	10.526
791.64	9.677
791.95	28.000
792.25	4.286
792.56	14.634
792.87	5.102
793.17	0.000
793.48	-1.351
793.79	0.000
794.09	1.266
794.40	9.574
794.70	12.150
795.01	0.877
795.32	1.818
795.62	8.929
795.93	7.216
796.23	-14.286
796.54	23.158
796.85	6.849
797.15	5.556
797.46	28.767
797.76	1.408
798.07	20.000
798.37	32.353
798.68	32.857
798.99	5.714
799.29	25.000
799.60	26.667
799.90	0.000
800.21	-1.563
800.51	19.048
800.82	8.197
801.12	-5.263
801.43	-2.817
801.73	6.780
802.04	16.393
802.34	-5.455
802.65	-9.615
802.95	-1.852
803.26	-32.500
803.56	15.385
803.87	-26.316
804.17	12.903
804.48	15.385
804.78	-35.897
805.09	20.930
805.39	6.250
805.70	-28.302
806.00	31.579
806.30	14.865
806.61	14.706
806.91	22.222
807.22	6.667
807.52	7.463
807.83	-4.839
808.13	-6.349
808.43	-5.455
808.74	4.545
809.04	-20.755
809.35	15.068
809.65	17.544
809.95	8.824
810.26	11.765
810.56	-14.000
810.86	-12.245
811.17	-28.571
811.47	1.923
811.77	6.452
812.08	-31.579
812.38	-2.381
812.69	-21.739
812.99	29.032
813.29	-9.524
813.59	-59.259
813.90	-6.383
814.20	-27.907
814.50	-25.000
814.81	5.000
815.11	-9.756
815.41	-33.333
815.72	-25.714
816.02	-13.889
816.32	10.256
816.62	13.514
816.93	-20.588
817.23	-2.174
817.53	-29.412
817.84	5.882
818.14	-56.250
818.44	-24.138
818.74	6.452
819.04	-44.444
819.35	16.667
819.65	-56.000
819.95	-16.667
820.25	-36.000
820.56	-5.263
820.86	-5.000
821.16	0.000
821.46	3.448
821.76	-41.026
822.07	-7.500
822.37	-4.651
822.67	-36.667
822.97	-54.054
823.27	0.000
823.57	-8.000
823.88	-13.514
824.18	-9.524
824.48	-76.923
824.78	-130.769
825.08	-56.522
825.38	-8.333
825.69	16.667
825.99	-75.000
826.29	-13.514
826.59	-32.353
826.89	-16.000
827.19	8.571
827.49	13.158
827.79	9.375
828.09	-33.333
828.39	-21.739
828.70	-20.690
829.00	-24.138
829.30	-27.778
829.60	3.125
829.90	-33.333
830.20	-26.923
830.50	-76.190
830.80	-64.286
831.10	-10.256
831.40	-85.714
831.70	-14.706
832.00	-12.500
832.30	-121.053
832.60	-56.250
832.90	-100.000
833.20	-188.235
833.50	-113.333
833.80	-113.333
834.10	-15.000
834.40	-41.667
834.70	-27.778
835.00	-30.769
835.30	-37.500
835.60	-6.897
835.90	-66.667
836.20	-154.545
836.50	-191.667
836.80	-2.857
837.10	48.571
837.40	-58.824
837.70	-181.818
838.00	-37.500
838.30	-75.000
838.60	-33.333
838.90	-15.000
839.19	-60.870
839.49	13.043
839.79	-66.667
840.09	-47.826
840.39	-54.545
840.69	-81.250
840.99	-31.579
841.29	-75.000
841.59	-50.000
841.88	-133.333
842.18	-8.333
842.48	-100.000
842.78	-44.828
843.08	-28.571
843.38	-53.846
843.68	-188.889
843.97	-161.538
844.27	-136.364
844.57	-260.000
844.87	8.000
845.17	-220.000
845.47	-42.857
845.76	-322.222
846.06	0.000
846.36	-500.000
846.66	-170.000
846.96	-15.789
847.25	-33.333
847.55	-58.333
847.85	-100.000
848.15	-110.000
848.44	19.231
848.74	-21.053
849.04	733.333
849.34	-144.444
849.63	-36.842
849.93	0.000
850.23	-60.000
850.53	0.000
850.82	-40.000
851.12	-15.789
851.42	-800.000
851.71	-57.143
852.01	-100.000
852.31	-41.176
852.61	40.000
852.90	-85.714
853.20	-350.000
853.50	-77.778
853.79	-78.947
854.09	-40.000
854.39	-25.000
854.68	-73.913
854.98	-183.333
855.28	-13.793
855.57	-56.250
855.87	-50.000
856.17	-80.000
856.46	-37.931
856.76	-20.000
857.05	-111.765
857.35	-130.769
857.65	-81.818
857.94	-33.333
858.24	-107.143
858.53	-50.000
858.83	-191.667
859.13	-222.222
859.42	33.333
859.72	-237.500
860.01	-466.667
860.31	-312.500
860.60	-560.000
860.90	-144.444
861.20	-162.500
861.49	-314.286
861.79	5.882
862.08	-600.000
862.38	-158.333
862.67	-69.231
862.97	-17.647
863.26	-40.000
863.56	-41.176
863.85	800.000
864.15	-140.000
864.44	-130.769
864.74	-40.000
865.03	-300.000
865.33	-333.333
865.62	-82.353
865.92	-575.000
866.21	-157.143
866.51	-166.667
866.80	-1000.000
867.10	-133.333
867.39	-5.882
867.69	-17.391
867.98	-142.857
868.27	-340.000
868.57	-125.000
868.86	-72.727
869.16	-58.824
869.45	-233.333
869.75	-142.857
870.04	1200.000
870.33	-166.667
870.63	-120.000
870.92	-111.111
871.22	-133.333
871.51	-54.545
871.80	-50.000
872.10	-70.000
>>>>>End Processed Spectral Data<<<<<
