SpectraSuite Data File
++++++++++++++++++++++++++++++++++++
Date: Sat May 16 11:17:46 PDT 2015
User: schluterlab
Dark Spectrum Present: Yes
Reference Spectrum Present: Yes
Number of Sampled Component Spectra: 1
Spectrometers: USB2E3373
Integration Time (usec): 3000 (USB2E3373)
Spectra Averaged: 3 (USB2E3373)
Boxcar Smoothing: 0 (USB2E3373)
Correct for Electrical Dark: No (USB2E3373)
Strobe/Lamp Enabled: No (USB2E3373)
Correct for Detector Non-linearity: No (USB2E3373)
Correct for Stray Light: No (USB2E3373)
Number of Pixels in Processed Spectrum: 2048
>>>>>Begin Processed Spectral Data<<<<<
178.53	0.000
178.91	113.333
179.29	566.667
179.67	0.000
180.04	-30.769
180.42	600.000
180.80	50.000
181.18	225.000
181.56	-25.000
181.94	-100.000
182.31	500.000
182.69	-38.462
183.07	-466.667
183.45	1450.000
183.83	433.333
184.20	-200.000
184.58	-12.500
184.96	-275.000
185.34	56.250
185.72	-725.000
186.09	200.000
186.47	-125.000
186.85	-50.000
187.23	-12.500
187.61	25.000
187.98	-225.000
188.36	-62.500
188.74	-125.000
189.12	1000.000
189.49	228.571
189.87	66.667
190.25	200.000
190.63	-14.286
191.00	-144.444
191.38	320.000
191.76	-13.333
192.14	460.000
192.51	-240.000
192.89	-300.000
193.27	0.000
193.65	-77.778
194.02	-171.429
194.40	400.000
194.78	-160.000
195.15	-800.000
195.53	-36.364
195.91	-316.667
196.29	120.000
196.66	-533.333
197.04	2500.000
197.42	-75.000
197.79	-26.667
198.17	-533.333
198.55	-300.000
198.92	-900.000
199.30	212.500
199.68	250.000
200.05	-133.333
200.43	-211.111
200.81	-1600.000
201.18	-8.333
201.56	128.571
201.94	-46.667
202.31	27.273
202.69	120.000
203.07	-10.000
203.44	466.667
203.82	-183.333
204.19	-400.000
204.57	-75.000
204.95	-600.000
205.32	18.750
205.70	800.000
206.08	-600.000
206.45	-100.000
206.83	-1150.000
207.20	-150.000
207.58	-633.333
207.96	-433.333
208.33	-25.000
208.71	-133.333
209.08	290.000
209.46	-157.143
209.84	1150.000
210.21	0.000
210.59	-15.000
210.96	200.000
211.34	-266.667
211.71	-200.000
212.09	450.000
212.46	700.000
212.84	-900.000
213.22	866.667
213.59	133.333
213.97	55.556
214.34	110.000
214.72	-50.000
215.09	-233.333
215.47	-300.000
215.84	-70.000
216.22	-30.000
216.59	60.000
216.97	-350.000
217.34	50.000
217.72	0.000
218.09	-166.667
218.47	-85.714
218.84	142.857
219.22	142.857
219.59	0.000
219.97	142.857
220.34	500.000
220.72	150.000
221.09	-53.846
221.47	0.000
221.84	400.000
222.22	-750.000
222.59	-100.000
222.97	-162.500
223.34	-550.000
223.72	-533.333
224.09	-42.857
224.46	-275.000
224.84	-71.429
225.21	-142.857
225.59	45.455
225.96	-125.000
226.34	128.571
226.71	-44.444
227.08	30.000
227.46	800.000
227.83	-128.571
228.21	-112.500
228.58	700.000
228.95	18.750
229.33	-600.000
229.70	-240.000
230.08	-800.000
230.45	-8.333
230.82	-116.667
231.20	-1100.000
231.57	-400.000
231.95	500.000
232.32	38.095
232.69	-122.222
233.07	-285.714
233.44	-700.000
233.81	-33.333
234.19	-33.333
234.56	-56.250
234.93	40.625
235.31	-214.286
235.68	-107.143
236.05	-70.588
236.43	-68.182
236.80	-12.903
237.17	-37.500
237.55	-9.524
237.92	-45.455
238.29	-8.571
238.67	-8.824
239.04	13.889
239.41	-29.032
239.79	-74.359
240.16	-30.952
240.53	-30.909
240.91	0.000
241.28	-1.818
241.65	15.385
242.02	-19.672
242.40	-18.033
242.77	-4.545
243.14	-27.119
243.51	-22.857
243.89	-8.861
244.26	-14.607
244.63	-9.474
245.00	2.105
245.38	0.000
245.75	-4.425
246.12	-6.400
246.49	1.575
246.87	-9.756
247.24	-3.390
247.61	-6.780
247.98	-2.113
248.36	-1.399
248.73	-1.266
249.10	-7.006
249.47	-0.585
249.84	3.409
250.22	-9.524
250.59	2.260
250.96	2.618
251.33	8.057
251.70	-3.846
252.08	4.265
252.45	-8.531
252.82	-3.810
253.19	-1.702
253.56	0.403
253.94	-1.266
254.31	-4.721
254.68	0.813
255.05	0.000
255.42	1.190
255.79	-1.792
256.16	2.745
256.54	-0.735
256.91	-0.379
257.28	-4.396
257.65	-2.482
258.02	3.459
258.39	-1.003
258.76	-2.703
259.14	-1.235
259.51	0.328
259.88	3.659
260.25	3.416
260.62	-6.752
260.99	1.780
261.36	4.268
261.73	0.289
262.10	3.889
262.47	1.425
262.85	4.000
263.22	-0.860
263.59	-3.077
263.96	0.580
264.33	0.000
264.70	0.552
265.07	0.000
265.44	1.034
265.81	-1.292
266.18	-2.025
266.55	0.980
266.92	0.504
267.29	0.000
267.66	-0.494
268.03	2.415
268.40	1.878
268.77	-2.651
269.14	-0.232
269.51	0.460
269.88	-1.835
270.25	-0.466
270.62	-1.373
270.99	-0.450
271.36	-1.865
271.73	0.000
272.10	-1.373
272.47	-2.444
272.84	3.333
273.21	0.688
273.58	1.978
273.95	-1.535
274.32	2.036
274.69	4.595
275.06	2.454
275.43	-2.009
275.80	5.295
276.17	0.628
276.54	4.073
276.91	0.412
277.28	2.434
277.65	0.000
278.02	2.088
278.39	1.375
278.76	-0.797
279.13	0.988
279.50	1.590
279.87	-0.211
280.23	2.024
280.60	-0.795
280.97	-0.194
281.34	0.193
281.71	1.538
282.08	0.000
282.45	-3.055
282.82	0.775
283.19	1.455
283.56	2.930
283.92	1.767
284.29	-2.045
284.66	0.360
285.03	0.535
285.40	-0.738
285.77	1.930
286.14	0.542
286.51	-1.066
286.87	2.722
287.24	2.389
287.61	1.983
287.98	1.733
288.35	0.000
288.72	0.340
289.08	0.339
289.45	1.684
289.82	-1.038
290.19	3.120
290.56	0.000
290.93	-0.318
291.29	2.917
291.66	0.161
292.03	1.570
292.40	1.506
292.77	2.484
293.13	2.602
293.50	1.932
293.87	2.301
294.24	2.262
294.60	1.970
294.97	4.704
295.34	0.296
295.71	1.786
296.08	0.922
296.44	0.429
296.81	1.852
297.18	1.831
297.55	2.966
297.91	2.789
298.28	1.644
298.65	3.208
299.02	4.679
299.38	0.802
299.75	2.853
300.12	2.179
300.48	2.813
300.85	3.014
301.22	2.070
301.59	3.381
301.95	5.416
302.32	1.565
302.69	2.693
303.05	3.297
303.42	1.875
303.79	3.589
304.15	3.555
304.52	3.384
304.89	3.188
305.25	2.442
305.62	2.585
305.99	4.829
306.35	4.218
306.72	2.392
307.09	4.767
307.45	2.384
307.82	2.458
308.19	4.586
308.55	3.704
308.92	2.363
309.29	3.027
309.65	3.181
310.02	3.132
310.38	2.703
310.75	4.201
311.12	3.926
311.48	4.175
311.85	4.222
312.22	4.531
312.58	5.493
312.95	5.607
313.31	4.695
313.68	4.523
314.05	5.440
314.41	3.722
314.78	3.996
315.14	5.133
315.51	4.762
315.87	6.873
316.24	5.053
316.61	5.950
316.97	5.473
317.34	5.780
317.70	5.566
318.07	5.690
318.43	5.524
318.80	7.230
319.16	5.441
319.53	5.545
319.89	6.773
320.26	6.275
320.62	5.962
320.99	6.169
321.35	5.123
321.72	6.755
322.08	7.319
322.45	6.535
322.81	7.397
323.18	7.781
323.54	7.579
323.91	8.063
324.27	8.555
324.64	8.227
325.00	7.941
325.37	8.869
325.73	10.586
326.10	7.972
326.46	9.194
326.83	9.362
327.19	9.508
327.56	10.562
327.92	11.385
328.29	10.823
328.65	10.909
329.01	11.484
329.38	12.756
329.74	13.370
330.11	12.602
330.47	12.352
330.84	13.199
331.20	13.628
331.56	13.218
331.93	12.789
332.29	14.155
332.66	14.750
333.02	14.480
333.38	15.054
333.75	15.227
334.11	15.111
334.48	16.417
334.84	16.273
335.20	15.248
335.57	14.982
335.93	16.920
336.29	15.412
336.66	14.802
337.02	16.216
337.38	15.865
337.75	16.155
338.11	16.369
338.47	15.747
338.84	15.971
339.20	15.729
339.56	17.201
339.93	16.578
340.29	16.475
340.65	16.084
341.02	16.779
341.38	16.091
341.74	15.749
342.11	16.638
342.47	15.708
342.83	15.617
343.20	17.079
343.56	17.143
343.92	17.863
344.28	17.325
344.65	15.677
345.01	16.639
345.37	16.279
345.73	16.285
346.10	16.353
346.46	15.841
346.82	16.680
347.19	15.201
347.55	16.292
347.91	16.378
348.27	16.229
348.63	17.044
349.00	16.627
349.36	15.925
349.72	17.516
350.08	17.402
350.45	15.209
350.81	16.799
351.17	16.158
351.53	16.547
351.89	16.896
352.26	16.744
352.62	17.281
352.98	17.959
353.34	16.946
353.70	17.452
354.07	17.467
354.43	17.075
354.79	16.957
355.15	17.173
355.51	17.422
355.87	17.549
356.24	16.759
356.60	18.211
356.96	17.629
357.32	18.290
357.68	17.165
358.04	18.091
358.40	18.097
358.77	18.161
359.13	17.292
359.49	17.309
359.85	17.530
360.21	17.960
360.57	18.901
360.93	19.333
361.29	18.386
361.66	17.835
362.02	18.343
362.38	18.709
362.74	18.315
363.10	18.149
363.46	19.160
363.82	18.076
364.18	18.741
364.54	19.157
364.90	18.449
365.26	18.616
365.62	18.959
365.98	18.919
366.35	19.155
366.71	18.746
367.07	19.901
367.43	20.041
367.79	19.519
368.15	18.350
368.51	20.140
368.87	20.604
369.23	19.930
369.59	19.722
369.95	19.521
370.31	20.323
370.67	19.740
371.03	20.700
371.39	19.519
371.75	20.315
372.11	20.660
372.47	19.740
372.83	20.723
373.19	20.929
373.55	20.690
373.91	21.195
374.27	20.602
374.63	20.911
374.99	21.766
375.35	20.727
375.71	22.215
376.07	21.150
376.42	21.325
376.78	21.699
377.14	22.373
377.50	21.212
377.86	22.107
378.22	22.550
378.58	22.730
378.94	23.058
379.30	23.096
379.66	23.254
380.02	22.876
380.38	23.021
380.74	22.626
381.09	23.316
381.45	23.986
381.81	23.109
382.17	23.246
382.53	22.796
382.89	23.445
383.25	24.262
383.61	24.057
383.97	24.617
384.32	24.593
384.68	25.212
385.04	24.396
385.40	25.137
385.76	25.549
386.12	25.422
386.48	25.928
386.83	26.319
387.19	26.420
387.55	26.287
387.91	25.845
388.27	25.090
388.62	26.562
388.98	25.318
389.34	26.377
389.70	26.431
390.06	25.482
390.42	26.603
390.77	26.498
391.13	27.702
391.49	26.700
391.85	27.057
392.20	26.942
392.56	26.940
392.92	27.268
393.28	27.440
393.64	27.480
393.99	28.308
394.35	28.224
394.71	27.054
395.07	27.433
395.42	26.698
395.78	26.713
396.14	28.972
396.50	27.401
396.85	27.452
397.21	27.764
397.57	27.416
397.92	27.459
398.28	27.389
398.64	27.900
399.00	27.921
399.35	28.298
399.71	28.630
400.07	27.940
400.42	27.372
400.78	27.490
401.14	28.383
401.49	27.830
401.85	27.578
402.21	28.784
402.57	28.580
402.92	29.327
403.28	28.248
403.63	27.921
403.99	29.086
404.35	28.623
404.70	28.555
405.06	28.662
405.42	28.167
405.77	27.885
406.13	28.223
406.49	29.119
406.84	28.014
407.20	28.975
407.55	29.069
407.91	28.627
408.27	29.228
408.62	28.503
408.98	28.563
409.34	29.129
409.69	28.166
410.05	29.230
410.40	28.755
410.76	28.394
411.11	29.239
411.47	28.836
411.83	29.584
412.18	27.970
412.54	28.615
412.89	28.919
413.25	28.335
413.60	28.554
413.96	28.466
414.31	29.664
414.67	27.365
415.03	28.719
415.38	28.757
415.74	29.253
416.09	29.284
416.45	28.373
416.80	28.739
417.16	28.571
417.51	29.547
417.87	28.479
418.22	29.330
418.58	29.718
418.93	30.043
419.29	29.799
419.64	29.397
420.00	29.708
420.35	28.740
420.71	29.832
421.06	29.882
421.42	28.864
421.77	29.313
422.12	28.763
422.48	29.503
422.83	29.442
423.19	29.009
423.54	30.029
423.90	29.439
424.25	29.072
424.61	29.855
424.96	29.959
425.31	29.737
425.67	29.513
426.02	29.088
426.38	29.764
426.73	29.164
427.09	28.922
427.44	29.489
427.79	28.779
428.15	29.683
428.50	29.971
428.85	29.077
429.21	29.496
429.56	29.635
429.92	29.860
430.27	29.462
430.62	29.572
430.98	29.901
431.33	29.936
431.68	29.866
432.04	30.554
432.39	30.085
432.74	30.815
433.10	29.094
433.45	29.303
433.80	30.291
434.16	30.091
434.51	30.849
434.86	29.760
435.22	29.844
435.57	29.376
435.92	30.363
436.28	30.445
436.63	29.621
436.98	29.381
437.34	30.242
437.69	30.222
438.04	30.630
438.39	29.964
438.75	30.675
439.10	30.205
439.45	29.632
439.81	30.602
440.16	30.721
440.51	30.765
440.86	31.116
441.22	30.238
441.57	31.158
441.92	30.742
442.27	30.898
442.63	30.794
442.98	30.135
443.33	31.301
443.68	30.589
444.03	30.648
444.39	31.180
444.74	30.727
445.09	31.305
445.44	31.007
445.79	30.546
446.15	32.202
446.50	30.866
446.85	30.477
447.20	30.644
447.55	31.436
447.91	31.499
448.26	30.335
448.61	31.013
448.96	30.700
449.31	30.891
449.66	30.910
450.02	30.693
450.37	30.551
450.72	30.452
451.07	31.238
451.42	30.607
451.77	31.059
452.12	32.122
452.47	31.738
452.83	31.392
453.18	30.930
453.53	30.410
453.88	32.596
454.23	30.411
454.58	32.256
454.93	30.919
455.28	31.294
455.63	31.695
455.98	31.386
456.34	30.940
456.69	31.457
457.04	31.039
457.39	31.220
457.74	30.892
458.09	31.497
458.44	32.448
458.79	30.381
459.14	31.945
459.49	31.261
459.84	31.478
460.19	32.876
460.54	31.397
460.89	32.455
461.24	31.451
461.59	31.067
461.94	31.636
462.29	32.043
462.64	32.016
462.99	33.400
463.34	31.060
463.69	31.616
464.04	30.521
464.39	31.302
464.74	32.329
465.09	32.111
465.44	32.318
465.79	32.600
466.14	32.739
466.49	31.952
466.84	32.353
467.19	31.421
467.54	32.025
467.89	32.182
468.24	32.720
468.59	32.979
468.94	32.283
469.29	32.099
469.64	32.345
469.99	33.086
470.34	33.066
470.68	32.267
471.03	33.173
471.38	31.944
471.73	33.497
472.08	32.865
472.43	32.304
472.78	33.733
473.13	32.339
473.48	32.482
473.83	32.878
474.17	33.949
474.52	33.504
474.87	32.692
475.22	31.681
475.57	32.111
475.92	32.505
476.27	33.143
476.61	32.507
476.96	34.097
477.31	33.315
477.66	31.765
478.01	33.441
478.36	33.630
478.70	32.995
479.05	32.720
479.40	34.041
479.75	33.486
480.10	32.688
480.45	32.495
480.79	33.465
481.14	33.016
481.49	34.076
481.84	33.426
482.19	33.988
482.53	34.801
482.88	32.795
483.23	33.005
483.58	33.626
483.92	33.875
484.27	32.654
484.62	33.305
484.97	32.931
485.31	32.608
485.66	32.233
486.01	32.647
486.36	33.484
486.70	34.100
487.05	33.398
487.40	33.280
487.75	32.791
488.09	32.180
488.44	33.863
488.79	33.675
489.13	34.234
489.48	33.605
489.83	33.755
490.17	33.435
490.52	34.013
490.87	34.134
491.22	34.610
491.56	35.046
491.91	33.779
492.26	34.104
492.60	34.158
492.95	34.555
493.30	33.826
493.64	34.086
493.99	33.700
494.34	33.762
494.68	35.393
495.03	34.034
495.37	35.152
495.72	34.676
496.07	34.209
496.41	34.553
496.76	34.703
497.11	34.150
497.45	35.057
497.80	35.018
498.14	34.234
498.49	34.807
498.84	34.612
499.18	34.893
499.53	35.606
499.87	34.846
500.22	35.196
500.56	34.867
500.91	34.828
501.26	35.032
501.60	35.339
501.95	35.749
502.29	34.624
502.64	36.068
502.98	34.547
503.33	34.586
503.67	34.531
504.02	34.718
504.36	35.392
504.71	34.954
505.06	34.548
505.40	35.828
505.75	35.112
506.09	35.996
506.44	35.940
506.78	35.775
507.13	35.479
507.47	35.211
507.82	35.416
508.16	35.959
508.51	35.343
508.85	36.025
509.19	35.950
509.54	36.892
509.88	36.277
510.23	36.426
510.57	36.720
510.92	36.090
511.26	36.364
511.61	35.205
511.95	35.884
512.30	36.009
512.64	36.004
512.98	37.129
513.33	36.463
513.67	36.348
514.02	35.794
514.36	36.510
514.70	37.238
515.05	37.278
515.39	36.448
515.74	37.289
516.08	37.406
516.42	36.884
516.77	36.973
517.11	37.243
517.46	37.380
517.80	37.545
518.14	37.138
518.49	38.314
518.83	37.507
519.17	38.070
519.52	37.652
519.86	38.112
520.20	38.570
520.55	37.969
520.89	38.885
521.23	38.217
521.58	38.621
521.92	38.759
522.26	38.286
522.61	38.403
522.95	38.928
523.29	38.307
523.64	38.663
523.98	39.083
524.32	38.969
524.66	38.634
525.01	39.627
525.35	38.853
525.69	39.948
526.04	40.078
526.38	39.465
526.72	38.697
527.06	40.039
527.41	38.878
527.75	39.406
528.09	40.503
528.43	39.672
528.78	39.824
529.12	41.229
529.46	40.013
529.80	39.316
530.15	40.180
530.49	40.556
530.83	40.799
531.17	40.471
531.51	40.790
531.86	39.566
532.20	40.081
532.54	40.107
532.88	39.987
533.22	41.511
533.57	40.862
533.91	40.262
534.25	40.478
534.59	39.850
534.93	39.764
535.27	40.151
535.62	41.240
535.96	41.047
536.30	40.576
536.64	40.837
536.98	41.102
537.32	41.672
537.66	40.530
538.01	41.031
538.35	40.743
538.69	40.575
539.03	40.555
539.37	40.519
539.71	40.694
540.05	40.302
540.39	40.720
540.73	40.843
541.07	41.189
541.42	41.188
541.76	39.867
542.10	42.809
542.44	40.773
542.78	41.859
543.12	42.430
543.46	41.918
543.80	40.468
544.14	41.236
544.48	41.929
544.82	40.798
545.16	40.376
545.50	40.713
545.84	42.072
546.18	41.262
546.52	40.541
546.86	41.382
547.20	41.561
547.54	41.116
547.88	41.340
548.22	40.629
548.56	39.546
548.90	41.038
549.24	40.995
549.58	41.143
549.92	40.565
550.26	41.908
550.60	40.469
550.94	41.971
551.28	42.363
551.62	40.990
551.96	41.462
552.30	41.394
552.64	41.590
552.98	42.327
553.32	41.631
553.66	41.817
554.00	41.720
554.34	40.866
554.68	41.155
555.02	40.738
555.36	41.769
555.69	40.759
556.03	40.772
556.37	42.390
556.71	41.231
557.05	41.685
557.39	41.500
557.73	43.253
558.07	42.954
558.41	42.034
558.75	41.369
559.08	40.545
559.42	41.118
559.76	41.641
560.10	42.804
560.44	41.546
560.78	41.267
561.12	40.994
561.45	41.986
561.79	41.185
562.13	42.216
562.47	41.737
562.81	41.584
563.15	41.498
563.48	41.465
563.82	42.394
564.16	41.515
564.50	41.331
564.84	41.534
565.17	40.584
565.51	41.069
565.85	42.799
566.19	42.885
566.52	41.161
566.86	41.277
567.20	41.889
567.54	41.524
567.88	40.369
568.21	40.996
568.55	41.039
568.89	39.563
569.23	40.953
569.56	39.470
569.90	40.834
570.24	39.835
570.57	39.719
570.91	39.442
571.25	40.532
571.59	39.650
571.92	39.405
572.26	39.814
572.60	39.187
572.93	38.402
573.27	39.360
573.61	39.490
573.95	38.664
574.28	38.995
574.62	39.324
574.96	38.485
575.29	38.999
575.63	38.970
575.97	38.430
576.30	38.504
576.64	39.112
576.98	38.144
577.31	39.404
577.65	38.649
577.98	38.883
578.32	38.581
578.66	38.448
578.99	39.217
579.33	38.483
579.67	38.220
580.00	38.517
580.34	39.432
580.67	38.956
581.01	37.820
581.35	38.797
581.68	38.378
582.02	38.535
582.35	38.602
582.69	39.485
583.02	39.633
583.36	39.276
583.70	38.377
584.03	39.547
584.37	39.378
584.70	39.307
585.04	39.089
585.37	38.091
585.71	39.550
586.04	38.804
586.38	38.760
586.72	38.754
587.05	38.743
587.39	39.252
587.72	38.678
588.06	38.735
588.39	38.621
588.73	39.046
589.06	39.482
589.40	39.918
589.73	39.412
590.07	39.731
590.40	39.742
590.73	39.384
591.07	39.016
591.40	39.688
591.74	40.443
592.07	39.730
592.41	39.703
592.74	39.316
593.08	38.929
593.41	39.441
593.75	39.367
594.08	39.863
594.41	39.519
594.75	39.826
595.08	39.436
595.42	39.740
595.75	38.883
596.09	39.193
596.42	39.321
596.75	39.370
597.09	40.650
597.42	39.502
597.75	39.991
598.09	39.449
598.42	40.168
598.76	38.870
599.09	39.503
599.42	39.177
599.76	38.618
600.09	39.008
600.42	39.157
600.76	39.322
601.09	38.397
601.42	38.860
601.76	39.447
602.09	39.468
602.42	39.506
602.76	39.385
603.09	39.113
603.42	39.927
603.76	39.848
604.09	40.208
604.42	38.177
604.76	38.945
605.09	39.467
605.42	39.273
605.75	38.939
606.09	37.609
606.42	39.254
606.75	39.502
607.09	39.568
607.42	39.217
607.75	39.117
608.08	40.443
608.42	39.120
608.75	38.645
609.08	39.601
609.41	40.010
609.75	39.688
610.08	40.392
610.41	40.241
610.74	41.103
611.07	40.365
611.41	39.637
611.74	39.743
612.07	40.602
612.40	40.245
612.73	39.365
613.07	39.130
613.40	40.887
613.73	40.054
614.06	39.209
614.39	40.135
614.72	38.939
615.06	39.620
615.39	40.423
615.72	40.304
616.05	39.094
616.38	39.234
616.71	39.940
617.05	40.410
617.38	40.186
617.71	39.681
618.04	40.994
618.37	40.189
618.70	41.199
619.03	40.081
619.36	40.381
619.69	40.057
620.03	40.289
620.36	40.928
620.69	40.201
621.02	40.715
621.35	42.016
621.68	40.574
622.01	40.372
622.34	41.304
622.67	41.094
623.00	41.775
623.33	41.567
623.66	39.956
623.99	40.376
624.32	40.625
624.65	40.103
624.99	40.403
625.32	40.943
625.65	41.803
625.98	40.767
626.31	42.659
626.64	39.916
626.97	40.839
627.30	42.809
627.63	40.501
627.96	42.124
628.29	40.809
628.62	40.879
628.95	42.224
629.28	42.011
629.61	41.904
629.94	40.926
630.26	42.545
630.59	42.412
630.92	42.743
631.25	42.742
631.58	41.587
631.91	40.851
632.24	41.778
632.57	42.556
632.90	43.908
633.23	42.290
633.56	42.105
633.89	42.453
634.22	42.385
634.55	41.346
634.88	40.629
635.20	42.322
635.53	40.712
635.86	41.184
636.19	43.590
636.52	41.935
636.85	39.591
637.18	41.500
637.51	43.742
637.83	44.208
638.16	42.632
638.49	42.759
638.82	43.372
639.15	42.023
639.48	40.986
639.81	42.739
640.13	40.946
640.46	42.877
640.79	41.317
641.12	42.313
641.45	41.750
641.77	41.168
642.10	43.051
642.43	42.792
642.76	42.362
643.09	41.587
643.41	46.032
643.74	44.038
644.07	42.122
644.40	46.353
644.73	44.059
645.05	39.733
645.38	44.371
645.71	45.876
646.04	46.555
646.36	43.106
646.69	44.118
647.02	43.321
647.35	44.404
647.67	44.161
648.00	43.937
648.33	45.363
648.66	42.258
648.98	42.516
649.31	41.385
649.64	42.344
649.96	41.444
650.29	40.492
650.62	43.718
650.94	41.821
651.27	41.768
651.60	41.522
651.92	44.692
652.25	42.905
652.58	41.908
652.90	42.536
653.23	43.387
653.56	43.311
653.88	41.311
654.21	42.114
654.54	42.525
654.86	41.573
655.19	41.834
655.52	38.776
655.84	37.667
656.17	40.524
656.49	55.026
656.82	56.660
657.15	42.965
657.47	31.419
657.80	24.428
658.13	27.718
658.45	37.175
658.78	36.168
659.10	36.164
659.43	35.487
659.75	35.799
660.08	35.000
660.41	36.012
660.73	38.174
661.06	41.159
661.38	42.857
661.71	40.535
662.03	41.935
662.36	43.710
662.68	41.139
663.01	42.251
663.33	44.671
663.66	40.558
663.98	43.304
664.31	44.743
664.63	43.805
664.96	42.733
665.28	44.685
665.61	39.958
665.93	41.975
666.26	43.927
666.58	41.996
666.91	41.648
667.23	46.711
667.56	43.311
667.88	44.344
668.21	41.935
668.53	42.757
668.86	42.263
669.18	42.922
669.50	42.523
669.83	42.822
670.15	41.928
670.48	40.654
670.80	41.686
671.13	41.309
671.45	40.766
671.77	45.182
672.10	43.393
672.42	41.144
672.75	40.545
673.07	36.757
673.39	42.077
673.72	40.945
674.04	43.100
674.37	40.619
674.69	43.443
675.01	40.426
675.34	40.130
675.66	43.413
675.98	39.868
676.31	44.570
676.63	42.989
676.95	41.814
677.28	39.443
677.60	43.439
677.92	41.189
678.25	40.481
678.57	41.975
678.89	41.719
679.22	40.881
679.54	42.998
679.86	41.200
680.18	40.684
680.51	38.361
680.83	42.095
681.15	37.572
681.48	43.611
681.80	38.911
682.12	40.241
682.44	40.275
682.77	42.857
683.09	39.623
683.41	44.690
683.73	39.726
684.06	41.505
684.38	40.795
684.70	41.564
685.02	38.780
685.34	39.181
685.67	39.015
685.99	39.509
686.31	38.779
686.63	38.475
686.96	39.372
687.28	39.499
687.60	39.258
687.92	37.938
688.24	40.354
688.56	38.477
688.89	39.103
689.21	41.138
689.53	42.069
689.85	38.976
690.17	40.135
690.49	41.339
690.82	37.831
691.14	39.151
691.46	42.129
691.78	40.749
692.10	41.314
692.42	38.889
692.74	37.554
693.06	40.225
693.39	41.163
693.71	39.729
694.03	38.445
694.35	41.084
694.67	38.534
694.99	39.130
695.31	39.541
695.63	38.010
695.95	38.958
696.27	40.150
696.59	40.107
696.91	40.730
697.23	41.146
697.56	37.260
697.88	37.838
698.20	38.972
698.52	37.668
698.84	40.777
699.16	38.333
699.48	36.250
699.80	38.847
700.12	39.798
700.44	40.503
700.76	38.484
701.08	40.407
701.40	35.952
701.72	43.519
702.04	39.744
702.36	39.759
702.68	38.024
703.00	37.101
703.32	40.115
703.64	42.941
703.96	40.988
704.28	39.941
704.60	37.342
704.91	36.508
705.23	43.689
705.55	38.851
705.87	37.201
706.19	38.542
706.51	39.236
706.83	43.934
707.15	40.127
707.47	39.118
707.79	37.371
708.11	35.369
708.43	38.404
708.74	37.922
709.06	38.440
709.38	37.356
709.70	38.125
710.02	44.479
710.34	39.274
710.66	38.413
710.98	38.801
711.29	36.452
711.61	38.658
711.93	38.361
712.25	43.854
712.57	38.676
712.89	42.806
713.20	43.299
713.52	41.418
713.84	39.502
714.16	38.033
714.48	38.730
714.80	40.923
715.11	37.752
715.43	40.964
715.75	38.941
716.07	36.066
716.39	36.455
716.70	39.024
717.02	38.148
717.34	41.985
717.66	38.174
717.97	40.164
718.29	40.336
718.61	39.286
718.93	37.634
719.24	31.985
719.56	35.472
719.88	33.455
720.20	37.079
720.51	38.346
720.83	43.373
721.15	38.525
721.46	41.569
721.78	36.015
722.10	42.400
722.42	35.950
722.73	41.036
723.05	39.357
723.37	37.647
723.68	38.462
724.00	37.805
724.32	38.272
724.63	35.685
724.95	39.256
725.27	35.965
725.58	35.776
725.90	37.698
726.22	37.269
726.53	39.163
726.85	30.196
727.16	33.459
727.48	32.692
727.80	38.115
728.11	42.857
728.43	35.950
728.74	40.625
729.06	37.500
729.38	35.409
729.69	35.433
730.01	35.827
730.32	35.060
730.64	37.363
730.96	42.537
731.27	38.929
731.59	32.476
731.90	34.356
732.22	35.890
732.53	38.742
732.85	33.221
733.16	31.884
733.48	31.707
733.80	34.520
734.11	33.793
734.43	37.415
734.74	36.202
735.06	35.737
735.37	33.639
735.69	29.032
736.00	31.650
736.32	36.424
736.63	31.724
736.95	37.319
737.26	35.099
737.58	37.770
737.89	34.767
738.21	34.211
738.52	34.231
738.83	37.500
739.15	32.479
739.46	40.323
739.78	34.266
740.09	34.615
740.41	36.364
740.72	36.496
741.04	32.937
741.35	34.632
741.66	34.722
741.98	33.810
742.29	32.864
742.61	40.642
742.92	35.514
743.23	31.579
743.55	36.036
743.86	42.667
744.18	38.571
744.49	37.438
744.80	37.563
745.12	35.052
745.43	37.186
745.74	39.806
746.06	34.146
746.37	31.718
746.68	42.786
747.00	35.079
747.31	31.250
747.62	34.101
747.94	35.808
748.25	34.884
748.56	31.905
748.88	33.696
749.19	38.498
749.50	38.725
749.82	38.222
750.13	43.612
750.44	35.366
750.75	34.000
751.07	37.857
751.38	29.889
751.69	28.244
752.01	31.923
752.32	33.852
752.63	33.462
752.94	31.746
753.26	32.174
753.57	36.161
753.88	31.034
754.19	31.535
754.51	35.156
754.82	29.249
755.13	34.156
755.44	33.884
755.75	34.156
756.07	26.908
756.38	32.422
756.69	35.740
757.00	37.631
757.31	32.886
757.63	35.826
757.94	34.393
758.25	34.302
758.56	39.084
758.87	33.239
759.18	28.000
759.50	34.875
759.81	32.847
760.12	29.054
760.43	36.570
760.74	35.312
761.05	33.708
761.36	33.533
761.67	31.657
761.99	33.226
762.30	34.783
762.61	31.698
762.92	31.390
763.23	31.280
763.54	34.222
763.85	36.709
764.16	33.469
764.47	30.508
764.78	35.955
765.10	37.770
765.41	30.968
765.72	31.761
766.03	30.389
766.34	31.955
766.65	35.223
766.96	33.000
767.27	29.167
767.58	34.884
767.89	31.613
768.20	38.037
768.51	33.880
768.82	28.649
769.13	34.500
769.44	33.333
769.75	34.199
770.06	32.569
770.37	22.535
770.68	33.854
770.99	36.634
771.30	32.039
771.61	33.333
771.92	28.139
772.23	28.037
772.54	37.766
772.85	34.320
773.16	35.976
773.47	35.542
773.78	33.516
774.09	43.333
774.39	37.037
774.70	27.517
775.01	28.986
775.32	35.821
775.63	26.446
775.94	33.835
776.25	31.429
776.56	36.066
776.87	43.363
777.18	37.168
777.48	24.545
777.79	24.348
778.10	23.853
778.41	22.034
778.72	31.405
779.03	26.119
779.34	43.609
779.65	32.680
779.95	36.232
780.26	26.531
780.57	25.862
780.88	29.630
781.19	20.202
781.50	33.600
781.80	32.680
782.11	31.410
782.42	35.542
782.73	24.818
783.04	31.081
783.34	28.788
783.65	27.907
783.96	28.455
784.27	34.188
784.57	29.268
784.88	26.829
785.19	33.333
785.50	9.278
785.81	28.571
786.11	29.412
786.42	15.455
786.73	32.432
787.04	39.604
787.34	32.381
787.65	28.571
787.96	35.294
788.26	28.829
788.57	37.097
788.88	19.531
789.19	33.333
789.49	19.328
789.80	28.205
790.11	35.398
790.41	25.253
790.72	26.415
791.03	23.611
791.33	25.000
791.64	24.731
791.95	32.000
792.25	20.000
792.56	25.610
792.87	33.673
793.17	18.421
793.48	12.162
793.79	18.310
794.09	26.582
794.40	36.170
794.70	28.037
795.01	24.561
795.32	19.091
795.62	32.143
795.93	27.835
796.23	25.275
796.54	33.684
796.85	35.616
797.15	8.333
797.46	27.397
797.76	39.437
798.07	31.250
798.37	39.706
798.68	32.857
798.99	25.714
799.29	34.211
799.60	28.333
799.90	13.889
800.21	34.375
800.51	28.571
800.82	8.197
801.12	26.316
801.43	23.944
801.73	-3.390
802.04	31.148
802.34	30.909
802.65	21.154
802.95	16.667
803.26	-2.500
803.56	36.538
803.87	-7.895
804.17	24.194
804.48	27.692
804.78	5.128
805.09	6.977
805.39	0.000
805.70	3.774
806.00	21.053
806.30	43.243
806.61	20.588
806.91	30.864
807.22	18.667
807.52	29.851
807.83	29.032
808.13	17.460
808.43	0.000
808.74	12.121
809.04	33.962
809.35	28.767
809.65	35.088
809.95	23.529
810.26	33.333
810.56	34.000
810.86	14.286
811.17	-2.857
811.47	5.769
811.77	22.581
812.08	-36.842
812.38	23.810
812.69	10.870
812.99	6.452
813.29	16.667
813.59	-18.519
813.90	2.128
814.20	13.953
814.50	4.167
814.81	16.667
815.11	4.878
815.41	20.000
815.72	28.571
816.02	19.444
816.32	23.077
816.62	10.811
816.93	-20.588
817.23	-2.174
817.53	-5.882
817.84	-5.882
818.14	-21.875
818.44	10.345
818.74	-3.226
819.04	3.704
819.35	30.000
819.65	12.000
819.95	6.667
820.25	-24.000
820.56	10.526
820.86	17.500
821.16	21.277
821.46	20.690
821.76	30.769
822.07	5.000
822.37	4.651
822.67	-10.000
822.97	5.405
823.27	8.108
823.57	0.000
823.88	29.730
824.18	-4.762
824.48	-23.077
824.78	-61.538
825.08	8.696
825.38	50.000
825.69	-20.833
825.99	-55.000
826.29	-18.919
826.59	-14.706
826.89	56.000
827.19	-2.857
827.49	0.000
827.79	-18.750
828.09	16.667
828.39	-8.696
828.70	-24.138
829.00	-3.448
829.30	2.778
829.60	37.500
829.90	-11.111
830.20	3.846
830.50	-47.619
830.80	-32.143
831.10	15.385
831.40	-14.286
831.70	17.647
832.00	-16.667
832.30	-36.842
832.60	-43.750
832.90	-75.000
833.20	-47.059
833.50	-100.000
833.80	-13.333
834.10	0.000
834.40	20.833
834.70	11.111
835.00	30.769
835.30	-25.000
835.60	6.897
835.90	-77.778
836.20	-45.455
836.50	-83.333
836.80	0.000
837.10	14.286
837.40	-11.765
837.70	-36.364
838.00	0.000
838.30	-43.750
838.60	-9.524
838.90	-25.000
839.19	13.043
839.49	39.130
839.79	27.778
840.09	-43.478
840.39	-13.636
840.69	-18.750
840.99	-26.316
841.29	-37.500
841.59	0.000
841.88	-61.111
842.18	0.000
842.48	5.882
842.78	-13.793
843.08	42.857
843.38	-46.154
843.68	-144.444
843.97	-15.385
844.27	-181.818
844.57	20.000
844.87	8.000
845.17	-100.000
845.47	-100.000
845.76	-44.444
846.06	0.000
846.36	-225.000
846.66	-170.000
846.96	26.316
847.25	8.333
847.55	-16.667
847.85	26.667
848.15	-70.000
848.44	38.462
848.74	21.053
849.04	566.667
849.34	22.222
849.63	-57.895
849.93	0.000
850.23	-60.000
850.53	66.667
850.82	-20.000
851.12	-5.263
851.42	-1000.000
851.71	-57.143
852.01	-75.000
852.31	35.294
852.61	26.667
852.90	4.762
853.20	-16.667
853.50	0.000
853.79	-5.263
854.09	33.333
854.39	14.286
854.68	-34.783
854.98	-175.000
855.28	13.793
855.57	-68.750
855.87	-20.000
856.17	-60.000
856.46	6.897
856.76	0.000
857.05	29.412
857.35	-107.692
857.65	-9.091
857.94	0.000
858.24	-21.429
858.53	-114.286
858.83	-75.000
859.13	-111.111
859.42	66.667
859.72	-112.500
860.01	-233.333
860.31	-50.000
860.60	-380.000
860.90	-133.333
861.20	-62.500
861.49	-128.571
861.79	35.294
862.08	-500.000
862.38	-16.667
862.67	-115.385
862.97	11.765
863.26	-5.000
863.56	-35.294
863.85	300.000
864.15	-80.000
864.44	-7.692
864.74	15.000
865.03	-162.500
865.33	-250.000
865.62	-47.059
865.92	-375.000
866.21	-64.286
866.51	-175.000
866.80	-300.000
867.10	-300.000
867.39	-5.882
867.69	43.478
867.98	14.286
868.27	-160.000
868.57	-81.250
868.86	-90.909
869.16	64.706
869.45	-216.667
869.75	-42.857
870.04	1200.000
870.33	-16.667
870.63	80.000
870.92	-88.889
871.22	-66.667
871.51	-45.455
871.80	-41.667
872.10	-30.000
>>>>>End Processed Spectral Data<<<<<
