SpectraSuite Data File
++++++++++++++++++++++++++++++++++++
Date: Sat May 16 11:24:00 PDT 2015
User: schluterlab
Dark Spectrum Present: Yes
Reference Spectrum Present: Yes
Number of Sampled Component Spectra: 1
Spectrometers: USB2E3373
Integration Time (usec): 3000 (USB2E3373)
Spectra Averaged: 3 (USB2E3373)
Boxcar Smoothing: 0 (USB2E3373)
Correct for Electrical Dark: No (USB2E3373)
Strobe/Lamp Enabled: No (USB2E3373)
Correct for Detector Non-linearity: No (USB2E3373)
Correct for Stray Light: No (USB2E3373)
Number of Pixels in Processed Spectrum: 2048
>>>>>Begin Processed Spectral Data<<<<<
178.53	0.000
178.91	80.000
179.29	266.667
179.67	-1200.000
180.04	-92.308
180.42	1000.000
180.80	450.000
181.18	425.000
181.56	25.000
181.94	1600.000
182.31	400.000
182.69	-61.538
183.07	-600.000
183.45	1500.000
183.83	166.667
184.20	-214.286
184.58	-137.500
184.96	-400.000
185.34	156.250
185.72	-425.000
186.09	283.333
186.47	-187.500
186.85	-212.500
187.23	-100.000
187.61	-125.000
187.98	-275.000
188.36	-12.500
188.74	-125.000
189.12	1700.000
189.49	342.857
189.87	16.667
190.25	475.000
190.63	-28.571
191.00	-111.111
191.38	460.000
191.76	-53.333
192.14	500.000
192.51	-120.000
192.89	-333.333
193.27	0.000
193.65	-66.667
194.02	-100.000
194.40	500.000
194.78	-150.000
195.15	-400.000
195.53	-127.273
195.91	-350.000
196.29	-0.000
196.66	-833.333
197.04	2500.000
197.42	-100.000
197.79	26.667
198.17	-166.667
198.55	-750.000
198.92	-1000.000
199.30	262.500
199.68	-500.000
200.05	-166.667
200.43	-133.333
200.81	-2300.000
201.18	-50.000
201.56	142.857
201.94	26.667
202.31	22.727
202.69	-40.000
203.07	-100.000
203.44	566.667
203.82	-216.667
204.19	-425.000
204.57	-400.000
204.95	-300.000
205.32	-87.500
205.70	1200.000
206.08	-1000.000
206.45	-72.222
206.83	-1050.000
207.20	-200.000
207.58	-366.667
207.96	-466.667
208.33	-200.000
208.71	-200.000
209.08	170.000
209.46	-257.143
209.84	450.000
210.21	0.000
210.59	5.000
210.96	900.000
211.34	-233.333
211.71	-566.667
212.09	225.000
212.46	900.000
212.84	-2000.000
213.22	800.000
213.59	133.333
213.97	-155.556
214.34	120.000
214.72	-60.000
215.09	-233.333
215.47	-200.000
215.84	-120.000
216.22	-170.000
216.59	-33.333
216.97	-625.000
217.34	1150.000
217.72	-142.857
218.09	-266.667
218.47	-271.429
218.84	271.429
219.22	-28.571
219.59	0.000
219.97	214.286
220.34	375.000
220.72	125.000
221.09	-115.385
221.47	0.000
221.84	433.333
222.22	-500.000
222.59	100.000
222.97	-150.000
223.34	-700.000
223.72	-733.333
224.09	50.000
224.46	-300.000
224.84	42.857
225.21	-100.000
225.59	0.000
225.96	-100.000
226.34	-114.286
226.71	-77.778
227.08	-5.000
227.46	1500.000
227.83	-57.143
228.21	-287.500
228.58	250.000
228.95	-50.000
229.33	-1800.000
229.70	-320.000
230.08	-400.000
230.45	-50.000
230.82	-133.333
231.20	-200.000
231.57	-850.000
231.95	600.000
232.32	-9.524
232.69	-44.444
233.07	-57.143
233.44	-200.000
233.81	-66.667
234.19	-66.667
234.56	-12.500
234.93	-34.375
235.31	-128.571
235.68	-92.857
236.05	29.412
236.43	-40.909
236.80	0.000
237.17	16.667
237.55	28.571
237.92	-59.091
238.29	8.571
238.67	17.647
239.04	38.889
239.41	16.129
239.79	0.000
240.16	0.000
240.53	43.636
240.91	56.410
241.28	29.091
241.65	44.615
242.02	29.508
242.40	27.869
242.77	36.364
243.14	33.898
243.51	24.286
243.89	36.709
244.26	42.697
244.63	44.211
245.00	35.789
245.38	29.661
245.75	42.478
246.12	36.000
246.49	33.071
246.87	34.959
247.24	38.136
247.61	35.593
247.98	40.141
248.36	37.063
248.73	42.405
249.10	34.395
249.47	40.351
249.84	40.909
250.22	34.524
250.59	42.373
250.96	47.120
251.33	42.180
251.70	41.346
252.08	45.972
252.45	39.336
252.82	43.810
253.19	41.702
253.56	39.516
253.94	44.304
254.31	45.923
254.68	46.341
255.05	45.565
255.42	46.825
255.79	43.011
256.16	46.667
256.54	47.794
256.91	49.242
257.28	42.857
257.65	45.035
258.02	47.484
258.39	46.154
258.76	46.622
259.14	41.667
259.51	49.180
259.88	43.902
260.25	51.863
260.62	43.730
260.99	40.950
261.36	47.256
261.73	51.156
262.10	43.611
262.47	46.724
262.85	48.571
263.22	48.424
263.59	48.615
263.96	48.116
264.33	48.238
264.70	46.685
265.07	46.978
265.44	43.152
265.81	47.028
266.18	46.076
266.55	45.098
266.92	51.134
267.29	47.458
267.66	45.679
268.03	46.860
268.40	42.723
268.77	48.193
269.14	45.940
269.51	44.598
269.88	45.872
270.25	43.357
270.62	44.851
270.99	45.721
271.36	47.786
271.73	47.085
272.10	45.080
272.47	47.333
272.84	46.889
273.21	47.248
273.58	44.396
273.95	43.421
274.32	47.285
274.69	48.578
275.06	48.057
275.43	46.652
275.80	49.898
276.17	44.561
276.54	47.251
276.91	46.091
277.28	45.233
277.65	49.174
278.02	45.720
278.39	45.187
278.76	46.614
279.13	43.874
279.50	43.936
279.87	46.089
280.23	44.737
280.60	48.310
280.97	46.408
281.34	47.195
281.71	47.308
282.08	46.371
282.45	46.436
282.82	44.961
283.19	47.455
283.56	46.886
283.92	43.993
284.29	45.725
284.66	43.525
285.03	44.742
285.40	48.155
285.77	46.140
286.14	43.863
286.51	43.339
286.87	46.098
287.24	46.587
287.61	43.140
287.98	43.501
288.35	41.157
288.72	41.766
289.08	38.644
289.45	39.562
289.82	42.042
290.19	44.335
290.56	41.157
290.93	41.017
291.29	40.681
291.66	40.741
292.03	42.386
292.40	38.705
292.77	41.460
293.13	40.000
293.50	42.051
293.87	38.344
294.24	38.612
294.60	38.333
294.97	40.819
295.34	37.037
295.71	36.458
296.08	36.252
296.44	36.195
296.81	37.607
297.18	37.465
297.55	36.299
297.91	38.075
298.28	35.342
298.65	34.868
299.02	35.561
299.38	34.225
299.75	33.967
300.12	36.282
300.48	35.678
300.85	36.173
301.22	33.506
301.59	33.940
301.95	35.642
302.32	34.420
302.69	32.558
303.05	33.944
303.42	32.625
303.79	33.971
304.15	32.701
304.52	32.905
304.89	32.940
305.25	32.845
305.62	31.610
305.99	33.451
306.35	32.186
306.72	32.574
307.09	33.258
307.45	31.442
307.82	31.732
308.19	32.438
308.55	31.808
308.92	30.934
309.29	31.568
309.65	32.025
310.02	31.210
310.38	30.486
310.75	30.533
311.12	31.302
311.48	30.271
311.85	31.205
312.22	31.411
312.58	31.434
312.95	28.338
313.31	31.568
313.68	31.658
314.05	32.344
314.41	29.477
314.78	30.669
315.14	31.293
315.51	30.496
315.87	29.429
316.24	28.863
316.61	30.710
316.97	30.647
317.34	29.769
317.70	29.870
318.07	30.037
318.43	30.243
318.80	30.423
319.16	29.362
319.53	29.135
319.89	28.786
320.26	30.980
320.62	26.827
320.99	29.154
321.35	27.783
321.72	29.069
322.08	30.762
322.45	30.396
322.81	31.412
323.18	30.644
323.54	29.205
323.91	28.545
324.27	28.992
324.64	28.428
325.00	27.487
325.37	29.231
325.73	28.346
326.10	27.369
326.46	28.984
326.83	29.617
327.19	28.440
327.56	30.579
327.92	29.652
328.29	28.225
328.65	27.455
329.01	28.799
329.38	29.081
329.74	29.487
330.11	29.012
330.47	29.064
330.84	29.881
331.20	28.791
331.56	27.438
331.93	28.774
332.29	29.954
332.66	28.007
333.02	28.145
333.38	28.405
333.75	27.516
334.11	28.444
334.48	27.538
334.84	29.309
335.20	28.457
335.57	27.527
335.93	29.096
336.29	27.635
336.66	27.313
337.02	29.279
337.38	26.827
337.75	27.656
338.11	27.460
338.47	27.936
338.84	27.405
339.20	26.274
339.56	28.520
339.93	27.160
340.29	26.838
340.65	27.185
341.02	27.403
341.38	26.622
341.74	26.926
342.11	27.048
342.47	26.438
342.83	26.364
343.20	25.790
343.56	25.878
343.92	26.962
344.28	27.670
344.65	25.743
345.01	26.471
345.37	25.664
345.73	25.041
346.10	26.247
346.46	25.914
346.82	25.742
347.19	25.883
347.55	25.682
347.91	25.669
348.27	24.741
348.63	26.737
349.00	26.889
349.36	25.137
349.72	27.548
350.08	26.464
350.45	26.241
350.81	25.557
351.17	25.643
351.53	24.821
351.89	26.839
352.26	26.512
352.62	25.499
352.98	26.661
353.34	25.739
353.70	25.097
354.07	24.941
354.43	25.613
354.79	25.515
355.15	25.639
355.51	25.547
355.87	24.664
356.24	24.702
356.60	26.511
356.96	25.481
357.32	26.128
357.68	25.057
358.04	26.482
358.40	24.362
358.77	25.502
359.13	24.866
359.49	24.565
359.85	24.695
360.21	25.342
360.57	24.774
360.93	25.333
361.29	25.187
361.66	24.238
362.02	25.074
362.38	24.798
362.74	25.421
363.10	24.175
363.46	26.567
363.82	24.781
364.18	24.891
364.54	25.804
364.90	23.690
365.26	23.966
365.62	25.873
365.98	25.320
366.35	25.704
366.71	23.044
367.07	23.853
367.43	25.463
367.79	25.292
368.15	23.329
368.51	24.476
368.87	24.588
369.23	23.649
369.59	24.444
369.95	24.736
370.31	26.301
370.67	22.993
371.03	24.271
371.39	23.692
371.75	24.392
372.11	24.605
372.47	24.295
372.83	25.313
373.19	25.071
373.55	24.490
373.91	25.107
374.27	23.682
374.63	23.671
374.99	25.174
375.35	23.419
375.71	25.523
376.07	24.367
376.42	23.245
376.78	25.359
377.14	24.610
377.50	24.371
377.86	23.927
378.22	24.435
378.58	24.460
378.94	24.229
379.30	23.400
379.66	24.165
380.02	24.599
380.38	23.746
380.74	24.150
381.09	24.546
381.45	24.940
381.81	23.170
382.17	24.123
382.53	23.465
382.89	23.744
383.25	24.082
383.61	24.057
383.97	25.230
384.32	24.280
384.68	23.821
385.04	24.517
385.40	24.041
385.76	24.146
386.12	23.735
386.48	24.629
386.83	23.865
387.19	25.164
387.55	23.622
387.91	24.363
388.27	23.522
388.62	24.700
388.98	24.531
389.34	24.235
389.70	23.752
390.06	24.177
390.42	24.103
390.77	23.849
391.13	25.031
391.49	24.579
391.85	23.815
392.20	23.483
392.56	23.702
392.92	24.016
393.28	23.708
393.64	23.993
393.99	23.877
394.35	24.453
394.71	24.336
395.07	24.231
395.42	23.719
395.78	23.570
396.14	24.673
396.50	23.609
396.85	24.059
397.21	24.362
397.57	23.708
397.92	24.356
398.28	24.333
398.64	24.152
399.00	24.663
399.35	23.957
399.71	23.926
400.07	24.418
400.42	24.878
400.78	24.270
401.14	24.611
401.49	24.528
401.85	24.100
402.21	23.897
402.57	23.847
402.92	24.229
403.28	23.162
403.63	22.708
403.99	24.114
404.35	23.671
404.70	24.225
405.06	24.337
405.42	23.493
405.77	22.851
406.13	23.282
406.49	24.206
406.84	23.455
407.20	24.676
407.55	24.383
407.91	22.668
408.27	23.468
408.62	22.971
408.98	22.862
409.34	24.314
409.69	23.629
410.05	23.226
410.40	23.850
410.76	23.651
411.11	22.880
411.47	23.657
411.83	23.778
412.18	23.453
412.54	23.917
412.89	24.241
413.25	23.377
413.60	23.026
413.96	23.044
414.31	23.853
414.67	22.095
415.03	22.574
415.38	23.227
415.74	23.518
416.09	23.402
416.45	23.016
416.80	23.082
417.16	23.389
417.51	25.476
417.87	22.913
418.22	22.440
418.58	23.620
418.93	23.115
419.29	23.024
419.64	23.555
420.00	22.722
420.35	23.063
420.71	23.409
421.06	23.195
421.42	23.829
421.77	23.618
422.12	23.447
422.48	23.303
422.83	23.064
423.19	22.773
423.54	23.689
423.90	22.441
424.25	22.964
424.61	23.341
424.96	23.523
425.31	23.644
425.67	22.579
426.02	22.260
426.38	23.351
426.73	23.261
427.09	23.836
427.44	22.898
427.79	22.791
428.15	23.878
428.50	22.991
428.85	23.441
429.21	22.856
429.56	23.021
429.92	23.297
430.27	23.529
430.62	24.608
430.98	22.791
431.33	22.999
431.68	23.700
432.04	23.503
432.39	23.077
432.74	22.842
433.10	22.172
433.45	22.222
433.80	22.564
434.16	23.106
434.51	23.671
434.86	23.374
435.22	22.773
435.57	24.541
435.92	23.329
436.28	23.086
436.63	22.838
436.98	22.680
437.34	23.922
437.69	23.046
438.04	22.632
438.39	23.947
438.75	22.701
439.10	22.932
439.45	22.088
439.81	22.590
440.16	23.623
440.51	23.294
440.86	22.556
441.22	21.669
441.57	22.789
441.92	22.711
442.27	23.323
442.63	22.639
442.98	22.404
443.33	23.504
443.68	23.137
444.03	23.330
444.39	22.907
444.74	23.954
445.09	22.752
445.44	23.073
445.79	22.081
446.15	23.330
446.50	22.265
446.85	22.268
447.20	22.114
447.55	23.260
447.91	23.638
448.26	22.235
448.61	22.750
448.96	23.193
449.31	22.379
449.66	23.583
450.02	21.773
450.37	23.072
450.72	21.582
451.07	23.004
451.42	22.677
451.77	22.980
452.12	22.169
452.47	22.040
452.83	22.947
453.18	22.644
453.53	23.259
453.88	22.667
454.23	22.370
454.58	23.493
454.93	22.418
455.28	23.008
455.63	24.201
455.98	22.831
456.34	22.109
456.69	22.889
457.04	21.389
457.39	21.890
457.74	22.445
458.09	22.970
458.44	22.344
458.79	21.973
459.14	22.305
459.49	23.031
459.84	21.922
460.19	22.971
460.54	21.416
460.89	21.749
461.24	22.465
461.59	23.154
461.94	22.406
462.29	22.811
462.64	23.452
462.99	22.356
463.34	22.350
463.69	22.265
464.04	22.320
464.39	21.864
464.74	22.400
465.09	21.648
465.44	23.181
465.79	22.843
466.14	22.670
466.49	23.143
466.84	21.969
467.19	23.067
467.54	21.835
467.89	22.996
468.24	22.031
468.59	21.861
468.94	22.379
469.29	20.858
469.64	21.563
469.99	21.810
470.34	21.710
470.68	22.384
471.03	22.574
471.38	21.597
471.73	21.608
472.08	21.620
472.43	21.300
472.78	22.067
473.13	20.808
473.48	21.378
473.83	21.216
474.17	21.274
474.52	22.379
474.87	22.261
475.22	21.475
475.57	22.611
475.92	22.084
476.27	22.057
476.61	22.366
476.96	21.688
477.31	21.475
477.66	21.859
478.01	22.258
478.36	21.634
478.70	21.410
479.05	22.607
479.40	21.710
479.75	21.407
480.10	21.726
480.45	21.470
480.79	21.816
481.14	21.977
481.49	21.878
481.84	21.822
482.19	22.065
482.53	22.301
482.88	21.927
483.23	22.394
483.58	22.202
483.92	21.739
484.27	20.470
484.62	22.073
484.97	22.253
485.31	21.920
485.66	21.527
486.01	22.610
486.36	23.711
486.70	24.260
487.05	23.206
487.40	22.623
487.75	23.161
488.09	22.545
488.44	23.004
488.79	23.523
489.13	22.442
489.48	22.757
489.83	22.227
490.17	21.550
490.52	22.283
490.87	22.309
491.22	21.298
491.56	21.204
491.91	21.565
492.26	20.849
492.60	21.408
492.95	20.942
493.30	21.915
493.64	20.921
493.99	20.602
494.34	20.714
494.68	21.582
495.03	20.650
495.37	20.747
495.72	20.874
496.07	21.727
496.41	21.630
496.76	21.187
497.11	21.620
497.45	21.408
497.80	20.960
498.14	21.316
498.49	21.647
498.84	21.359
499.18	21.345
499.53	20.701
499.87	21.187
500.22	20.833
500.56	20.910
500.91	20.985
501.26	20.961
501.60	21.088
501.95	21.643
502.29	21.162
502.64	21.216
502.98	21.322
503.33	21.194
503.67	20.594
504.02	21.391
504.36	21.422
504.71	20.263
505.06	21.068
505.40	21.607
505.75	21.341
506.09	20.728
506.44	20.902
506.78	21.124
507.13	20.958
507.47	21.701
507.82	20.754
508.16	20.829
508.51	20.711
508.85	21.118
509.19	19.885
509.54	21.406
509.88	20.904
510.23	20.964
510.57	21.164
510.92	21.375
511.26	20.362
511.61	20.248
511.95	20.690
512.30	20.726
512.64	19.477
512.98	21.562
513.33	20.483
513.67	19.486
514.02	20.302
514.36	20.055
514.70	20.091
515.05	20.640
515.39	20.012
515.74	20.303
516.08	20.749
516.42	20.737
516.77	20.451
517.11	20.423
517.46	20.335
517.80	20.638
518.14	20.109
518.49	20.741
518.83	19.881
519.17	20.545
519.52	18.971
519.86	19.952
520.20	20.905
520.55	19.631
520.89	18.472
521.23	20.085
521.58	18.809
521.92	20.139
522.26	19.302
522.61	20.089
522.95	19.209
523.29	19.875
523.64	19.550
523.98	19.733
524.32	20.239
524.66	18.882
525.01	18.754
525.35	19.781
525.69	19.128
526.04	20.431
526.38	20.687
526.72	19.221
527.06	19.987
527.41	20.066
527.75	18.548
528.09	19.722
528.43	19.475
528.78	20.352
529.12	20.551
529.46	20.876
529.80	19.948
530.15	19.317
530.49	19.534
530.83	19.908
531.17	19.798
531.51	19.223
531.86	20.145
532.20	20.715
532.54	19.452
532.88	20.158
533.22	19.586
533.57	19.778
533.91	19.288
534.25	19.799
534.59	19.675
534.93	19.291
535.27	20.453
535.62	20.524
535.96	19.845
536.30	19.764
536.64	20.518
536.98	20.127
537.32	19.696
537.66	19.009
538.01	20.137
538.35	20.000
538.69	20.722
539.03	20.311
539.37	19.894
539.71	19.680
540.05	19.602
540.39	20.568
540.73	19.765
541.07	19.945
541.42	19.581
541.76	19.535
542.10	21.269
542.44	20.053
542.78	21.031
543.12	20.027
543.46	19.589
543.80	19.331
544.14	20.282
544.48	20.735
544.82	20.162
545.16	20.523
545.50	18.910
545.84	20.306
546.18	20.111
546.52	20.199
546.86	19.658
547.20	20.183
547.54	19.421
547.88	19.708
548.22	19.069
548.56	20.441
548.90	19.811
549.24	19.341
549.58	19.689
549.92	20.283
550.26	19.870
550.60	19.346
550.94	19.708
551.28	20.467
551.62	18.907
551.96	19.392
552.30	18.955
552.64	20.056
552.98	19.972
553.32	19.120
553.66	20.981
554.00	20.256
554.34	19.350
554.68	19.956
555.02	20.550
555.36	18.188
555.69	19.771
556.03	19.509
556.37	19.559
556.71	19.900
557.05	19.808
557.39	19.228
557.73	19.912
558.07	19.141
558.41	18.998
558.75	20.076
559.08	19.533
559.42	17.994
559.76	19.018
560.10	20.507
560.44	19.725
560.78	18.720
561.12	20.221
561.45	21.027
561.79	19.791
562.13	19.215
562.47	20.098
562.81	19.519
563.15	18.684
563.48	20.041
563.82	19.675
564.16	18.729
564.50	20.766
564.84	19.577
565.17	20.027
565.51	20.404
565.85	21.298
566.19	19.499
566.52	20.613
566.86	20.101
567.20	21.852
567.54	21.087
567.88	21.161
568.21	21.588
568.55	21.580
568.89	21.272
569.23	20.870
569.56	21.438
569.90	21.833
570.24	22.548
570.57	21.371
570.91	21.761
571.25	22.211
571.59	22.073
571.92	22.530
572.26	22.978
572.60	22.557
572.93	22.205
573.27	22.134
573.61	22.254
573.95	23.124
574.28	22.657
574.62	22.725
574.96	22.782
575.29	22.536
575.63	22.750
575.97	22.681
576.30	22.417
576.64	22.742
576.98	22.468
577.31	22.861
577.65	22.769
577.98	22.836
578.32	23.406
578.66	23.016
578.99	23.071
579.33	23.085
579.67	23.104
580.00	22.842
580.34	23.116
580.67	23.094
581.01	22.372
581.35	22.638
581.68	23.111
582.02	23.371
582.35	23.569
582.69	23.687
583.02	23.806
583.36	22.974
583.70	23.579
584.03	23.599
584.37	23.329
584.70	23.394
585.04	23.190
585.37	22.578
585.71	23.029
586.04	23.024
586.38	22.775
586.72	23.112
587.05	23.081
587.39	23.218
587.72	22.591
588.06	23.274
588.39	22.985
588.73	22.752
589.06	23.242
589.40	22.913
589.73	22.982
590.07	22.651
590.40	22.435
590.73	22.471
591.07	22.705
591.40	23.354
591.74	21.981
592.07	21.261
592.41	21.826
592.74	21.637
593.08	22.211
593.41	22.270
593.75	22.090
594.08	23.077
594.41	22.736
594.75	22.424
595.08	22.444
595.42	22.290
595.75	21.977
596.09	22.817
596.42	23.363
596.75	22.251
597.09	22.217
597.42	21.432
597.75	21.612
598.09	22.277
598.42	21.653
598.76	21.346
599.09	21.586
599.42	21.722
599.76	22.424
600.09	22.863
600.42	22.484
600.76	22.599
601.09	22.104
601.42	22.794
601.76	23.092
602.09	21.636
602.42	22.469
602.76	22.185
603.09	22.016
603.42	22.321
603.76	22.457
604.09	22.587
604.42	22.398
604.76	21.500
605.09	22.288
605.42	21.897
605.75	21.777
606.09	21.461
606.42	21.659
606.75	21.898
607.09	22.364
607.42	21.743
607.75	22.075
608.08	21.916
608.42	22.138
608.75	21.308
609.08	21.481
609.41	21.824
609.75	21.843
610.08	21.275
610.41	21.735
610.74	22.582
611.07	21.704
611.41	21.281
611.74	22.879
612.07	22.986
612.40	21.535
612.73	20.948
613.07	20.914
613.40	21.839
613.73	21.526
614.06	21.087
614.39	21.759
614.72	20.838
615.06	20.652
615.39	21.215
615.72	21.347
616.05	20.762
616.38	20.604
616.71	21.201
617.05	21.351
617.38	21.176
617.71	21.069
618.04	20.683
618.37	20.503
618.70	22.099
619.03	21.056
619.36	20.578
619.69	21.536
620.03	20.248
620.36	20.253
620.69	20.747
621.02	20.548
621.35	20.242
621.68	19.262
622.01	19.984
622.34	19.565
622.67	19.219
623.00	20.352
623.33	19.851
623.66	20.089
623.99	20.376
624.32	19.717
624.65	20.235
624.99	20.687
625.32	20.135
625.65	21.678
625.98	20.266
626.31	19.576
626.64	19.665
626.97	19.521
627.30	19.234
627.63	17.012
627.96	20.540
628.29	18.382
628.62	18.816
628.95	18.406
629.28	18.609
629.61	18.351
629.94	18.242
630.26	18.887
630.59	19.296
630.92	17.618
631.25	19.556
631.58	17.566
631.91	17.340
632.24	19.000
632.57	20.000
632.90	18.621
633.23	16.472
633.56	16.140
633.89	16.981
634.22	16.647
634.55	16.587
634.88	16.687
635.20	14.856
635.53	17.812
635.86	15.491
636.19	15.995
636.52	16.368
636.85	16.366
637.18	16.375
637.51	19.083
637.83	15.979
638.16	16.447
638.49	15.172
638.82	15.573
639.15	17.639
639.48	16.602
639.81	17.012
640.13	17.027
640.46	16.382
640.79	18.347
641.12	17.913
641.45	14.778
641.77	16.617
642.10	16.163
642.43	14.871
642.76	13.701
643.09	15.714
643.41	16.190
643.74	16.852
644.07	16.381
644.40	16.370
644.73	16.667
645.05	14.023
645.38	15.728
645.71	17.354
646.04	16.807
646.36	14.660
646.69	14.706
647.02	15.884
647.35	14.621
647.67	14.599
648.00	16.696
648.33	16.863
648.66	14.677
648.98	16.401
649.31	17.692
649.64	17.344
649.96	14.757
650.29	13.443
650.62	17.728
650.94	15.683
651.27	16.291
651.60	15.052
651.92	17.123
652.25	17.863
652.58	14.651
652.90	17.496
653.23	14.839
653.56	15.050
653.88	17.541
654.21	17.785
654.54	16.611
654.86	16.051
655.19	18.052
655.52	20.786
655.84	21.917
656.17	24.803
656.49	34.709
656.82	36.800
657.15	28.304
657.47	20.512
657.80	15.592
658.13	18.262
658.45	25.273
658.78	25.472
659.10	25.729
659.43	25.168
659.75	24.862
660.08	23.802
660.41	22.206
660.73	19.472
661.06	19.130
661.38	19.821
661.71	16.444
662.03	13.911
662.36	15.352
662.68	12.236
663.01	15.499
663.33	13.379
663.66	16.309
663.98	11.830
664.31	13.647
664.63	17.478
664.96	13.449
665.28	12.798
665.61	10.782
665.93	16.255
666.26	16.802
666.58	16.424
666.91	12.918
667.23	14.474
667.56	13.379
667.88	14.706
668.21	13.594
668.53	15.187
668.86	15.473
669.18	16.895
669.50	10.047
669.83	14.112
670.15	15.247
670.48	12.383
670.80	11.617
671.13	10.835
671.45	12.838
671.77	11.777
672.10	15.582
672.42	16.421
672.75	17.091
673.07	17.658
673.39	15.301
673.72	14.961
674.04	13.588
674.37	13.814
674.69	15.164
675.01	12.340
675.34	16.052
675.66	16.631
675.98	13.877
676.31	16.063
676.63	15.632
676.95	14.602
677.28	14.849
677.60	16.742
677.92	15.639
678.25	16.849
678.57	16.049
678.89	13.836
679.22	14.885
679.54	16.765
679.86	15.000
680.18	18.061
680.51	17.318
680.83	17.524
681.15	14.836
681.48	17.647
681.80	14.516
682.12	14.889
682.44	15.521
682.77	13.853
683.09	16.562
683.41	18.363
683.73	12.100
684.06	15.269
684.38	17.573
684.70	15.226
685.02	15.551
685.34	17.544
685.67	15.530
685.99	16.824
686.31	17.235
686.63	16.844
686.96	18.115
687.28	17.919
687.60	16.211
687.92	11.673
688.24	16.142
688.56	17.034
688.89	13.248
689.21	14.880
689.53	13.793
689.85	14.031
690.17	14.798
690.49	12.240
690.82	13.253
691.14	12.736
691.46	16.186
691.78	16.079
692.10	16.737
692.42	14.889
692.74	15.236
693.06	14.382
693.39	14.989
693.71	15.576
694.03	17.063
694.35	14.898
694.67	14.894
694.99	13.043
695.31	14.541
695.63	10.204
695.95	13.400
696.27	14.963
696.59	12.032
696.91	14.888
697.23	16.146
697.56	12.500
697.88	14.189
698.20	13.919
698.52	14.574
698.84	14.806
699.16	13.810
699.48	13.250
699.80	12.782
700.12	16.877
700.44	13.687
700.76	13.120
701.08	12.500
701.40	9.668
701.72	16.358
702.04	12.500
702.36	12.349
702.68	12.275
703.00	13.623
703.32	11.461
703.64	15.294
703.96	17.442
704.28	13.609
704.60	13.291
704.91	11.746
705.23	13.916
705.55	14.189
705.87	13.993
706.19	9.375
706.51	15.972
706.83	12.787
707.15	11.783
707.47	18.182
707.79	14.948
708.11	11.959
708.43	16.459
708.74	14.545
709.06	13.092
709.38	14.655
709.70	12.500
710.02	16.871
710.34	10.891
710.66	9.841
710.98	16.404
711.29	10.000
711.61	12.780
711.93	9.508
712.25	14.618
712.57	8.362
712.89	15.827
713.20	13.746
713.52	9.701
713.84	14.235
714.16	14.426
714.48	15.873
714.80	12.615
715.11	14.409
715.43	21.988
715.75	15.888
716.07	11.148
716.39	12.375
716.70	14.634
717.02	12.593
717.34	12.214
717.66	14.108
717.97	11.066
718.29	10.084
718.61	14.683
718.93	14.695
719.24	10.294
719.56	10.943
719.88	14.182
720.20	9.738
720.51	13.910
720.83	12.851
721.15	9.426
721.46	14.902
721.78	8.812
722.10	18.800
722.42	11.983
722.73	17.131
723.05	12.450
723.37	13.333
723.68	8.907
724.00	14.634
724.32	15.226
724.63	7.469
724.95	12.810
725.27	8.772
725.58	10.776
725.90	9.127
726.22	18.819
726.53	15.970
726.85	12.549
727.16	13.158
727.48	15.000
727.80	9.016
728.11	9.664
728.43	16.116
728.74	16.016
729.06	10.985
729.38	10.895
729.69	11.811
730.01	12.598
730.32	11.952
730.64	14.652
730.96	12.687
731.27	13.571
731.59	15.113
731.90	13.190
732.22	11.656
732.53	16.887
732.85	12.416
733.16	12.681
733.48	12.544
733.80	19.573
734.11	17.241
734.43	17.687
734.74	16.024
735.06	17.241
735.37	15.902
735.69	11.935
736.00	15.152
736.32	19.205
736.63	13.448
736.95	12.681
737.26	18.212
737.58	11.871
737.89	17.563
738.21	13.534
738.52	11.923
738.83	16.797
739.15	14.957
739.46	14.919
739.78	15.035
740.09	14.336
740.41	17.133
740.72	17.518
741.04	16.667
741.35	12.987
741.66	10.648
741.98	9.048
742.29	15.493
742.61	13.904
742.92	20.561
743.23	4.825
743.55	13.964
743.86	15.111
744.18	10.476
744.49	14.778
744.80	15.228
745.12	20.103
745.43	13.065
745.74	16.990
746.06	7.805
746.37	19.824
746.68	17.413
747.00	12.042
747.31	7.212
747.62	14.747
747.94	9.170
748.25	11.628
748.56	14.762
748.88	1.630
749.19	11.268
749.50	17.157
749.82	18.222
750.13	18.062
750.44	15.447
750.75	18.000
751.07	13.571
751.38	12.915
751.69	14.885
752.01	19.231
752.32	14.397
752.63	10.385
752.94	17.460
753.26	17.391
753.57	15.625
753.88	15.948
754.19	10.373
754.51	12.500
754.82	11.067
755.13	16.461
755.44	14.050
755.75	16.049
756.07	9.237
756.38	9.766
756.69	18.051
757.00	14.983
757.31	19.799
757.63	17.134
757.94	15.896
758.25	16.570
758.56	19.137
758.87	16.477
759.18	13.333
759.50	19.217
759.81	14.599
760.12	17.230
760.43	13.592
760.74	17.500
761.05	17.135
761.36	17.665
761.67	15.976
761.99	15.484
762.30	17.391
762.61	16.981
762.92	15.247
763.23	15.640
763.54	18.222
763.85	16.456
764.16	12.653
764.47	17.797
764.78	15.356
765.10	19.065
765.41	13.871
765.72	15.409
766.03	9.894
766.34	18.421
766.65	11.741
766.96	10.500
767.27	14.062
767.58	14.535
767.89	14.194
768.20	11.043
768.51	12.568
768.82	11.351
769.13	11.500
769.44	13.158
769.75	16.017
770.06	15.138
770.37	19.249
770.68	16.667
770.99	14.851
771.30	13.107
771.61	18.981
771.92	6.926
772.23	18.224
772.54	17.021
772.85	10.651
773.16	15.244
773.47	18.675
773.78	15.934
774.09	14.000
774.39	15.432
774.70	7.383
775.01	10.870
775.32	2.985
775.63	4.959
775.94	13.534
776.25	4.286
776.56	18.033
776.87	14.159
777.18	14.159
777.48	1.818
777.79	12.174
778.10	8.257
778.41	7.627
778.72	13.223
779.03	10.448
779.34	13.534
779.65	11.765
779.95	12.319
780.26	10.204
780.57	0.862
780.88	17.593
781.19	-6.061
781.50	4.000
781.80	13.072
782.11	9.615
782.42	15.060
782.73	4.380
783.04	8.108
783.34	9.848
783.65	11.628
783.96	9.756
784.27	12.821
784.57	4.065
784.88	5.691
785.19	11.404
785.50	-16.495
785.81	1.905
786.11	-5.882
786.42	5.455
786.73	20.721
787.04	26.733
787.34	15.238
787.65	9.524
787.96	0.000
788.26	8.108
788.57	14.516
788.88	7.812
789.19	11.966
789.49	3.361
789.80	12.821
790.11	3.540
790.41	-3.030
790.72	23.585
791.03	-12.500
791.33	7.895
791.64	5.376
791.95	-2.667
792.25	5.714
792.56	3.659
792.87	19.388
793.17	1.316
793.48	2.703
793.79	-15.493
794.09	-5.063
794.40	17.021
794.70	12.150
795.01	2.632
795.32	9.091
795.62	3.571
795.93	6.186
796.23	-1.099
796.54	13.684
796.85	-6.849
797.15	-5.556
797.46	8.219
797.76	7.042
798.07	11.250
798.37	1.471
798.68	14.286
798.99	11.429
799.29	10.526
799.60	0.000
799.90	-12.500
800.21	-6.250
800.51	11.111
800.82	-3.279
801.12	0.000
801.43	7.042
801.73	-16.949
802.04	3.279
802.34	-5.455
802.65	-11.538
802.95	0.000
803.26	-30.000
803.56	15.385
803.87	-26.316
804.17	8.065
804.48	13.846
804.78	-28.205
805.09	-25.581
805.39	-53.125
805.70	-5.660
806.00	14.035
806.30	18.919
806.61	1.471
806.91	6.173
807.22	-5.333
807.52	-10.448
807.83	-3.226
808.13	0.000
808.43	-16.364
808.74	-3.030
809.04	0.000
809.35	-5.479
809.65	7.018
809.95	11.765
810.26	-1.961
810.56	-24.000
810.86	-10.204
811.17	-14.286
811.47	-13.462
811.77	-12.903
812.08	-50.000
812.38	11.905
812.69	8.696
812.99	-19.355
813.29	-28.571
813.59	-85.185
813.90	-19.149
814.20	-4.651
814.50	-4.167
814.81	-5.000
815.11	-7.317
815.41	-36.667
815.72	-2.857
816.02	-22.222
816.32	-10.256
816.62	5.405
816.93	-32.353
817.23	-41.304
817.53	-11.765
817.84	-17.647
818.14	-62.500
818.44	-55.172
818.74	-45.161
819.04	-74.074
819.35	-33.333
819.65	-68.000
819.95	-6.667
820.25	-52.000
820.56	0.000
820.86	-35.000
821.16	4.255
821.46	-8.621
821.76	-15.385
822.07	-42.500
822.37	-25.581
822.67	-66.667
822.97	-32.432
823.27	-16.216
823.57	56.000
823.88	-16.216
824.18	-47.619
824.48	-23.077
824.78	-130.769
825.08	-4.348
825.38	-66.667
825.69	-16.667
825.99	-140.000
826.29	-29.730
826.59	-11.765
826.89	-28.000
827.19	-22.857
827.49	-5.263
827.79	-31.250
828.09	-40.000
828.39	-30.435
828.70	-31.034
829.00	0.000
829.30	8.333
829.60	12.500
829.90	-33.333
830.20	-26.923
830.50	-38.095
830.80	-53.571
831.10	-5.128
831.40	-95.238
831.70	-26.471
832.00	-25.000
832.30	-47.368
832.60	-62.500
832.90	-91.667
833.20	-147.059
833.50	-100.000
833.80	-40.000
834.10	-30.000
834.40	-91.667
834.70	-27.778
835.00	-30.769
835.30	-25.000
835.60	-34.483
835.90	-55.556
836.20	-227.273
836.50	-100.000
836.80	22.857
837.10	-8.571
837.40	-52.941
837.70	-72.727
838.00	-70.833
838.30	-50.000
838.60	-66.667
838.90	-10.000
839.19	-21.739
839.49	-39.130
839.79	-77.778
840.09	-65.217
840.39	0.000
840.69	-68.750
840.99	-52.632
841.29	-106.250
841.59	-57.143
841.88	-94.444
842.18	-50.000
842.48	-52.941
842.78	10.345
843.08	-114.286
843.38	-92.308
843.68	-233.333
843.97	-130.769
844.27	-154.545
844.57	-120.000
844.87	8.000
845.17	-120.000
845.47	-107.143
845.76	-122.222
846.06	0.000
846.36	-400.000
846.66	-80.000
846.96	-57.895
847.25	-25.000
847.55	-216.667
847.85	-113.333
848.15	-210.000
848.44	57.692
848.74	-26.316
849.04	833.333
849.34	-144.444
849.63	-110.526
849.93	0.000
850.23	-75.000
850.53	-85.714
850.82	-56.000
851.12	-47.368
851.42	-1250.000
851.71	-14.286
852.01	-33.333
852.31	-41.176
852.61	-6.667
852.90	-42.857
853.20	-50.000
853.50	-50.000
853.79	-84.211
854.09	-120.000
854.39	-60.714
854.68	-30.435
854.98	-191.667
855.28	13.793
855.57	-37.500
855.87	-95.000
856.17	-106.667
856.46	-6.897
856.76	-66.667
857.05	-88.235
857.35	-123.077
857.65	-190.909
857.94	11.111
858.24	-114.286
858.53	-78.571
858.83	-116.667
859.13	-244.444
859.42	23.810
859.72	-200.000
860.01	-566.667
860.31	37.500
860.60	-340.000
860.90	-177.778
861.20	-225.000
861.49	-285.714
861.79	29.412
862.08	-450.000
862.38	-125.000
862.67	-61.538
862.97	-41.176
863.26	15.000
863.56	-23.529
863.85	533.333
864.15	-70.000
864.44	0.000
864.74	0.000
865.03	-312.500
865.33	-416.667
865.62	-23.529
865.92	-675.000
866.21	-128.571
866.51	-158.333
866.80	-200.000
867.10	-233.333
867.39	-5.882
867.69	-8.696
867.98	-28.571
868.27	-300.000
868.57	-106.250
868.86	-118.182
869.16	-47.059
869.45	-150.000
869.75	-128.571
870.04	1300.000
870.33	-91.667
870.63	0.000
870.92	-77.778
871.22	-133.333
871.51	-100.000
871.80	-33.333
872.10	-80.000
>>>>>End Processed Spectral Data<<<<<
