SpectraSuite Data File
++++++++++++++++++++++++++++++++++++
Date: Sat May 16 11:33:10 PDT 2015
User: schluterlab
Dark Spectrum Present: Yes
Reference Spectrum Present: Yes
Number of Sampled Component Spectra: 1
Spectrometers: USB2E3373
Integration Time (usec): 3000 (USB2E3373)
Spectra Averaged: 3 (USB2E3373)
Boxcar Smoothing: 0 (USB2E3373)
Correct for Electrical Dark: No (USB2E3373)
Strobe/Lamp Enabled: No (USB2E3373)
Correct for Detector Non-linearity: No (USB2E3373)
Correct for Stray Light: No (USB2E3373)
Number of Pixels in Processed Spectrum: 2048
>>>>>Begin Processed Spectral Data<<<<<
178.53	0.000
178.91	166.667
179.29	766.667
179.67	-1000.000
180.04	-53.846
180.42	700.000
180.80	175.000
181.18	600.000
181.56	-25.000
181.94	1400.000
182.31	325.000
182.69	-130.769
183.07	-300.000
183.45	1600.000
183.83	366.667
184.20	-200.000
184.58	-137.500
184.96	-275.000
185.34	156.250
185.72	-350.000
186.09	150.000
186.47	-112.500
186.85	-187.500
187.23	0.000
187.61	-175.000
187.98	-200.000
188.36	-175.000
188.74	-200.000
189.12	1400.000
189.49	342.857
189.87	-116.667
190.25	375.000
190.63	-57.143
191.00	-188.889
191.38	240.000
191.76	46.667
192.14	780.000
192.51	-220.000
192.89	-166.667
193.27	0.000
193.65	-122.222
194.02	-185.714
194.40	466.667
194.78	-130.000
195.15	-1100.000
195.53	-163.636
195.91	-316.667
196.29	120.000
196.66	-733.333
197.04	2100.000
197.42	-450.000
197.79	-26.667
198.17	-333.333
198.55	-850.000
198.92	-1700.000
199.30	262.500
199.68	-1250.000
200.05	0.000
200.43	-88.889
200.81	-1200.000
201.18	-100.000
201.56	342.857
201.94	6.667
202.31	-18.182
202.69	-70.000
203.07	-150.000
203.44	1000.000
203.82	-350.000
204.19	-275.000
204.57	-200.000
204.95	-2100.000
205.32	-25.000
205.70	900.000
206.08	-2400.000
206.45	-5.556
206.83	-1100.000
207.20	-350.000
207.58	-466.667
207.96	-366.667
208.33	0.000
208.71	-155.556
209.08	240.000
209.46	-157.143
209.84	650.000
210.21	0.000
210.59	75.000
210.96	500.000
211.34	-400.000
211.71	-666.667
212.09	325.000
212.46	950.000
212.84	-2400.000
213.22	700.000
213.59	216.667
213.97	-166.667
214.34	110.000
214.72	-130.000
215.09	-533.333
215.47	-150.000
215.84	-150.000
216.22	60.000
216.59	-20.000
216.97	-475.000
217.34	800.000
217.72	-100.000
218.09	-216.667
218.47	-171.429
218.84	71.429
219.22	-42.857
219.59	0.000
219.97	371.429
220.34	325.000
220.72	162.500
221.09	-69.231
221.47	0.000
221.84	800.000
222.22	-500.000
222.59	1100.000
222.97	-275.000
223.34	-650.000
223.72	-500.000
224.09	-42.857
224.46	-400.000
224.84	-42.857
225.21	-200.000
225.59	-72.727
225.96	-75.000
226.34	-142.857
226.71	-266.667
227.08	-10.000
227.46	2700.000
227.83	-85.714
228.21	-262.500
228.58	250.000
228.95	-31.250
229.33	-1400.000
229.70	-240.000
230.08	-1300.000
230.45	58.333
230.82	-183.333
231.20	-900.000
231.57	-850.000
231.95	1300.000
232.32	-28.571
232.69	-188.889
233.07	-171.429
233.44	-1050.000
233.81	-80.000
234.19	-133.333
234.56	-31.250
234.93	0.000
235.31	-142.857
235.68	-107.143
236.05	-105.882
236.43	-54.545
236.80	-51.613
237.17	-66.667
237.55	-52.381
237.92	-100.000
238.29	-34.286
238.67	-17.647
239.04	-38.889
239.41	-45.161
239.79	-53.846
240.16	-57.143
240.53	-32.727
240.91	-28.205
241.28	-5.455
241.65	-9.231
242.02	-4.918
242.40	-22.951
242.77	-24.242
243.14	-16.949
243.51	-15.714
243.89	-20.253
244.26	-13.483
244.63	-7.368
245.00	-15.789
245.38	-3.390
245.75	-2.655
246.12	-1.600
246.49	-6.299
246.87	-10.569
247.24	-15.254
247.61	-12.712
247.98	-2.817
248.36	-13.986
248.73	2.532
249.10	-14.650
249.47	-2.339
249.84	-4.545
250.22	-10.119
250.59	-3.955
250.96	-5.236
251.33	0.948
251.70	-3.846
252.08	0.474
252.45	-5.687
252.82	-7.619
253.19	-5.957
253.56	-1.613
253.94	-4.219
254.31	-0.429
254.68	-6.098
255.05	-4.032
255.42	0.397
255.79	-6.810
256.16	-4.314
256.54	-0.368
256.91	-2.652
257.28	-6.960
257.65	-7.447
258.02	0.314
258.39	2.007
258.76	0.676
259.14	-1.235
259.51	0.328
259.88	-1.524
260.25	-0.621
260.62	-3.859
260.99	-1.780
261.36	-2.439
261.73	0.867
262.10	-1.667
262.47	-4.558
262.85	0.857
263.22	-1.146
263.59	-3.385
263.96	-3.768
264.33	-2.168
264.70	-1.381
265.07	0.275
265.44	-1.292
265.81	-0.258
266.18	-2.532
266.55	-1.716
266.92	0.000
267.29	-0.242
267.66	-0.494
268.03	0.000
268.40	-0.469
268.77	0.241
269.14	-1.160
269.51	0.000
269.88	-0.229
270.25	-1.865
270.62	-1.602
270.99	-0.225
271.36	0.466
271.73	-0.448
272.10	-1.373
272.47	-3.333
272.84	2.222
273.21	-0.459
273.58	-0.220
273.95	1.316
274.32	0.905
274.69	-0.219
275.06	4.499
275.43	-0.223
275.80	1.833
276.17	0.837
276.54	3.666
276.91	0.823
277.28	-0.203
277.65	1.033
278.02	-3.132
278.39	2.750
278.76	-0.598
279.13	0.395
279.50	0.398
279.87	-0.211
280.23	0.202
280.60	2.386
280.97	0.194
281.34	1.161
281.71	2.115
282.08	0.202
282.45	-4.481
282.82	-0.581
283.19	-0.182
283.56	2.564
283.92	0.177
284.29	-0.929
284.66	0.000
285.03	1.426
285.40	1.661
285.77	1.754
286.14	-0.181
286.51	0.710
286.87	1.815
287.24	2.048
287.61	1.818
287.98	-2.253
288.35	0.826
288.72	0.340
289.08	-1.864
289.45	-0.168
289.82	-1.211
290.19	1.149
290.56	1.653
290.93	-0.318
291.29	-1.459
291.66	0.000
292.03	2.041
292.40	1.054
292.77	2.174
293.13	0.000
293.50	1.486
293.87	-0.920
294.24	2.715
294.60	-1.212
294.97	1.669
295.34	1.185
295.71	0.744
296.08	-0.768
296.44	-0.286
296.81	1.425
297.18	0.563
297.55	0.847
297.91	0.697
298.28	1.096
298.65	-0.837
299.02	2.273
299.38	-0.134
299.75	0.679
300.12	0.385
300.48	1.407
300.85	0.131
301.22	0.906
301.59	0.910
301.95	3.023
302.32	0.522
302.69	0.857
303.05	0.611
303.42	1.000
303.79	1.435
304.15	1.303
304.52	1.400
304.89	0.945
305.25	1.832
305.62	0.940
305.99	2.591
306.35	1.776
306.72	1.367
307.09	3.519
307.45	1.816
307.82	0.670
308.19	2.013
308.55	1.634
308.92	1.074
309.29	2.703
309.65	2.969
310.02	1.944
310.38	-0.108
310.75	3.074
311.12	3.616
311.48	3.445
311.85	2.472
312.22	3.605
312.58	4.273
312.95	3.568
313.31	4.096
313.68	6.131
314.05	5.341
314.41	3.622
314.78	3.097
315.14	5.331
315.51	5.674
315.87	5.808
316.24	5.831
316.61	7.294
316.97	7.264
317.34	5.780
317.70	6.030
318.07	8.302
318.43	6.835
318.80	8.732
319.16	6.942
319.53	7.707
319.89	7.620
320.26	8.627
320.62	9.327
320.99	9.453
321.35	8.571
321.72	9.007
322.08	10.781
322.45	10.396
322.81	10.471
323.18	11.047
323.54	10.998
323.91	11.307
324.27	11.407
324.64	11.517
325.00	12.478
325.37	12.579
325.73	14.436
326.10	11.869
326.46	14.361
326.83	14.298
327.19	14.345
327.56	16.184
327.92	15.123
328.29	15.584
328.65	14.818
329.01	15.636
329.38	16.325
329.74	16.758
330.11	15.866
330.47	16.440
330.84	17.507
331.20	16.155
331.56	16.044
331.93	17.762
332.29	17.626
332.66	17.208
333.02	16.652
333.38	16.667
333.75	17.008
334.11	16.444
334.48	17.476
334.84	18.635
335.20	17.199
335.57	17.870
335.93	18.979
336.29	17.360
336.66	16.564
337.02	17.297
337.38	16.845
337.75	16.067
338.11	17.084
338.47	17.438
338.84	16.969
339.20	17.047
339.56	18.449
339.93	17.019
340.29	16.829
340.65	17.920
341.02	18.297
341.38	16.428
341.74	17.273
342.11	16.041
342.47	16.137
342.83	17.884
343.20	16.909
343.56	17.551
343.92	17.780
344.28	17.494
344.65	16.337
345.01	16.218
345.37	17.110
345.73	15.548
346.10	15.781
346.46	15.922
346.82	16.119
347.19	16.516
347.55	16.533
347.91	17.008
348.27	15.274
348.63	16.478
349.00	17.184
349.36	15.925
349.72	17.038
350.08	16.439
350.45	15.603
350.81	16.561
351.17	15.273
351.53	15.115
351.89	16.006
352.26	15.814
352.62	16.436
352.98	15.823
353.34	16.707
353.70	15.521
354.07	16.286
354.43	16.285
354.79	15.689
355.15	15.495
355.51	16.094
355.87	15.415
356.24	15.568
356.60	16.438
356.96	16.397
357.32	14.964
357.68	15.326
358.04	16.166
358.40	15.700
358.77	15.224
359.13	15.455
359.49	15.646
359.85	15.549
360.21	16.438
360.57	16.039
360.93	16.519
361.29	16.218
361.66	14.329
362.02	14.275
362.38	15.481
362.74	15.751
363.10	15.136
363.46	16.168
363.82	15.743
364.18	15.051
364.54	16.297
364.90	15.024
365.26	15.621
365.62	16.251
365.98	15.220
366.35	15.000
366.71	15.292
367.07	14.467
367.43	16.472
367.79	14.364
368.15	15.078
368.51	15.734
368.87	16.071
369.23	14.526
369.59	15.000
369.95	15.715
370.31	16.034
370.67	14.751
371.03	14.869
371.39	15.064
371.75	15.021
372.11	15.495
372.47	14.967
372.83	15.438
373.19	15.429
373.55	14.849
373.91	15.078
374.27	14.648
374.63	14.631
374.99	16.273
375.35	15.478
375.71	16.475
376.07	15.400
376.42	14.702
376.78	15.359
377.14	15.186
377.50	15.990
377.86	14.499
378.22	15.138
378.58	15.442
378.94	15.105
379.30	15.905
379.66	15.361
380.02	15.152
380.38	14.864
380.74	15.768
381.09	15.114
381.45	15.632
381.81	14.156
382.17	15.664
382.53	14.103
382.89	14.773
383.25	14.269
383.61	14.682
383.97	14.942
384.32	14.518
384.68	15.357
385.04	14.251
385.40	14.790
385.76	15.061
386.12	15.178
386.48	14.913
386.83	15.092
387.19	15.003
387.55	15.445
387.91	14.997
388.27	14.053
388.62	15.144
388.98	14.537
389.34	14.933
389.70	14.616
390.06	14.792
390.42	14.615
390.77	14.637
391.13	14.845
391.49	14.348
391.85	14.214
392.20	14.138
392.56	13.928
392.92	14.718
393.28	15.327
393.64	13.951
393.99	14.277
394.35	14.416
394.71	13.527
395.07	14.815
395.42	14.779
395.78	14.771
396.14	15.265
396.50	14.801
396.85	14.929
397.21	14.581
397.57	14.468
397.92	14.637
398.28	14.056
398.64	14.396
399.00	15.000
399.35	13.923
399.71	15.389
400.07	14.388
400.42	15.207
400.78	13.834
401.14	14.491
401.49	14.387
401.85	14.094
402.21	13.886
402.57	14.806
402.92	15.481
403.28	14.767
403.63	14.080
403.99	14.419
404.35	13.768
404.70	14.862
405.06	15.110
405.42	14.268
405.77	14.027
406.13	13.629
406.49	14.919
406.84	14.397
407.20	15.194
407.55	14.250
407.91	13.990
408.27	15.380
408.62	14.732
408.98	14.797
409.34	14.930
409.69	13.800
410.05	14.130
410.40	14.592
410.76	14.464
411.11	15.087
411.47	15.026
411.83	14.487
412.18	14.542
412.54	14.338
412.89	14.642
413.25	13.577
413.60	13.913
413.96	14.479
414.31	14.373
414.67	13.905
415.03	14.618
415.38	14.509
415.74	15.077
416.09	14.770
416.45	13.955
416.80	15.475
417.16	14.352
417.51	15.561
417.87	14.498
418.22	15.360
418.58	14.955
418.93	14.776
419.29	15.997
419.64	14.447
420.00	16.160
420.35	15.198
420.71	15.366
421.06	15.562
421.42	15.340
421.77	15.801
422.12	15.949
422.48	14.912
422.83	15.376
423.19	15.256
423.54	15.850
423.90	16.021
424.25	15.950
424.61	16.707
424.96	16.852
425.31	16.042
425.67	15.702
426.02	15.663
426.38	17.665
426.73	16.774
427.09	16.360
427.44	16.193
427.79	16.802
428.15	16.876
428.50	17.243
428.85	17.026
429.21	16.602
429.56	16.615
429.92	17.084
430.27	17.298
430.62	17.032
430.98	17.198
431.33	17.343
431.68	17.802
432.04	18.075
432.39	18.063
432.74	17.686
433.10	17.501
433.45	17.156
433.80	17.525
434.16	17.894
434.51	17.918
434.86	18.278
435.22	18.263
435.57	17.564
435.92	18.992
436.28	17.982
436.63	18.202
436.98	17.869
437.34	18.311
437.69	18.961
438.04	17.867
438.39	18.833
438.75	18.743
439.10	18.712
439.45	18.467
439.81	19.217
440.16	19.194
440.51	19.235
440.86	18.855
441.22	18.408
441.57	18.789
441.92	19.437
442.27	19.156
442.63	19.367
442.98	18.454
443.33	19.879
443.68	19.020
444.03	20.138
444.39	19.726
444.74	21.256
445.09	19.846
445.44	19.977
445.79	20.092
446.15	20.482
446.50	18.835
446.85	18.728
447.20	19.969
447.55	20.166
447.91	20.101
448.26	19.385
448.61	20.487
448.96	20.112
449.31	19.278
449.66	20.321
450.02	20.554
450.37	20.638
450.72	20.226
451.07	20.553
451.42	20.818
451.77	20.706
452.12	20.501
452.47	20.466
452.83	20.443
453.18	21.379
453.53	21.082
453.88	21.352
454.23	20.496
454.58	20.820
454.93	21.222
455.28	20.969
455.63	21.744
455.98	21.506
456.34	20.267
456.69	22.326
457.04	21.451
457.39	21.711
457.74	20.851
458.09	21.346
458.44	21.536
458.79	21.020
459.14	21.734
459.49	22.025
459.84	21.754
460.19	21.539
460.54	21.476
460.89	20.235
461.24	21.433
461.59	21.688
461.94	21.897
462.29	21.858
462.64	21.805
462.99	22.490
463.34	21.067
463.69	21.438
464.04	20.797
464.39	21.446
464.74	21.158
465.09	21.708
465.44	21.376
465.79	21.940
466.14	22.209
466.49	21.531
466.84	21.429
467.19	22.257
467.54	21.013
467.89	21.887
468.24	21.496
468.59	21.112
468.94	21.736
469.29	22.612
469.64	22.574
469.99	22.215
470.34	21.910
470.68	22.311
471.03	21.266
471.38	21.181
471.73	22.867
472.08	21.620
472.43	22.136
472.78	22.800
473.13	21.272
473.48	21.634
473.83	21.836
474.17	21.720
474.52	22.634
474.87	21.737
475.22	21.947
475.57	20.944
475.92	21.868
476.27	21.143
476.61	21.746
476.96	21.520
477.31	22.121
477.66	21.915
478.01	22.474
478.36	21.215
478.70	21.997
479.05	21.741
479.40	21.969
479.75	22.120
480.10	21.429
480.45	20.986
480.79	22.014
481.14	21.826
481.49	22.168
481.84	21.313
482.19	21.974
482.53	22.017
482.88	22.212
483.23	21.737
483.58	22.525
483.92	21.500
484.27	21.223
484.62	21.814
484.97	21.356
485.31	20.608
485.66	20.587
486.01	20.570
486.36	21.142
486.70	21.939
487.05	21.114
487.40	21.635
487.75	21.842
488.09	20.630
488.44	21.786
488.79	22.144
489.13	21.301
489.48	22.349
489.83	21.965
490.17	22.072
490.52	22.464
490.87	21.432
491.22	22.046
491.56	21.019
491.91	22.758
492.26	21.462
492.60	20.885
492.95	21.418
493.30	21.105
493.64	21.439
493.99	21.941
494.34	21.333
494.68	22.238
495.03	21.797
495.37	20.993
495.72	21.611
496.07	21.962
496.41	21.769
496.76	21.461
497.11	21.715
497.45	21.456
497.80	21.761
498.14	22.102
498.49	21.497
498.84	21.311
499.18	22.271
499.53	21.724
499.87	21.187
500.22	21.029
500.56	21.461
500.91	21.330
501.26	22.125
501.60	20.221
501.95	21.159
502.29	20.973
502.64	22.254
502.98	20.556
503.33	21.664
503.67	20.881
504.02	21.584
504.36	22.059
504.71	20.415
505.06	21.318
505.40	21.307
505.75	20.935
506.09	21.031
506.44	21.454
506.78	21.174
507.13	21.370
507.47	21.022
507.82	20.444
508.16	21.503
508.51	21.278
508.85	21.946
509.19	21.088
509.54	21.195
509.88	21.596
510.23	21.908
510.57	21.693
510.92	21.643
511.26	20.734
511.61	20.734
511.95	21.282
512.30	21.385
512.64	20.701
512.98	21.562
513.33	21.197
513.67	21.161
514.02	20.805
514.36	21.330
514.70	21.845
515.05	20.583
515.39	21.107
515.74	21.001
516.08	20.980
516.42	21.076
516.77	20.566
517.11	21.339
517.46	21.591
517.80	21.721
518.14	20.531
518.49	20.562
518.83	20.297
519.17	20.959
519.52	19.896
519.86	21.266
520.20	20.844
520.55	20.800
520.89	20.664
521.23	21.490
521.58	20.251
521.92	21.406
522.26	20.063
522.61	20.722
522.95	19.847
523.29	20.878
523.64	20.675
523.98	20.496
524.32	21.119
524.66	20.000
525.01	20.167
525.35	20.168
525.69	20.104
526.04	19.321
526.38	20.560
526.72	19.349
527.06	20.898
527.41	20.660
527.75	19.868
528.09	19.523
528.43	20.656
528.78	20.226
529.12	20.871
529.46	19.201
529.80	19.948
530.15	20.219
530.49	19.082
530.83	20.039
531.17	19.327
531.51	19.424
531.86	20.211
532.20	19.568
532.54	20.187
532.88	19.763
533.22	19.452
533.57	18.995
533.91	18.602
534.25	18.290
534.59	18.676
534.93	18.233
535.27	19.194
535.62	18.798
535.96	19.263
536.30	19.175
536.64	18.858
536.98	20.480
537.32	19.074
537.66	19.077
538.01	18.763
538.35	19.865
538.69	18.115
539.03	19.499
539.37	18.696
539.71	18.746
540.05	18.849
540.39	19.183
540.73	18.798
541.07	19.331
541.42	18.771
541.76	16.944
542.10	18.636
542.44	18.254
542.78	18.657
543.12	18.466
543.46	17.055
543.80	17.525
544.14	16.991
544.48	18.766
544.82	17.321
545.16	18.042
545.50	16.555
545.84	18.289
546.18	17.822
546.52	18.706
546.86	17.593
547.20	18.214
547.54	17.149
547.88	16.788
548.22	17.038
548.56	16.767
548.90	16.779
549.24	17.659
549.58	17.431
549.92	17.668
550.26	17.919
550.60	17.354
550.94	17.664
551.28	16.554
551.62	17.061
551.96	16.208
552.30	17.213
552.64	16.186
552.98	16.048
553.32	15.729
553.66	17.520
554.00	17.129
554.34	16.606
554.68	16.520
555.02	16.570
555.36	15.888
555.69	15.831
556.03	17.053
556.37	16.999
556.71	16.822
557.05	16.408
557.39	15.367
557.73	16.995
558.07	15.750
558.41	16.081
558.75	16.198
559.08	14.942
559.42	16.462
559.76	15.261
560.10	16.107
560.44	16.113
560.78	16.214
561.12	14.700
561.45	15.890
561.79	14.913
562.13	15.568
562.47	16.457
562.81	15.771
563.15	15.815
563.48	14.375
563.82	15.213
564.16	16.024
564.50	15.457
564.84	15.476
565.17	14.390
565.51	15.776
565.85	15.822
566.19	15.020
566.52	14.481
566.86	14.412
567.20	15.557
567.54	14.471
567.88	13.791
568.21	14.262
568.55	13.415
568.89	13.022
569.23	13.373
569.56	13.577
569.90	14.044
570.24	13.905
570.57	13.638
570.91	13.499
571.25	13.035
571.59	13.800
571.92	13.571
572.26	12.882
572.60	13.404
572.93	12.976
573.27	12.835
573.61	12.274
573.95	12.746
574.28	12.429
574.62	12.481
574.96	12.612
575.29	12.779
575.63	12.822
575.97	12.298
576.30	12.579
576.64	11.958
576.98	12.267
577.31	12.110
577.65	12.436
577.98	11.771
578.32	11.934
578.66	11.983
578.99	12.181
579.33	12.032
579.67	12.275
580.00	11.855
580.34	11.595
580.67	11.596
581.01	11.449
581.35	11.466
581.68	11.431
582.02	11.731
582.35	11.766
582.69	11.833
583.02	11.671
583.36	11.654
583.70	11.546
584.03	11.827
584.37	11.529
584.70	11.393
585.04	12.051
585.37	11.480
585.71	11.393
586.04	11.322
586.38	11.307
586.72	11.246
587.05	11.243
587.39	11.063
587.72	11.096
588.06	11.554
588.39	11.763
588.73	11.165
589.06	11.253
589.40	11.474
589.73	10.871
590.07	11.107
590.40	11.218
590.73	10.556
591.07	10.984
591.40	11.265
591.74	11.512
592.07	10.856
592.41	11.253
592.74	11.261
593.08	10.608
593.41	10.559
593.75	10.617
594.08	10.712
594.41	10.684
594.75	11.023
595.08	10.564
595.42	11.091
595.75	10.327
596.09	10.594
596.42	10.761
596.75	10.220
597.09	11.354
597.42	9.821
597.75	10.496
598.09	10.348
598.42	10.473
598.76	10.133
599.09	10.142
599.42	10.342
599.76	10.344
600.09	10.763
600.42	10.672
600.76	10.169
601.09	10.179
601.42	9.695
601.76	10.553
602.09	10.184
602.42	9.794
602.76	9.555
603.09	10.242
603.42	10.355
603.76	10.251
604.09	9.732
604.42	9.492
604.76	10.510
605.09	10.172
605.42	9.530
605.75	9.444
606.09	10.212
606.42	9.342
606.75	9.961
607.09	10.146
607.42	9.639
607.75	9.669
608.08	10.348
608.42	9.508
608.75	9.065
609.08	9.791
609.41	9.467
609.75	9.166
610.08	9.363
610.41	9.831
610.74	8.946
611.07	9.838
611.41	9.329
611.74	10.334
612.07	9.989
612.40	9.382
612.73	9.747
613.07	9.686
613.40	9.743
613.73	9.700
614.06	10.104
614.39	9.808
614.72	8.883
615.06	9.293
615.39	9.495
615.72	8.800
616.05	8.669
616.38	9.170
616.71	9.309
617.05	9.650
617.38	9.102
617.71	8.477
618.04	8.758
618.37	8.742
618.70	8.735
619.03	9.411
619.36	9.514
619.69	10.122
620.03	9.504
620.36	8.931
620.69	9.117
621.02	8.752
621.35	9.194
621.68	8.852
622.01	8.252
622.34	9.472
622.67	8.828
623.00	8.875
623.33	10.970
623.66	7.681
623.99	8.872
624.32	7.217
624.65	8.904
624.99	7.394
625.32	8.458
625.65	8.936
625.98	9.155
626.31	7.993
626.64	9.121
626.97	9.589
627.30	8.936
627.63	6.649
627.96	9.574
628.29	8.456
628.62	7.354
628.95	9.252
629.28	9.117
629.61	8.538
629.94	8.696
630.26	8.847
630.59	9.849
630.92	9.409
631.25	8.569
631.58	8.254
631.91	6.489
632.24	8.000
632.57	8.111
632.90	9.080
633.23	8.294
633.56	8.655
633.89	9.434
634.22	7.320
634.55	8.053
634.88	8.827
635.20	7.241
635.53	8.906
635.86	8.186
636.19	7.326
636.52	8.363
636.85	6.619
637.18	6.875
637.51	10.161
637.83	8.123
638.16	8.684
638.49	6.345
638.82	8.237
639.15	7.912
639.48	5.707
639.81	7.884
640.13	8.784
640.46	8.547
640.79	8.964
641.12	8.181
641.45	7.891
641.77	8.832
642.10	7.704
642.43	7.587
642.76	6.299
643.09	7.302
643.41	9.048
643.74	7.949
644.07	9.048
644.40	7.293
644.73	7.921
645.05	7.012
645.38	8.113
645.71	8.419
646.04	7.227
646.36	6.806
646.69	7.958
647.02	9.025
647.35	7.762
647.67	6.387
648.00	8.260
648.33	8.263
648.66	6.290
648.98	7.643
649.31	6.769
649.64	6.719
649.96	7.221
650.29	6.066
650.62	8.606
650.94	6.071
651.27	8.839
651.60	7.266
651.92	6.507
652.25	6.344
652.58	4.600
652.90	8.507
653.23	8.065
653.56	6.355
653.88	6.721
654.21	5.201
654.54	8.638
654.86	6.581
655.19	7.307
655.52	6.727
655.84	6.294
656.17	7.265
656.49	9.889
656.82	10.589
657.15	7.998
657.47	5.950
657.80	4.555
658.13	5.418
658.45	7.205
658.78	6.921
659.10	7.123
659.43	7.073
659.75	6.727
660.08	7.344
660.41	6.282
660.73	7.371
661.06	7.246
661.38	7.500
661.71	6.883
662.03	8.266
662.36	7.249
662.68	4.641
663.01	6.369
663.33	4.535
663.66	7.725
663.98	4.241
664.31	5.817
664.63	7.965
664.96	7.375
665.28	7.592
665.61	5.285
665.93	8.848
666.26	8.907
666.58	6.653
666.91	7.127
667.23	6.798
667.56	4.762
667.88	8.145
668.21	5.300
668.53	2.570
668.86	6.467
669.18	6.621
669.50	4.439
669.83	4.623
670.15	5.830
670.48	4.439
670.80	2.506
671.13	3.386
671.45	4.505
671.77	5.567
672.10	5.523
672.42	5.351
672.75	6.182
673.07	5.225
673.39	6.193
673.72	6.693
674.04	3.609
674.37	5.979
674.69	8.402
675.01	5.957
675.34	7.809
675.66	6.479
675.98	5.066
676.31	4.072
676.63	6.667
676.95	3.982
677.28	6.032
677.60	6.109
677.92	8.811
678.25	6.127
678.57	5.967
678.89	2.096
679.22	4.822
679.54	8.284
679.86	3.800
680.18	5.894
680.51	2.980
680.83	5.524
681.15	7.900
681.48	6.491
681.80	6.452
682.12	4.225
682.44	4.519
682.77	6.061
683.09	4.612
683.41	6.195
683.73	2.055
684.06	6.452
684.38	5.021
684.70	5.350
685.02	5.709
685.34	5.653
685.67	3.598
685.99	5.293
686.31	6.463
686.63	4.610
686.96	4.991
687.28	4.239
687.60	4.297
687.92	2.335
688.24	4.724
688.56	6.413
688.89	5.556
689.21	3.063
689.53	5.057
689.85	6.682
690.17	4.036
690.49	5.774
690.82	3.855
691.14	2.830
691.46	5.765
691.78	4.185
692.10	6.780
692.42	3.778
692.74	5.365
693.06	5.393
693.39	5.145
693.71	4.966
694.03	6.695
694.35	2.483
694.67	2.600
694.99	1.790
695.31	7.398
695.63	0.765
695.95	5.955
696.27	3.990
696.59	2.406
696.91	6.461
697.23	3.646
697.56	2.404
697.88	4.054
698.20	2.784
698.52	3.812
698.84	6.068
699.16	3.095
699.48	1.750
699.80	3.258
700.12	7.809
700.44	5.028
700.76	1.749
701.08	3.198
701.40	3.927
701.72	6.790
702.04	5.769
702.36	5.723
702.68	1.198
703.00	3.478
703.32	-0.573
703.64	7.647
703.96	3.198
704.28	4.734
704.60	0.316
704.91	4.127
705.23	7.120
705.55	0.676
705.87	4.437
706.19	0.000
706.51	1.042
706.83	5.246
707.15	1.592
707.47	1.653
707.79	4.639
708.11	2.545
708.43	4.988
708.74	3.117
709.06	1.114
709.38	2.874
709.70	5.312
710.02	5.521
710.34	1.980
710.66	0.317
710.98	3.470
711.29	0.323
711.61	0.319
711.93	2.951
712.25	2.990
712.57	1.742
712.89	5.396
713.20	6.186
713.52	-1.866
713.84	3.559
714.16	0.000
714.48	0.635
714.80	4.615
715.11	2.017
715.43	7.229
715.75	4.984
716.07	-2.295
716.39	3.679
716.70	2.787
717.02	1.111
717.34	1.908
717.66	3.734
717.97	2.869
718.29	-0.840
718.61	7.143
718.93	3.226
719.24	-0.368
719.56	-2.642
719.88	0.000
720.20	4.494
720.51	1.880
720.83	0.803
721.15	-1.230
721.46	8.235
721.78	1.533
722.10	4.800
722.42	-3.719
722.73	1.594
723.05	2.410
723.37	5.882
723.68	-1.619
724.00	4.472
724.32	3.704
724.63	0.000
724.95	5.785
725.27	1.316
725.58	-1.293
725.90	-1.587
726.22	2.214
726.53	2.281
726.85	-7.059
727.16	2.256
727.48	1.154
727.80	-3.279
728.11	-0.420
728.43	0.826
728.74	3.906
729.06	3.030
729.38	-1.946
729.69	1.181
730.01	-0.394
730.32	-1.594
730.64	4.762
730.96	4.104
731.27	3.929
731.59	2.251
731.90	5.215
732.22	3.374
732.53	3.642
732.85	0.671
733.16	1.812
733.48	-2.439
733.80	2.491
734.11	1.724
734.43	1.361
734.74	3.858
735.06	4.389
735.37	0.612
735.69	2.258
736.00	1.010
736.32	4.967
736.63	-1.724
736.95	0.725
737.26	1.656
737.58	0.719
737.89	1.792
738.21	-4.135
738.52	3.077
738.83	3.125
739.15	-1.282
739.46	4.839
739.78	4.545
740.09	0.000
740.41	0.000
740.72	5.839
741.04	-3.571
741.35	-4.762
741.66	3.704
741.98	-0.476
742.29	6.103
742.61	0.535
742.92	0.467
743.23	0.439
743.55	-2.252
743.86	10.667
744.18	0.000
744.49	5.911
744.80	4.569
745.12	-1.546
745.43	1.508
745.74	3.883
746.06	-4.390
746.37	8.811
746.68	-1.493
747.00	-3.141
747.31	2.885
747.62	-2.765
747.94	3.930
748.25	5.581
748.56	1.905
748.88	-2.174
749.19	1.878
749.50	1.471
749.82	6.222
750.13	4.405
750.44	-2.439
750.75	0.000
751.07	7.143
751.38	-3.690
751.69	-4.580
752.01	2.692
752.32	0.000
752.63	1.154
752.94	-2.778
753.26	0.435
753.57	4.911
753.88	0.431
754.19	-2.490
754.51	-0.391
754.82	1.581
755.13	-4.115
755.44	2.066
755.75	0.412
756.07	-4.016
756.38	0.391
756.69	2.888
757.00	-1.045
757.31	4.698
757.63	1.869
757.94	1.156
758.25	1.453
758.56	5.930
758.87	4.545
759.18	0.000
759.50	2.847
759.81	-3.650
760.12	-2.365
760.43	1.942
760.74	0.313
761.05	3.090
761.36	2.695
761.67	2.959
761.99	1.290
762.30	2.899
762.61	-0.377
762.92	0.448
763.23	2.844
763.54	-2.222
763.85	5.063
764.16	-0.408
764.47	4.237
764.78	-0.749
765.10	4.317
765.41	0.645
765.72	0.629
766.03	-3.534
766.34	3.759
766.65	-3.239
766.96	-5.000
767.27	1.562
767.58	0.581
767.89	-4.516
768.20	0.613
768.51	1.639
768.82	-1.622
769.13	-0.500
769.44	-3.947
769.75	4.329
770.06	0.917
770.37	1.408
770.68	-5.729
770.99	-0.495
771.30	-3.883
771.61	-5.093
771.92	-1.732
772.23	0.467
772.54	1.596
772.85	-6.509
773.16	-4.268
773.47	6.627
773.78	0.549
774.09	-1.333
774.39	4.321
774.70	0.000
775.01	-8.696
775.32	-8.955
775.63	-17.355
775.94	-3.759
776.25	0.714
776.56	-6.557
776.87	-6.195
777.18	-4.425
777.48	-10.909
777.79	-8.696
778.10	-11.009
778.41	-9.322
778.72	2.479
779.03	2.239
779.34	2.256
779.65	-1.961
779.95	0.000
780.26	-7.483
780.57	-14.655
780.88	-9.259
781.19	-19.192
781.50	-7.200
781.80	-6.536
782.11	-5.128
782.42	-1.205
782.73	-8.029
783.04	6.081
783.34	-9.091
783.65	-3.876
783.96	-10.569
784.27	-12.821
784.57	-13.821
784.88	-8.130
785.19	8.772
785.50	-27.835
785.81	-7.619
786.11	-10.784
786.42	-7.273
786.73	4.505
787.04	-4.950
787.34	-14.286
787.65	-8.571
787.96	-3.922
788.26	-2.703
788.57	11.290
788.88	-8.594
789.19	-9.402
789.49	-8.403
789.80	-6.838
790.11	-3.540
790.41	-3.030
790.72	2.830
791.03	-16.667
791.33	-7.895
791.64	-1.075
791.95	-4.000
792.25	-11.429
792.56	-12.195
792.87	-2.041
793.17	-7.895
793.48	-29.730
793.79	-16.901
794.09	-8.861
794.40	-3.191
794.70	0.935
795.01	-21.053
795.32	-10.000
795.62	-0.893
795.93	-6.186
796.23	-32.967
796.54	12.632
796.85	-19.178
797.15	-15.278
797.46	0.000
797.76	-9.859
798.07	-2.500
798.37	-11.765
798.68	-14.286
798.99	-7.143
799.29	-5.263
799.60	-13.333
799.90	-22.222
800.21	-34.375
800.51	-9.524
800.82	0.000
801.12	-28.070
801.43	-14.085
801.73	-33.898
802.04	-6.557
802.34	-23.636
802.65	-23.077
802.95	0.000
803.26	-40.000
803.56	-15.385
803.87	-47.368
804.17	-11.290
804.48	-10.769
804.78	-51.282
805.09	-20.930
805.39	-53.125
805.70	-39.623
806.00	-5.263
806.30	1.351
806.61	-22.059
806.91	-8.642
807.22	-12.000
807.52	-19.403
807.83	-16.129
808.13	-15.873
808.43	-16.364
808.74	-27.273
809.04	-22.642
809.35	-13.699
809.65	-12.281
809.95	-4.412
810.26	-29.412
810.56	-28.000
810.86	-36.735
811.17	-37.143
811.47	-30.769
811.77	-61.290
812.08	-50.000
812.38	-26.190
812.69	-28.261
812.99	-45.161
813.29	-28.571
813.59	-62.963
813.90	-23.404
814.20	-74.419
814.50	-16.667
814.81	-21.667
815.11	-34.146
815.41	-33.333
815.72	-20.000
816.02	-36.111
816.32	-33.333
816.62	-59.459
816.93	-79.412
817.23	-21.739
817.53	-52.941
817.84	-32.353
818.14	-75.000
818.44	-65.517
818.74	-61.290
819.04	-77.778
819.35	-53.333
819.65	-60.000
819.95	-73.333
820.25	-32.000
820.56	-34.211
820.86	-40.000
821.16	-34.043
821.46	-15.517
821.76	-33.333
822.07	-55.000
822.37	-27.907
822.67	-40.000
822.97	-59.459
823.27	-24.324
823.57	-24.000
823.88	16.216
824.18	-85.714
824.48	-23.077
824.78	-176.923
825.08	-73.913
825.38	-70.833
825.69	-8.333
825.99	-75.000
826.29	-27.027
826.59	-50.000
826.89	-68.000
827.19	-48.571
827.49	-18.421
827.79	-50.000
828.09	-46.667
828.39	17.391
828.70	-58.621
829.00	-75.862
829.30	-25.000
829.60	-18.750
829.90	-105.556
830.20	-50.000
830.50	-104.762
830.80	-64.286
831.10	-25.641
831.40	-85.714
831.70	-55.882
832.00	-20.833
832.30	-68.421
832.60	-68.750
832.90	-216.667
833.20	-129.412
833.50	-126.667
833.80	-120.000
834.10	-80.000
834.40	-83.333
834.70	-100.000
835.00	-46.154
835.30	-83.333
835.60	-41.379
835.90	-88.889
836.20	-145.455
836.50	-191.667
836.80	-11.429
837.10	22.857
837.40	-64.706
837.70	-227.273
838.00	-25.000
838.30	-56.250
838.60	-52.381
838.90	-110.000
839.19	-26.087
839.49	0.000
839.79	-105.556
840.09	-73.913
840.39	-54.545
840.69	-93.750
840.99	-78.947
841.29	-75.000
841.59	-42.857
841.88	-66.667
842.18	-45.833
842.48	-117.647
842.78	-37.931
843.08	-92.857
843.38	-115.385
843.68	-200.000
843.97	-107.692
844.27	-118.182
844.57	-280.000
844.87	-32.000
845.17	-160.000
845.47	-64.286
845.76	-77.778
846.06	0.000
846.36	-675.000
846.66	-190.000
846.96	-84.211
847.25	-50.000
847.55	-108.333
847.85	-53.333
848.15	-100.000
848.44	30.769
848.74	-63.158
849.04	933.333
849.34	-133.333
849.63	-78.947
849.93	0.000
850.23	-95.000
850.53	-47.619
850.82	-36.000
851.12	-84.211
851.42	-950.000
851.71	-57.143
852.01	-141.667
852.31	-94.118
852.61	-100.000
852.90	-23.810
853.20	-400.000
853.50	11.111
853.79	-94.737
854.09	-113.333
854.39	-3.571
854.68	-13.043
854.98	-308.333
855.28	-24.138
855.57	-93.750
855.87	-80.000
856.17	-73.333
856.46	-48.276
856.76	-73.333
857.05	-105.882
857.35	-169.231
857.65	-109.091
857.94	-85.185
858.24	-171.429
858.53	-100.000
858.83	-158.333
859.13	-333.333
859.42	-4.762
859.72	-275.000
860.01	-466.667
860.31	-175.000
860.60	-400.000
860.90	-266.667
861.20	-250.000
861.49	-200.000
861.79	-52.941
862.08	-1000.000
862.38	-108.333
862.67	-84.615
862.97	-35.294
863.26	15.000
863.56	-70.588
863.85	866.667
864.15	-120.000
864.44	-192.308
864.74	-10.000
865.03	-237.500
865.33	-300.000
865.62	-23.529
865.92	-700.000
866.21	-114.286
866.51	-83.333
866.80	-800.000
867.10	-566.667
867.39	-11.765
867.69	-39.130
867.98	-85.714
868.27	-160.000
868.57	-62.500
868.86	-190.909
869.16	0.000
869.45	-216.667
869.75	-157.143
870.04	1300.000
870.33	-108.333
870.63	-380.000
870.92	-111.111
871.22	-150.000
871.51	-100.000
871.80	-125.000
872.10	-120.000
>>>>>End Processed Spectral Data<<<<<
