SpectraSuite Data File
++++++++++++++++++++++++++++++++++++
Date: Sat May 16 11:29:39 PDT 2015
User: schluterlab
Dark Spectrum Present: Yes
Reference Spectrum Present: Yes
Number of Sampled Component Spectra: 1
Spectrometers: USB2E3373
Integration Time (usec): 3000 (USB2E3373)
Spectra Averaged: 3 (USB2E3373)
Boxcar Smoothing: 0 (USB2E3373)
Correct for Electrical Dark: No (USB2E3373)
Strobe/Lamp Enabled: No (USB2E3373)
Correct for Detector Non-linearity: No (USB2E3373)
Correct for Stray Light: No (USB2E3373)
Number of Pixels in Processed Spectrum: 2048
>>>>>Begin Processed Spectral Data<<<<<
178.53	0.000
178.91	140.000
179.29	166.667
179.67	-900.000
180.04	-38.462
180.42	1700.000
180.80	400.000
181.18	200.000
181.56	-12.500
181.94	500.000
182.31	450.000
182.69	-15.385
183.07	-533.333
183.45	950.000
183.83	633.333
184.20	-171.429
184.58	-75.000
184.96	-150.000
185.34	81.250
185.72	-475.000
186.09	266.667
186.47	-150.000
186.85	-187.500
187.23	-12.500
187.61	-350.000
187.98	-250.000
188.36	-187.500
188.74	-162.500
189.12	1500.000
189.49	214.286
189.87	-66.667
190.25	275.000
190.63	-50.000
191.00	-211.111
191.38	220.000
191.76	-53.333
192.14	560.000
192.51	-180.000
192.89	-633.333
193.27	0.000
193.65	-33.333
194.02	-242.857
194.40	600.000
194.78	-110.000
195.15	-700.000
195.53	-90.909
195.91	-200.000
196.29	120.000
196.66	-833.333
197.04	2400.000
197.42	-200.000
197.79	13.333
198.17	-133.333
198.55	-700.000
198.92	-1300.000
199.30	312.500
199.68	-750.000
200.05	-100.000
200.43	-155.556
200.81	-1800.000
201.18	-125.000
201.56	271.429
201.94	-26.667
202.31	18.182
202.69	-70.000
203.07	-140.000
203.44	800.000
203.82	-366.667
204.19	-250.000
204.57	-250.000
204.95	-1000.000
205.32	-6.250
205.70	1200.000
206.08	-2400.000
206.45	-55.556
206.83	-1450.000
207.20	-100.000
207.58	-300.000
207.96	-200.000
208.33	-187.500
208.71	-144.444
209.08	250.000
209.46	-200.000
209.84	350.000
210.21	0.000
210.59	15.000
210.96	1500.000
211.34	-116.667
211.71	-500.000
212.09	400.000
212.46	1150.000
212.84	-1100.000
213.22	533.333
213.59	133.333
213.97	-77.778
214.34	180.000
214.72	-10.000
215.09	-500.000
215.47	-183.333
215.84	-60.000
216.22	-40.000
216.59	-33.333
216.97	-475.000
217.34	800.000
217.72	-85.714
218.09	-50.000
218.47	-271.429
218.84	242.857
219.22	114.286
219.59	0.000
219.97	128.571
220.34	250.000
220.72	300.000
221.09	-84.615
221.47	0.000
221.84	200.000
222.22	-250.000
222.59	800.000
222.97	-100.000
223.34	-900.000
223.72	-466.667
224.09	-71.429
224.46	-275.000
224.84	-100.000
225.21	-271.429
225.59	-72.727
225.96	-137.500
226.34	-28.571
226.71	-177.778
227.08	-5.000
227.46	1200.000
227.83	-114.286
228.21	-175.000
228.58	450.000
228.95	-37.500
229.33	-1400.000
229.70	-320.000
230.08	-700.000
230.45	-58.333
230.82	-166.667
231.20	-800.000
231.57	-400.000
231.95	1500.000
232.32	47.619
232.69	-100.000
233.07	-100.000
233.44	-550.000
233.81	-80.000
234.19	-66.667
234.56	-75.000
234.93	3.125
235.31	-214.286
235.68	-92.857
236.05	-64.706
236.43	-68.182
236.80	0.000
237.17	-20.833
237.55	-42.857
237.92	-31.818
238.29	11.429
238.67	0.000
239.04	30.556
239.41	-54.839
239.79	-15.385
240.16	-42.857
240.53	-10.909
240.91	-7.692
241.28	-10.909
241.65	0.000
242.02	-1.639
242.40	0.000
242.77	9.091
243.14	0.000
243.51	-14.286
243.89	0.000
244.26	-6.742
244.63	14.737
245.00	9.474
245.38	0.847
245.75	22.124
246.12	5.600
246.49	3.937
246.87	5.691
247.24	-5.932
247.61	0.000
247.98	7.042
248.36	0.699
248.73	8.228
249.10	1.911
249.47	15.205
249.84	11.364
250.22	3.571
250.59	6.215
250.96	8.901
251.33	11.848
251.70	11.538
252.08	11.848
252.45	3.791
252.82	8.095
253.19	10.638
253.56	12.097
253.94	11.814
254.31	12.446
254.68	15.447
255.05	8.468
255.42	11.111
255.79	9.677
256.16	9.804
256.54	13.235
256.91	11.742
257.28	5.495
257.65	9.574
258.02	14.780
258.39	11.037
258.76	11.149
259.14	10.185
259.51	12.787
259.88	11.890
260.25	13.665
260.62	9.003
260.99	10.089
261.36	13.415
261.73	11.850
262.10	14.444
262.47	9.117
262.85	15.143
263.22	9.456
263.59	9.846
263.96	11.304
264.33	10.298
264.70	11.878
265.07	13.187
265.44	10.853
265.81	13.953
266.18	11.139
266.55	9.804
266.92	12.594
267.29	12.591
267.66	11.111
268.03	11.353
268.40	10.329
268.77	12.289
269.14	9.513
269.51	12.874
269.88	10.092
270.25	9.091
270.62	10.297
270.99	13.514
271.36	11.888
271.73	10.538
272.10	11.670
272.47	12.000
272.84	13.778
273.21	11.697
273.58	10.989
273.95	9.211
274.32	14.027
274.69	13.786
275.06	12.474
275.43	10.938
275.80	12.424
276.17	10.460
276.54	12.220
276.91	11.934
277.28	11.156
277.65	12.810
278.02	13.152
278.39	11.788
278.76	13.745
279.13	12.253
279.50	12.326
279.87	12.896
280.23	10.324
280.60	12.326
280.97	12.427
281.34	15.087
281.71	11.923
282.08	11.492
282.45	10.998
282.82	10.853
283.19	13.273
283.56	12.271
283.92	13.958
284.29	12.082
284.66	12.410
285.03	13.369
285.40	13.469
285.77	14.211
286.14	13.177
286.51	11.545
286.87	12.160
287.24	14.164
287.61	11.570
287.98	11.265
288.35	11.074
288.72	12.564
289.08	10.847
289.45	13.973
289.82	11.765
290.19	15.599
290.56	11.736
290.93	11.765
291.29	11.183
291.66	11.111
292.03	14.600
292.40	13.855
292.77	12.112
293.13	13.171
293.50	13.373
293.87	11.196
294.24	13.122
294.60	11.364
294.97	14.568
295.34	12.889
295.71	12.798
296.08	12.442
296.44	11.302
296.81	12.393
297.18	13.239
297.55	13.983
297.91	14.644
298.28	13.562
298.65	12.692
299.02	14.037
299.38	13.904
299.75	12.228
300.12	13.590
300.48	15.729
300.85	12.582
301.22	13.583
301.59	13.004
301.95	15.239
302.32	13.168
302.69	12.974
303.05	14.408
303.42	13.750
303.79	13.397
304.15	13.744
304.52	13.886
304.89	13.223
305.25	13.797
305.62	12.573
305.99	13.074
306.35	15.094
306.72	13.554
307.09	14.983
307.45	14.302
307.82	12.179
308.19	15.101
308.55	13.181
308.92	12.782
309.29	14.703
309.65	12.937
310.02	14.147
310.38	12.865
310.75	14.652
311.12	14.979
311.48	13.570
311.85	14.315
312.22	14.109
312.58	15.259
312.95	14.475
313.31	15.285
313.68	16.181
314.05	15.134
314.41	14.185
314.78	15.285
315.14	16.881
315.51	13.779
315.87	15.876
316.24	15.549
316.61	14.971
316.97	16.418
317.34	15.029
317.70	14.842
318.07	15.485
318.43	15.543
318.80	16.432
319.16	16.417
319.53	15.789
319.89	14.958
320.26	17.157
320.62	15.481
320.99	16.915
321.35	16.453
321.72	15.148
322.08	16.222
322.45	15.941
322.81	17.771
323.18	17.963
323.54	17.468
323.91	17.331
324.27	18.536
324.64	17.733
325.00	19.546
325.37	19.186
325.73	19.510
326.10	17.892
326.46	21.629
326.83	19.234
327.19	19.766
327.56	22.402
327.92	20.306
328.29	20.952
328.65	20.000
329.01	21.201
329.38	21.945
329.74	22.894
330.11	22.393
330.47	23.161
330.84	24.015
331.20	23.466
331.56	23.519
331.93	23.268
332.29	23.836
332.66	24.583
333.02	24.072
333.38	25.627
333.75	25.467
334.11	24.978
334.48	24.360
334.84	25.809
335.20	24.557
335.57	26.173
335.93	25.873
336.29	26.129
336.66	25.991
337.02	25.676
337.38	25.045
337.75	24.846
338.11	25.581
338.47	27.135
338.84	25.862
339.20	25.132
339.56	28.342
339.93	25.397
340.29	24.978
340.65	25.787
341.02	24.958
341.38	26.706
341.74	25.487
342.11	25.256
342.47	25.923
342.83	25.609
343.20	26.473
343.56	25.224
343.92	27.629
344.28	27.586
344.65	25.743
345.01	25.966
345.37	27.907
345.73	25.777
346.10	24.448
346.46	26.807
346.82	25.020
347.19	25.308
347.55	24.398
347.91	27.480
348.27	25.776
348.63	26.494
349.00	27.765
349.36	25.605
349.72	27.070
350.08	26.303
350.45	25.768
350.81	26.513
351.17	25.884
351.53	25.617
351.89	27.162
352.26	25.969
352.62	26.959
352.98	26.266
353.34	25.819
353.70	25.251
354.07	27.144
354.43	26.087
354.79	26.704
355.15	25.719
355.51	26.328
355.87	26.719
356.24	25.020
356.60	27.075
356.96	26.328
357.32	25.970
357.68	25.900
358.04	25.866
358.40	25.831
358.77	26.662
359.13	25.784
359.49	26.455
359.85	26.601
360.21	26.104
360.57	26.883
360.93	27.926
361.29	27.130
361.66	26.829
362.02	26.331
362.38	27.146
362.74	26.593
363.10	25.466
363.46	28.989
363.82	26.822
364.18	27.135
364.54	28.306
364.90	26.625
365.26	26.462
365.62	27.798
365.98	27.454
366.35	27.535
366.71	26.638
367.07	27.735
367.43	27.728
367.79	28.179
368.15	27.240
368.51	28.322
368.87	28.777
369.23	28.140
369.59	28.542
369.95	29.175
370.31	28.481
370.67	27.477
371.03	28.571
371.39	27.086
371.75	28.612
372.11	28.623
372.47	27.693
372.83	30.389
373.19	28.071
373.55	28.642
373.91	29.303
374.27	29.158
374.63	28.847
374.99	30.737
375.35	29.004
375.71	30.317
376.07	29.911
376.42	29.470
376.78	29.935
377.14	30.508
377.50	29.916
377.86	29.974
378.22	30.465
378.58	29.895
378.94	30.025
379.30	30.104
379.66	30.540
380.02	29.947
380.38	30.151
380.74	30.363
381.09	30.346
381.45	31.802
381.81	30.732
382.17	29.887
382.53	30.942
382.89	31.280
383.25	32.029
383.61	31.014
383.97	31.537
384.32	31.852
384.68	31.983
385.04	32.186
385.40	32.258
385.76	32.622
386.12	31.793
386.48	32.673
386.83	32.147
387.19	32.995
387.55	32.647
387.91	32.899
388.27	32.328
388.62	32.993
388.98	32.283
389.34	32.864
389.70	33.130
390.06	32.070
390.42	33.846
390.77	33.502
391.13	34.472
391.49	33.250
391.85	33.666
392.20	32.828
392.56	33.659
392.92	33.542
393.28	33.639
393.64	34.035
393.99	33.477
394.35	33.881
394.71	33.292
395.07	34.589
395.42	33.135
395.78	33.312
396.14	34.081
396.50	34.128
396.85	34.485
397.21	33.961
397.57	35.015
397.92	34.251
398.28	34.222
398.64	33.432
399.00	34.213
399.35	34.216
399.71	34.379
400.07	34.866
400.42	34.793
400.78	33.572
401.14	34.371
401.49	34.788
401.85	34.838
402.21	33.969
402.57	34.163
402.92	34.991
403.28	33.885
403.63	33.433
403.99	33.686
404.35	34.420
404.70	34.114
405.06	34.198
405.42	33.764
405.77	34.219
406.13	34.355
406.49	34.512
406.84	34.613
407.20	34.806
407.55	35.149
407.91	34.003
408.27	34.559
408.62	34.696
408.98	34.324
409.34	34.796
409.69	34.720
410.05	35.233
410.40	35.009
410.76	35.507
411.11	35.224
411.47	34.271
411.83	34.535
412.18	34.344
412.54	34.045
412.89	35.358
413.25	34.061
413.60	33.961
413.96	34.134
414.31	34.801
414.67	35.111
415.03	34.217
415.38	34.808
415.74	36.276
416.09	34.335
416.45	35.317
416.80	34.915
417.16	35.017
417.51	36.047
417.87	36.181
418.22	36.030
418.58	35.302
418.93	36.481
419.29	34.755
419.64	35.427
420.00	36.756
420.35	35.659
420.71	36.735
421.06	35.562
421.42	34.836
421.77	36.572
422.12	36.598
422.48	36.077
422.83	35.421
423.19	36.192
423.54	35.793
423.90	35.859
424.25	35.577
424.61	36.731
424.96	37.098
425.31	37.060
425.67	37.307
426.02	35.743
426.38	37.205
426.73	36.411
427.09	37.377
427.44	37.216
427.79	36.686
428.15	37.822
428.50	37.654
428.85	37.650
429.21	37.742
429.56	37.031
429.92	36.974
430.27	36.590
430.62	38.088
430.98	36.487
431.33	37.567
431.68	38.552
432.04	38.388
432.39	38.063
432.74	37.890
433.10	38.436
433.45	38.054
433.80	38.354
434.16	38.098
434.51	39.233
434.86	38.899
435.22	38.864
435.57	38.127
435.92	37.456
436.28	40.297
436.63	38.836
436.98	38.144
437.34	38.807
437.69	39.265
438.04	38.571
438.39	39.651
438.75	38.708
439.10	38.923
439.45	38.986
439.81	38.614
440.16	38.898
440.51	40.176
440.86	40.023
441.22	38.308
441.57	40.368
441.92	39.744
442.27	38.690
442.63	39.861
442.98	40.745
443.33	39.703
443.68	39.708
444.03	40.177
444.39	39.452
444.74	41.189
445.09	39.693
445.44	39.786
445.79	40.490
446.15	40.088
446.50	39.249
446.85	40.995
447.20	39.326
447.55	40.552
447.91	40.764
448.26	40.112
448.61	40.181
448.96	41.064
449.31	39.853
449.66	41.786
450.02	40.554
450.37	40.812
450.72	39.322
451.07	41.609
451.42	40.397
451.77	40.814
452.12	40.226
452.47	41.751
452.83	40.769
453.18	41.556
453.53	41.231
453.88	42.165
454.23	40.326
454.58	42.076
454.93	41.562
455.28	42.702
455.63	40.172
455.98	41.566
456.34	41.042
456.69	42.964
457.04	42.348
457.39	41.806
457.74	41.465
458.09	41.879
458.44	42.206
458.79	41.984
459.14	41.301
459.49	42.806
459.84	42.664
460.19	42.124
460.54	41.561
460.89	41.031
461.24	42.866
461.59	42.673
461.94	41.566
462.29	43.180
462.64	43.281
462.99	43.708
463.34	41.391
463.69	43.003
464.04	41.535
464.39	42.294
464.74	41.667
465.09	42.213
465.44	43.091
465.79	42.132
466.14	42.808
466.49	42.026
466.84	43.277
467.19	43.267
467.54	42.278
467.89	43.157
468.24	42.933
468.59	43.848
468.94	43.859
469.29	43.210
469.64	42.318
469.99	43.687
470.34	43.019
470.68	43.459
471.03	44.322
471.38	43.403
471.73	45.105
472.08	43.307
472.43	44.208
472.78	43.933
473.13	43.671
473.48	44.097
473.83	44.293
474.17	43.694
474.52	46.611
474.87	44.231
475.22	43.422
475.57	42.333
475.92	44.438
476.27	43.371
476.61	43.662
476.96	44.550
477.31	43.272
477.66	43.664
478.01	44.192
478.36	44.212
478.70	43.887
479.05	43.916
479.40	44.301
479.75	43.986
480.10	43.601
480.45	43.472
480.79	44.571
481.14	44.957
481.49	44.482
481.84	44.059
482.19	43.947
482.53	44.839
482.88	43.569
483.23	44.977
483.58	45.051
483.92	44.195
484.27	43.996
484.62	44.233
484.97	44.037
485.31	42.720
485.66	41.747
486.01	41.636
486.36	42.666
486.70	43.919
487.05	43.055
487.40	43.563
487.75	43.150
488.09	43.051
488.44	44.114
488.79	43.721
489.13	44.504
489.48	44.454
489.83	45.240
490.17	44.710
490.52	46.422
490.87	45.543
491.22	45.213
491.56	44.583
491.91	45.229
492.26	44.811
492.60	45.005
492.95	45.359
493.30	46.022
493.64	45.087
493.99	46.176
494.34	46.048
494.68	47.753
495.03	44.837
495.37	46.362
495.72	46.267
496.07	45.519
496.41	46.503
496.76	45.982
497.11	45.360
497.45	46.169
497.80	46.023
498.14	46.120
498.49	46.359
498.84	45.971
499.18	46.979
499.53	46.858
499.87	45.319
500.22	46.716
500.56	47.524
500.91	47.143
501.26	47.501
501.60	47.135
501.95	46.667
502.29	46.481
502.64	46.676
502.98	46.430
503.33	46.147
503.67	46.935
504.02	46.306
504.36	47.010
504.71	47.214
505.06	46.131
505.40	46.058
505.75	47.205
506.09	47.674
506.44	46.266
506.78	47.115
507.13	47.580
507.47	48.565
507.82	47.496
508.16	46.321
508.51	46.780
508.85	47.930
509.19	48.142
509.54	48.150
509.88	47.234
510.23	48.113
510.57	48.254
510.92	49.302
511.26	47.847
511.61	47.840
511.95	47.953
512.30	48.378
512.64	47.579
512.98	48.625
513.33	48.215
513.67	48.185
514.02	48.602
514.36	48.089
514.70	48.557
515.05	49.114
515.39	49.077
515.74	49.389
516.08	48.818
516.42	48.839
516.77	49.278
517.11	48.455
517.46	48.864
517.80	49.278
518.14	49.396
518.49	50.389
518.83	48.724
519.17	49.734
519.52	48.525
519.86	49.462
520.20	50.917
520.55	49.538
520.89	50.344
521.23	50.000
521.58	49.655
521.92	51.805
522.26	50.540
522.61	50.000
522.95	50.223
523.29	51.285
523.64	50.531
523.98	50.477
524.32	49.843
524.66	48.199
525.01	50.674
525.35	51.933
525.69	49.837
526.04	50.131
526.38	50.987
526.72	49.681
527.06	50.000
527.41	50.957
527.75	49.637
528.09	50.695
528.43	50.230
528.78	50.188
529.12	50.384
529.46	50.193
529.80	51.453
530.15	52.028
530.49	50.194
530.83	51.539
531.17	50.572
531.51	51.976
531.86	49.243
532.20	50.202
532.54	51.805
532.88	50.461
533.22	50.000
533.57	50.131
533.91	48.752
534.25	48.649
534.59	49.157
534.93	49.969
535.27	49.150
535.62	50.448
535.96	50.097
536.30	50.065
536.64	49.336
536.98	51.907
537.32	50.242
537.66	49.830
538.01	51.203
538.35	49.257
538.69	50.668
539.03	49.763
539.37	48.969
539.71	51.301
540.05	50.514
540.39	50.485
540.73	50.449
541.07	51.161
541.42	50.574
541.76	48.970
542.10	50.034
542.44	49.634
542.78	50.814
543.12	48.948
543.46	50.616
543.80	49.431
544.14	50.369
544.48	50.656
544.82	50.338
545.16	49.698
545.50	48.520
545.84	49.722
546.18	51.110
546.52	50.356
546.86	50.712
547.20	51.336
547.54	49.518
547.88	50.896
548.22	49.017
548.56	50.568
548.90	49.528
549.24	50.666
549.58	49.753
549.92	51.802
550.26	52.240
550.60	50.356
550.94	52.044
551.28	52.295
551.62	50.074
551.96	51.447
552.30	49.965
552.64	50.950
552.98	51.787
553.32	51.948
553.66	52.343
554.00	50.959
554.34	51.408
554.68	50.292
555.02	50.362
555.36	50.467
555.69	51.218
556.03	51.018
556.37	50.427
556.71	51.181
557.05	51.589
557.39	51.448
557.73	50.547
558.07	51.846
558.41	51.683
558.75	52.471
559.08	50.973
559.42	52.450
559.76	52.454
560.10	52.051
560.44	51.806
560.78	51.287
561.12	50.518
561.45	51.575
561.79	51.150
562.13	50.140
562.47	49.300
562.81	50.707
563.15	48.705
563.48	51.209
563.82	51.318
564.16	50.372
564.50	49.798
564.84	50.595
565.17	51.459
565.51	50.391
565.85	51.589
566.19	51.779
566.52	50.489
566.86	49.494
567.20	49.879
567.54	49.557
567.88	47.962
568.21	49.497
568.55	47.826
568.89	46.223
569.23	48.172
569.56	46.070
569.90	46.814
570.24	47.088
570.57	45.835
570.91	45.563
571.25	46.012
571.59	44.708
571.92	45.030
572.26	45.386
572.60	45.703
572.93	44.193
573.27	45.061
573.61	44.193
573.95	43.986
574.28	44.459
574.62	44.103
574.96	44.167
575.29	44.766
575.63	43.961
575.97	43.959
576.30	43.711
576.64	44.151
576.98	43.419
577.31	43.170
577.65	43.950
577.98	43.513
578.32	43.675
578.66	43.423
578.99	44.065
579.33	44.235
579.67	44.205
580.00	43.552
580.34	44.007
580.67	43.932
581.01	43.716
581.35	43.257
581.68	43.378
582.02	43.363
582.35	43.381
582.69	44.194
583.02	44.540
583.36	43.446
583.70	44.393
584.03	43.992
584.37	43.870
584.70	43.933
585.04	43.848
585.37	43.628
585.71	43.033
586.04	43.997
586.38	43.812
586.72	43.687
587.05	44.662
587.39	44.141
587.72	44.863
588.06	44.649
588.39	44.631
588.73	44.387
589.06	44.949
589.40	45.242
589.73	45.467
590.07	45.229
590.40	44.797
590.73	46.222
591.07	45.410
591.40	47.054
591.74	46.090
592.07	46.802
592.41	46.072
592.74	45.619
593.08	45.383
593.41	44.441
593.75	45.038
594.08	46.010
594.41	45.139
594.75	45.489
595.08	45.714
595.42	46.098
595.75	45.865
596.09	46.721
596.42	46.890
596.75	46.874
597.09	46.839
597.42	46.835
597.75	46.058
598.09	46.182
598.42	45.868
598.76	45.183
599.09	45.501
599.42	45.329
599.76	45.074
600.09	45.458
600.42	45.727
600.76	45.612
601.09	45.461
601.42	45.786
601.76	46.340
602.09	45.930
602.42	46.132
602.76	45.617
603.09	45.887
603.42	45.528
603.76	46.550
604.09	45.775
604.42	45.296
604.76	46.228
605.09	46.429
605.42	46.764
605.75	46.184
606.09	46.036
606.42	45.873
606.75	45.041
607.09	46.625
607.42	46.523
607.75	46.976
608.08	46.091
608.42	47.304
608.75	46.869
609.08	46.469
609.41	46.736
609.75	46.465
610.08	47.255
610.41	46.940
610.74	47.292
611.07	47.515
611.41	46.646
611.74	47.404
612.07	47.583
612.40	47.122
612.73	47.227
613.07	47.386
613.40	49.261
613.73	48.338
614.06	47.172
614.39	48.365
614.72	46.927
615.06	45.924
615.39	47.151
615.72	48.235
616.05	46.273
616.38	48.056
616.71	48.589
617.05	49.759
617.38	48.978
617.71	49.079
618.04	49.006
618.37	47.610
618.70	48.696
619.03	48.544
619.36	51.092
619.69	51.256
620.03	47.590
620.36	50.352
620.69	50.826
621.02	49.772
621.35	51.532
621.68	51.803
622.01	52.670
622.34	51.320
622.67	51.641
623.00	50.650
623.33	50.896
623.66	49.040
623.99	49.398
624.32	50.223
624.65	50.478
624.99	48.842
625.32	49.401
625.65	50.894
625.98	51.095
626.31	52.692
626.64	51.046
626.97	53.425
627.30	52.255
627.63	51.986
627.96	52.393
628.29	53.768
628.62	51.385
628.95	54.232
629.28	53.008
629.61	53.189
629.94	53.308
630.26	54.175
630.59	55.075
630.92	53.654
631.25	54.536
631.58	53.439
631.91	52.340
632.24	54.222
632.57	54.111
632.90	56.667
633.23	55.023
633.56	52.865
633.89	55.189
634.22	54.073
634.55	55.409
634.88	54.897
635.20	55.306
635.53	56.489
635.86	54.660
636.19	56.044
636.52	53.644
636.85	54.874
637.18	54.750
637.51	55.886
637.83	57.390
638.16	57.368
638.49	58.069
638.82	56.242
639.15	56.291
639.48	54.475
639.81	56.708
640.13	55.946
640.46	58.262
640.79	58.263
641.12	59.238
641.45	58.680
641.77	59.731
642.10	57.553
642.43	57.511
642.76	58.740
643.09	58.413
643.41	58.571
643.74	59.141
644.07	59.594
644.40	58.671
644.73	59.076
645.05	58.598
645.38	58.775
645.71	61.168
646.04	61.176
646.36	59.511
646.69	58.478
647.02	61.552
647.35	59.206
647.67	59.307
648.00	59.578
648.33	61.046
648.66	55.645
648.98	56.210
649.31	57.846
649.64	60.000
649.96	56.986
650.29	57.049
650.62	58.520
650.94	54.975
651.27	57.712
651.60	58.131
651.92	58.390
652.25	55.259
652.58	57.240
652.90	56.661
653.23	56.452
653.56	55.853
653.88	57.541
654.21	57.886
654.54	57.309
654.86	54.093
655.19	54.155
655.52	48.602
655.84	43.055
656.17	45.691
656.49	61.841
656.82	63.474
657.15	47.695
657.47	35.511
657.80	27.665
658.13	31.437
658.45	42.852
658.78	41.549
659.10	41.644
659.43	41.427
659.75	42.565
660.08	43.438
660.41	43.974
660.73	49.285
661.06	54.928
661.38	59.643
661.71	61.568
662.03	61.290
662.36	61.834
662.68	55.907
663.01	60.510
663.33	62.585
663.66	60.300
663.98	59.375
664.31	61.074
664.63	60.177
664.96	60.954
665.28	59.653
665.61	58.562
665.93	58.848
666.26	57.895
666.58	60.083
666.91	60.579
667.23	57.456
667.56	60.771
667.88	61.538
668.21	60.599
668.53	62.850
668.86	61.894
669.18	59.817
669.50	61.215
669.83	61.800
670.15	59.865
670.48	61.449
670.80	57.175
671.13	56.885
671.45	60.811
671.77	62.527
672.10	57.199
672.42	57.565
672.75	55.636
673.07	55.315
673.39	54.281
673.72	57.283
674.04	57.537
674.37	56.289
674.69	59.016
675.01	55.319
675.34	59.870
675.66	59.395
675.98	58.811
676.31	60.860
676.63	61.379
676.95	60.177
677.28	60.789
677.60	60.860
677.92	58.590
678.25	60.175
678.57	56.584
678.89	55.136
679.22	60.168
679.54	58.974
679.86	55.200
680.18	56.274
680.51	55.121
680.83	54.857
681.15	56.647
681.48	60.446
681.80	56.855
682.12	55.332
682.44	55.992
682.77	57.792
683.09	56.394
683.41	56.195
683.73	58.219
684.06	54.624
684.38	58.787
684.70	56.996
685.02	57.480
685.34	55.556
685.67	54.167
685.99	54.820
686.31	55.117
686.63	52.837
686.96	52.680
687.28	54.143
687.60	56.445
687.92	51.751
688.24	53.346
688.56	51.703
688.89	54.274
689.21	56.018
689.53	62.069
689.85	58.352
690.17	56.726
690.49	58.661
690.82	59.277
691.14	57.783
691.46	55.876
691.78	59.471
692.10	56.992
692.42	59.111
692.74	52.790
693.06	57.528
693.39	55.705
693.71	57.336
694.03	57.451
694.35	55.305
694.67	56.974
694.99	54.220
695.31	57.653
695.63	53.827
695.95	53.598
696.27	56.110
696.59	56.150
696.91	58.146
697.23	58.333
697.56	57.212
697.88	55.631
698.20	52.034
698.52	51.570
698.84	56.553
699.16	52.143
699.48	53.750
699.80	58.145
700.12	57.179
700.44	52.235
700.76	53.936
701.08	55.523
701.40	55.589
701.72	62.654
702.04	61.218
702.36	57.530
702.68	60.479
703.00	60.870
703.32	55.874
703.64	61.765
703.96	56.977
704.28	58.876
704.60	55.696
704.91	58.413
705.23	59.547
705.55	60.811
705.87	60.410
706.19	57.292
706.51	58.333
706.83	65.246
707.15	57.643
707.47	58.953
707.79	55.670
708.11	52.672
708.43	58.603
708.74	56.104
709.06	52.646
709.38	55.172
709.70	57.500
710.02	57.362
710.34	56.766
710.66	56.190
710.98	58.675
711.29	56.452
711.61	56.869
711.93	56.066
712.25	56.811
712.57	54.355
712.89	58.993
713.20	58.076
713.52	54.104
713.84	58.363
714.16	53.770
714.48	57.778
714.80	56.923
715.11	53.602
715.43	58.133
715.75	54.206
716.07	52.787
716.39	55.518
716.70	53.659
717.02	59.630
717.34	56.489
717.66	61.826
717.97	53.279
718.29	64.706
718.61	59.524
718.93	51.613
719.24	55.515
719.56	49.811
719.88	56.000
720.20	51.685
720.51	57.895
720.83	59.839
721.15	61.885
721.46	56.471
721.78	54.789
722.10	59.200
722.42	54.545
722.73	56.574
723.05	60.643
723.37	55.686
723.68	53.441
724.00	56.911
724.32	58.436
724.63	52.282
724.95	53.719
725.27	46.930
725.58	56.034
725.90	53.175
726.22	52.768
726.53	54.373
726.85	49.020
727.16	53.008
727.48	56.154
727.80	51.639
728.11	57.143
728.43	53.306
728.74	56.641
729.06	56.061
729.38	49.027
729.69	55.906
730.01	59.055
730.32	50.199
730.64	52.015
730.96	57.090
731.27	51.786
731.59	54.019
731.90	48.466
732.22	49.693
732.53	55.298
732.85	50.000
733.16	50.362
733.48	51.220
733.80	50.890
734.11	53.103
734.43	51.701
734.74	50.445
735.06	50.470
735.37	50.153
735.69	45.806
736.00	53.199
736.32	54.636
736.63	49.310
736.95	48.913
737.26	50.331
737.58	52.878
737.89	51.971
738.21	53.383
738.52	50.000
738.83	45.703
739.15	51.282
739.46	47.177
739.78	48.601
740.09	52.098
740.41	51.399
740.72	53.650
741.04	50.397
741.35	47.186
741.66	60.185
741.98	54.286
742.29	58.216
742.61	57.219
742.92	57.944
743.23	55.263
743.55	54.955
743.86	49.778
744.18	54.286
744.49	55.172
744.80	52.284
745.12	54.124
745.43	60.302
745.74	53.398
746.06	52.195
746.37	57.269
746.68	59.204
747.00	57.592
747.31	52.885
747.62	53.456
747.94	51.092
748.25	52.558
748.56	55.714
748.88	51.087
749.19	50.704
749.50	58.333
749.82	54.667
750.13	55.947
750.44	56.098
750.75	56.400
751.07	51.071
751.38	49.815
751.69	44.275
752.01	55.000
752.32	50.195
752.63	46.154
752.94	48.016
753.26	53.043
753.57	53.571
753.88	48.276
754.19	46.888
754.51	50.781
754.82	50.988
755.13	48.148
755.44	50.413
755.75	51.440
756.07	49.799
756.38	51.172
756.69	51.625
757.00	46.690
757.31	49.664
757.63	45.483
757.94	44.509
758.25	45.349
758.56	47.978
758.87	49.148
759.18	48.667
759.50	50.890
759.81	44.161
760.12	42.230
760.43	53.722
760.74	49.062
761.05	47.191
761.36	50.000
761.67	45.858
761.99	44.839
762.30	52.536
762.61	49.057
762.92	53.812
763.23	50.237
763.54	52.000
763.85	51.055
764.16	47.347
764.47	52.119
764.78	48.689
765.10	51.079
765.41	46.129
765.72	49.371
766.03	43.816
766.34	51.880
766.65	42.915
766.96	45.500
767.27	47.917
767.58	51.163
767.89	46.452
768.20	53.374
768.51	56.284
768.82	48.649
769.13	45.000
769.44	43.421
769.75	51.515
770.06	52.752
770.37	46.009
770.68	50.000
770.99	47.030
771.30	52.427
771.61	50.926
771.92	45.022
772.23	50.000
772.54	45.745
772.85	44.970
773.16	55.488
773.47	54.217
773.78	53.846
774.09	50.000
774.39	58.025
774.70	44.966
775.01	43.478
775.32	50.000
775.63	42.149
775.94	47.368
776.25	50.714
776.56	45.902
776.87	44.248
777.18	53.982
777.48	40.909
777.79	43.478
778.10	44.037
778.41	45.763
778.72	56.198
779.03	44.030
779.34	54.887
779.65	47.059
779.95	56.522
780.26	47.619
780.57	43.966
780.88	55.556
781.19	35.354
781.50	36.000
781.80	48.366
782.11	41.026
782.42	39.157
782.73	47.445
783.04	47.297
783.34	46.970
783.65	46.512
783.96	56.098
784.27	47.009
784.57	39.024
784.88	44.715
785.19	54.386
785.50	36.082
785.81	46.667
786.11	39.216
786.42	50.000
786.73	43.243
787.04	47.525
787.34	40.000
787.65	44.762
787.96	43.137
788.26	48.649
788.57	49.194
788.88	42.969
789.19	46.154
789.49	42.017
789.80	44.444
790.11	41.593
790.41	50.505
790.72	46.226
791.03	36.111
791.33	44.737
791.64	45.161
791.95	50.667
792.25	38.571
792.56	48.780
792.87	40.816
793.17	38.158
793.48	35.135
793.79	23.944
794.09	45.570
794.40	46.809
794.70	48.598
795.01	32.456
795.32	35.455
795.62	41.964
795.93	27.835
796.23	30.769
796.54	44.211
796.85	43.836
797.15	36.111
797.46	35.616
797.76	40.845
798.07	36.250
798.37	52.941
798.68	55.714
798.99	42.857
799.29	31.579
799.60	46.667
799.90	30.556
800.21	12.500
800.51	38.095
800.82	29.508
801.12	45.614
801.43	40.845
801.73	28.814
802.04	44.262
802.34	23.636
802.65	34.615
802.95	37.037
803.26	20.000
803.56	61.538
803.87	26.316
804.17	48.387
804.48	30.769
804.78	33.333
805.09	23.256
805.39	6.250
805.70	16.981
806.00	40.351
806.30	48.649
806.61	38.235
806.91	44.444
807.22	33.333
807.52	34.328
807.83	50.000
808.13	20.635
808.43	29.091
808.74	36.364
809.04	43.396
809.35	35.616
809.65	31.579
809.95	51.471
810.26	27.451
810.56	8.000
810.86	30.612
811.17	34.286
811.47	19.231
811.77	48.387
812.08	2.632
812.38	40.476
812.69	6.522
812.99	32.258
813.29	30.952
813.59	18.519
813.90	12.766
814.20	25.581
814.50	33.333
814.81	18.333
815.11	31.707
815.41	36.667
815.72	40.000
816.02	16.667
816.32	56.410
816.62	21.622
816.93	0.000
817.23	28.261
817.53	47.059
817.84	47.059
818.14	25.000
818.44	13.793
818.74	22.581
819.04	18.519
819.35	36.667
819.65	20.000
819.95	30.000
820.25	52.000
820.56	13.158
820.86	30.000
821.16	40.426
821.46	27.586
821.76	7.692
822.07	2.500
822.37	25.581
822.67	20.000
822.97	-2.703
823.27	40.541
823.57	80.000
823.88	37.838
824.18	-47.619
824.48	0.000
824.78	23.077
825.08	26.087
825.38	4.167
825.69	0.000
825.99	25.000
826.29	-21.622
826.59	5.882
826.89	44.000
827.19	11.429
827.49	42.105
827.79	-6.250
828.09	30.000
828.39	21.739
828.70	-17.241
829.00	13.793
829.30	2.778
829.60	46.875
829.90	22.222
830.20	11.538
830.50	-14.286
830.80	-21.429
831.10	35.897
831.40	-28.571
831.70	32.353
832.00	16.667
832.30	-15.789
832.60	-37.500
832.90	-50.000
833.20	-17.647
833.50	-80.000
833.80	33.333
834.10	-25.000
834.40	16.667
834.70	-5.556
835.00	30.769
835.30	0.000
835.60	24.138
835.90	-22.222
836.20	-36.364
836.50	-33.333
836.80	11.429
837.10	71.429
837.40	23.529
837.70	-54.545
838.00	12.500
838.30	31.250
838.60	-4.762
838.90	0.000
839.19	-13.043
839.49	21.739
839.79	-66.667
840.09	0.000
840.39	31.818
840.69	-50.000
840.99	21.053
841.29	-37.500
841.59	-7.143
841.88	-11.111
842.18	-45.833
842.48	-100.000
842.78	-10.345
843.08	-35.714
843.38	-15.385
843.68	-111.111
843.97	-61.538
844.27	-154.545
844.57	-160.000
844.87	48.000
845.17	-80.000
845.47	-57.143
845.76	-155.556
846.06	0.000
846.36	-350.000
846.66	-130.000
846.96	-31.579
847.25	-58.333
847.55	-16.667
847.85	-13.333
848.15	-30.000
848.44	11.538
848.74	42.105
849.04	466.667
849.34	11.111
849.63	-47.368
849.93	0.000
850.23	-25.000
850.53	-57.143
850.82	-16.000
851.12	0.000
851.42	-500.000
851.71	21.429
852.01	-16.667
852.31	29.412
852.61	0.000
852.90	-28.571
853.20	-116.667
853.50	11.111
853.79	-31.579
854.09	6.667
854.39	14.286
854.68	43.478
854.98	-166.667
855.28	20.690
855.57	-25.000
855.87	-45.000
856.17	-6.667
856.46	20.690
856.76	-40.000
857.05	5.882
857.35	-92.308
857.65	-9.091
857.94	-18.519
858.24	-85.714
858.53	-92.857
858.83	-50.000
859.13	-33.333
859.42	42.857
859.72	-125.000
860.01	-300.000
860.31	-100.000
860.60	-240.000
860.90	-55.556
861.20	-87.500
861.49	-57.143
861.79	-23.529
862.08	-450.000
862.38	-116.667
862.67	15.385
862.97	0.000
863.26	-15.000
863.56	-35.294
863.85	500.000
864.15	-100.000
864.44	-23.077
864.74	-15.000
865.03	-137.500
865.33	-100.000
865.62	-41.176
865.92	-500.000
866.21	-50.000
866.51	-83.333
866.80	-1900.000
867.10	-300.000
867.39	-41.176
867.69	4.348
867.98	-85.714
868.27	-240.000
868.57	-37.500
868.86	-163.636
869.16	-17.647
869.45	-83.333
869.75	-28.571
870.04	200.000
870.33	16.667
870.63	-140.000
870.92	0.000
871.22	-58.333
871.51	-54.545
871.80	-8.333
872.10	-20.000
>>>>>End Processed Spectral Data<<<<<
