SpectraSuite Data File
++++++++++++++++++++++++++++++++++++
Date: Sat May 16 11:21:50 PDT 2015
User: schluterlab
Dark Spectrum Present: Yes
Reference Spectrum Present: Yes
Number of Sampled Component Spectra: 1
Spectrometers: USB2E3373
Integration Time (usec): 3000 (USB2E3373)
Spectra Averaged: 3 (USB2E3373)
Boxcar Smoothing: 0 (USB2E3373)
Correct for Electrical Dark: No (USB2E3373)
Strobe/Lamp Enabled: No (USB2E3373)
Correct for Detector Non-linearity: No (USB2E3373)
Correct for Stray Light: No (USB2E3373)
Number of Pixels in Processed Spectrum: 2048
>>>>>Begin Processed Spectral Data<<<<<
178.53	0.000
178.91	146.667
179.29	400.000
179.67	-400.000
180.04	-138.462
180.42	800.000
180.80	650.000
181.18	275.000
181.56	-75.000
181.94	1000.000
182.31	475.000
182.69	-69.231
183.07	-466.667
183.45	1300.000
183.83	500.000
184.20	-142.857
184.58	-212.500
184.96	-400.000
185.34	131.250
185.72	-325.000
186.09	250.000
186.47	-112.500
186.85	-112.500
187.23	0.000
187.61	-25.000
187.98	-225.000
188.36	-75.000
188.74	-100.000
189.12	1200.000
189.49	285.714
189.87	-58.333
190.25	100.000
190.63	-28.571
191.00	-222.222
191.38	360.000
191.76	0.000
192.14	620.000
192.51	-40.000
192.89	-400.000
193.27	0.000
193.65	-88.889
194.02	-371.429
194.40	433.333
194.78	-120.000
195.15	-1500.000
195.53	-118.182
195.91	-466.667
196.29	160.000
196.66	-533.333
197.04	2300.000
197.42	-200.000
197.79	-40.000
198.17	-66.667
198.55	-250.000
198.92	100.000
199.30	175.000
199.68	-650.000
200.05	-133.333
200.43	-155.556
200.81	-1400.000
201.18	-141.667
201.56	242.857
201.94	-33.333
202.31	0.000
202.69	-90.000
203.07	-100.000
203.44	433.333
203.82	-316.667
204.19	-525.000
204.57	75.000
204.95	-600.000
205.32	-6.250
205.70	700.000
206.08	-1000.000
206.45	-83.333
206.83	-150.000
207.20	-100.000
207.58	-700.000
207.96	-733.333
208.33	-200.000
208.71	-55.556
209.08	190.000
209.46	-228.571
209.84	850.000
210.21	0.000
210.59	20.000
210.96	700.000
211.34	-250.000
211.71	-33.333
212.09	375.000
212.46	650.000
212.84	-2400.000
213.22	666.667
213.59	91.667
213.97	-22.222
214.34	190.000
214.72	0.000
215.09	-233.333
215.47	-16.667
215.84	-60.000
216.22	30.000
216.59	73.333
216.97	-500.000
217.34	850.000
217.72	-85.714
218.09	-150.000
218.47	-114.286
218.84	314.286
219.22	-114.286
219.59	0.000
219.97	57.143
220.34	425.000
220.72	25.000
221.09	-46.154
221.47	0.000
221.84	266.667
222.22	-250.000
222.59	700.000
222.97	-187.500
223.34	-850.000
223.72	-166.667
224.09	-107.143
224.46	-400.000
224.84	-28.571
225.21	14.286
225.59	-90.909
225.96	-137.500
226.34	-142.857
226.71	-122.222
227.08	-55.000
227.46	2500.000
227.83	-85.714
228.21	-300.000
228.58	300.000
228.95	-56.250
229.33	-2300.000
229.70	-80.000
230.08	-700.000
230.45	-8.333
230.82	-133.333
231.20	-800.000
231.57	-200.000
231.95	1300.000
232.32	-14.286
232.69	-77.778
233.07	-242.857
233.44	-900.000
233.81	-53.333
234.19	-111.111
234.56	-75.000
234.93	28.125
235.31	-114.286
235.68	-100.000
236.05	11.765
236.43	-4.545
236.80	-45.161
237.17	-20.833
237.55	-47.619
237.92	-68.182
238.29	-22.857
238.67	5.882
239.04	5.556
239.41	-29.032
239.79	-30.769
240.16	-23.810
240.53	-12.727
240.91	0.000
241.28	9.091
241.65	21.538
242.02	29.508
242.40	-6.557
242.77	12.121
243.14	-3.390
243.51	-7.143
243.89	10.127
244.26	13.483
244.63	18.947
245.00	14.737
245.38	12.712
245.75	10.619
246.12	14.400
246.49	18.110
246.87	12.195
247.24	6.780
247.61	2.542
247.98	15.493
248.36	8.392
248.73	18.354
249.10	14.013
249.47	14.035
249.84	15.909
250.22	-0.595
250.59	18.079
250.96	11.518
251.33	18.483
251.70	16.346
252.08	15.640
252.45	14.692
252.82	18.095
253.19	13.617
253.56	16.129
253.94	14.768
254.31	16.738
254.68	17.480
255.05	15.726
255.42	18.254
255.79	15.054
256.16	16.863
256.54	18.015
256.91	13.636
257.28	10.256
257.65	14.184
258.02	20.126
258.39	13.712
258.76	13.851
259.14	12.963
259.51	17.705
259.88	15.549
260.25	16.149
260.62	12.862
260.99	13.056
261.36	19.512
261.73	14.740
262.10	17.222
262.47	15.385
262.85	16.571
263.22	16.046
263.59	14.154
263.96	18.551
264.33	19.783
264.70	19.337
265.07	16.209
265.44	15.762
265.81	14.212
266.18	12.405
266.55	18.137
266.92	16.373
267.29	17.433
267.66	17.284
268.03	18.841
268.40	15.728
268.77	13.253
269.14	16.009
269.51	17.241
269.88	12.385
270.25	15.385
270.62	16.247
270.99	14.865
271.36	16.317
271.73	15.247
272.10	16.476
272.47	15.778
272.84	16.889
273.21	16.284
273.58	14.945
273.95	17.105
274.32	14.480
274.69	17.505
275.06	17.587
275.43	17.634
275.80	19.552
276.17	14.226
276.54	17.312
276.91	16.461
277.28	17.039
277.65	16.116
278.02	17.537
278.39	17.878
278.76	14.940
279.13	15.217
279.50	14.513
279.87	13.953
280.23	15.385
280.60	15.308
280.97	14.951
281.34	15.474
281.71	16.538
282.08	14.718
282.45	16.701
282.82	15.116
283.19	14.909
283.56	16.117
283.92	15.901
284.29	13.383
284.66	15.288
285.03	14.973
285.40	16.790
285.77	15.439
286.14	15.162
286.51	15.808
286.87	15.608
287.24	15.870
287.61	16.364
287.98	14.558
288.35	13.223
288.72	12.733
289.08	12.034
289.45	15.993
289.82	11.938
290.19	14.778
290.56	14.050
290.93	13.831
291.29	15.397
291.66	14.654
292.03	16.327
292.40	14.759
292.77	15.994
293.13	13.984
293.50	13.967
293.87	14.877
294.24	14.027
294.60	12.121
294.97	14.568
295.34	11.111
295.71	13.690
296.08	11.060
296.44	12.876
296.81	15.100
297.18	12.394
297.55	13.559
297.91	15.342
298.28	14.247
298.65	14.086
299.02	15.107
299.38	13.503
299.75	13.451
300.12	11.923
300.48	13.555
300.85	14.024
301.22	13.583
301.59	13.134
301.95	14.358
302.32	11.343
302.69	12.729
303.05	11.477
303.42	11.500
303.79	12.679
304.15	13.626
304.52	13.536
304.89	13.695
305.25	13.431
305.62	13.514
305.99	14.605
306.35	13.541
306.72	14.123
307.09	15.210
307.45	13.167
307.82	13.184
308.19	12.975
308.55	13.725
308.92	14.286
309.29	13.838
309.65	13.150
310.02	14.471
310.38	13.622
310.75	14.549
311.12	17.252
311.48	16.493
311.85	15.654
312.22	14.830
312.58	15.361
312.95	14.781
313.31	15.684
313.68	17.387
314.05	15.331
314.41	16.398
314.78	16.184
315.14	18.361
315.51	16.312
315.87	18.296
316.24	16.910
316.61	18.522
316.97	19.602
317.34	18.015
317.70	18.275
318.07	20.149
318.43	19.382
318.80	20.751
319.16	19.700
319.53	20.771
319.89	21.731
320.26	20.588
320.62	20.481
320.99	22.090
321.35	19.507
321.72	22.006
322.08	23.541
322.45	22.772
322.81	24.207
323.18	25.264
323.54	25.139
323.91	24.745
324.27	25.856
324.64	25.503
325.00	25.829
325.37	26.063
325.73	28.171
326.10	26.395
326.46	28.897
326.83	28.426
327.19	29.108
327.56	29.387
327.92	30.586
328.29	32.121
328.65	30.000
329.01	32.597
329.38	32.025
329.74	33.059
330.11	32.366
330.47	33.515
330.84	32.447
331.20	33.032
331.56	31.905
331.93	34.636
332.29	37.443
332.66	33.011
333.02	33.937
333.38	35.842
333.75	36.153
334.11	35.822
334.48	35.746
334.84	36.395
335.20	36.613
335.57	36.282
335.93	38.317
336.29	36.404
336.66	36.388
337.02	38.919
337.38	35.918
337.75	35.996
338.11	36.673
338.47	37.100
338.84	37.387
339.20	37.522
339.56	38.859
339.93	37.125
340.29	37.555
340.65	38.374
341.02	37.352
341.38	37.826
341.74	38.103
342.11	36.860
342.47	37.511
342.83	38.287
343.20	38.429
343.56	36.490
343.92	37.479
344.28	39.108
344.65	36.799
345.01	38.067
345.37	38.455
345.73	37.725
346.10	36.631
346.46	37.368
346.82	38.653
347.19	37.305
347.55	36.276
347.91	37.323
348.27	36.436
348.63	38.368
349.00	38.504
349.36	35.675
349.72	38.854
350.08	36.889
350.45	37.904
350.81	37.500
351.17	37.058
351.53	37.152
351.89	37.268
352.26	36.899
352.62	37.634
352.98	37.658
353.34	37.490
353.70	36.680
354.07	39.260
354.43	38.498
354.79	36.926
355.15	38.339
355.51	36.875
355.87	37.391
356.24	37.252
356.60	38.678
356.96	38.029
357.32	37.292
357.68	36.705
358.04	36.644
358.40	38.051
358.77	38.176
359.13	37.414
359.49	37.566
359.85	38.186
360.21	37.519
360.57	36.973
360.93	37.111
361.29	39.686
361.66	37.881
362.02	38.462
362.38	37.638
362.74	37.802
363.10	36.872
363.46	39.174
363.82	38.338
364.18	37.337
364.54	38.456
364.90	37.386
365.26	37.660
365.62	38.275
365.98	38.478
366.35	37.958
366.71	38.125
367.07	38.532
367.43	38.778
367.79	37.663
368.15	37.340
368.51	38.741
368.87	39.629
369.23	38.246
369.59	39.028
369.95	38.830
370.31	39.592
370.67	37.961
371.03	39.504
371.39	38.755
371.75	39.557
372.11	40.387
372.47	38.829
372.83	40.195
373.19	39.429
373.55	40.253
373.91	40.043
374.27	39.630
374.63	39.614
374.99	40.682
375.35	40.242
375.71	40.986
376.07	40.452
376.42	40.397
376.78	41.765
377.14	42.102
377.50	41.586
377.86	41.092
378.22	42.085
378.58	40.828
378.94	41.122
379.30	42.596
379.66	42.016
380.02	40.939
380.38	42.356
380.74	41.911
381.09	41.008
381.45	42.064
381.81	41.198
382.17	42.043
382.53	41.824
382.89	42.703
383.25	42.203
383.61	42.040
383.97	44.091
384.32	43.554
384.68	43.591
385.04	43.056
385.40	43.153
385.76	43.354
386.12	43.785
386.48	44.369
386.83	43.988
387.19	44.830
387.55	44.458
387.91	44.102
388.27	45.115
388.62	44.050
388.98	44.216
389.34	43.452
389.70	43.362
390.06	44.375
390.42	44.551
390.77	45.300
391.13	45.342
391.49	44.853
391.85	45.262
392.20	45.449
392.56	44.777
392.92	45.009
393.28	46.096
393.64	45.159
393.99	45.723
394.35	45.195
394.71	44.842
395.07	46.453
395.42	44.756
395.78	44.312
396.14	45.919
396.50	46.055
396.85	46.453
397.21	46.537
397.57	47.112
397.92	46.663
398.28	46.611
398.64	45.925
399.00	46.517
399.35	46.618
399.71	47.038
400.07	46.627
400.42	46.959
400.78	46.989
401.14	47.126
401.49	47.759
401.85	48.627
402.21	47.974
402.57	48.422
402.92	48.899
403.28	48.529
403.63	45.956
403.99	48.975
404.35	47.947
404.70	47.689
405.06	47.809
405.42	48.032
405.77	47.398
406.13	47.927
406.49	48.292
406.84	49.550
407.20	51.001
407.55	48.702
407.91	47.798
408.27	48.162
408.62	49.429
408.98	49.060
409.34	49.238
409.69	48.834
410.05	48.878
410.40	48.927
410.76	49.378
411.11	49.127
411.47	49.297
411.83	50.917
412.18	50.743
412.54	49.115
412.89	50.608
413.25	50.295
413.60	49.939
413.96	49.353
414.31	50.765
414.67	50.159
415.03	50.000
415.38	51.529
415.74	50.387
416.09	50.703
416.45	51.257
416.80	51.560
417.16	52.292
417.51	53.250
417.87	53.139
418.22	52.971
418.58	52.953
418.93	52.238
419.29	53.639
419.64	52.952
420.00	53.463
420.35	54.287
420.71	54.262
421.06	53.609
421.42	52.576
421.77	53.210
422.12	53.497
422.48	53.608
422.83	54.100
423.19	55.401
423.54	55.216
423.90	54.367
424.25	54.581
424.61	56.273
424.96	57.519
425.31	55.674
425.67	56.332
426.02	55.881
426.38	57.532
426.73	56.750
427.09	56.618
427.44	56.364
427.79	57.616
428.15	58.169
428.50	58.123
428.85	57.074
429.21	57.499
429.56	58.281
429.92	58.367
430.27	57.827
430.62	59.509
430.98	58.233
431.33	58.645
431.68	61.287
432.04	61.332
432.39	61.311
432.74	60.072
433.10	60.495
433.45	60.219
433.80	61.254
434.16	60.290
434.51	61.260
434.86	61.277
435.22	61.971
435.57	62.362
435.92	61.489
436.28	62.789
436.63	60.543
436.98	62.257
437.34	61.843
437.69	62.194
438.04	63.698
438.39	64.380
438.75	62.398
439.10	62.743
439.45	63.609
439.81	63.855
440.16	65.247
440.51	64.706
440.86	63.852
441.22	62.963
441.57	64.263
441.92	64.655
442.27	63.853
442.63	64.753
442.98	64.729
443.33	64.745
443.68	64.617
444.03	64.980
444.39	66.079
444.74	66.795
445.09	66.721
445.44	66.685
445.79	66.956
446.15	65.663
446.50	65.269
446.85	65.367
447.20	66.088
447.55	66.575
447.91	68.108
448.26	66.648
448.61	67.402
448.96	67.619
449.31	66.685
449.66	67.831
450.02	67.922
450.37	68.174
450.72	66.497
451.07	68.699
451.42	67.906
451.77	68.761
452.12	67.819
452.47	68.451
452.83	69.307
453.18	69.639
453.53	69.652
453.88	69.916
454.23	68.984
454.58	71.349
454.93	68.829
455.28	69.790
455.63	69.410
455.98	70.301
456.34	68.615
456.69	70.106
457.04	69.330
457.39	70.813
457.74	70.880
458.09	70.070
458.44	70.843
458.79	69.843
459.14	70.565
459.49	70.574
459.84	70.264
460.19	69.570
460.54	70.357
460.89	70.460
461.24	70.856
461.59	69.988
461.94	71.038
462.29	70.876
462.64	73.188
462.99	72.557
463.34	69.818
463.69	72.455
464.04	70.182
464.39	70.968
464.74	70.981
465.09	69.453
465.44	70.784
465.79	71.066
466.14	71.922
466.49	71.445
466.84	71.669
467.19	71.446
467.54	71.139
467.89	72.256
468.24	71.615
468.59	72.017
468.94	72.219
469.29	72.904
469.64	71.159
469.99	72.721
470.34	73.146
470.68	72.892
471.03	72.608
471.38	70.833
471.73	74.895
472.08	72.423
472.43	73.037
472.78	72.867
473.13	73.824
473.48	73.708
473.83	73.821
474.17	72.102
474.52	74.361
474.87	72.902
475.22	71.799
475.57	73.667
475.92	73.380
476.27	73.143
476.61	72.676
476.96	73.281
477.31	73.358
477.66	72.994
478.01	72.501
478.36	72.656
478.70	74.106
479.05	74.310
479.40	73.005
479.75	72.528
480.10	72.024
480.45	72.050
480.79	73.248
481.14	75.013
481.49	73.185
481.84	72.076
482.19	73.275
482.53	74.574
482.88	72.473
483.23	72.535
483.58	74.144
483.92	75.012
484.27	72.220
484.62	72.225
484.97	72.292
485.31	70.400
485.66	68.959
486.01	68.713
486.36	70.439
486.70	73.192
487.05	71.880
487.40	71.715
487.75	71.449
488.09	72.884
488.44	72.767
488.79	72.232
489.13	73.488
489.48	74.021
489.83	72.969
490.17	72.660
490.52	73.551
490.87	73.256
491.22	71.369
491.56	72.222
491.91	74.332
492.26	72.877
492.60	72.407
492.95	72.109
493.30	71.272
493.64	71.415
493.99	72.849
494.34	72.000
494.68	72.846
495.03	73.088
495.37	73.402
495.72	72.986
496.07	72.689
496.41	73.367
496.76	73.288
497.11	73.057
497.45	72.174
497.80	73.287
498.14	72.446
498.49	71.622
498.84	71.990
499.18	72.271
499.53	72.528
499.87	71.815
500.22	72.402
500.56	72.536
500.91	71.921
501.26	72.198
501.60	72.316
501.95	73.237
502.29	71.658
502.64	71.570
502.98	71.107
503.33	72.039
503.67	72.174
504.02	71.560
504.36	72.402
504.71	72.796
505.06	71.093
505.40	72.804
505.75	73.069
506.09	73.458
506.44	72.481
506.78	71.851
507.13	72.966
507.47	74.074
507.82	72.793
508.16	72.539
508.51	72.952
508.85	73.292
509.19	73.522
509.54	72.886
509.88	72.926
510.23	71.908
510.57	74.074
510.92	73.631
511.26	72.408
511.61	73.542
511.95	71.552
512.30	72.512
512.64	73.567
512.98	73.047
513.33	72.103
513.67	72.808
514.02	73.322
514.36	73.463
514.70	73.005
515.05	74.328
515.39	72.895
515.74	74.753
516.08	73.372
516.42	72.238
516.77	74.350
517.11	72.769
517.46	73.923
517.80	74.007
518.14	73.853
518.49	72.146
518.83	73.175
519.17	73.239
519.52	71.486
519.86	74.552
520.20	74.878
520.55	73.969
520.89	73.075
521.23	72.711
521.58	73.041
521.92	74.668
522.26	74.413
522.61	73.574
522.95	72.750
523.29	73.292
523.64	72.205
523.98	73.647
524.32	72.407
524.66	72.422
525.01	73.089
525.35	74.291
525.69	73.064
526.04	72.389
526.38	73.838
526.72	71.648
527.06	74.740
527.41	72.871
527.75	74.521
528.09	73.858
528.43	71.672
528.78	71.231
529.12	73.624
529.46	72.874
529.80	73.725
530.15	72.312
530.49	70.634
530.83	73.739
531.17	71.987
531.51	71.936
531.86	72.482
532.20	71.862
532.54	72.126
532.88	70.883
533.22	71.324
533.57	72.258
533.91	70.225
534.25	69.076
534.59	68.957
534.93	69.011
535.27	71.240
535.62	71.355
535.96	71.105
536.30	69.634
536.64	70.053
536.98	74.294
537.32	71.596
537.66	70.536
538.01	70.653
538.35	71.351
538.69	68.850
539.03	70.074
539.37	70.126
539.71	68.779
540.05	71.487
540.39	70.222
540.73	69.592
541.07	72.199
541.42	68.602
541.76	67.907
542.10	70.088
542.44	67.955
542.78	69.810
543.12	70.944
543.46	67.466
543.80	68.361
544.14	68.167
544.48	70.013
544.82	70.636
545.16	68.947
545.50	67.833
545.84	68.359
546.18	68.863
546.52	70.128
546.86	70.370
547.20	70.745
547.54	66.598
547.88	68.812
548.22	66.383
548.56	67.735
548.90	67.857
549.24	68.956
549.58	68.454
549.92	68.693
550.26	68.931
550.60	67.923
550.94	68.540
551.28	69.300
551.62	69.055
551.96	66.860
552.30	67.805
552.64	67.206
552.98	68.045
553.32	68.326
553.66	69.575
554.00	69.225
554.34	66.931
554.68	67.471
555.02	67.221
555.36	67.146
555.69	67.264
556.03	67.579
556.37	66.999
556.71	69.291
557.05	67.775
557.39	67.112
557.73	68.271
558.07	69.103
558.41	68.960
558.75	67.148
559.08	67.160
559.42	68.224
559.76	68.021
560.10	67.785
560.44	67.341
560.78	65.692
561.12	67.564
561.45	69.178
561.79	67.108
562.13	66.760
562.47	67.367
562.81	66.124
563.15	66.620
563.48	67.726
563.82	67.613
564.16	66.261
564.50	67.339
564.84	65.146
565.17	66.048
565.51	66.688
565.85	67.951
566.19	65.679
566.52	64.840
566.86	65.929
567.20	65.981
567.54	65.328
567.88	64.601
568.21	66.499
568.55	64.793
568.89	63.618
569.23	63.720
569.56	62.043
569.90	62.352
570.24	61.669
570.57	60.105
570.91	60.898
571.25	61.835
571.59	61.005
571.92	60.774
572.26	60.395
572.60	61.620
572.93	60.576
573.27	60.427
573.61	59.449
573.95	60.298
574.28	59.710
574.62	60.142
574.96	59.497
575.29	59.604
575.63	59.729
575.97	59.574
576.30	60.099
576.64	59.426
576.98	59.094
577.31	59.309
577.65	59.114
577.98	58.813
578.32	59.545
578.66	58.987
578.99	59.398
579.33	59.131
579.67	59.599
580.00	58.705
580.34	59.442
580.67	59.696
581.01	58.569
581.35	58.826
581.68	57.710
582.02	58.179
582.35	59.093
582.69	59.247
583.02	60.102
583.36	58.556
583.70	59.370
584.03	59.968
584.37	59.486
584.70	60.217
585.04	59.570
585.37	58.640
585.71	58.539
586.04	58.992
586.38	58.327
586.72	58.681
587.05	59.218
587.39	59.000
587.72	59.331
588.06	59.120
588.39	59.271
588.73	59.354
589.06	60.166
589.40	60.632
589.73	60.269
590.07	59.250
590.40	60.000
590.73	61.695
591.07	60.697
591.40	61.612
591.74	61.642
592.07	61.036
592.41	61.274
592.74	60.184
593.08	59.561
593.41	60.263
593.75	58.655
594.08	60.280
594.41	60.591
594.75	60.249
595.08	60.526
595.42	60.802
595.75	60.860
596.09	60.613
596.42	62.193
596.75	60.673
597.09	62.110
597.42	59.843
597.75	61.957
598.09	61.365
598.42	59.920
598.76	59.718
599.09	59.905
599.42	59.862
599.76	60.098
600.09	60.344
600.42	60.615
600.76	60.753
601.09	59.020
601.42	60.190
601.76	60.047
602.09	61.513
602.42	60.453
602.76	60.449
603.09	60.444
603.42	60.878
603.76	61.029
604.09	61.233
604.42	58.784
604.76	60.794
605.09	61.302
605.42	60.195
605.75	60.285
606.09	59.900
606.42	59.782
606.75	59.983
607.09	59.947
607.42	60.915
607.75	59.603
608.08	60.371
608.42	61.826
608.75	60.047
609.08	61.374
609.41	60.638
609.75	60.556
610.08	60.686
610.41	60.337
610.74	61.557
611.07	61.917
611.41	60.767
611.74	60.771
612.07	63.856
612.40	61.461
612.73	61.659
613.07	60.594
613.40	61.795
613.73	60.926
614.06	61.010
614.39	62.289
614.72	60.279
615.06	60.707
615.39	60.336
615.72	61.760
616.05	59.525
616.38	62.043
616.71	61.081
617.05	61.942
617.38	61.796
617.71	62.346
618.04	62.298
618.37	61.635
618.70	62.842
619.03	62.085
619.36	63.848
619.69	62.742
620.03	62.466
620.36	63.502
620.69	63.173
621.02	63.318
621.35	64.032
621.68	64.180
622.01	64.563
622.34	63.509
622.67	64.062
623.00	64.040
623.33	62.761
623.66	62.186
623.99	63.308
624.32	64.211
624.65	62.987
624.99	63.032
625.32	63.398
625.65	64.413
625.98	62.989
626.31	63.703
626.64	64.854
626.97	65.411
627.30	64.000
627.63	63.731
627.96	62.228
628.29	66.268
628.62	63.610
628.95	66.043
629.28	63.064
629.61	65.653
629.94	64.934
630.26	68.390
630.59	65.829
630.92	66.567
631.25	64.617
631.58	66.772
631.91	64.149
632.24	68.333
632.57	67.889
632.90	68.391
633.23	68.224
633.56	66.082
633.89	68.396
634.22	68.359
634.55	66.827
634.88	67.715
635.20	68.165
635.53	68.957
635.86	65.491
636.19	66.422
636.52	66.786
636.85	67.148
637.18	64.000
637.51	67.782
637.83	67.643
638.16	68.289
638.49	67.310
638.82	64.865
639.15	68.353
639.48	67.315
639.81	70.401
640.13	67.568
640.46	69.373
640.79	67.087
641.12	66.996
641.45	68.149
641.77	70.210
642.10	69.033
642.43	67.223
642.76	69.921
643.09	69.365
643.41	69.841
643.74	69.157
644.07	68.175
644.40	72.609
644.73	69.472
645.05	71.285
645.38	72.351
645.71	75.945
646.04	71.933
646.36	71.902
646.69	69.204
647.02	73.105
647.35	71.119
647.67	74.635
648.00	70.475
648.33	71.838
648.66	68.387
648.98	69.268
649.31	66.154
649.64	69.844
649.96	67.661
650.29	69.016
650.62	70.912
650.94	68.971
651.27	70.711
651.60	67.301
651.92	70.548
652.25	65.776
652.58	67.121
652.90	68.058
653.23	68.387
653.56	68.896
653.88	68.033
654.21	70.638
654.54	69.103
654.86	66.292
655.19	66.619
655.52	63.870
655.84	56.500
656.17	60.247
656.49	80.676
656.82	83.984
657.15	64.332
657.47	48.284
657.80	37.255
658.13	42.463
658.45	58.393
658.78	58.690
659.10	59.328
659.43	59.430
659.75	62.352
660.08	62.969
660.41	62.381
660.73	65.127
661.06	68.841
661.38	72.321
661.71	69.216
662.03	70.968
662.36	71.215
662.68	73.418
663.01	74.310
663.33	75.057
663.66	68.455
663.98	70.759
664.31	73.602
664.63	76.549
664.96	69.631
665.28	68.764
665.61	68.499
665.93	69.342
666.26	70.850
666.58	69.647
666.91	71.047
667.23	70.175
667.56	71.882
667.88	74.661
668.21	70.507
668.53	72.430
668.86	71.363
669.18	69.178
669.50	72.664
669.83	74.209
670.15	70.179
670.48	69.860
670.80	68.109
671.13	69.526
671.45	71.396
671.77	71.734
672.10	69.034
672.42	64.760
672.75	66.727
673.07	66.486
673.39	65.756
673.72	70.276
674.04	73.248
674.37	67.010
674.69	69.057
675.01	68.723
675.34	70.065
675.66	70.194
675.98	70.705
676.31	72.398
676.63	74.713
676.95	63.938
677.28	68.677
677.60	72.172
677.92	70.705
678.25	73.085
678.57	69.753
678.89	71.279
679.22	70.860
679.54	69.034
679.86	67.400
680.18	70.342
680.51	66.853
680.83	68.952
681.15	66.667
681.48	69.777
681.80	68.952
682.12	67.002
682.44	67.387
682.77	69.264
683.09	68.973
683.41	69.248
683.73	66.895
684.06	66.882
684.38	66.946
684.70	66.872
685.02	67.913
685.34	67.641
685.67	67.992
685.99	68.809
686.31	64.273
686.63	62.943
686.96	66.728
687.28	67.245
687.60	66.797
687.92	65.759
688.24	67.520
688.56	67.134
688.89	68.376
689.21	67.177
689.53	72.414
689.85	68.820
690.17	68.161
690.49	69.053
690.82	69.880
691.14	68.868
691.46	68.071
691.78	66.079
692.10	66.949
692.42	69.333
692.74	66.738
693.06	66.966
693.39	62.640
693.71	66.817
694.03	66.955
694.35	65.914
694.67	67.849
694.99	68.031
695.31	68.367
695.63	65.051
695.95	69.727
696.27	68.080
696.59	67.380
696.91	71.910
697.23	70.573
697.56	69.471
697.88	68.468
698.20	65.310
698.52	66.143
698.84	67.961
699.16	67.619
699.48	66.250
699.80	67.669
700.12	66.499
700.44	67.318
700.76	67.930
701.08	65.988
701.40	68.278
701.72	74.383
702.04	74.359
702.36	69.578
702.68	68.862
703.00	67.246
703.32	65.330
703.64	72.353
703.96	71.221
704.28	66.272
704.60	70.570
704.91	67.619
705.23	73.139
705.55	67.568
705.87	74.744
706.19	68.403
706.51	69.792
706.83	70.492
707.15	67.834
707.47	68.595
707.79	62.629
708.11	62.087
708.43	66.584
708.74	62.857
709.06	66.574
709.38	62.931
709.70	69.062
710.02	69.018
710.34	69.307
710.66	66.667
710.98	70.978
711.29	70.000
711.61	70.288
711.93	68.525
712.25	66.777
712.57	70.383
712.89	68.705
713.20	70.447
713.52	69.776
713.84	69.039
714.16	68.525
714.48	69.206
714.80	68.000
715.11	65.994
715.43	64.157
715.75	71.651
716.07	61.967
716.39	69.565
716.70	69.338
717.02	69.259
717.34	66.031
717.66	79.668
717.97	67.623
718.29	71.849
718.61	75.794
718.93	66.667
719.24	64.338
719.56	65.283
719.88	61.818
720.20	67.041
720.51	78.195
720.83	71.888
721.15	73.361
721.46	73.725
721.78	71.264
722.10	69.600
722.42	71.488
722.73	68.924
723.05	73.092
723.37	69.020
723.68	68.016
724.00	67.073
724.32	68.313
724.63	65.560
724.95	71.074
725.27	66.667
725.58	67.241
725.90	64.683
726.22	68.635
726.53	70.342
726.85	59.216
727.16	63.910
727.48	65.385
727.80	65.984
728.11	70.588
728.43	71.901
728.74	71.875
729.06	65.530
729.38	64.981
729.69	68.898
730.01	68.504
730.32	70.120
730.64	69.597
730.96	70.149
731.27	63.571
731.59	65.916
731.90	67.485
732.22	62.883
732.53	67.550
732.85	63.758
733.16	68.841
733.48	63.763
733.80	66.548
734.11	64.483
734.43	67.687
734.74	69.436
735.06	61.442
735.37	62.080
735.69	60.323
736.00	62.963
736.32	67.219
736.63	58.621
736.95	68.116
737.26	62.914
737.58	67.266
737.89	64.158
738.21	66.541
738.52	64.231
738.83	66.016
739.15	70.513
739.46	64.113
739.78	67.832
740.09	64.336
740.41	68.881
740.72	66.788
741.04	66.667
741.35	66.667
741.66	69.444
741.98	60.476
742.29	67.606
742.61	69.519
742.92	68.692
743.23	67.544
743.55	68.468
743.86	70.667
744.18	65.714
744.49	74.877
744.80	70.558
745.12	69.072
745.43	66.332
745.74	71.359
746.06	65.854
746.37	62.115
746.68	69.154
747.00	68.586
747.31	72.596
747.62	70.046
747.94	66.812
748.25	65.116
748.56	66.190
748.88	65.217
749.19	62.911
749.50	76.961
749.82	68.889
750.13	68.722
750.44	69.512
750.75	64.000
751.07	63.571
751.38	67.159
751.69	66.031
752.01	67.308
752.32	60.700
752.63	61.923
752.94	67.460
753.26	73.043
753.57	67.411
753.88	64.224
754.19	64.315
754.51	63.281
754.82	64.032
755.13	69.136
755.44	67.769
755.75	65.844
756.07	63.052
756.38	67.969
756.69	70.397
757.00	58.885
757.31	62.752
757.63	66.978
757.94	65.607
758.25	59.884
758.56	69.003
758.87	64.489
759.18	64.000
759.50	64.769
759.81	64.964
760.12	63.514
760.43	70.550
760.74	69.687
761.05	65.169
761.36	63.772
761.67	66.568
761.99	60.000
762.30	65.942
762.61	62.642
762.92	69.507
763.23	71.564
763.54	66.222
763.85	71.308
764.16	65.306
764.47	69.492
764.78	65.543
765.10	70.144
765.41	60.645
765.72	63.522
766.03	59.011
766.34	68.045
766.65	64.777
766.96	65.500
767.27	66.667
767.58	66.279
767.89	76.129
768.20	69.325
768.51	68.306
768.82	62.162
769.13	65.500
769.44	69.737
769.75	65.801
770.06	66.514
770.37	63.850
770.68	71.875
770.99	67.327
771.30	71.359
771.61	66.204
771.92	64.069
772.23	65.888
772.54	62.766
772.85	55.621
773.16	74.390
773.47	72.289
773.78	74.725
774.09	72.000
774.39	63.580
774.70	64.430
775.01	69.565
775.32	65.672
775.63	71.901
775.94	78.947
776.25	63.571
776.56	74.590
776.87	77.876
777.18	82.301
777.48	64.545
777.79	60.870
778.10	68.807
778.41	58.475
778.72	77.686
779.03	74.627
779.34	69.173
779.65	70.588
779.95	71.014
780.26	59.184
780.57	62.931
780.88	83.333
781.19	80.808
781.50	67.200
781.80	62.092
782.11	64.744
782.42	58.434
782.73	59.124
783.04	62.838
783.34	62.121
783.65	63.566
783.96	75.610
784.27	70.940
784.57	65.854
784.88	65.854
785.19	59.649
785.50	50.515
785.81	65.714
786.11	61.765
786.42	64.545
786.73	77.477
787.04	61.386
787.34	75.238
787.65	53.333
787.96	66.667
788.26	72.973
788.57	57.258
788.88	64.844
789.19	65.812
789.49	61.345
789.80	65.812
790.11	74.336
790.41	64.646
790.72	57.547
791.03	66.667
791.33	73.684
791.64	62.366
791.95	70.667
792.25	58.571
792.56	59.756
792.87	55.102
793.17	72.368
793.48	52.703
793.79	46.479
794.09	49.367
794.40	73.404
794.70	62.617
795.01	47.368
795.32	66.364
795.62	68.750
795.93	64.948
796.23	51.648
796.54	61.053
796.85	71.233
797.15	56.944
797.46	52.055
797.76	73.239
798.07	78.750
798.37	73.529
798.68	75.714
798.99	42.857
799.29	61.842
799.60	76.667
799.90	37.500
800.21	54.688
800.51	61.905
800.82	59.016
801.12	57.895
801.43	71.831
801.73	77.966
802.04	65.574
802.34	74.545
802.65	53.846
802.95	74.074
803.26	57.500
803.56	57.692
803.87	71.053
804.17	64.516
804.48	47.692
804.78	69.231
805.09	58.140
805.39	40.625
805.70	64.151
806.00	75.439
806.30	72.973
806.61	57.353
806.91	55.556
807.22	68.000
807.52	67.164
807.83	69.355
808.13	57.143
808.43	63.636
808.74	69.697
809.04	75.472
809.35	64.384
809.65	80.702
809.95	67.647
810.26	70.588
810.56	54.000
810.86	59.184
811.17	62.857
811.47	61.538
811.77	103.226
812.08	15.789
812.38	78.571
812.69	43.478
812.99	93.548
813.29	40.476
813.59	51.852
813.90	59.574
814.20	20.930
814.50	77.083
814.81	53.333
815.11	53.659
815.41	43.333
815.72	74.286
816.02	44.444
816.32	92.308
816.62	51.351
816.93	29.412
817.23	50.000
817.53	88.235
817.84	26.471
818.14	71.875
818.44	62.069
818.74	-3.226
819.04	74.074
819.35	70.000
819.65	20.000
819.95	66.667
820.25	68.000
820.56	47.368
820.86	5.000
821.16	57.447
821.46	46.552
821.76	51.282
822.07	42.500
822.37	48.837
822.67	53.333
822.97	43.243
823.27	48.649
823.57	96.000
823.88	67.568
824.18	-4.762
824.48	65.385
824.78	84.615
825.08	34.783
825.38	29.167
825.69	70.833
825.99	60.000
826.29	32.432
826.59	26.471
826.89	108.000
827.19	17.143
827.49	44.737
827.79	53.125
828.09	43.333
828.39	52.174
828.70	-13.793
829.00	13.793
829.30	47.222
829.60	53.125
829.90	77.778
830.20	11.538
830.50	0.000
830.80	-10.714
831.10	66.667
831.40	38.095
831.70	26.471
832.00	66.667
832.30	21.053
832.60	18.750
832.90	83.333
833.20	-5.882
833.50	-6.667
833.80	20.000
834.10	50.000
834.40	20.833
834.70	16.667
835.00	88.462
835.30	-4.167
835.60	48.276
835.90	-11.111
836.20	36.364
836.50	8.333
836.80	45.714
837.10	68.571
837.40	47.059
837.70	-72.727
838.00	54.167
838.30	-12.500
838.60	14.286
838.90	65.000
839.19	26.087
839.49	13.043
839.79	44.444
840.09	-8.696
840.39	27.273
840.69	-18.750
840.99	26.316
841.29	25.000
841.59	50.000
841.88	11.111
842.18	16.667
842.48	-64.706
842.78	31.034
843.08	35.714
843.38	92.308
843.68	-77.778
843.97	-69.231
844.27	45.455
844.57	60.000
844.87	56.000
845.17	60.000
845.47	-50.000
845.76	-55.556
846.06	0.000
846.36	125.000
846.66	-150.000
846.96	-36.842
847.25	-4.167
847.55	-33.333
847.85	0.000
848.15	0.000
848.44	50.000
848.74	5.263
849.04	200.000
849.34	66.667
849.63	-15.789
849.93	0.000
850.23	0.000
850.53	4.762
850.82	8.000
851.12	-10.526
851.42	-300.000
851.71	57.143
852.01	91.667
852.31	35.294
852.61	13.333
852.90	-19.048
853.20	-216.667
853.50	44.444
853.79	5.263
854.09	13.333
854.39	25.000
854.68	21.739
854.98	-158.333
855.28	6.897
855.57	50.000
855.87	40.000
856.17	-40.000
856.46	31.034
856.76	-6.667
857.05	-5.882
857.35	-107.692
857.65	27.273
857.94	18.519
858.24	21.429
858.53	21.429
858.83	16.667
859.13	-211.111
859.42	90.476
859.72	-100.000
860.01	-166.667
860.31	100.000
860.60	-280.000
860.90	-11.111
861.20	-125.000
861.49	-200.000
861.79	41.176
862.08	-300.000
862.38	-41.667
862.67	-23.077
862.97	5.882
863.26	70.000
863.56	5.882
863.85	233.333
864.15	-40.000
864.44	23.077
864.74	5.000
865.03	-137.500
865.33	-216.667
865.62	5.882
865.92	-150.000
866.21	-85.714
866.51	-50.000
866.80	500.000
867.10	-133.333
867.39	-11.765
867.69	13.043
867.98	-14.286
868.27	-380.000
868.57	18.750
868.86	-90.909
869.16	105.882
869.45	-150.000
869.75	-57.143
870.04	1600.000
870.33	-41.667
870.63	40.000
870.92	77.778
871.22	-150.000
871.51	-54.545
871.80	25.000
872.10	20.000
>>>>>End Processed Spectral Data<<<<<
