SpectraSuite Data File
++++++++++++++++++++++++++++++++++++
Date: Sat May 16 11:18:29 PDT 2015
User: schluterlab
Dark Spectrum Present: Yes
Reference Spectrum Present: Yes
Number of Sampled Component Spectra: 1
Spectrometers: USB2E3373
Integration Time (usec): 3000 (USB2E3373)
Spectra Averaged: 3 (USB2E3373)
Boxcar Smoothing: 0 (USB2E3373)
Correct for Electrical Dark: No (USB2E3373)
Strobe/Lamp Enabled: No (USB2E3373)
Correct for Detector Non-linearity: No (USB2E3373)
Correct for Stray Light: No (USB2E3373)
Number of Pixels in Processed Spectrum: 2048
>>>>>Begin Processed Spectral Data<<<<<
178.53	0.000
178.91	100.000
179.29	400.000
179.67	0.000
180.04	-38.462
180.42	800.000
180.80	375.000
181.18	275.000
181.56	12.500
181.94	100.000
182.31	350.000
182.69	7.692
183.07	-400.000
183.45	1250.000
183.83	700.000
184.20	-171.429
184.58	12.500
184.96	-400.000
185.34	125.000
185.72	-625.000
186.09	216.667
186.47	-175.000
186.85	-100.000
187.23	-125.000
187.61	-400.000
187.98	-137.500
188.36	-87.500
188.74	-50.000
189.12	1400.000
189.49	257.143
189.87	16.667
190.25	425.000
190.63	14.286
191.00	-88.889
191.38	180.000
191.76	-13.333
192.14	440.000
192.51	-240.000
192.89	-300.000
193.27	0.000
193.65	-133.333
194.02	0.000
194.40	400.000
194.78	-70.000
195.15	-1500.000
195.53	-136.364
195.91	-600.000
196.29	60.000
196.66	-400.000
197.04	1300.000
197.42	-125.000
197.79	6.667
198.17	-366.667
198.55	-150.000
198.92	-800.000
199.30	87.500
199.68	-600.000
200.05	-133.333
200.43	-66.667
200.81	-800.000
201.18	-66.667
201.56	85.714
201.94	-6.667
202.31	9.091
202.69	50.000
203.07	-30.000
203.44	233.333
203.82	-216.667
204.19	-325.000
204.57	75.000
204.95	100.000
205.32	-6.250
205.70	500.000
206.08	-700.000
206.45	-33.333
206.83	-400.000
207.20	0.000
207.58	-433.333
207.96	-33.333
208.33	-12.500
208.71	-111.111
209.08	140.000
209.46	-157.143
209.84	1350.000
210.21	0.000
210.59	30.000
210.96	600.000
211.34	-183.333
211.71	-233.333
212.09	450.000
212.46	1050.000
212.84	-1200.000
213.22	666.667
213.59	133.333
213.97	-11.111
214.34	120.000
214.72	-50.000
215.09	-133.333
215.47	33.333
215.84	-50.000
216.22	-50.000
216.59	-6.667
216.97	-100.000
217.34	500.000
217.72	-28.571
218.09	-100.000
218.47	-14.286
218.84	128.571
219.22	-114.286
219.59	0.000
219.97	114.286
220.34	150.000
220.72	75.000
221.09	7.692
221.47	0.000
221.84	566.667
222.22	-400.000
222.59	700.000
222.97	-50.000
223.34	-600.000
223.72	-533.333
224.09	-28.571
224.46	-450.000
224.84	21.429
225.21	-142.857
225.59	9.091
225.96	-187.500
226.34	-42.857
226.71	-122.222
227.08	-25.000
227.46	1400.000
227.83	-142.857
228.21	-137.500
228.58	500.000
228.95	-12.500
229.33	-900.000
229.70	-100.000
230.08	-800.000
230.45	58.333
230.82	-100.000
231.20	-1800.000
231.57	150.000
231.95	1000.000
232.32	4.762
232.69	-44.444
233.07	-185.714
233.44	-200.000
233.81	-40.000
234.19	-100.000
234.56	18.750
234.93	3.125
235.31	-200.000
235.68	-21.429
236.05	5.882
236.43	-18.182
236.80	22.581
237.17	20.833
237.55	-14.286
237.92	-36.364
238.29	8.571
238.67	5.882
239.04	13.889
239.41	0.000
239.79	-15.385
240.16	-7.143
240.53	-18.182
240.91	23.077
241.28	12.727
241.65	29.231
242.02	39.344
242.40	16.393
242.77	22.727
243.14	8.475
243.51	2.857
243.89	26.582
244.26	22.472
244.63	30.526
245.00	29.474
245.38	20.339
245.75	26.549
246.12	18.400
246.49	18.898
246.87	11.382
247.24	15.254
247.61	27.119
247.98	23.944
248.36	25.175
248.73	29.747
249.10	27.389
249.47	28.070
249.84	25.000
250.22	19.643
250.59	27.119
250.96	25.131
251.33	30.332
251.70	29.808
252.08	26.066
252.45	26.066
252.82	25.238
253.19	22.553
253.56	26.210
253.94	21.519
254.31	26.180
254.68	27.236
255.05	23.387
255.42	24.603
255.79	27.240
256.16	29.020
256.54	30.882
256.91	26.136
257.28	28.205
257.65	25.887
258.02	32.704
258.39	30.435
258.76	25.676
259.14	26.235
259.51	30.820
259.88	25.305
260.25	31.677
260.62	28.296
260.99	23.739
261.36	30.793
261.73	27.168
262.10	31.389
262.47	25.926
262.85	30.571
263.22	31.232
263.59	23.385
263.96	31.594
264.33	29.268
264.70	30.110
265.07	28.022
265.44	28.424
265.81	28.165
266.18	28.101
266.55	29.412
266.92	27.708
267.29	26.877
267.66	29.630
268.03	29.710
268.40	28.638
268.77	29.880
269.14	27.146
269.51	29.195
269.88	25.917
270.25	28.438
270.62	27.689
270.99	26.802
271.36	30.070
271.73	27.803
272.10	29.977
272.47	26.444
272.84	31.111
273.21	28.440
273.58	27.692
273.95	29.605
274.32	29.412
274.69	29.322
275.06	28.016
275.43	26.116
275.80	26.680
276.17	28.870
276.54	31.568
276.91	28.189
277.28	27.789
277.65	28.719
278.02	32.985
278.39	29.273
278.76	29.681
279.13	28.656
279.50	27.634
279.87	28.964
280.23	28.947
280.60	27.833
280.97	29.515
281.34	28.627
281.71	28.077
282.08	30.847
282.45	27.495
282.82	25.775
283.19	28.364
283.56	29.670
283.92	30.035
284.29	26.208
284.66	27.518
285.03	29.234
285.40	26.199
285.77	29.649
286.14	28.339
286.51	29.307
286.87	28.494
287.24	29.352
287.61	26.281
287.98	25.477
288.35	26.777
288.72	25.806
289.08	25.593
289.45	26.936
289.82	25.779
290.19	26.273
290.56	26.116
290.93	25.596
291.29	23.177
291.66	24.960
292.03	23.862
292.40	25.301
292.77	25.621
293.13	24.553
293.50	24.517
293.87	24.387
294.24	23.228
294.60	24.242
294.97	24.886
295.34	22.074
295.71	23.363
296.08	21.813
296.44	22.604
296.81	23.219
297.18	22.958
297.55	22.881
297.91	23.710
298.28	22.192
298.65	21.897
299.02	23.529
299.38	21.257
299.75	22.826
300.12	23.205
300.48	19.821
300.85	22.280
301.22	21.863
301.59	21.977
301.95	22.040
302.32	20.339
302.69	21.175
303.05	20.147
303.42	20.500
303.79	23.086
304.15	21.327
304.52	20.887
304.89	21.606
305.25	19.658
305.62	20.329
305.99	20.612
306.35	20.089
306.72	21.526
307.09	22.134
307.45	19.750
307.82	19.553
308.19	21.365
308.55	18.954
308.92	19.441
309.29	19.351
309.65	20.785
310.02	19.546
310.38	19.351
310.75	19.057
311.12	20.145
311.48	20.877
311.85	20.906
312.22	20.391
312.58	19.430
312.95	19.368
313.31	21.179
313.68	19.497
314.05	19.881
314.41	19.215
314.78	18.781
315.14	19.546
315.51	18.034
315.87	21.104
316.24	20.019
316.61	18.618
316.97	19.602
317.34	19.268
317.70	18.367
318.07	19.590
318.43	19.195
318.80	20.845
319.16	19.137
319.53	18.515
319.89	18.532
320.26	18.824
320.62	18.365
320.99	18.408
321.35	17.340
321.72	17.195
322.08	19.387
322.45	18.416
322.81	19.212
323.18	19.885
323.54	19.316
323.91	19.462
324.27	19.772
324.64	18.739
325.00	17.801
325.37	17.557
325.73	19.073
326.10	17.538
326.46	18.651
326.83	18.979
327.19	18.015
327.56	20.187
327.92	19.711
328.29	19.221
328.65	17.273
329.01	18.463
329.38	18.376
329.74	18.773
330.11	19.130
330.47	19.619
330.84	18.515
331.20	18.412
331.56	17.958
331.93	18.117
332.29	18.813
332.66	18.876
333.02	18.643
333.38	18.280
333.75	18.433
334.11	18.222
334.48	18.270
334.84	19.423
335.20	18.440
335.57	17.509
335.93	19.338
336.29	17.715
336.66	17.885
337.02	18.108
337.38	17.291
337.75	17.998
338.11	17.263
338.47	17.082
338.84	18.421
339.20	17.399
339.56	18.093
339.93	18.519
340.29	17.183
340.65	18.007
341.02	18.044
341.38	16.596
341.74	17.358
342.11	17.747
342.47	16.996
342.83	17.212
343.20	17.506
343.56	17.061
343.92	17.780
344.28	18.082
344.65	17.904
345.01	17.311
345.37	19.269
345.73	16.939
346.10	16.190
346.46	17.465
346.82	16.680
347.19	16.927
347.55	17.255
347.91	16.850
348.27	16.945
348.63	18.417
349.00	18.218
349.36	16.315
349.72	17.436
350.08	17.001
350.45	16.706
350.81	17.038
351.17	17.444
351.53	16.229
351.89	16.492
352.26	16.822
352.62	17.819
352.98	17.326
353.34	16.387
353.70	15.830
354.07	16.994
354.43	17.075
354.79	16.957
355.15	16.134
355.51	16.094
355.87	16.126
356.24	15.965
356.60	17.164
356.96	18.014
357.32	16.390
357.68	16.322
358.04	16.936
358.40	16.241
358.77	16.770
359.13	16.067
359.49	17.007
359.85	16.997
360.21	17.047
360.57	18.373
360.93	16.963
361.29	16.667
361.66	15.777
362.02	16.124
362.38	16.067
362.74	16.264
363.10	16.212
363.46	17.094
363.82	16.035
364.18	15.702
364.54	16.655
364.90	16.422
365.26	16.120
365.62	18.175
365.98	17.710
366.35	16.620
366.71	15.152
367.07	16.373
367.43	17.227
367.79	16.907
368.15	15.434
368.51	15.315
368.87	18.269
369.23	16.912
369.59	16.667
369.95	16.209
370.31	17.300
370.67	15.040
371.03	16.545
371.39	15.134
371.75	16.667
372.11	16.930
372.47	15.618
372.83	15.855
373.19	16.357
373.55	16.467
373.91	17.141
374.27	15.948
374.63	16.080
374.99	16.551
375.35	16.083
375.71	16.543
376.07	15.811
376.42	15.960
376.78	16.144
377.14	16.136
377.50	16.248
377.86	17.230
378.22	16.457
378.58	17.048
378.94	15.721
379.30	15.966
379.66	16.636
380.02	16.399
380.38	16.133
380.74	16.471
381.09	16.755
381.45	16.826
381.81	15.971
382.17	15.664
382.53	15.562
382.89	16.567
383.25	16.496
383.61	16.804
383.97	15.738
384.32	16.145
384.68	16.445
385.04	16.365
385.40	15.886
385.76	16.463
386.12	16.115
386.48	16.894
386.83	16.135
387.19	16.557
387.55	15.748
387.91	15.471
388.27	15.380
388.62	16.286
388.98	15.566
389.34	16.646
389.70	16.261
390.06	15.911
390.42	16.603
390.77	15.521
391.13	17.329
391.49	15.845
391.85	16.459
392.20	15.898
392.56	15.699
392.92	16.714
393.28	16.016
393.64	16.296
393.99	16.985
394.35	16.727
394.71	16.553
395.07	17.326
395.42	16.687
395.78	15.713
396.14	16.511
396.50	17.003
396.85	16.656
397.21	17.072
397.57	16.353
397.92	16.452
398.28	15.833
398.64	16.121
399.00	16.629
399.35	16.291
399.71	16.376
400.07	17.433
400.42	17.092
400.78	15.683
401.14	15.928
401.49	15.861
401.85	16.840
402.21	16.329
402.57	15.898
402.92	17.244
403.28	16.115
403.63	16.117
403.99	16.656
404.35	16.184
404.70	15.799
405.06	16.090
405.42	15.867
405.77	16.007
406.13	15.957
406.49	15.698
406.84	15.837
407.20	17.550
407.55	16.023
407.91	15.933
408.27	17.463
408.62	16.055
408.98	16.434
409.34	16.636
409.69	16.257
410.05	16.131
410.40	16.186
410.76	16.657
411.11	16.459
411.47	16.816
411.83	16.687
412.18	15.285
412.54	15.619
412.89	16.343
413.25	15.466
413.60	16.039
413.96	16.389
414.31	15.657
414.67	15.810
415.03	16.688
415.38	16.070
415.74	16.946
416.09	16.816
416.45	15.675
416.80	16.125
417.16	16.080
417.51	16.678
417.87	15.922
418.22	15.360
418.58	15.982
418.93	16.432
419.29	16.374
419.64	15.201
420.00	16.586
420.35	16.263
420.71	16.206
421.06	17.870
421.42	15.691
421.77	16.974
422.12	16.228
422.48	15.820
422.83	16.173
423.19	16.815
423.54	15.620
423.90	16.773
424.25	15.950
424.61	17.310
424.96	17.203
425.31	16.378
425.67	16.504
426.02	14.859
426.38	16.999
426.73	17.066
427.09	16.605
427.44	16.420
427.79	15.756
428.15	17.115
428.50	16.188
428.85	17.086
429.21	15.495
429.56	16.510
429.92	16.433
430.27	17.348
430.62	17.032
430.98	16.466
431.33	16.382
431.68	16.676
432.04	17.180
432.39	16.923
432.74	15.588
433.10	16.601
433.45	15.717
433.80	16.517
434.16	16.765
434.51	16.274
434.86	17.165
435.22	16.871
435.57	16.401
435.92	15.592
436.28	17.211
436.63	16.167
436.98	16.380
437.34	17.188
437.69	16.161
438.04	15.939
438.39	16.907
438.75	16.647
439.10	16.380
439.45	15.691
439.81	17.108
440.16	16.070
440.51	17.647
440.86	16.715
441.22	15.920
441.57	16.579
441.92	16.931
442.27	16.180
442.63	16.953
442.98	15.914
443.33	16.310
443.68	16.675
444.03	16.994
444.39	16.985
444.74	17.181
445.09	16.776
445.44	17.333
445.79	16.828
446.15	17.196
446.50	16.984
446.85	16.573
447.20	16.599
447.55	16.409
447.91	17.125
448.26	16.201
448.61	16.695
448.96	16.975
449.31	17.136
449.66	17.401
450.02	16.454
450.37	16.116
450.72	16.215
451.07	16.782
451.42	16.791
451.77	16.397
452.12	16.865
452.47	16.814
452.83	15.550
453.18	17.521
453.53	16.667
453.88	17.404
454.23	16.022
454.58	17.216
454.93	17.191
455.28	16.061
455.63	16.339
455.98	17.590
456.34	16.455
456.69	17.261
457.04	17.025
457.39	16.806
457.74	16.066
458.09	16.473
458.44	17.494
458.79	16.143
459.14	16.828
459.49	17.644
459.84	17.088
460.19	16.706
460.54	16.455
460.89	15.527
461.24	16.333
461.59	16.940
461.94	17.250
462.29	16.379
462.64	17.194
462.99	17.202
463.34	16.610
463.69	16.349
464.04	16.227
464.39	16.726
464.74	16.785
465.09	16.356
465.44	16.356
465.79	16.751
466.14	17.606
466.49	17.098
466.84	17.107
467.19	16.958
467.54	16.266
467.89	16.893
468.24	16.865
468.59	15.803
468.94	16.785
469.29	16.829
469.64	16.712
469.99	16.948
470.34	17.502
470.68	17.660
471.03	17.275
471.38	15.972
471.73	17.552
472.08	16.466
472.43	17.246
472.78	17.133
473.13	15.772
473.48	17.167
473.83	16.998
474.17	17.580
474.52	17.519
474.87	17.191
475.22	16.932
475.57	16.556
475.92	16.793
476.27	16.457
476.61	16.901
476.96	17.552
477.31	17.223
477.66	17.432
478.01	16.964
478.36	16.291
478.70	17.672
479.05	17.253
479.40	17.098
479.75	16.922
480.10	16.964
480.45	16.683
480.79	17.177
481.14	17.060
481.49	17.473
481.84	16.597
482.19	17.542
482.53	17.614
482.88	16.611
483.23	17.089
483.58	18.178
483.92	16.770
484.27	17.324
484.62	16.587
484.97	16.836
485.31	16.096
485.66	15.933
486.01	16.048
486.36	16.768
486.70	17.071
487.05	16.930
487.40	17.121
487.75	16.536
488.09	16.214
488.44	17.050
488.79	16.873
489.13	16.736
489.48	17.333
489.83	17.249
490.17	17.283
490.52	17.346
490.87	17.691
491.22	17.282
491.56	17.037
491.91	17.366
492.26	17.736
492.60	16.936
492.95	17.563
493.30	16.818
493.64	16.784
493.99	16.730
494.34	16.762
494.68	18.071
495.03	17.352
495.37	17.011
495.72	17.436
496.07	17.550
496.41	18.249
496.76	17.626
497.11	17.664
497.45	17.241
497.80	17.309
498.14	17.731
498.49	17.077
498.84	17.136
499.18	18.080
499.53	17.340
499.87	17.375
500.22	17.500
500.56	18.059
500.91	16.847
501.26	18.049
501.60	16.418
501.95	18.309
502.29	18.092
502.64	18.105
502.98	17.345
503.33	17.152
503.67	16.954
504.02	17.286
504.36	17.598
504.71	18.136
505.06	16.675
505.40	17.615
505.75	17.226
506.09	17.796
506.44	17.845
506.78	17.511
507.13	16.838
507.47	18.049
507.82	17.037
508.16	18.394
508.51	17.156
508.85	17.857
509.19	16.954
509.54	18.076
509.88	17.606
510.23	18.134
510.57	18.254
510.92	17.938
511.26	17.491
511.61	16.469
511.95	17.511
512.30	18.307
512.64	17.084
512.98	17.602
513.33	17.847
513.67	18.649
514.02	17.841
514.36	18.504
514.70	17.997
515.05	18.353
515.39	17.359
515.74	19.314
516.08	17.752
516.42	18.470
516.77	18.255
517.11	18.364
517.46	18.600
517.80	18.051
518.14	18.357
518.49	18.709
518.83	18.576
519.17	18.591
519.52	18.276
519.86	18.519
520.20	18.765
520.55	18.031
520.89	17.533
521.23	18.559
521.58	18.871
521.92	18.049
522.26	18.984
522.61	18.124
522.95	17.996
523.29	18.683
523.64	18.176
523.98	18.778
524.32	18.793
524.66	17.950
525.01	17.983
525.35	18.750
525.69	17.567
526.04	18.864
526.38	18.651
526.72	17.625
527.06	18.294
527.41	18.152
527.75	16.700
528.09	18.332
528.43	17.836
528.78	18.279
529.12	18.566
529.46	17.848
529.80	17.753
530.15	18.609
530.49	17.658
530.83	19.450
531.17	16.768
531.51	17.013
531.86	18.038
532.20	17.409
532.54	18.850
532.88	17.984
533.22	17.380
533.57	18.342
533.91	17.228
534.25	17.913
534.59	17.614
534.93	16.428
535.27	17.936
535.62	18.350
535.96	18.423
536.30	17.147
536.64	17.463
536.98	18.573
537.32	17.623
537.66	18.126
538.01	17.663
538.35	18.649
538.69	16.644
539.03	17.806
539.37	17.898
539.71	18.079
540.05	17.958
540.39	18.975
540.73	17.484
541.07	18.716
541.42	18.096
541.76	17.010
542.10	18.704
542.44	18.321
542.78	17.639
543.12	18.330
543.46	17.192
543.80	17.860
544.14	17.126
544.48	19.226
544.82	17.727
545.16	18.444
545.50	17.766
545.84	17.733
546.18	18.724
546.52	17.496
546.86	18.162
547.20	18.847
547.54	17.493
547.88	18.713
548.22	17.169
548.56	18.036
548.90	17.790
549.24	17.239
549.58	18.278
549.92	18.728
550.26	18.786
550.60	19.061
550.94	19.416
551.28	18.661
551.62	18.538
551.96	18.307
552.30	19.024
552.64	17.875
552.98	19.131
553.32	17.027
553.66	17.952
554.00	17.626
554.34	18.051
554.68	18.056
555.02	18.813
555.36	17.685
555.69	17.192
556.03	16.842
556.37	17.283
556.71	17.895
557.05	18.330
557.39	17.669
557.73	19.037
558.07	19.216
558.41	18.175
558.75	17.871
559.08	17.043
559.42	17.458
559.76	18.405
560.10	18.345
560.44	19.292
560.78	18.928
561.12	18.219
561.45	18.493
561.79	17.491
562.13	18.724
562.47	17.787
562.81	17.680
563.15	17.565
563.48	18.106
563.82	18.458
564.16	17.377
564.50	17.608
564.84	18.122
565.17	17.706
565.51	17.797
565.85	18.391
566.19	17.918
566.52	17.808
566.86	17.699
567.20	18.462
567.54	18.193
567.88	17.085
568.21	17.506
568.55	16.331
568.89	16.203
569.23	17.029
569.56	16.393
569.90	17.231
570.24	17.550
570.57	16.169
570.91	16.491
571.25	16.602
571.59	16.641
571.92	16.667
572.26	16.597
572.60	16.413
572.93	16.073
573.27	16.280
573.61	15.716
573.95	16.525
574.28	16.209
574.62	16.218
574.96	16.052
575.29	15.803
575.63	16.618
575.97	15.426
576.30	16.552
576.64	16.501
576.98	15.775
577.31	15.971
577.65	16.260
577.98	16.359
578.32	15.933
578.66	15.874
578.99	15.787
579.33	15.901
579.67	16.358
580.00	15.799
580.34	15.974
580.67	16.033
581.01	15.311
581.35	16.263
581.68	16.107
582.02	16.027
582.35	16.128
582.69	16.100
583.02	15.937
583.36	16.206
583.70	15.873
584.03	16.622
584.37	15.968
584.70	16.072
585.04	15.873
585.37	15.776
585.71	15.989
586.04	16.033
586.38	15.664
586.72	16.094
587.05	15.520
587.39	15.733
587.72	15.954
588.06	16.066
588.39	16.320
588.73	16.687
589.06	16.464
589.40	16.180
589.73	16.466
590.07	16.351
590.40	16.347
590.73	16.593
591.07	16.598
591.40	16.551
591.74	16.811
592.07	16.036
592.41	16.136
592.74	16.718
593.08	16.409
593.41	16.184
593.75	16.156
594.08	16.247
594.41	16.710
594.75	16.270
595.08	16.541
595.42	16.618
595.75	16.391
596.09	16.182
596.42	16.653
596.75	15.912
597.09	17.008
597.42	16.107
597.75	16.386
598.09	16.674
598.42	16.483
598.76	16.362
599.09	16.140
599.42	15.879
599.76	16.610
600.09	16.489
600.42	16.597
600.76	16.384
601.09	16.217
601.42	15.710
601.76	17.290
602.09	15.992
602.42	16.214
602.76	15.870
603.09	16.452
603.42	16.116
603.76	16.514
604.09	16.980
604.42	16.861
604.76	16.616
605.09	17.089
605.42	16.268
605.75	16.300
606.09	16.895
606.42	16.087
606.75	16.402
607.09	17.247
607.42	16.153
607.75	16.203
608.08	16.765
608.42	16.367
608.75	16.495
609.08	16.366
609.41	16.592
609.75	16.236
610.08	16.961
610.41	16.482
610.74	15.957
611.07	16.734
611.41	16.087
611.74	17.121
612.07	16.380
612.40	15.938
612.73	16.909
613.07	16.070
613.40	16.749
613.73	16.022
614.06	15.980
614.39	16.798
614.72	16.034
615.06	15.978
615.39	16.115
615.72	16.730
616.05	16.455
616.38	16.541
616.71	17.297
617.05	16.405
617.38	17.771
617.71	16.523
618.04	16.957
618.37	16.541
618.70	17.145
619.03	16.114
619.36	17.548
619.69	17.875
620.03	16.598
620.36	17.018
620.69	17.229
621.02	16.895
621.35	15.565
621.68	18.033
622.01	16.828
622.34	17.391
622.67	16.484
623.00	17.138
623.33	17.985
623.66	16.322
623.99	17.293
624.32	17.113
624.65	17.071
624.99	16.804
625.32	16.542
625.65	17.793
625.98	16.980
626.31	17.455
626.64	16.987
626.97	16.952
627.30	17.277
627.63	16.494
627.96	17.058
628.29	17.739
628.62	16.905
628.95	17.913
629.28	18.703
629.61	17.370
629.94	15.879
630.26	17.694
630.59	17.186
630.92	15.816
631.25	17.843
631.58	18.836
631.91	16.702
632.24	17.444
632.57	17.778
632.90	18.046
633.23	17.407
633.56	18.012
633.89	18.868
634.22	18.064
634.55	17.067
634.88	15.840
635.20	16.854
635.53	16.921
635.86	16.247
636.19	16.850
636.52	16.487
636.85	16.125
637.18	16.125
637.51	19.083
637.83	16.378
638.16	16.053
638.49	16.690
638.82	17.117
639.15	19.326
639.48	16.083
639.81	16.183
640.13	17.432
640.46	18.234
640.79	17.507
641.12	16.925
641.45	18.221
641.77	16.766
642.10	17.372
642.43	15.933
642.76	18.110
643.09	17.619
643.41	18.889
643.74	18.760
644.07	18.409
644.40	17.180
644.73	17.327
645.05	17.195
645.38	18.046
645.71	20.103
646.04	18.487
646.36	17.452
646.69	19.377
647.02	20.036
647.35	16.968
647.67	19.343
648.00	16.872
648.33	20.742
648.66	15.645
648.98	17.038
649.31	17.846
649.64	17.812
649.96	17.739
650.29	15.246
650.62	15.835
650.94	18.718
651.27	17.678
651.60	16.955
651.92	17.979
652.25	14.691
652.58	15.843
652.90	15.570
653.23	16.613
653.56	15.050
653.88	18.033
654.21	19.799
654.54	16.777
654.86	17.496
655.19	17.192
655.52	14.890
655.84	15.480
656.17	16.852
656.49	22.860
656.82	23.489
657.15	17.646
657.47	13.021
657.80	10.001
658.13	11.652
658.45	15.862
658.78	15.426
659.10	15.417
659.43	15.248
659.75	15.185
660.08	15.625
660.41	15.340
660.73	16.502
661.06	18.261
661.38	20.000
661.71	15.679
662.03	18.347
662.36	17.484
662.68	15.190
663.01	17.410
663.33	17.234
663.66	21.030
663.98	17.857
664.31	14.989
664.63	19.248
664.96	16.486
665.28	18.655
665.61	19.027
665.93	20.576
666.26	16.194
666.58	17.879
666.91	14.699
667.23	21.053
667.56	18.141
667.88	16.968
668.21	16.359
668.53	17.523
668.86	17.321
669.18	15.982
669.50	16.121
669.83	17.275
670.15	17.265
670.48	13.785
670.80	17.768
671.13	13.995
671.45	16.667
671.77	16.060
672.10	16.963
672.42	17.897
672.75	18.000
673.07	14.234
673.39	16.393
673.72	17.323
674.04	19.108
674.37	16.495
674.69	18.033
675.01	18.936
675.34	16.269
675.66	18.143
675.98	16.740
676.31	17.647
676.63	17.241
676.95	15.708
677.28	17.401
677.60	17.873
677.92	17.621
678.25	16.193
678.57	19.959
678.89	14.465
679.22	15.304
679.54	19.132
679.86	15.000
680.18	16.350
680.51	15.270
680.83	18.286
681.15	17.148
681.48	16.633
681.80	17.742
682.12	15.493
682.44	16.896
682.77	12.771
683.09	16.143
683.41	18.363
683.73	16.895
684.06	16.344
684.38	16.527
684.70	17.078
685.02	14.567
685.34	14.425
685.67	16.667
685.99	14.178
686.31	17.235
686.63	17.376
686.96	15.527
687.28	13.487
687.60	17.773
687.92	14.591
688.24	17.913
688.56	16.232
688.89	16.453
689.21	15.536
689.53	18.161
689.85	16.036
690.17	16.143
690.49	16.166
690.82	16.627
691.14	14.387
691.46	16.851
691.78	18.502
692.10	14.195
692.42	15.333
692.74	15.236
693.06	15.955
693.39	13.647
693.71	14.447
694.03	17.495
694.35	16.704
694.67	15.130
694.99	12.788
695.31	15.561
695.63	14.031
695.95	19.107
696.27	18.204
696.59	18.182
696.91	16.854
697.23	17.969
697.56	15.865
697.88	14.865
698.20	15.846
698.52	17.265
698.84	15.777
699.16	18.095
699.48	13.750
699.80	16.291
700.12	17.128
700.44	13.128
700.76	16.618
701.08	18.023
701.40	12.387
701.72	15.123
702.04	16.987
702.36	16.566
702.68	19.162
703.00	15.362
703.32	16.332
703.64	18.529
703.96	14.826
704.28	17.160
704.60	13.291
704.91	13.333
705.23	14.563
705.55	13.176
705.87	16.041
706.19	14.583
706.51	16.319
706.83	21.967
707.15	14.968
707.47	15.152
707.79	12.371
708.11	11.196
708.43	18.953
708.74	15.065
709.06	14.485
709.38	13.793
709.70	16.250
710.02	20.859
710.34	14.191
710.66	12.381
710.98	11.672
711.29	18.065
711.61	12.460
711.93	14.098
712.25	18.605
712.57	13.240
712.89	20.144
713.20	17.182
713.52	15.299
713.84	14.591
714.16	16.721
714.48	18.413
714.80	14.462
715.11	14.986
715.43	18.675
715.75	18.069
716.07	19.344
716.39	13.712
716.70	16.376
717.02	16.667
717.34	17.176
717.66	17.012
717.97	14.754
718.29	18.908
718.61	14.683
718.93	16.487
719.24	13.971
719.56	14.340
719.88	11.273
720.20	12.360
720.51	17.293
720.83	14.056
721.15	15.574
721.46	16.078
721.78	13.027
722.10	19.200
722.42	14.876
722.73	16.335
723.05	16.867
723.37	16.471
723.68	12.551
724.00	19.512
724.32	15.226
724.63	13.278
724.95	17.769
725.27	5.702
725.58	17.672
725.90	12.302
726.22	16.236
726.53	16.730
726.85	10.196
727.16	16.165
727.48	13.077
727.80	8.607
728.11	15.546
728.43	14.050
728.74	21.094
729.06	15.530
729.38	12.062
729.69	14.173
730.01	14.567
730.32	13.546
730.64	12.821
730.96	16.045
731.27	15.357
731.59	12.540
731.90	13.190
732.22	12.577
732.53	16.225
732.85	17.450
733.16	16.304
733.48	14.634
733.80	12.811
734.11	13.793
734.43	17.687
734.74	14.540
735.06	14.107
735.37	14.067
735.69	14.516
736.00	14.141
736.32	18.212
736.63	8.966
736.95	14.130
737.26	14.901
737.58	15.468
737.89	14.695
738.21	9.023
738.52	14.615
738.83	17.969
739.15	14.530
739.46	19.758
739.78	11.888
740.09	12.238
740.41	17.133
740.72	17.883
741.04	9.921
741.35	12.987
741.66	18.056
741.98	8.095
742.29	16.432
742.61	16.043
742.92	19.626
743.23	19.737
743.55	14.865
743.86	19.556
744.18	17.619
744.49	21.675
744.80	15.736
745.12	15.464
745.43	16.583
745.74	14.078
746.06	10.244
746.37	18.502
746.68	17.910
747.00	19.895
747.31	12.019
747.62	12.903
747.94	13.100
748.25	15.349
748.56	16.190
748.88	10.870
749.19	16.901
749.50	17.157
749.82	17.778
750.13	14.097
750.44	13.821
750.75	12.400
751.07	17.857
751.38	15.129
751.69	7.252
752.01	11.154
752.32	11.284
752.63	10.000
752.94	15.476
753.26	12.174
753.57	16.518
753.88	17.672
754.19	14.523
754.51	11.328
754.82	12.648
755.13	12.346
755.44	10.744
755.75	15.226
756.07	9.237
756.38	16.016
756.69	18.773
757.00	11.498
757.31	13.423
757.63	16.199
757.94	11.850
758.25	11.337
758.56	16.981
758.87	13.068
759.18	11.333
759.50	13.523
759.81	10.219
760.12	10.135
760.43	15.534
760.74	19.375
761.05	12.079
761.36	13.772
761.67	15.385
761.99	13.226
762.30	10.507
762.61	15.849
762.92	12.556
763.23	14.218
763.54	13.778
763.85	10.549
764.16	12.653
764.47	16.525
764.78	13.858
765.10	16.906
765.41	13.871
765.72	13.208
766.03	9.541
766.34	15.414
766.65	12.551
766.96	9.500
767.27	17.187
767.58	11.047
767.89	14.839
768.20	17.791
768.51	19.672
768.82	12.973
769.13	12.000
769.44	13.596
769.75	14.719
770.06	16.514
770.37	10.798
770.68	15.104
770.99	16.832
771.30	9.709
771.61	12.963
771.92	8.658
772.23	17.290
772.54	13.298
772.85	11.834
773.16	15.854
773.47	17.470
773.78	19.231
774.09	20.667
774.39	11.728
774.70	8.054
775.01	5.797
775.32	12.687
775.63	5.785
775.94	18.797
776.25	21.429
776.56	5.738
776.87	14.159
777.18	18.584
777.48	4.545
777.79	8.696
778.10	9.174
778.41	4.237
778.72	12.397
779.03	13.433
779.34	6.767
779.65	13.072
779.95	10.145
780.26	16.327
780.57	6.897
780.88	9.259
781.19	-4.040
781.50	5.600
781.80	8.497
782.11	12.179
782.42	4.819
782.73	1.460
783.04	13.514
783.34	4.545
783.65	5.426
783.96	15.447
784.27	7.692
784.57	5.691
784.88	8.130
785.19	7.018
785.50	-6.186
785.81	14.286
786.11	11.765
786.42	9.091
786.73	19.820
787.04	3.960
787.34	14.286
787.65	2.857
787.96	1.961
788.26	5.405
788.57	12.903
788.88	6.250
789.19	5.983
789.49	10.924
789.80	12.821
790.11	19.469
790.41	4.040
790.72	14.151
791.03	-20.833
791.33	11.842
791.64	8.602
791.95	1.333
792.25	-1.429
792.56	-4.878
792.87	8.163
793.17	11.842
793.48	-5.405
793.79	-4.225
794.09	13.924
794.40	13.830
794.70	14.019
795.01	0.877
795.32	-1.818
795.62	1.786
795.93	7.216
796.23	4.396
796.54	16.842
796.85	12.329
797.15	13.889
797.46	19.178
797.76	14.085
798.07	10.000
798.37	5.882
798.68	11.429
798.99	17.143
799.29	19.737
799.60	3.333
799.90	-2.778
800.21	6.250
800.51	9.524
800.82	8.197
801.12	14.035
801.43	-5.634
801.73	-8.475
802.04	18.033
802.34	-3.636
802.65	-11.538
802.95	3.704
803.26	-20.000
803.56	5.769
803.87	-10.526
804.17	8.065
804.48	16.923
804.78	-15.385
805.09	-2.326
805.39	-68.750
805.70	-5.660
806.00	35.088
806.30	10.811
806.61	10.294
806.91	7.407
807.22	16.000
807.52	8.955
807.83	0.000
808.13	-11.111
808.43	-14.545
808.74	-6.061
809.04	1.887
809.35	5.479
809.65	22.807
809.95	5.882
810.26	1.961
810.56	4.000
810.86	10.204
811.17	-2.857
811.47	15.385
811.77	-32.258
812.08	-34.211
812.38	28.571
812.69	-4.348
812.99	-9.677
813.29	2.381
813.59	-44.444
813.90	-25.532
814.20	-13.953
814.50	4.167
814.81	3.333
815.11	-4.878
815.41	-6.667
815.72	8.571
816.02	-13.889
816.32	20.513
816.62	-5.405
816.93	-26.471
817.23	4.348
817.53	26.471
817.84	5.882
818.14	-28.125
818.44	-17.241
818.74	-12.903
819.04	-29.630
819.35	6.667
819.65	-32.000
819.95	-3.333
820.25	-32.000
820.56	-10.526
820.86	10.000
821.16	-2.128
821.46	-5.172
821.76	2.564
822.07	-27.500
822.37	9.302
822.67	-53.333
822.97	-5.405
823.27	21.622
823.57	-24.000
823.88	24.324
824.18	-57.143
824.48	-15.385
824.78	-138.462
825.08	-21.739
825.38	-20.833
825.69	-20.833
825.99	-40.000
826.29	-27.027
826.59	0.000
826.89	40.000
827.19	-14.286
827.49	-2.632
827.79	-31.250
828.09	-66.667
828.39	4.348
828.70	-37.931
829.00	-48.276
829.30	-25.000
829.60	31.250
829.90	-44.444
830.20	-19.231
830.50	-33.333
830.80	-42.857
831.10	0.000
831.40	-61.905
831.70	20.588
832.00	-16.667
832.30	-21.053
832.60	-12.500
832.90	0.000
833.20	-94.118
833.50	-93.333
833.80	-120.000
834.10	-25.000
834.40	-54.167
834.70	-22.222
835.00	0.000
835.30	-45.833
835.60	10.345
835.90	-77.778
836.20	-81.818
836.50	-166.667
836.80	28.571
837.10	20.000
837.40	-47.059
837.70	-36.364
838.00	-41.667
838.30	-31.250
838.60	23.810
838.90	20.000
839.19	-21.739
839.49	-21.739
839.79	-5.556
840.09	-17.391
840.39	-45.455
840.69	-68.750
840.99	5.263
841.29	-12.500
841.59	-57.143
841.88	-50.000
842.18	0.000
842.48	-35.294
842.78	-31.034
843.08	28.571
843.38	15.385
843.68	-166.667
843.97	-76.923
844.27	-136.364
844.57	-320.000
844.87	28.000
845.17	-240.000
845.47	-78.571
845.76	-111.111
846.06	0.000
846.36	-325.000
846.66	-120.000
846.96	-52.632
847.25	-16.667
847.55	-125.000
847.85	-73.333
848.15	-150.000
848.44	80.769
848.74	5.263
849.04	666.667
849.34	-11.111
849.63	-57.895
849.93	0.000
850.23	-15.000
850.53	9.524
850.82	-32.000
851.12	-21.053
851.42	-850.000
851.71	-21.429
852.01	-8.333
852.31	-35.294
852.61	6.667
852.90	-57.143
853.20	-283.333
853.50	-33.333
853.79	-26.316
854.09	-106.667
854.39	3.571
854.68	-8.696
854.98	-150.000
855.28	10.345
855.57	-93.750
855.87	-25.000
856.17	0.000
856.46	-3.448
856.76	-6.667
857.05	-41.176
857.35	-184.615
857.65	-36.364
857.94	29.630
858.24	-107.143
858.53	-100.000
858.83	-66.667
859.13	-66.667
859.42	28.571
859.72	-137.500
860.01	-33.333
860.31	25.000
860.60	-340.000
860.90	-155.556
861.20	-175.000
861.49	-142.857
861.79	5.882
862.08	-300.000
862.38	-116.667
862.67	-53.846
862.97	35.294
863.26	40.000
863.56	-35.294
863.85	333.333
864.15	-130.000
864.44	7.692
864.74	-30.000
865.03	-212.500
865.33	-100.000
865.62	-47.059
865.92	-250.000
866.21	-107.143
866.51	-108.333
866.80	-1100.000
867.10	-33.333
867.39	-5.882
867.69	4.348
867.98	-14.286
868.27	-100.000
868.57	-68.750
868.86	-163.636
869.16	29.412
869.45	-100.000
869.75	-142.857
870.04	400.000
870.33	0.000
870.63	-200.000
870.92	-22.222
871.22	-50.000
871.51	-63.636
871.80	-41.667
872.10	10.000
>>>>>End Processed Spectral Data<<<<<
