SpectraSuite Data File
++++++++++++++++++++++++++++++++++++
Date: Sat May 16 11:25:31 PDT 2015
User: schluterlab
Dark Spectrum Present: Yes
Reference Spectrum Present: Yes
Number of Sampled Component Spectra: 1
Spectrometers: USB2E3373
Integration Time (usec): 3000 (USB2E3373)
Spectra Averaged: 3 (USB2E3373)
Boxcar Smoothing: 0 (USB2E3373)
Correct for Electrical Dark: No (USB2E3373)
Strobe/Lamp Enabled: No (USB2E3373)
Correct for Detector Non-linearity: No (USB2E3373)
Correct for Stray Light: No (USB2E3373)
Number of Pixels in Processed Spectrum: 2048
>>>>>Begin Processed Spectral Data<<<<<
178.53	0.000
178.91	86.667
179.29	233.333
179.67	-1200.000
180.04	-115.385
180.42	900.000
180.80	550.000
181.18	625.000
181.56	-112.500
181.94	1300.000
182.31	350.000
182.69	-84.615
183.07	-66.667
183.45	1600.000
183.83	533.333
184.20	-242.857
184.58	-137.500
184.96	-200.000
185.34	118.750
185.72	-450.000
186.09	366.667
186.47	-212.500
186.85	-187.500
187.23	0.000
187.61	-100.000
187.98	-312.500
188.36	-75.000
188.74	-137.500
189.12	1900.000
189.49	228.571
189.87	-83.333
190.25	400.000
190.63	7.143
191.00	-255.556
191.38	260.000
191.76	0.000
192.14	420.000
192.51	-160.000
192.89	-600.000
193.27	0.000
193.65	-222.222
194.02	-71.429
194.40	266.667
194.78	-170.000
195.15	-900.000
195.53	-118.182
195.91	-216.667
196.29	240.000
196.66	-533.333
197.04	2100.000
197.42	-150.000
197.79	6.667
198.17	-600.000
198.55	-600.000
198.92	-200.000
199.30	250.000
199.68	-500.000
200.05	-111.111
200.43	-233.333
200.81	-1800.000
201.18	-125.000
201.56	271.429
201.94	-40.000
202.31	-18.182
202.69	50.000
203.07	-90.000
203.44	400.000
203.82	-200.000
204.19	-75.000
204.57	-250.000
204.95	-1200.000
205.32	-31.250
205.70	400.000
206.08	-1400.000
206.45	-66.667
206.83	-550.000
207.20	-450.000
207.58	-666.667
207.96	-133.333
208.33	-12.500
208.71	-55.556
209.08	140.000
209.46	-185.714
209.84	950.000
210.21	0.000
210.59	-15.000
210.96	900.000
211.34	-300.000
211.71	-33.333
212.09	350.000
212.46	1050.000
212.84	-1800.000
213.22	400.000
213.59	116.667
213.97	-88.889
214.34	160.000
214.72	-90.000
215.09	-300.000
215.47	-100.000
215.84	-70.000
216.22	-80.000
216.59	6.667
216.97	-350.000
217.34	750.000
217.72	-128.571
218.09	-266.667
218.47	-200.000
218.84	242.857
219.22	-157.143
219.59	0.000
219.97	57.143
220.34	575.000
220.72	250.000
221.09	-38.462
221.47	0.000
221.84	300.000
222.22	-250.000
222.59	400.000
222.97	-300.000
223.34	-450.000
223.72	-533.333
224.09	-21.429
224.46	-300.000
224.84	-50.000
225.21	-228.571
225.59	45.455
225.96	-212.500
226.34	-171.429
226.71	-177.778
227.08	-10.000
227.46	1700.000
227.83	-185.714
228.21	-287.500
228.58	-0.000
228.95	-62.500
229.33	-1500.000
229.70	-300.000
230.08	-1050.000
230.45	-41.667
230.82	-66.667
231.20	-1600.000
231.57	-200.000
231.95	700.000
232.32	-23.810
232.69	-11.111
233.07	-185.714
233.44	-900.000
233.81	-73.333
234.19	-222.222
234.56	-81.250
234.93	3.125
235.31	-200.000
235.68	-171.429
236.05	-5.882
236.43	-50.000
236.80	0.000
237.17	-33.333
237.55	-28.571
237.92	-68.182
238.29	-28.571
238.67	-20.588
239.04	-5.556
239.41	-19.355
239.79	-41.026
240.16	-21.429
240.53	-16.364
240.91	20.513
241.28	5.455
241.65	15.385
242.02	13.115
242.40	-8.197
242.77	10.606
243.14	11.864
243.51	-5.714
243.89	16.456
244.26	15.730
244.63	11.579
245.00	11.579
245.38	22.034
245.75	17.699
246.12	17.600
246.49	18.898
246.87	18.699
247.24	10.169
247.61	22.034
247.98	16.901
248.36	25.874
248.73	12.025
249.10	24.841
249.47	22.807
249.84	19.318
250.22	14.881
250.59	20.904
250.96	20.419
251.33	24.645
251.70	18.269
252.08	19.905
252.45	18.009
252.82	23.333
253.19	23.404
253.56	19.355
253.94	20.675
254.31	20.172
254.68	21.545
255.05	20.968
255.42	23.016
255.79	19.355
256.16	18.824
256.54	23.897
256.91	16.288
257.28	19.414
257.65	20.567
258.02	23.270
258.39	23.077
258.76	15.541
259.14	24.074
259.51	23.279
259.88	19.512
260.25	23.602
260.62	21.222
260.99	19.881
261.36	25.000
261.73	22.254
262.10	24.444
262.47	19.658
262.85	23.143
263.22	21.777
263.59	20.000
263.96	19.710
264.33	24.390
264.70	21.271
265.07	23.901
265.44	22.739
265.81	19.638
266.18	20.000
266.55	21.324
266.92	22.922
267.29	24.213
267.66	20.988
268.03	24.155
268.40	21.831
268.77	21.446
269.14	19.490
269.51	23.218
269.88	18.349
270.25	20.513
270.62	24.485
270.99	21.396
271.36	20.979
271.73	20.404
272.10	23.799
272.47	20.889
272.84	22.222
273.21	20.413
273.58	19.560
273.95	20.175
274.32	23.982
274.69	23.195
275.06	22.290
275.43	20.536
275.80	23.422
276.17	20.293
276.54	24.033
276.91	21.605
277.28	21.298
277.65	22.314
278.02	19.207
278.39	20.432
278.76	20.916
279.13	22.134
279.50	21.074
279.87	19.450
280.23	22.672
280.60	23.459
280.97	20.000
281.34	19.536
281.71	20.962
282.08	22.984
282.45	19.756
282.82	23.643
283.19	20.909
283.56	24.542
283.92	21.555
284.29	18.587
284.66	22.662
285.03	21.390
285.40	21.771
285.77	21.930
286.14	19.495
286.51	21.137
286.87	20.145
287.24	20.990
287.61	20.826
287.98	19.237
288.35	20.000
288.72	20.713
289.08	18.983
289.45	19.865
289.82	17.820
290.19	21.511
290.56	18.347
290.93	20.350
291.29	18.152
291.66	17.069
292.03	20.251
292.40	18.675
292.77	20.342
293.13	19.675
293.50	18.871
293.87	18.252
294.24	19.759
294.60	17.576
294.97	18.968
295.34	15.556
295.71	18.006
296.08	15.054
296.44	16.452
296.81	17.236
297.18	18.451
297.55	16.102
297.91	19.665
298.28	17.397
298.65	18.550
299.02	18.182
299.38	16.310
299.75	17.255
300.12	17.436
300.48	18.031
300.85	14.941
301.22	16.818
301.59	17.945
301.95	17.758
302.32	16.949
302.69	14.688
303.05	15.995
303.42	15.625
303.79	16.866
304.15	15.521
304.52	14.586
304.89	16.293
305.25	16.239
305.62	14.689
305.99	17.668
306.35	17.425
306.72	15.831
307.09	16.799
307.45	15.891
307.82	15.531
308.19	16.555
308.55	16.013
308.92	17.293
309.29	15.135
309.65	16.543
310.02	16.307
310.38	15.459
310.75	17.316
311.12	16.322
311.48	16.388
311.85	16.684
312.22	17.199
312.58	16.175
312.95	15.698
313.31	16.484
313.68	16.884
314.05	17.013
314.41	15.392
314.78	15.884
315.14	17.078
315.51	17.224
315.87	16.651
316.24	17.396
316.61	16.795
316.97	18.010
317.34	15.800
317.70	17.069
318.07	17.724
318.43	16.011
318.80	18.122
319.16	17.167
319.53	16.729
319.89	16.933
320.26	17.647
320.62	17.212
320.99	17.512
321.35	17.044
321.72	18.117
322.08	19.486
322.45	16.931
322.81	18.348
323.18	17.867
323.54	17.930
323.91	17.794
324.27	19.202
324.64	18.464
325.00	18.586
325.37	18.281
325.73	19.598
326.10	18.158
326.46	19.002
326.83	19.319
327.19	19.266
327.56	20.698
327.92	18.777
328.29	20.433
328.65	18.545
329.01	19.611
329.38	18.733
329.74	21.062
330.11	20.580
330.47	19.346
330.84	21.265
331.20	19.946
331.56	20.146
331.93	19.361
332.29	20.457
332.66	19.754
333.02	20.814
333.38	21.057
333.75	20.659
334.11	19.822
334.48	20.741
334.84	21.085
335.20	20.213
335.57	21.931
335.93	22.113
336.29	20.992
336.66	21.322
337.02	21.261
337.38	20.410
337.75	21.598
338.11	21.735
338.47	21.263
338.84	20.962
339.20	20.738
339.56	22.371
339.93	21.164
340.29	20.549
340.65	21.329
341.02	22.260
341.38	22.072
341.74	21.169
342.11	21.587
342.47	21.373
342.83	20.067
343.20	21.349
343.56	20.408
343.92	20.868
344.28	22.035
344.65	20.957
345.01	20.672
345.37	22.010
345.73	20.622
346.10	19.215
346.46	20.715
346.82	21.251
347.19	21.200
347.55	21.027
347.91	20.630
348.27	20.286
348.63	21.325
349.00	21.559
349.36	20.609
349.72	22.054
350.08	20.289
350.45	20.725
350.81	21.815
351.17	20.579
351.53	20.127
351.89	21.584
352.26	20.930
352.62	22.350
352.98	21.519
353.34	22.062
353.70	19.923
354.07	21.951
354.43	22.846
354.79	20.602
355.15	20.527
355.51	20.859
355.87	20.474
356.24	21.843
356.60	22.482
356.96	22.325
357.32	20.823
357.68	21.686
358.04	20.785
358.40	21.578
358.77	20.556
359.13	20.581
359.49	21.088
359.85	22.104
360.21	20.852
360.57	22.214
360.93	21.481
361.29	22.048
361.66	21.875
362.02	22.263
362.38	22.450
362.74	22.125
363.10	21.951
363.46	22.507
363.82	21.064
364.18	21.852
364.54	23.588
364.90	22.152
365.26	21.897
365.62	22.523
365.98	23.044
366.35	21.690
366.71	21.776
367.07	23.289
367.43	22.718
367.79	22.268
368.15	21.622
368.51	23.357
368.87	23.283
369.23	22.877
369.59	22.847
369.95	22.903
370.31	23.277
370.67	22.849
371.03	23.251
371.39	22.631
371.75	23.963
372.11	23.529
372.47	22.849
372.83	23.366
373.19	23.571
373.55	24.912
373.91	23.186
374.27	23.682
374.63	24.362
374.99	24.200
375.35	22.409
375.71	24.308
376.07	24.435
376.42	22.583
376.78	24.183
377.14	24.610
377.50	25.403
377.86	23.927
378.22	23.995
378.58	24.336
378.94	24.846
379.30	24.619
379.66	25.683
380.02	24.005
380.38	25.076
380.74	25.029
381.09	24.663
381.45	25.119
381.81	24.864
382.17	24.436
382.53	24.498
382.89	25.478
383.25	24.865
383.61	24.705
383.97	25.291
384.32	24.593
384.68	24.909
385.04	25.423
385.40	26.537
385.76	25.732
386.12	24.797
386.48	26.176
386.83	26.319
387.19	26.181
387.55	24.712
387.91	26.082
388.27	26.116
388.62	25.841
388.98	26.287
389.34	26.071
389.70	26.005
390.06	25.544
390.42	26.538
390.77	26.183
391.13	26.770
391.49	26.450
391.85	26.559
392.20	25.364
392.56	26.390
392.92	26.298
393.28	27.153
393.64	27.300
393.99	27.200
394.35	26.034
394.71	26.127
395.07	27.809
395.42	26.996
395.78	26.713
396.14	26.293
396.50	26.606
396.85	28.069
397.21	26.974
397.57	27.416
397.92	27.400
398.28	27.278
398.64	27.365
399.00	27.809
399.35	27.565
399.71	27.003
400.07	27.522
400.42	27.494
400.78	26.655
401.14	27.425
401.49	27.889
401.85	27.578
402.21	28.129
402.57	28.095
402.92	28.320
403.28	27.390
403.63	26.783
403.99	27.906
404.35	27.295
404.70	27.736
405.06	28.143
405.42	27.429
405.77	27.093
406.13	27.655
406.49	28.101
406.84	27.175
407.20	28.622
407.55	27.676
407.91	27.655
408.27	28.676
408.62	27.841
408.98	28.623
409.34	27.727
409.69	27.284
410.05	28.138
410.40	29.246
410.76	27.919
411.11	28.429
411.47	27.174
411.83	28.423
412.18	27.290
412.54	27.700
412.89	28.493
413.25	28.808
413.60	28.007
413.96	28.404
414.31	29.419
414.67	29.016
415.03	28.849
415.38	28.367
415.74	29.704
416.09	28.389
416.45	27.579
416.80	28.934
417.16	28.704
417.51	29.810
417.87	28.932
418.22	28.887
418.58	28.498
418.93	28.510
419.29	28.795
419.64	27.701
420.00	28.129
420.35	27.853
420.71	29.712
421.06	28.639
421.42	29.508
421.77	29.648
422.12	29.323
422.48	28.648
422.83	28.474
423.19	29.065
423.54	29.280
423.90	29.381
424.25	29.186
424.61	30.941
424.96	30.135
425.31	29.905
425.67	30.086
426.02	29.203
426.38	30.067
426.73	29.690
427.09	30.147
427.44	30.227
427.79	30.640
428.15	30.281
428.50	30.792
428.85	28.417
429.21	29.441
429.56	30.000
429.92	30.160
430.27	29.212
430.62	30.721
430.98	29.796
431.33	30.203
431.68	30.563
432.04	30.330
432.39	31.738
432.74	30.935
433.10	30.388
433.45	29.879
433.80	31.467
434.16	29.500
434.51	31.288
434.86	31.634
435.22	30.457
435.57	29.682
435.92	31.360
436.28	31.157
436.63	30.921
436.98	30.126
437.34	31.128
437.69	31.097
438.04	31.140
438.39	31.408
438.75	31.083
439.10	31.038
439.45	30.718
439.81	30.904
440.16	30.437
440.51	31.765
440.86	30.885
441.22	31.288
441.57	31.263
441.92	31.765
442.27	31.385
442.63	31.277
442.98	30.700
443.33	32.015
443.68	31.631
444.03	31.778
444.39	31.375
444.74	32.159
445.09	31.414
445.44	32.302
445.79	31.871
446.15	32.913
446.50	31.519
446.85	32.068
447.20	31.052
447.55	32.431
447.91	31.724
448.26	31.899
448.61	31.579
448.96	32.381
449.31	31.849
449.66	33.371
450.02	31.357
450.37	31.536
450.72	32.768
451.07	32.998
451.42	31.165
451.77	31.777
452.12	32.598
452.47	32.683
452.83	31.741
453.18	32.195
453.53	32.214
453.88	33.612
454.23	31.983
454.58	33.748
454.93	32.053
455.28	31.549
455.63	32.371
455.98	32.590
456.34	32.592
456.69	32.645
457.04	33.374
457.39	32.476
457.74	32.250
458.09	32.947
458.44	32.794
458.79	31.839
459.14	32.059
459.49	32.800
459.84	33.052
460.19	32.697
460.54	32.728
460.89	32.455
461.24	32.908
461.59	32.649
461.94	32.463
462.29	32.162
462.64	32.675
462.99	33.601
463.34	33.491
463.69	32.888
464.04	32.923
464.39	32.497
464.74	32.801
465.09	32.952
465.44	32.205
465.79	33.164
466.14	32.739
466.49	33.679
466.84	33.493
467.19	33.603
467.54	32.152
467.89	33.539
468.24	33.551
468.59	33.854
468.94	33.569
469.29	32.424
469.64	33.760
469.99	34.639
470.34	34.202
470.68	34.012
471.03	34.067
471.38	33.333
471.73	33.916
472.08	33.936
472.43	35.393
472.78	34.200
473.13	33.466
473.48	33.950
473.83	34.429
474.17	32.930
474.52	34.143
474.87	32.867
475.22	33.864
475.57	33.778
475.92	34.665
476.27	33.943
476.61	34.873
476.96	33.482
477.31	33.638
477.66	34.698
478.01	34.090
478.36	33.944
478.70	34.277
479.05	33.315
479.40	34.197
479.75	33.843
480.10	34.524
480.45	33.269
480.79	35.192
481.14	34.822
481.49	35.140
481.84	34.119
482.19	34.217
482.53	34.328
482.88	34.029
483.23	34.038
483.58	34.829
483.92	34.114
484.27	33.983
484.62	34.298
484.97	34.139
485.31	32.672
485.66	31.522
486.01	31.875
486.36	32.842
486.70	34.059
487.05	32.814
487.40	33.974
487.75	33.885
488.09	33.725
488.44	35.047
488.79	35.019
489.13	35.070
489.48	35.073
489.83	34.629
490.17	35.046
490.52	35.734
490.87	35.289
491.22	35.311
491.56	35.463
491.91	36.116
492.26	35.519
492.60	34.967
492.95	34.555
493.30	35.588
493.64	35.261
493.99	34.560
494.34	35.238
494.68	36.376
495.03	35.277
495.37	35.693
495.72	36.346
496.07	35.476
496.41	35.340
496.76	34.886
497.11	35.704
497.45	35.584
497.80	36.518
498.14	34.971
498.49	35.912
498.84	35.437
499.18	35.721
499.53	35.655
499.87	35.618
500.22	35.637
500.56	36.468
500.91	36.305
501.26	35.905
501.60	35.436
501.95	37.101
502.29	35.711
502.64	36.728
502.98	34.739
503.33	36.231
503.67	36.925
504.02	36.601
504.36	36.176
504.71	36.373
505.06	35.397
505.40	36.377
505.75	37.144
506.09	36.047
506.44	36.692
506.78	37.130
507.13	36.560
507.47	37.767
507.82	37.377
508.16	36.995
508.51	36.321
508.85	37.060
509.19	37.624
509.54	37.262
509.88	37.340
510.23	37.421
510.57	37.989
510.92	38.077
511.26	38.490
511.61	37.473
511.95	37.015
512.30	37.383
512.64	38.008
512.98	38.229
513.33	38.001
513.67	38.693
514.02	37.360
514.36	37.729
514.70	38.144
515.05	38.022
515.39	37.774
515.74	39.616
516.08	38.329
516.42	39.547
516.77	38.879
517.11	38.330
517.46	39.414
517.80	40.433
518.14	39.251
518.49	38.553
518.83	39.407
519.17	40.261
519.52	39.271
519.86	39.785
520.20	40.465
520.55	40.062
520.89	39.887
521.23	39.316
521.58	40.627
521.92	40.785
522.26	39.238
522.61	39.670
522.95	39.375
523.29	40.690
523.64	40.287
523.98	40.165
524.32	40.289
524.66	39.441
525.01	39.884
525.35	40.013
525.69	40.924
526.04	40.862
526.38	41.120
526.72	39.336
527.06	41.927
527.41	40.264
527.75	39.142
528.09	41.496
528.43	41.049
528.78	40.704
529.12	41.229
529.46	40.851
529.80	41.382
530.15	40.889
530.49	40.750
530.83	41.650
531.17	41.212
531.51	40.857
531.86	40.158
532.20	40.283
532.54	41.043
532.88	40.448
533.22	41.243
533.57	40.927
533.91	39.513
534.25	39.786
534.59	39.163
534.93	40.199
535.27	41.536
535.62	41.880
535.96	41.694
536.30	39.791
536.64	41.036
536.98	41.384
537.32	39.806
537.66	40.937
538.01	40.893
538.35	40.608
538.69	40.508
539.03	40.826
539.37	41.184
539.71	41.694
540.05	41.261
540.39	41.274
540.73	41.603
541.07	41.530
541.42	41.323
541.76	38.804
542.10	41.931
542.44	41.439
542.78	41.452
543.12	41.684
543.46	40.411
543.80	40.602
544.14	39.960
544.48	40.486
544.82	40.528
545.16	42.186
545.50	40.444
545.84	41.655
546.18	41.817
546.52	41.394
546.86	42.379
547.20	41.983
547.54	41.322
547.88	39.748
548.22	40.433
548.56	39.679
548.90	40.162
549.24	40.995
549.58	41.990
549.92	41.979
550.26	42.630
550.60	41.038
550.94	42.044
551.28	41.685
551.62	41.211
551.96	41.968
552.30	40.976
552.64	42.153
552.98	40.995
553.32	41.198
553.66	42.033
554.00	41.862
554.34	40.794
554.68	41.082
555.02	42.402
555.36	41.050
555.69	42.693
556.03	41.123
556.37	41.038
556.71	41.732
557.05	42.055
557.39	41.351
557.73	41.357
558.07	42.728
558.41	41.735
558.75	42.433
559.08	42.879
559.42	42.037
559.76	42.178
560.10	42.431
560.44	41.329
560.78	40.919
561.12	41.753
561.45	41.233
561.79	41.882
562.13	41.515
562.47	41.807
562.81	41.513
563.15	41.148
563.48	41.189
563.82	42.055
564.16	41.312
564.50	42.070
564.84	41.336
565.17	41.180
565.51	41.004
565.85	41.853
566.19	41.831
566.52	40.574
566.86	41.783
567.20	41.586
567.54	40.933
567.88	40.145
568.21	40.213
568.55	40.403
568.89	39.463
569.23	39.426
569.56	37.663
569.90	38.041
570.24	38.595
570.57	37.364
570.91	36.960
571.25	37.776
571.59	37.559
571.92	36.875
572.26	37.268
572.60	36.922
572.93	37.349
573.27	36.372
573.61	36.163
573.95	36.695
574.28	37.209
574.62	36.451
574.96	36.565
575.29	36.789
575.63	36.607
575.97	36.677
576.30	36.887
576.64	37.076
576.98	35.929
577.31	36.710
577.65	36.256
577.98	36.184
578.32	36.729
578.66	36.281
578.99	37.091
579.33	36.574
579.67	35.988
580.00	36.533
580.34	36.155
580.67	36.994
581.01	36.495
581.35	36.566
581.68	36.202
582.02	36.314
582.35	35.524
582.69	36.547
583.02	36.936
583.36	36.130
583.70	36.815
584.03	37.177
584.37	36.942
584.70	37.272
585.04	36.278
585.37	36.396
585.71	36.792
586.04	36.525
586.38	36.541
586.72	36.556
587.05	37.100
587.39	36.957
587.72	36.687
588.06	37.084
588.39	36.856
588.73	37.417
589.06	38.107
589.40	38.200
589.73	37.500
590.07	37.910
590.40	37.638
590.73	38.065
591.07	38.197
591.40	39.125
591.74	38.184
592.07	38.198
592.41	38.174
592.74	38.201
593.08	37.624
593.41	37.072
593.75	37.356
594.08	38.569
594.41	37.560
594.75	37.788
595.08	37.782
595.42	37.825
595.75	38.184
596.09	37.912
596.42	39.280
596.75	38.249
597.09	38.468
597.42	38.280
597.75	38.707
598.09	39.404
598.42	38.003
598.76	37.251
599.09	36.938
599.42	37.793
599.76	37.524
600.09	38.740
600.42	38.055
600.76	38.267
601.09	37.410
601.42	38.069
601.76	38.396
602.09	38.937
602.42	38.230
602.76	37.059
603.09	38.145
603.42	38.195
603.76	38.053
604.09	38.206
604.42	37.843
604.76	38.334
605.09	38.201
605.42	39.007
605.75	38.206
606.09	37.692
606.42	38.375
606.75	38.214
607.09	38.685
607.42	38.424
607.75	37.837
608.08	39.268
608.42	38.978
608.75	37.850
609.08	39.065
609.41	39.263
609.75	38.274
610.08	39.853
610.41	39.855
610.74	39.749
611.07	39.148
611.41	38.830
611.74	38.972
612.07	39.796
612.40	39.712
612.73	39.580
613.07	40.561
613.40	41.051
613.73	39.510
614.06	39.319
614.39	41.037
614.72	39.553
615.06	39.565
615.39	38.144
615.72	40.359
616.05	38.984
616.38	40.743
616.71	39.700
617.05	41.375
617.38	41.486
617.71	40.479
618.04	39.752
618.37	40.440
618.70	40.874
619.03	39.946
619.36	41.015
619.69	42.355
620.03	40.427
620.36	40.928
620.69	42.498
621.02	41.553
621.35	42.097
621.68	42.295
622.01	43.042
622.34	41.382
622.67	41.172
623.00	41.316
623.33	41.493
623.66	41.654
623.99	41.729
624.32	41.146
624.65	40.103
624.99	40.926
625.32	40.569
625.65	42.113
625.98	41.549
626.31	42.822
626.64	41.339
626.97	44.521
627.30	43.149
627.63	42.142
627.96	42.646
628.29	43.658
628.62	43.075
628.95	43.898
629.28	42.293
629.61	43.376
629.94	42.817
630.26	43.042
630.59	44.422
630.92	42.242
631.25	44.758
631.58	44.339
631.91	42.766
632.24	44.889
632.57	45.667
632.90	47.586
633.23	45.093
633.56	44.561
633.89	45.991
634.22	43.566
634.55	46.154
634.88	44.498
635.20	43.820
635.53	45.929
635.86	45.214
636.19	45.910
636.52	44.444
636.85	43.321
637.18	43.500
637.51	46.964
637.83	45.672
638.16	45.658
638.49	45.103
638.82	44.788
639.15	45.914
639.48	44.747
639.81	47.165
640.13	45.676
640.46	47.293
640.79	48.459
641.12	45.980
641.45	47.202
641.77	47.455
642.10	45.317
642.43	48.103
642.76	46.614
643.09	48.095
643.41	48.254
643.74	48.172
644.07	46.958
644.40	46.191
644.73	48.515
645.05	46.244
645.38	46.523
645.71	48.110
646.04	49.076
646.36	47.295
646.69	48.097
647.02	48.736
647.35	48.195
647.67	46.350
648.00	47.803
648.33	48.567
648.66	44.355
648.98	46.975
649.31	44.615
649.64	44.844
649.96	43.642
650.29	44.098
650.62	45.783
650.94	46.206
651.27	49.393
651.60	47.059
651.92	46.575
652.25	44.908
652.58	45.486
652.90	43.660
653.23	43.710
653.56	44.147
653.88	43.770
654.21	46.477
654.54	47.508
654.86	44.302
655.19	41.834
655.52	40.212
655.84	34.393
656.17	36.643
656.49	50.394
656.82	52.953
657.15	40.630
657.47	30.580
657.80	23.238
658.13	27.022
658.45	36.948
658.78	37.123
659.10	38.082
659.43	39.100
659.75	40.047
660.08	39.375
660.41	40.029
660.73	43.564
661.06	47.681
661.38	49.643
661.71	46.654
662.03	48.589
662.36	48.188
662.68	48.945
663.01	47.771
663.33	49.887
663.66	48.283
663.98	46.429
664.31	48.546
664.63	49.779
664.96	46.855
665.28	46.421
665.61	44.186
665.93	48.354
666.26	43.927
666.58	45.946
666.91	47.661
667.23	49.342
667.56	47.392
667.88	48.869
668.21	47.465
668.53	47.897
668.86	47.344
669.18	51.142
669.50	47.897
669.83	50.608
670.15	46.861
670.48	47.664
670.80	47.608
671.13	44.695
671.45	45.946
671.77	46.895
672.10	45.759
672.42	45.756
672.75	43.636
673.07	43.063
673.39	43.169
673.72	45.472
674.04	48.408
674.37	42.474
674.69	46.721
675.01	43.830
675.34	44.685
675.66	49.460
675.98	41.630
676.31	48.190
676.63	50.805
676.95	44.469
677.28	47.332
677.60	49.095
677.92	47.357
678.25	47.484
678.57	45.062
678.89	45.912
679.22	45.493
679.54	44.576
679.86	42.200
680.18	44.106
680.51	44.134
680.83	44.571
681.15	45.087
681.48	47.262
681.80	45.363
682.12	44.064
682.44	43.222
682.77	46.104
683.09	47.170
683.41	47.566
683.73	48.402
684.06	45.806
684.38	42.887
684.70	41.975
685.02	41.142
685.34	47.368
685.67	42.992
685.99	44.612
686.31	45.242
686.63	41.312
686.96	42.699
687.28	42.389
687.60	43.164
687.92	38.327
688.24	43.898
688.56	41.082
688.89	42.735
689.21	43.326
689.53	47.356
689.85	43.430
690.17	43.946
690.49	45.958
690.82	44.819
691.14	41.509
691.46	43.459
691.78	45.154
692.10	43.644
692.42	44.000
692.74	41.202
693.06	42.921
693.39	42.058
693.71	41.761
694.03	43.197
694.35	40.181
694.67	41.608
694.99	40.665
695.31	44.643
695.63	42.602
695.95	43.672
696.27	47.132
696.59	46.257
696.91	44.101
697.23	44.271
697.56	40.865
697.88	42.568
698.20	41.328
698.52	36.771
698.84	45.631
699.16	43.810
699.48	40.750
699.80	43.860
700.12	44.836
700.44	40.782
700.76	41.983
701.08	46.221
701.40	44.713
701.72	50.309
702.04	44.872
702.36	46.988
702.68	42.814
703.00	41.449
703.32	37.536
703.64	45.000
703.96	46.512
704.28	44.379
704.60	41.772
704.91	44.127
705.23	45.307
705.55	45.270
705.87	45.392
706.19	44.097
706.51	46.181
706.83	46.557
707.15	44.268
707.47	43.802
707.79	42.784
708.11	40.458
708.43	44.389
708.74	38.442
709.06	43.733
709.38	40.517
709.70	44.375
710.02	45.399
710.34	39.934
710.66	40.635
710.98	42.587
711.29	40.323
711.61	39.617
711.93	40.656
712.25	43.522
712.57	44.251
712.89	46.763
713.20	45.017
713.52	42.164
713.84	41.281
714.16	43.607
714.48	40.635
714.80	40.923
715.11	38.617
715.43	45.482
715.75	43.614
716.07	45.246
716.39	40.468
716.70	41.812
717.02	42.222
717.34	45.420
717.66	46.473
717.97	45.082
718.29	48.319
718.61	46.825
718.93	39.427
719.24	40.809
719.56	35.849
719.88	44.727
720.20	38.577
720.51	46.992
720.83	42.570
721.15	46.311
721.46	40.784
721.78	44.444
722.10	42.000
722.42	36.364
722.73	42.231
723.05	45.783
723.37	40.000
723.68	37.652
724.00	49.593
724.32	44.444
724.63	40.249
724.95	45.455
725.27	40.789
725.58	42.672
725.90	40.476
726.22	44.649
726.53	45.247
726.85	30.980
727.16	37.970
727.48	40.385
727.80	42.213
728.11	40.756
728.43	38.017
728.74	40.234
729.06	41.288
729.38	37.743
729.69	40.551
730.01	40.551
730.32	41.833
730.64	43.956
730.96	39.179
731.27	38.571
731.59	38.585
731.90	40.184
732.22	42.331
732.53	43.377
732.85	35.906
733.16	38.406
733.48	34.495
733.80	37.722
734.11	42.069
734.43	38.095
734.74	37.982
735.06	37.304
735.37	40.673
735.69	35.806
736.00	35.354
736.32	38.411
736.63	32.069
736.95	36.957
737.26	38.079
737.58	36.331
737.89	41.219
738.21	36.842
738.52	42.308
738.83	36.328
739.15	40.598
739.46	45.565
739.78	39.860
740.09	37.762
740.41	36.014
740.72	44.891
741.04	38.492
741.35	34.632
741.66	43.056
741.98	40.952
742.29	43.192
742.61	44.385
742.92	39.720
743.23	37.719
743.55	42.793
743.86	48.000
744.18	44.286
744.49	43.350
744.80	45.685
745.12	42.784
745.43	44.221
745.74	42.718
746.06	37.073
746.37	40.969
746.68	40.796
747.00	40.314
747.31	37.019
747.62	36.406
747.94	37.991
748.25	43.256
748.56	37.619
748.88	38.587
749.19	40.376
749.50	46.569
749.82	41.778
750.13	46.696
750.44	34.959
750.75	43.200
751.07	40.000
751.38	36.531
751.69	37.023
752.01	36.923
752.32	35.798
752.63	39.615
752.94	36.905
753.26	42.174
753.57	45.982
753.88	37.500
754.19	39.834
754.51	33.594
754.82	35.178
755.13	37.449
755.44	38.843
755.75	41.975
756.07	32.129
756.38	37.500
756.69	39.350
757.00	39.373
757.31	37.919
757.63	38.006
757.94	36.994
758.25	34.302
758.56	40.701
758.87	37.216
759.18	32.667
759.50	39.858
759.81	32.482
760.12	34.459
760.43	36.893
760.74	38.750
761.05	39.045
761.36	37.126
761.67	34.024
761.99	31.613
762.30	41.304
762.61	36.226
762.92	40.359
763.23	39.810
763.54	40.000
763.85	43.038
764.16	32.245
764.47	39.831
764.78	33.333
765.10	39.568
765.41	34.516
765.72	34.591
766.03	32.155
766.34	37.218
766.65	40.081
766.96	31.500
767.27	34.896
767.58	43.605
767.89	39.355
768.20	39.877
768.51	39.344
768.82	38.919
769.13	39.000
769.44	36.404
769.75	38.528
770.06	41.284
770.37	37.089
770.68	41.146
770.99	30.693
771.30	38.350
771.61	37.037
771.92	32.035
772.23	30.374
772.54	34.574
772.85	36.095
773.16	36.585
773.47	37.952
773.78	36.813
774.09	39.333
774.39	37.037
774.70	41.611
775.01	36.957
775.32	36.567
775.63	38.843
775.94	36.090
776.25	36.429
776.56	40.984
776.87	42.478
777.18	49.558
777.48	33.636
777.79	33.043
778.10	32.110
778.41	29.661
778.72	36.364
779.03	47.015
779.34	38.346
779.65	44.444
779.95	38.406
780.26	34.014
780.57	37.931
780.88	42.593
781.19	21.212
781.50	40.800
781.80	35.948
782.11	29.487
782.42	31.325
782.73	24.088
783.04	22.973
783.34	36.364
783.65	28.682
783.96	41.463
784.27	31.624
784.57	31.707
784.88	39.024
785.19	44.737
785.50	25.773
785.81	34.286
786.11	31.373
786.42	21.818
786.73	34.234
787.04	48.515
787.34	37.143
787.65	28.571
787.96	32.353
788.26	35.135
788.57	20.161
788.88	28.906
789.19	34.188
789.49	25.210
789.80	29.915
790.11	36.283
790.41	28.283
790.72	31.132
791.03	36.111
791.33	30.263
791.64	19.355
791.95	24.000
792.25	34.286
792.56	21.951
792.87	35.714
793.17	27.632
793.48	14.865
793.79	9.859
794.09	31.646
794.40	36.170
794.70	36.449
795.01	24.561
795.32	20.909
795.62	25.893
795.93	24.742
796.23	28.571
796.54	38.947
796.85	21.918
797.15	23.611
797.46	41.096
797.76	30.986
798.07	25.000
798.37	29.412
798.68	25.714
798.99	18.571
799.29	25.000
799.60	43.333
799.90	26.389
800.21	15.625
800.51	31.746
800.82	27.869
801.12	17.544
801.43	5.634
801.73	25.424
802.04	27.869
802.34	12.727
802.65	13.462
802.95	14.815
803.26	15.000
803.56	19.231
803.87	-2.632
804.17	32.258
804.48	26.154
804.78	35.897
805.09	4.651
805.39	-21.875
805.70	13.208
806.00	47.368
806.30	29.730
806.61	32.353
806.91	13.580
807.22	18.667
807.52	29.851
807.83	33.871
808.13	19.048
808.43	3.636
808.74	30.303
809.04	22.642
809.35	28.767
809.65	31.579
809.95	27.941
810.26	41.176
810.56	26.000
810.86	40.816
811.17	54.286
811.47	13.462
811.77	32.258
812.08	5.263
812.38	30.952
812.69	10.870
812.99	9.677
813.29	2.381
813.59	-44.444
813.90	19.149
814.20	2.326
814.50	10.417
814.81	33.333
815.11	21.951
815.41	-10.000
815.72	42.857
816.02	-2.778
816.32	10.256
816.62	0.000
816.93	14.706
817.23	19.565
817.53	-11.765
817.84	23.529
818.14	-6.250
818.44	0.000
818.74	3.226
819.04	11.111
819.35	23.333
819.65	-36.000
819.95	33.333
820.25	44.000
820.56	0.000
820.86	-7.500
821.16	17.021
821.46	31.034
821.76	7.692
822.07	-7.500
822.37	16.279
822.67	-23.333
822.97	8.108
823.27	37.838
823.57	32.000
823.88	27.027
824.18	-33.333
824.48	-7.692
824.78	-115.385
825.08	4.348
825.38	-20.833
825.69	4.167
825.99	15.000
826.29	2.703
826.59	-2.941
826.89	44.000
827.19	-5.714
827.49	18.421
827.79	18.750
828.09	-16.667
828.39	21.739
828.70	-27.586
829.00	-20.690
829.30	5.556
829.60	43.750
829.90	22.222
830.20	3.846
830.50	-42.857
830.80	-42.857
831.10	25.641
831.40	-42.857
831.70	0.000
832.00	-50.000
832.30	-15.789
832.60	37.500
832.90	-66.667
833.20	17.647
833.50	-13.333
833.80	-33.333
834.10	-15.000
834.40	-29.167
834.70	33.333
835.00	0.000
835.30	16.667
835.60	20.690
835.90	-50.000
836.20	-27.273
836.50	-33.333
836.80	0.000
837.10	25.714
837.40	-5.882
837.70	45.455
838.00	-41.667
838.30	-37.500
838.60	-38.095
838.90	5.000
839.19	-26.087
839.49	8.696
839.79	-94.444
840.09	-17.391
840.39	13.636
840.69	-68.750
840.99	-21.053
841.29	-37.500
841.59	-42.857
841.88	-88.889
842.18	4.167
842.48	-29.412
842.78	-10.345
843.08	-35.714
843.38	-23.077
843.68	-144.444
843.97	-61.538
844.27	-163.636
844.57	-160.000
844.87	24.000
845.17	-140.000
845.47	7.143
845.76	-88.889
846.06	0.000
846.36	-575.000
846.66	-60.000
846.96	-21.053
847.25	-4.167
847.55	-150.000
847.85	6.667
848.15	-110.000
848.44	61.538
848.74	-21.053
849.04	500.000
849.34	-33.333
849.63	10.526
849.93	0.000
850.23	-75.000
850.53	-9.524
850.82	-24.000
851.12	26.316
851.42	-900.000
851.71	7.143
852.01	-141.667
852.31	-52.941
852.61	46.667
852.90	-47.619
853.20	-16.667
853.50	-27.778
853.79	26.316
854.09	-66.667
854.39	-7.143
854.68	-8.696
854.98	-108.333
855.28	13.793
855.57	-68.750
855.87	-25.000
856.17	-113.333
856.46	-3.448
856.76	-33.333
857.05	-29.412
857.35	-123.077
857.65	18.182
857.94	-3.704
858.24	-107.143
858.53	-50.000
858.83	-208.333
859.13	-88.889
859.42	28.571
859.72	-175.000
860.01	-66.667
860.31	-237.500
860.60	-260.000
860.90	-111.111
861.20	-187.500
861.49	-328.571
861.79	-35.294
862.08	-500.000
862.38	-50.000
862.67	-76.923
862.97	-41.176
863.26	15.000
863.56	-11.765
863.85	533.333
864.15	-110.000
864.44	-123.077
864.74	-5.000
865.03	-87.500
865.33	-200.000
865.62	-52.941
865.92	-550.000
866.21	-85.714
866.51	-125.000
866.80	200.000
867.10	-200.000
867.39	-5.882
867.69	30.435
867.98	-128.571
868.27	-280.000
868.57	-100.000
868.86	-136.364
869.16	-29.412
869.45	-200.000
869.75	-214.286
870.04	1000.000
870.33	-33.333
870.63	-80.000
870.92	-177.778
871.22	-116.667
871.51	-36.364
871.80	66.667
872.10	10.000
>>>>>End Processed Spectral Data<<<<<
