SpectraSuite Data File
++++++++++++++++++++++++++++++++++++
Date: Sat May 16 11:30:59 PDT 2015
User: schluterlab
Dark Spectrum Present: Yes
Reference Spectrum Present: Yes
Number of Sampled Component Spectra: 1
Spectrometers: USB2E3373
Integration Time (usec): 3000 (USB2E3373)
Spectra Averaged: 3 (USB2E3373)
Boxcar Smoothing: 0 (USB2E3373)
Correct for Electrical Dark: No (USB2E3373)
Strobe/Lamp Enabled: No (USB2E3373)
Correct for Detector Non-linearity: No (USB2E3373)
Correct for Stray Light: No (USB2E3373)
Number of Pixels in Processed Spectrum: 2048
>>>>>Begin Processed Spectral Data<<<<<
178.53	0.000
178.91	126.667
179.29	366.667
179.67	-800.000
180.04	-92.308
180.42	900.000
180.80	450.000
181.18	350.000
181.56	-125.000
181.94	1400.000
182.31	450.000
182.69	-53.846
183.07	-233.333
183.45	1150.000
183.83	666.667
184.20	-200.000
184.58	-125.000
184.96	-375.000
185.34	187.500
185.72	-400.000
186.09	266.667
186.47	-275.000
186.85	-112.500
187.23	-100.000
187.61	-150.000
187.98	-212.500
188.36	-62.500
188.74	-200.000
189.12	1500.000
189.49	228.571
189.87	-41.667
190.25	275.000
190.63	-50.000
191.00	-144.444
191.38	320.000
191.76	-53.333
192.14	480.000
192.51	-300.000
192.89	-433.333
193.27	0.000
193.65	-166.667
194.02	-257.143
194.40	600.000
194.78	-130.000
195.15	-500.000
195.53	-136.364
195.91	-450.000
196.29	100.000
196.66	-400.000
197.04	2100.000
197.42	-225.000
197.79	66.667
198.17	-600.000
198.55	-650.000
198.92	-900.000
199.30	337.500
199.68	-550.000
200.05	-122.222
200.43	-177.778
200.81	-1800.000
201.18	-108.333
201.56	257.143
201.94	-60.000
202.31	-22.727
202.69	80.000
203.07	-150.000
203.44	733.333
203.82	-266.667
204.19	-375.000
204.57	-475.000
204.95	-500.000
205.32	-68.750
205.70	900.000
206.08	-2000.000
206.45	-94.444
206.83	-1450.000
207.20	100.000
207.58	-800.000
207.96	-400.000
208.33	-225.000
208.71	-33.333
209.08	160.000
209.46	-28.571
209.84	750.000
210.21	0.000
210.59	25.000
210.96	300.000
211.34	-366.667
211.71	-400.000
212.09	375.000
212.46	1100.000
212.84	-1900.000
213.22	766.667
213.59	166.667
213.97	11.111
214.34	160.000
214.72	0.000
215.09	-300.000
215.47	-183.333
215.84	-160.000
216.22	-60.000
216.59	13.333
216.97	-700.000
217.34	1100.000
217.72	-142.857
218.09	-150.000
218.47	-171.429
218.84	385.714
219.22	-71.429
219.59	0.000
219.97	185.714
220.34	425.000
220.72	312.500
221.09	0.000
221.47	0.000
221.84	600.000
222.22	-350.000
222.59	1300.000
222.97	-62.500
223.34	-550.000
223.72	-466.667
224.09	-57.143
224.46	-500.000
224.84	-78.571
225.21	-185.714
225.59	-27.273
225.96	-250.000
226.34	-157.143
226.71	-177.778
227.08	-5.000
227.46	1800.000
227.83	-128.571
228.21	-187.500
228.58	650.000
228.95	-75.000
229.33	-2200.000
229.70	-280.000
230.08	-700.000
230.45	-66.667
230.82	-283.333
231.20	-900.000
231.57	-600.000
231.95	1900.000
232.32	23.810
232.69	-222.222
233.07	-128.571
233.44	-1000.000
233.81	-40.000
234.19	-111.111
234.56	-106.250
234.93	-18.750
235.31	-285.714
235.68	-100.000
236.05	23.529
236.43	-45.455
236.80	-6.452
237.17	-54.167
237.55	-85.714
237.92	-86.364
238.29	-17.143
238.67	5.882
239.04	-13.889
239.41	-35.484
239.79	-38.462
240.16	-40.476
240.53	-29.091
240.91	-30.769
241.28	-20.000
241.65	21.538
242.02	-22.951
242.40	-34.426
242.77	-9.091
243.14	-20.339
243.51	-20.000
243.89	-18.987
244.26	-13.483
244.63	-1.053
245.00	-1.053
245.38	-5.085
245.75	-1.770
246.12	-9.600
246.49	-6.299
246.87	-7.317
247.24	-16.102
247.61	-6.780
247.98	-7.746
248.36	-6.993
248.73	-3.165
249.10	-3.822
249.47	-2.339
249.84	1.136
250.22	-11.905
250.59	-2.825
250.96	-0.524
251.33	6.161
251.70	0.000
252.08	-2.844
252.45	-3.791
252.82	-4.286
253.19	-2.128
253.56	-1.210
253.94	-1.688
254.31	-1.288
254.68	0.407
255.05	-6.048
255.42	-3.175
255.79	-4.301
256.16	-1.569
256.54	-1.471
256.91	-3.030
257.28	-3.297
257.65	-1.418
258.02	3.459
258.39	0.000
258.76	-5.068
259.14	0.926
259.51	-0.984
259.88	0.610
260.25	2.484
260.62	0.965
260.99	-1.187
261.36	1.524
261.73	0.578
262.10	1.111
262.47	0.285
262.85	2.000
263.22	-0.287
263.59	-4.923
263.96	-1.159
264.33	-0.542
264.70	3.039
265.07	-1.099
265.44	-0.517
265.81	1.292
266.18	-2.532
266.55	-0.735
266.92	2.519
267.29	0.484
267.66	-0.741
268.03	2.415
268.40	-0.235
268.77	-0.482
269.14	0.696
269.51	3.218
269.88	1.147
270.25	-0.699
270.62	-1.373
270.99	1.577
271.36	-1.166
271.73	-0.673
272.10	0.458
272.47	-0.444
272.84	4.222
273.21	1.147
273.58	-1.099
273.95	0.219
274.32	0.452
274.69	0.000
275.06	3.885
275.43	-1.116
275.80	1.426
276.17	-0.418
276.54	1.629
276.91	-1.646
277.28	0.203
277.65	-0.207
278.02	1.253
278.39	1.572
278.76	0.797
279.13	0.198
279.50	2.187
279.87	-0.634
280.23	2.024
280.60	0.994
280.97	-0.583
281.34	1.741
281.71	-0.385
282.08	2.016
282.45	-2.037
282.82	-0.581
283.19	-1.455
283.56	2.930
283.92	0.530
284.29	0.558
284.66	0.000
285.03	3.565
285.40	0.369
285.77	2.281
286.14	0.542
286.51	0.710
286.87	0.544
287.24	2.048
287.61	0.661
287.98	1.040
288.35	0.661
288.72	-0.340
289.08	-0.847
289.45	0.842
289.82	0.519
290.19	2.299
290.56	0.000
290.93	-0.954
291.29	0.486
291.66	0.644
292.03	2.669
292.40	2.410
292.77	1.087
293.13	-0.163
293.50	0.892
293.87	1.380
294.24	1.357
294.60	-0.152
294.97	1.669
295.34	0.444
295.71	0.744
296.08	0.461
296.44	0.858
296.81	1.852
297.18	2.535
297.55	2.684
297.91	2.510
298.28	0.685
298.65	1.813
299.02	3.476
299.38	1.471
299.75	2.310
300.12	3.462
300.48	3.069
300.85	0.786
301.22	2.587
301.59	2.731
301.95	4.156
302.32	0.522
302.69	1.591
303.05	2.076
303.42	1.250
303.79	2.512
304.15	2.844
304.52	3.151
304.89	2.715
305.25	1.832
305.62	2.585
305.99	4.005
306.35	2.997
306.72	3.075
307.09	3.632
307.45	4.654
307.82	1.229
308.19	2.796
308.55	2.941
308.92	2.470
309.29	2.703
309.65	4.030
310.02	3.348
310.38	2.486
310.75	3.791
311.12	4.649
311.48	3.862
311.85	3.708
312.22	4.222
312.58	5.595
312.95	4.485
313.31	4.695
313.68	5.025
314.05	5.539
314.41	4.125
314.78	4.396
315.14	4.541
315.51	5.471
315.87	5.518
316.24	5.539
316.61	6.718
316.97	6.269
317.34	5.780
317.70	6.215
318.07	7.090
318.43	7.116
318.80	7.793
319.16	6.379
319.53	5.545
319.89	6.867
320.26	7.549
320.62	5.673
320.99	8.159
321.35	7.192
321.72	6.755
322.08	7.913
322.45	7.426
322.81	8.261
323.18	7.973
323.54	9.797
323.91	9.361
324.27	9.125
324.64	8.867
325.00	9.773
325.37	10.498
325.73	11.286
326.10	9.566
326.46	10.946
326.83	10.383
327.19	11.760
327.56	11.840
327.92	12.914
328.29	12.208
328.65	9.727
329.01	12.721
329.38	12.578
329.74	12.821
330.11	12.874
330.47	13.806
330.84	13.841
331.20	12.726
331.56	12.306
331.93	12.700
332.29	13.242
332.66	13.169
333.02	13.394
333.38	14.695
333.75	12.912
334.11	14.578
334.48	13.151
334.84	15.486
335.20	14.362
335.57	13.177
335.93	14.682
336.29	14.792
336.66	13.833
337.02	14.505
337.38	14.260
337.75	13.784
338.11	14.490
338.47	13.256
338.84	14.610
339.20	14.675
339.56	16.578
339.93	13.933
340.29	14.703
340.65	14.598
341.02	15.093
341.38	14.238
341.74	14.141
342.11	14.505
342.47	13.991
342.83	13.182
343.20	14.432
343.56	13.878
343.92	15.609
344.28	16.400
344.65	14.604
345.01	13.782
345.37	14.369
345.73	12.930
346.10	13.001
346.46	14.379
346.82	14.194
347.19	14.051
347.55	14.446
347.91	14.567
348.27	14.558
348.63	15.105
349.00	15.195
349.36	13.037
349.72	14.570
350.08	14.755
350.45	13.948
350.81	13.854
351.17	14.228
351.53	13.365
351.89	14.390
352.26	14.341
352.62	15.131
352.98	14.161
353.34	14.468
353.70	14.440
354.07	15.500
354.43	14.704
354.79	15.135
355.15	14.776
355.51	14.922
355.87	15.336
356.24	14.218
356.60	15.794
356.96	15.550
357.32	14.252
357.68	14.253
358.04	15.858
358.40	14.695
358.77	13.215
359.13	14.920
359.49	15.571
359.85	13.796
360.21	15.753
360.57	15.286
360.93	15.926
361.29	16.069
361.66	14.710
362.02	15.015
362.38	15.187
362.74	15.897
363.10	14.921
363.46	17.094
363.82	14.796
364.18	15.630
364.54	15.297
364.90	15.793
365.26	14.693
365.62	16.892
365.98	16.074
366.35	15.986
366.71	15.152
367.07	16.514
367.43	17.159
367.79	15.876
368.15	15.647
368.51	17.063
368.87	16.346
369.23	16.772
369.59	15.903
369.95	16.490
370.31	17.159
370.67	15.980
371.03	16.327
371.39	16.620
371.75	17.096
372.11	16.858
372.47	16.775
372.83	17.524
373.19	17.000
373.55	16.467
373.91	17.781
374.27	18.617
374.63	16.701
374.99	17.524
375.35	17.564
375.71	17.556
376.07	17.659
376.42	17.152
376.78	18.431
377.14	18.169
377.50	19.020
377.86	18.661
378.22	18.781
378.58	18.098
378.94	18.434
379.30	19.622
379.66	19.247
380.02	18.717
380.38	18.550
380.74	19.168
381.09	19.742
381.45	18.795
381.81	18.633
382.17	20.050
382.53	19.453
382.89	20.215
383.25	20.169
383.61	20.283
383.97	20.821
384.32	20.526
384.68	20.617
385.04	20.290
385.40	20.268
385.76	20.732
386.12	20.550
386.48	20.730
386.83	21.166
387.19	20.741
387.55	20.775
387.91	21.162
388.27	20.567
388.62	21.154
388.98	21.320
389.34	20.930
389.70	21.681
390.06	21.069
390.42	21.154
390.77	22.145
391.13	22.733
391.49	22.021
391.85	21.633
392.20	21.966
392.56	21.319
392.92	22.305
393.28	23.020
393.64	22.309
393.99	22.400
394.35	21.837
394.71	22.854
395.07	23.289
395.42	21.931
395.78	21.936
396.14	23.115
396.50	22.508
396.85	21.838
397.21	22.843
397.57	23.404
397.92	23.244
398.28	22.889
398.64	22.070
399.00	23.258
399.35	22.379
399.71	23.984
400.07	23.284
400.42	23.905
400.78	22.898
401.14	23.234
401.49	22.818
401.85	23.185
402.21	23.957
402.57	23.301
402.92	24.795
403.28	23.652
403.63	22.349
403.99	23.058
404.35	24.034
404.70	24.283
405.06	23.645
405.42	23.555
405.77	23.303
406.13	22.942
406.49	23.847
406.84	23.395
407.20	24.499
407.55	22.926
407.91	23.187
408.27	23.775
408.62	24.293
408.98	24.257
409.34	24.193
409.69	24.008
410.05	23.529
410.40	24.341
410.76	23.711
411.11	24.626
411.47	23.657
411.83	23.472
412.18	23.515
412.54	23.673
412.89	24.787
413.25	23.672
413.60	23.937
413.96	23.290
414.31	23.670
414.67	23.556
415.03	23.933
415.38	24.919
415.74	24.807
416.09	24.808
416.45	23.876
416.80	24.252
417.16	23.588
417.51	24.885
417.87	24.725
418.22	25.284
418.58	25.289
418.93	25.751
419.29	24.216
419.64	24.749
420.00	25.456
420.35	24.364
420.71	25.210
421.06	25.976
421.42	24.707
421.77	25.628
422.12	25.294
422.48	25.227
422.83	24.886
423.19	24.889
423.54	26.398
423.90	25.737
424.25	25.170
424.61	26.719
424.96	27.092
425.31	26.104
425.67	25.903
426.02	25.244
426.38	26.921
426.73	25.658
427.09	25.980
427.44	25.739
427.79	25.988
428.15	26.332
428.50	26.100
428.85	26.679
429.21	25.789
429.56	26.094
429.92	26.653
430.27	25.823
430.62	27.325
430.98	27.339
431.33	27.161
431.68	27.131
432.04	28.204
432.39	27.407
432.74	27.518
433.10	27.575
433.45	27.058
433.80	27.044
434.16	27.512
434.51	27.507
434.86	28.354
435.22	28.062
435.57	27.356
435.92	27.667
436.28	27.656
436.63	27.191
436.98	26.174
437.34	28.529
437.69	27.596
438.04	28.531
438.39	28.520
438.75	27.939
439.10	27.651
439.45	27.942
439.81	28.313
440.16	28.166
440.51	29.176
440.86	27.646
441.22	27.695
441.57	28.105
441.92	29.054
442.27	28.409
442.63	29.024
442.98	27.314
443.33	28.007
443.68	28.400
444.03	28.929
444.39	28.732
444.74	30.011
445.09	28.015
445.44	29.263
445.79	29.271
446.15	28.368
446.50	28.089
446.85	27.963
447.20	29.469
447.55	29.227
447.91	29.478
448.26	28.715
448.61	29.485
448.96	29.132
449.31	28.523
449.66	29.651
450.02	27.867
450.37	29.913
450.72	28.870
451.07	29.478
451.42	28.748
451.77	29.623
452.12	29.440
452.47	29.849
452.83	29.761
453.18	29.665
453.53	28.607
453.88	30.443
454.23	28.416
454.58	29.956
454.93	29.723
455.28	30.019
455.63	30.467
455.98	30.060
456.34	28.971
456.69	29.769
457.04	29.441
457.39	29.007
457.74	30.065
458.09	29.640
458.44	30.196
458.79	30.325
459.14	30.348
459.49	29.840
459.84	30.129
460.19	29.773
460.54	30.369
460.89	29.709
461.24	30.905
461.59	30.188
461.94	29.663
462.29	29.601
462.64	29.513
462.99	29.451
463.34	28.832
463.69	30.471
464.04	29.408
464.39	29.988
464.74	29.551
465.09	30.126
465.44	29.780
465.79	31.134
466.14	30.035
466.49	30.570
466.84	29.832
467.19	29.925
467.54	30.380
467.89	30.456
468.24	30.166
468.59	30.356
468.94	29.775
469.29	30.279
469.64	30.256
469.99	30.722
470.34	30.127
470.68	30.160
471.03	32.140
471.38	30.208
471.73	31.888
472.08	30.254
472.43	30.566
472.78	30.067
473.13	30.285
473.48	30.504
473.83	30.769
474.17	30.127
474.52	31.074
474.87	30.070
475.22	30.029
475.57	29.944
475.92	30.778
476.27	30.400
476.61	30.141
476.96	31.079
477.31	31.539
477.66	30.825
478.01	30.848
478.36	30.330
478.70	31.554
479.05	30.557
479.40	31.347
479.75	29.562
480.10	30.506
480.45	30.029
480.79	31.491
481.14	31.560
481.49	31.123
481.84	30.143
482.19	30.745
482.53	31.203
482.88	31.134
483.23	30.657
483.58	31.545
483.92	30.674
484.27	30.040
484.62	30.626
484.97	30.281
485.31	29.184
485.66	29.207
486.01	30.092
486.36	30.585
486.70	31.779
487.05	30.528
487.40	30.449
487.75	30.432
488.09	29.617
488.44	30.041
488.79	30.775
489.13	30.544
489.48	30.710
489.83	31.747
490.17	30.997
490.52	30.616
490.87	31.640
491.22	31.107
491.56	31.204
491.91	29.962
492.26	31.179
492.60	30.828
492.95	31.223
493.30	31.396
493.64	30.136
493.99	30.593
494.34	31.952
494.68	30.993
495.03	30.497
495.37	31.711
495.72	31.385
496.07	31.206
496.41	31.496
496.76	30.594
497.11	31.276
497.45	31.513
497.80	31.616
498.14	31.631
498.49	30.588
498.84	30.291
499.18	31.335
499.53	30.784
499.87	31.274
500.22	31.961
500.56	31.466
500.91	30.000
501.26	31.150
501.60	30.573
501.95	31.643
502.29	30.798
502.64	31.542
502.98	30.954
503.33	30.545
503.67	31.130
504.02	30.806
504.36	31.275
504.71	30.851
505.06	30.654
505.40	31.238
505.75	31.911
506.09	30.991
506.44	31.278
506.78	31.059
507.13	31.926
507.47	30.934
507.82	30.821
508.16	31.917
508.51	31.839
508.85	31.056
509.19	30.822
509.54	31.025
509.88	31.649
510.23	31.866
510.57	31.429
510.92	31.633
511.26	30.516
511.61	30.508
511.95	30.873
512.30	31.776
512.64	31.163
512.98	30.913
513.33	31.356
513.67	31.156
514.02	31.823
514.36	31.136
514.70	32.088
515.05	31.103
515.39	31.257
515.74	32.577
516.08	31.470
516.42	32.068
516.77	32.178
517.11	31.751
517.46	31.519
517.80	31.408
518.14	31.461
518.49	32.098
518.83	31.869
519.17	31.439
519.52	30.943
519.86	32.198
520.20	31.846
520.55	31.262
520.89	31.309
521.23	31.868
521.58	31.912
521.92	31.919
522.26	31.175
522.61	30.798
522.95	31.398
523.29	32.038
523.64	30.668
523.98	31.700
524.32	31.804
524.66	31.118
525.01	31.278
525.35	32.603
525.69	32.921
526.04	32.050
526.38	32.591
526.72	30.651
527.06	32.943
527.41	31.947
527.75	31.683
528.09	31.635
528.43	31.410
528.78	31.847
529.12	31.818
529.46	30.992
529.80	32.279
530.15	32.003
530.49	31.565
530.83	32.417
531.17	31.852
531.51	31.480
531.86	31.139
532.20	31.511
532.54	32.019
532.88	31.291
533.22	32.754
533.57	31.984
533.91	30.649
534.25	31.301
534.59	30.606
534.93	29.745
535.27	30.963
535.62	32.225
535.96	30.705
536.30	30.432
536.64	30.876
536.98	32.345
537.32	30.891
537.66	31.093
538.01	32.165
538.35	32.770
538.69	30.816
539.03	30.873
539.37	31.603
539.71	30.821
540.05	31.391
540.39	31.510
540.73	32.135
541.07	31.079
541.42	30.655
541.76	29.967
542.10	31.735
542.44	30.779
542.78	30.461
543.12	31.840
543.46	30.137
543.80	30.702
544.14	31.028
544.48	31.299
544.82	30.717
545.16	32.193
545.50	30.417
545.84	30.946
546.18	30.999
546.52	30.868
546.86	30.413
547.20	31.364
547.54	28.994
547.88	31.520
548.22	30.603
548.56	30.194
548.90	31.469
549.24	30.834
549.58	31.757
549.92	31.166
550.26	32.298
550.60	30.797
550.94	32.628
551.28	31.452
551.62	30.724
551.96	30.246
552.30	31.498
552.64	31.105
552.98	31.745
553.32	30.736
553.66	31.002
554.00	31.983
554.34	31.625
554.68	29.898
555.02	30.897
555.36	30.266
555.69	30.444
556.03	31.088
556.37	31.294
556.71	31.138
557.05	32.299
557.39	30.215
557.73	31.510
558.07	31.349
558.41	31.189
558.75	31.103
559.08	30.428
559.42	31.623
559.76	30.982
560.10	31.245
560.44	31.792
560.78	31.106
561.12	31.332
561.45	30.685
561.79	31.010
562.13	30.295
562.47	31.513
562.81	31.612
563.15	29.321
563.48	30.408
563.82	31.034
564.16	29.953
564.50	31.250
564.84	31.746
565.17	30.504
565.51	30.313
565.85	31.846
566.19	32.082
566.52	30.659
566.86	29.393
567.20	32.082
567.54	30.715
567.88	30.095
568.21	30.034
568.55	30.965
568.89	29.473
569.23	29.523
569.56	29.424
569.90	29.622
570.24	29.688
570.57	29.315
570.91	28.460
571.25	28.794
571.59	29.035
571.92	28.899
572.26	28.550
572.60	29.258
572.93	28.832
573.27	28.415
573.61	28.248
573.95	28.659
574.28	28.483
574.62	28.495
574.96	27.767
575.29	28.125
575.63	28.458
575.97	28.344
576.30	27.651
576.64	28.198
576.98	27.868
577.31	28.129
577.65	28.293
577.98	28.379
578.32	27.720
578.66	27.968
578.99	28.636
579.33	28.259
579.67	28.100
580.00	27.827
580.34	28.278
580.67	27.899
581.01	27.399
581.35	27.709
581.68	27.767
582.02	28.217
582.35	27.970
582.69	28.155
583.02	28.426
583.36	28.217
583.70	27.522
584.03	28.583
584.37	28.092
584.70	27.941
585.04	28.177
585.37	27.900
585.71	28.302
586.04	28.116
586.38	27.640
586.72	28.833
587.05	28.519
587.39	28.380
587.72	27.821
588.06	28.528
588.39	28.396
588.73	28.546
589.06	28.836
589.40	28.890
589.73	28.824
590.07	28.733
590.40	28.930
590.73	28.469
591.07	28.484
591.40	28.423
591.74	29.583
592.07	28.514
592.41	29.002
592.74	28.901
593.08	29.145
593.41	28.355
593.75	27.728
594.08	28.936
594.41	29.538
594.75	28.011
595.08	28.947
595.42	28.974
595.75	28.813
596.09	28.250
596.42	28.805
596.75	28.331
597.09	28.807
597.42	28.416
597.75	28.919
598.09	28.513
598.42	28.281
598.76	28.281
599.09	28.098
599.42	28.604
599.76	28.652
600.09	29.160
600.42	28.523
600.76	29.454
601.09	28.902
601.42	28.215
601.76	28.933
602.09	28.303
602.42	28.889
602.76	28.459
603.09	28.871
603.42	28.364
603.76	28.600
604.09	28.474
604.42	28.435
604.76	28.914
605.09	28.978
605.42	29.388
605.75	28.547
606.09	28.560
606.42	28.781
606.75	28.124
607.09	29.422
607.42	28.785
607.75	28.433
608.08	29.779
608.42	28.477
608.75	28.879
609.08	29.274
609.41	29.198
609.75	29.010
610.08	29.118
610.41	29.639
610.74	29.014
611.07	29.970
611.41	28.845
611.74	29.100
612.07	30.290
612.40	28.678
612.73	28.218
613.07	28.564
613.40	30.542
613.73	29.101
614.06	29.599
614.39	29.425
614.72	29.162
615.06	28.804
615.39	28.920
615.72	30.201
616.05	28.382
616.38	29.832
616.71	29.550
617.05	29.735
617.38	29.721
617.71	29.300
618.04	30.373
618.37	28.491
618.70	30.639
619.03	29.722
619.36	29.810
619.69	31.443
620.03	29.063
620.36	28.903
620.69	29.792
621.02	30.822
621.35	30.968
621.68	29.262
622.01	30.178
622.34	30.668
622.67	29.609
623.00	30.681
623.33	31.045
623.66	30.207
623.99	30.602
624.32	29.687
624.65	29.507
624.99	29.798
625.32	30.314
625.65	30.148
625.98	29.812
626.31	30.098
626.64	30.544
626.97	30.736
627.30	29.957
627.63	30.225
627.96	30.374
628.29	31.893
628.62	29.513
628.95	30.807
629.28	30.827
629.61	30.618
629.94	31.664
630.26	31.511
630.59	32.563
630.92	31.031
631.25	31.855
631.58	31.111
631.91	30.213
632.24	32.111
632.57	31.778
632.90	33.448
633.23	31.776
633.56	30.643
633.89	30.660
634.22	31.759
634.55	31.010
634.88	30.713
635.20	30.462
635.53	31.425
635.86	31.234
636.19	30.281
636.52	30.705
636.85	31.769
637.18	29.500
637.51	33.705
637.83	30.360
638.16	31.974
638.49	31.172
638.82	31.017
639.15	30.350
639.48	30.869
639.81	31.674
640.13	31.622
640.46	33.761
640.79	33.053
641.12	33.992
641.45	30.846
641.77	31.886
642.10	32.024
642.43	30.804
642.76	34.488
643.09	32.381
643.41	33.175
643.74	30.843
644.07	30.733
644.40	33.063
644.73	33.003
645.05	31.386
645.38	32.285
645.71	34.708
646.04	32.269
646.36	30.541
646.69	34.602
647.02	32.491
647.35	32.130
647.67	30.474
648.00	33.919
648.33	34.233
648.66	28.871
648.98	32.643
649.31	31.846
649.64	31.562
649.96	31.711
650.29	30.656
650.62	32.014
650.94	31.197
651.27	33.969
651.60	32.180
651.92	33.048
652.25	31.052
652.58	31.005
652.90	32.103
653.23	32.742
653.56	29.599
653.88	31.639
654.21	32.383
654.54	33.555
654.86	30.819
655.19	32.092
655.52	31.066
655.84	28.735
656.17	30.963
656.49	41.789
656.82	43.417
657.15	32.487
657.47	24.048
657.80	18.204
658.13	20.753
658.45	27.688
658.78	26.882
659.10	26.849
659.43	26.699
659.75	27.380
660.08	26.927
660.41	26.808
660.73	27.833
661.06	31.594
661.38	32.857
661.71	33.270
662.03	33.065
662.36	31.557
662.68	30.380
663.01	35.669
663.33	32.200
663.66	32.618
663.98	30.580
664.31	30.872
664.63	36.062
664.96	32.104
665.28	34.273
665.61	31.078
665.93	32.716
666.26	33.401
666.58	33.680
666.91	34.076
667.23	33.772
667.56	29.705
667.88	33.937
668.21	35.023
668.53	34.112
668.86	34.642
669.18	30.822
669.50	33.411
669.83	34.550
670.15	32.960
670.48	30.841
670.80	30.979
671.13	31.151
671.45	31.532
671.77	30.407
672.10	32.150
672.42	32.288
672.75	32.182
673.07	27.748
673.39	30.965
673.72	32.480
674.04	33.546
674.37	30.309
674.69	32.582
675.01	32.128
675.34	32.538
675.66	34.557
675.98	31.278
676.31	34.389
676.63	33.333
676.95	32.965
677.28	31.323
677.60	36.199
677.92	35.683
678.25	30.853
678.57	31.687
678.89	33.962
679.22	31.447
679.54	33.728
679.86	30.200
680.18	31.559
680.51	30.540
680.83	30.857
681.15	31.021
681.48	34.483
681.80	29.637
682.12	32.394
682.44	30.845
682.77	27.922
683.09	32.914
683.41	33.850
683.73	28.767
684.06	35.269
684.38	31.172
684.70	32.305
685.02	29.921
685.34	32.554
685.67	32.386
685.99	32.325
686.31	30.700
686.63	32.447
686.96	31.793
687.28	30.058
687.60	31.055
687.92	24.708
688.24	31.102
688.56	31.663
688.89	29.060
689.21	34.136
689.53	33.793
689.85	34.298
690.17	33.632
690.49	32.794
690.82	27.711
691.14	33.491
691.46	32.373
691.78	31.057
692.10	29.661
692.42	32.222
692.74	29.185
693.06	33.258
693.39	33.110
693.71	32.731
694.03	31.533
694.35	29.120
694.67	31.678
694.99	28.645
695.31	33.418
695.63	31.633
695.95	33.002
696.27	28.928
696.59	33.957
696.91	35.393
697.23	34.115
697.56	31.010
697.88	28.829
698.20	30.193
698.52	30.493
698.84	32.039
699.16	31.429
699.48	32.750
699.80	30.827
700.12	31.738
700.44	30.168
700.76	30.029
701.08	32.558
701.40	32.628
701.72	30.556
702.04	35.577
702.36	32.229
702.68	28.743
703.00	29.855
703.32	30.372
703.64	35.588
703.96	32.849
704.28	32.840
704.60	28.481
704.91	34.921
705.23	28.479
705.55	28.378
705.87	35.495
706.19	30.208
706.51	32.639
706.83	31.475
707.15	32.484
707.47	31.680
707.79	28.608
708.11	28.753
708.43	35.661
708.74	27.013
709.06	32.312
709.38	30.460
709.70	30.000
710.02	32.209
710.34	32.673
710.66	30.794
710.98	28.707
711.29	29.355
711.61	30.990
711.93	29.180
712.25	31.229
712.57	31.707
712.89	34.892
713.20	32.646
713.52	29.851
713.84	31.317
714.16	28.197
714.48	32.381
714.80	32.308
715.11	27.666
715.43	32.831
715.75	33.645
716.07	32.787
716.39	32.776
716.70	29.965
717.02	31.111
717.34	29.389
717.66	34.025
717.97	30.328
718.29	33.193
718.61	33.333
718.93	31.183
719.24	29.044
719.56	32.075
719.88	30.545
720.20	30.337
720.51	35.714
720.83	29.317
721.15	30.328
721.46	33.725
721.78	29.885
722.10	30.800
722.42	30.579
722.73	32.271
723.05	36.145
723.37	30.980
723.68	31.984
724.00	34.146
724.32	31.276
724.63	29.461
724.95	33.884
725.27	28.947
725.58	37.069
725.90	28.175
726.22	33.948
726.53	34.981
726.85	29.020
727.16	31.579
727.48	31.154
727.80	29.098
728.11	31.513
728.43	29.752
728.74	32.031
729.06	33.333
729.38	29.961
729.69	27.953
730.01	38.189
730.32	25.100
730.64	30.403
730.96	32.090
731.27	30.000
731.59	30.868
731.90	31.288
732.22	31.902
732.53	36.093
732.85	28.188
733.16	32.246
733.48	31.707
733.80	28.114
734.11	33.103
734.43	30.612
734.74	27.300
735.06	30.721
735.37	29.358
735.69	31.935
736.00	29.966
736.32	29.139
736.63	26.897
736.95	28.623
737.26	31.126
737.58	30.576
737.89	34.050
738.21	25.188
738.52	28.462
738.83	29.297
739.15	35.043
739.46	33.871
739.78	30.070
740.09	26.923
740.41	25.524
740.72	27.737
741.04	28.968
741.35	26.840
741.66	33.333
741.98	30.000
742.29	28.169
742.61	32.620
742.92	33.645
743.23	33.333
743.55	26.126
743.86	40.000
744.18	30.952
744.49	34.975
744.80	36.041
745.12	32.990
745.43	35.176
745.74	31.068
746.06	31.707
746.37	33.040
746.68	35.821
747.00	29.319
747.31	22.115
747.62	30.415
747.94	30.131
748.25	33.953
748.56	34.286
748.88	30.978
749.19	30.986
749.50	32.843
749.82	31.556
750.13	34.802
750.44	30.081
750.75	35.200
751.07	29.286
751.38	29.520
751.69	27.863
752.01	30.000
752.32	26.848
752.63	25.769
752.94	28.175
753.26	32.174
753.57	34.821
753.88	31.034
754.19	26.971
754.51	29.688
754.82	30.830
755.13	25.103
755.44	32.231
755.75	34.568
756.07	26.908
756.38	29.297
756.69	27.798
757.00	31.707
757.31	32.215
757.63	33.333
757.94	28.902
758.25	28.779
758.56	30.728
758.87	27.557
759.18	29.000
759.50	30.961
759.81	25.182
760.12	26.689
760.43	33.981
760.74	29.375
761.05	31.180
761.36	33.234
761.67	30.178
761.99	30.000
762.30	33.333
762.61	31.698
762.92	34.529
763.23	24.645
763.54	29.778
763.85	29.958
764.16	31.837
764.47	36.441
764.78	29.963
765.10	30.576
765.41	27.419
765.72	30.189
766.03	29.329
766.34	30.827
766.65	29.960
766.96	27.500
767.27	38.542
767.58	27.326
767.89	27.097
768.20	27.607
768.51	24.590
768.82	27.027
769.13	30.500
769.44	27.193
769.75	27.273
770.06	28.899
770.37	28.638
770.68	30.729
770.99	32.178
771.30	32.524
771.61	27.778
771.92	23.377
772.23	30.374
772.54	29.255
772.85	31.361
773.16	37.805
773.47	33.133
773.78	33.516
774.09	36.667
774.39	30.864
774.70	22.819
775.01	24.638
775.32	14.925
775.63	27.273
775.94	32.331
776.25	27.857
776.56	29.508
776.87	28.319
777.18	42.478
777.48	22.727
777.79	25.217
778.10	29.358
778.41	16.102
778.72	18.182
779.03	36.567
779.34	32.331
779.65	30.065
779.95	31.159
780.26	19.728
780.57	21.552
780.88	25.926
781.19	18.182
781.50	26.400
781.80	30.065
782.11	23.718
782.42	32.530
782.73	17.518
783.04	29.054
783.34	23.485
783.65	22.481
783.96	21.138
784.27	31.624
784.57	19.512
784.88	26.016
785.19	28.070
785.50	13.402
785.81	28.571
786.11	19.608
786.42	23.636
786.73	24.324
787.04	28.713
787.34	20.952
787.65	20.000
787.96	29.412
788.26	25.225
788.57	27.419
788.88	22.656
789.19	26.496
789.49	18.487
789.80	23.077
790.11	26.549
790.41	29.293
790.72	33.962
791.03	26.389
791.33	5.263
791.64	29.032
791.95	12.000
792.25	25.714
792.56	14.634
792.87	23.469
793.17	10.526
793.48	10.811
793.79	12.676
794.09	27.848
794.40	22.340
794.70	13.084
795.01	11.404
795.32	30.000
795.62	20.536
795.93	21.649
796.23	13.187
796.54	37.895
796.85	24.658
797.15	12.500
797.46	20.548
797.76	15.493
798.07	7.500
798.37	29.412
798.68	32.857
798.99	8.571
799.29	23.684
799.60	33.333
799.90	6.944
800.21	25.000
800.51	4.762
800.82	16.393
801.12	19.298
801.43	11.268
801.73	5.085
802.04	24.590
802.34	16.364
802.65	17.308
802.95	7.407
803.26	-17.500
803.56	32.692
803.87	-7.895
804.17	19.355
804.48	16.923
804.78	-2.564
805.09	9.302
805.39	6.250
805.70	0.000
806.00	33.333
806.30	18.919
806.61	13.235
806.91	33.333
807.22	17.333
807.52	16.418
807.83	11.290
808.13	11.111
808.43	-9.091
808.74	15.152
809.04	35.849
809.35	12.329
809.65	29.825
809.95	22.059
810.26	13.725
810.56	8.000
810.86	16.327
811.17	-2.857
811.47	13.462
811.77	12.903
812.08	-44.737
812.38	11.905
812.69	6.522
812.99	-29.032
813.29	21.429
813.59	-88.889
813.90	8.511
814.20	4.651
814.50	20.833
814.81	18.333
815.11	12.195
815.41	-6.667
815.72	14.286
816.02	25.000
816.32	20.513
816.62	-5.405
816.93	-38.235
817.23	6.522
817.53	-20.588
817.84	14.706
818.14	15.625
818.44	-3.448
818.74	-6.452
819.04	14.815
819.35	6.667
819.65	-36.000
819.95	16.667
820.25	-28.000
820.56	18.421
820.86	-10.000
821.16	14.894
821.46	15.517
821.76	10.256
822.07	-5.000
822.37	-4.651
822.67	-26.667
822.97	-5.405
823.27	0.000
823.57	40.000
823.88	24.324
824.18	-28.571
824.48	3.846
824.78	-76.923
825.08	8.696
825.38	-12.500
825.69	-12.500
825.99	-65.000
826.29	-5.405
826.59	-5.882
826.89	40.000
827.19	14.286
827.49	15.789
827.79	-15.625
828.09	-10.000
828.39	-13.043
828.70	-62.069
829.00	-13.793
829.30	-27.778
829.60	15.625
829.90	-50.000
830.20	-38.462
830.50	-66.667
830.80	-60.714
831.10	15.385
831.40	-61.905
831.70	8.824
832.00	0.000
832.30	-21.053
832.60	-62.500
832.90	-100.000
833.20	-117.647
833.50	-53.333
833.80	-53.333
834.10	-35.000
834.40	0.000
834.70	-33.333
835.00	-19.231
835.30	-8.333
835.60	0.000
835.90	27.778
836.20	-209.091
836.50	-108.333
836.80	-14.286
837.10	8.571
837.40	5.882
837.70	-136.364
838.00	20.833
838.30	-56.250
838.60	-23.810
838.90	-30.000
839.19	-21.739
839.49	-73.913
839.79	-44.444
840.09	-73.913
840.39	-40.909
840.69	-37.500
840.99	-36.842
841.29	-68.750
841.59	7.143
841.88	-55.556
842.18	-29.167
842.48	-152.941
842.78	-17.241
843.08	-7.143
843.38	-92.308
843.68	-166.667
843.97	-76.923
844.27	-109.091
844.57	-200.000
844.87	32.000
845.17	-260.000
845.47	-42.857
845.76	-122.222
846.06	0.000
846.36	-825.000
846.66	-70.000
846.96	36.842
847.25	-58.333
847.55	-25.000
847.85	-13.333
848.15	-220.000
848.44	38.462
848.74	-42.105
849.04	466.667
849.34	-22.222
849.63	-121.053
849.93	0.000
850.23	-65.000
850.53	-19.048
850.82	-36.000
851.12	47.368
851.42	-550.000
851.71	-14.286
852.01	-66.667
852.31	-29.412
852.61	-26.667
852.90	-38.095
853.20	-266.667
853.50	-38.889
853.79	-36.842
854.09	-120.000
854.39	25.000
854.68	-13.043
854.98	-266.667
855.28	13.793
855.57	-93.750
855.87	-35.000
856.17	-93.333
856.46	-27.586
856.76	-73.333
857.05	-29.412
857.35	-100.000
857.65	-18.182
857.94	0.000
858.24	-107.143
858.53	-100.000
858.83	-33.333
859.13	-44.444
859.42	23.810
859.72	-225.000
860.01	-166.667
860.31	-12.500
860.60	-480.000
860.90	-166.667
861.20	-150.000
861.49	-214.286
861.79	-5.882
862.08	-250.000
862.38	-150.000
862.67	-76.923
862.97	-17.647
863.26	-45.000
863.56	-17.647
863.85	700.000
864.15	-90.000
864.44	-107.692
864.74	-20.000
865.03	-125.000
865.33	-216.667
865.62	-76.471
865.92	-375.000
866.21	-128.571
866.51	-116.667
866.80	-400.000
867.10	-366.667
867.39	-29.412
867.69	-21.739
867.98	-85.714
868.27	-260.000
868.57	-6.250
868.86	-181.818
869.16	58.824
869.45	-183.333
869.75	-185.714
870.04	1000.000
870.33	-66.667
870.63	-140.000
870.92	-177.778
871.22	-33.333
871.51	-90.909
871.80	-91.667
872.10	-20.000
>>>>>End Processed Spectral Data<<<<<
