SpectraSuite Data File
++++++++++++++++++++++++++++++++++++
Date: Sat May 16 11:11:01 PDT 2015
User: schluterlab
Dark Spectrum Present: Yes
Reference Spectrum Present: Yes
Number of Sampled Component Spectra: 1
Spectrometers: USB2E3373
Integration Time (usec): 3000 (USB2E3373)
Spectra Averaged: 3 (USB2E3373)
Boxcar Smoothing: 0 (USB2E3373)
Correct for Electrical Dark: No (USB2E3373)
Strobe/Lamp Enabled: No (USB2E3373)
Correct for Detector Non-linearity: No (USB2E3373)
Correct for Stray Light: No (USB2E3373)
Number of Pixels in Processed Spectrum: 2048
>>>>>Begin Processed Spectral Data<<<<<
178.53	0.000
178.91	33.333
179.29	233.333
179.67	-200.000
180.04	7.692
180.42	600.000
180.80	50.000
181.18	250.000
181.56	-62.500
181.94	-400.000
182.31	300.000
182.69	-7.692
183.07	-266.667
183.45	900.000
183.83	33.333
184.20	-85.714
184.58	12.500
184.96	150.000
185.34	100.000
185.72	-200.000
186.09	233.333
186.47	-125.000
186.85	-75.000
187.23	-37.500
187.61	-175.000
187.98	-237.500
188.36	-50.000
188.74	-50.000
189.12	300.000
189.49	300.000
189.87	8.333
190.25	225.000
190.63	35.714
191.00	-166.667
191.38	100.000
191.76	-13.333
192.14	240.000
192.51	-120.000
192.89	-300.000
193.27	0.000
193.65	-55.556
194.02	-157.143
194.40	-100.000
194.78	50.000
195.15	200.000
195.53	-81.818
195.91	-283.333
196.29	220.000
196.66	-433.333
197.04	1900.000
197.42	25.000
197.79	13.333
198.17	233.333
198.55	-450.000
198.92	-700.000
199.30	125.000
199.68	-100.000
200.05	11.111
200.43	-66.667
200.81	-600.000
201.18	-66.667
201.56	114.286
201.94	26.667
202.31	27.273
202.69	70.000
203.07	60.000
203.44	466.667
203.82	-166.667
204.19	-250.000
204.57	25.000
204.95	-800.000
205.32	37.500
205.70	600.000
206.08	-1400.000
206.45	22.222
206.83	-500.000
207.20	150.000
207.58	-466.667
207.96	-100.000
208.33	-12.500
208.71	-244.444
209.08	230.000
209.46	-142.857
209.84	750.000
210.21	0.000
210.59	50.000
210.96	600.000
211.34	-166.667
211.71	-333.333
212.09	250.000
212.46	900.000
212.84	-2100.000
213.22	233.333
213.59	58.333
213.97	88.889
214.34	150.000
214.72	-70.000
215.09	-233.333
215.47	0.000
215.84	-30.000
216.22	50.000
216.59	-20.000
216.97	-350.000
217.34	500.000
217.72	-71.429
218.09	-216.667
218.47	-171.429
218.84	28.571
219.22	128.571
219.59	0.000
219.97	128.571
220.34	275.000
220.72	162.500
221.09	-38.462
221.47	0.000
221.84	266.667
222.22	250.000
222.59	500.000
222.97	-125.000
223.34	-450.000
223.72	-166.667
224.09	-28.571
224.46	-100.000
224.84	21.429
225.21	-114.286
225.59	-100.000
225.96	-37.500
226.34	14.286
226.71	-88.889
227.08	75.000
227.46	1300.000
227.83	-42.857
228.21	-187.500
228.58	500.000
228.95	12.500
229.33	-1500.000
229.70	-140.000
230.08	-350.000
230.45	116.667
230.82	16.667
231.20	-200.000
231.57	-600.000
231.95	1600.000
232.32	14.286
232.69	-77.778
233.07	-85.714
233.44	-600.000
233.81	-60.000
234.19	-122.222
234.56	6.250
234.93	-3.125
235.31	-242.857
235.68	-78.571
236.05	-52.941
236.43	-40.909
236.80	25.806
237.17	8.333
237.55	-33.333
237.92	-22.727
238.29	-20.000
238.67	14.706
239.04	2.778
239.41	3.226
239.79	-30.769
240.16	2.381
240.53	-3.636
240.91	2.564
241.28	-1.818
241.65	7.692
242.02	-8.197
242.40	-18.033
242.77	-3.030
243.14	-20.339
243.51	-15.714
243.89	-3.797
244.26	-5.618
244.63	3.158
245.00	-9.474
245.38	1.695
245.75	4.425
246.12	0.800
246.49	1.575
246.87	0.000
247.24	-5.932
247.61	-6.780
247.98	0.000
248.36	-0.699
248.73	8.228
249.10	-5.096
249.47	-0.585
249.84	4.545
250.22	-10.119
250.59	4.520
250.96	1.571
251.33	7.583
251.70	1.923
252.08	1.896
252.45	0.000
252.82	7.143
253.19	2.979
253.56	-2.419
253.94	4.219
254.31	-3.433
254.68	4.878
255.05	0.000
255.42	3.968
255.79	-4.301
256.16	2.745
256.54	0.000
256.91	-1.894
257.28	1.099
257.65	0.709
258.02	4.717
258.39	2.341
258.76	-1.351
259.14	-0.617
259.51	3.279
259.88	-0.305
260.25	2.795
260.62	0.965
260.99	3.264
261.36	3.354
261.73	6.936
262.10	4.722
262.47	1.425
262.85	3.714
263.22	0.860
263.59	-0.615
263.96	1.159
264.33	2.439
264.70	2.210
265.07	3.022
265.44	3.101
265.81	0.258
266.18	-3.291
266.55	1.716
266.92	3.275
267.29	2.906
267.66	0.741
268.03	2.415
268.40	2.817
268.77	4.819
269.14	0.000
269.51	2.759
269.88	0.000
270.25	0.932
270.62	2.059
270.99	1.351
271.36	1.166
271.73	-0.224
272.10	2.746
272.47	1.556
272.84	3.556
273.21	1.835
273.58	3.956
273.95	1.535
274.32	1.584
274.69	5.252
275.06	3.067
275.43	2.009
275.80	3.259
276.17	5.021
276.54	3.666
276.91	1.852
277.28	2.231
277.65	1.860
278.02	3.340
278.39	3.929
278.76	0.199
279.13	4.743
279.50	1.988
279.87	2.960
280.23	4.251
280.60	1.988
280.97	-0.583
281.34	1.934
281.71	3.077
282.08	3.226
282.45	0.407
282.82	1.357
283.19	1.636
283.56	4.029
283.92	1.943
284.29	0.743
284.66	1.799
285.03	3.922
285.40	2.399
285.77	3.333
286.14	2.888
286.51	2.487
286.87	1.089
287.24	1.877
287.61	1.983
287.98	1.040
288.35	2.314
288.72	2.207
289.08	1.017
289.45	4.040
289.82	1.211
290.19	2.956
290.56	2.314
290.93	2.226
291.29	1.135
291.66	1.771
292.03	1.570
292.40	3.916
292.77	1.398
293.13	2.114
293.50	2.377
293.87	2.914
294.24	3.017
294.60	1.364
294.97	4.401
295.34	2.222
295.71	3.571
296.08	1.536
296.44	0.715
296.81	2.849
297.18	1.690
297.55	3.672
297.91	4.881
298.28	1.370
298.65	4.324
299.02	4.679
299.38	2.540
299.75	2.310
300.12	4.103
300.48	4.604
300.85	1.048
301.22	3.493
301.59	2.601
301.95	4.912
302.32	1.956
302.69	4.162
303.05	1.709
303.42	2.875
303.79	2.153
304.15	3.910
304.52	3.267
304.89	3.070
305.25	2.808
305.62	2.350
305.99	4.594
306.35	4.772
306.72	2.506
307.09	4.313
307.45	3.859
307.82	3.687
308.19	4.251
308.55	4.031
308.92	2.793
309.29	4.216
309.65	4.878
310.02	4.752
310.38	3.568
310.75	5.225
311.12	4.649
311.48	4.906
311.85	5.664
312.22	5.664
312.58	5.799
312.95	6.728
313.31	6.394
313.68	6.533
314.05	6.627
314.41	5.131
314.78	5.095
315.14	6.910
315.51	6.383
315.87	7.841
316.24	7.580
316.61	7.774
316.97	7.662
317.34	7.707
317.70	7.328
318.07	8.489
318.43	8.146
318.80	9.014
319.16	7.598
319.53	9.211
319.89	7.808
320.26	8.529
320.62	8.846
320.99	9.453
321.35	7.882
321.72	9.212
322.08	9.792
322.45	9.703
322.81	9.702
323.18	9.894
323.54	10.721
323.91	9.546
324.27	11.597
324.64	10.695
325.00	10.733
325.37	10.679
325.73	11.986
326.10	9.035
326.46	11.296
326.83	10.213
327.19	12.093
327.56	12.692
327.92	12.489
328.29	11.082
328.65	11.182
329.01	10.954
329.38	11.954
329.74	12.454
330.11	12.330
330.47	12.807
330.84	12.191
331.20	13.357
331.56	13.036
331.93	13.321
332.29	12.329
332.66	12.818
333.02	13.032
333.38	12.634
333.75	12.912
334.11	12.978
334.48	12.886
334.84	13.561
335.20	11.968
335.57	12.906
335.93	14.682
336.29	12.489
336.66	12.511
337.02	12.162
337.38	11.319
337.75	12.116
338.11	11.807
338.47	12.367
338.84	11.615
339.20	12.830
339.56	14.082
339.93	12.081
340.29	12.312
340.65	12.413
341.02	13.322
341.38	12.384
341.74	12.108
342.11	13.396
342.47	11.760
342.83	12.678
343.20	11.443
343.56	12.163
343.92	12.354
344.28	13.036
344.65	12.129
345.01	12.185
345.37	11.794
345.73	12.848
346.10	11.284
346.46	11.292
346.82	12.430
347.19	12.079
347.55	11.798
347.91	12.047
348.27	11.695
348.63	12.278
349.00	12.411
349.36	9.992
349.72	12.500
350.08	12.029
350.45	10.717
350.81	12.261
351.17	11.013
351.53	10.899
351.89	11.641
352.26	11.860
352.62	12.442
352.98	12.025
353.34	11.431
353.70	12.124
354.07	12.038
354.43	12.490
354.79	11.886
355.15	11.342
355.51	11.875
355.87	11.542
356.24	10.643
356.60	12.893
356.96	11.547
357.32	11.560
357.68	11.571
358.04	11.932
358.40	11.137
358.77	10.587
359.13	11.247
359.49	11.640
359.85	11.128
360.21	11.035
360.57	12.199
360.93	11.852
361.29	11.360
361.66	10.595
362.02	10.873
362.38	11.592
362.74	11.429
363.10	10.976
363.46	12.963
363.82	11.880
364.18	11.650
364.54	12.509
364.90	12.089
365.26	11.127
365.62	11.832
365.98	12.233
366.35	11.408
366.71	10.923
367.07	10.797
367.43	11.942
367.79	11.753
368.15	11.451
368.51	12.308
368.87	13.049
369.23	12.632
369.59	12.083
369.95	11.769
370.31	11.744
370.67	12.003
371.03	11.735
371.39	11.174
371.75	10.801
372.11	11.765
372.47	11.497
372.83	11.544
373.19	11.786
373.55	11.963
373.91	12.020
374.27	11.910
374.63	11.318
374.99	11.961
375.35	11.036
375.71	12.221
376.07	11.636
376.42	10.795
376.78	12.092
377.14	11.525
377.50	12.057
377.86	12.094
378.22	11.746
378.58	11.242
378.94	12.269
379.30	12.127
379.66	12.568
380.02	12.181
380.38	11.480
380.74	11.606
381.09	12.419
381.45	12.351
381.81	12.220
382.17	11.905
382.53	10.760
382.89	11.304
383.25	12.583
383.61	12.559
383.97	12.064
384.32	11.264
384.68	11.790
385.04	11.413
385.40	12.781
385.76	12.927
386.12	12.680
386.48	12.500
386.83	12.822
387.19	12.134
387.55	11.993
387.91	11.737
388.27	11.218
388.62	11.839
388.98	11.872
389.34	11.750
389.70	11.876
390.06	11.995
390.42	12.821
390.77	11.924
391.13	12.547
391.49	12.414
391.85	12.656
392.20	12.500
392.56	11.851
392.92	12.208
393.28	12.572
393.64	12.808
393.99	12.738
394.35	12.348
394.71	12.230
395.07	14.187
395.42	11.919
395.78	11.502
396.14	12.710
396.50	13.028
396.85	12.215
397.21	12.029
397.57	11.854
397.92	12.529
398.28	12.833
398.64	13.385
399.00	13.146
399.35	12.176
399.71	13.008
400.07	12.418
400.42	13.139
400.78	12.701
401.14	12.275
401.49	12.028
401.85	12.142
402.21	12.396
402.57	12.561
402.92	12.209
403.28	12.439
403.63	11.923
403.99	13.238
404.35	11.836
404.70	13.224
405.06	12.745
405.42	11.808
405.77	11.821
406.13	12.436
406.49	12.403
406.84	12.657
407.20	13.428
407.55	12.730
407.91	12.111
408.27	13.235
408.62	12.026
408.98	12.310
409.34	12.127
409.69	11.909
410.05	12.796
410.40	12.508
410.76	12.389
411.11	12.406
411.47	12.596
411.83	12.286
412.18	12.314
412.54	12.142
412.89	12.758
413.25	11.924
413.60	11.604
413.96	11.768
414.31	13.211
414.67	12.571
415.03	12.678
415.38	12.492
415.74	13.853
416.09	13.427
416.45	12.566
416.80	13.264
417.16	11.960
417.51	13.526
417.87	12.427
418.22	11.820
418.58	12.901
418.93	13.243
419.29	12.296
419.64	11.997
420.00	12.940
420.35	12.419
420.71	13.145
421.06	13.491
421.42	12.705
421.77	12.451
422.12	12.591
422.48	12.774
422.83	14.009
423.19	12.806
423.54	13.775
423.90	12.261
424.25	12.896
424.61	12.967
424.96	14.453
425.31	13.807
425.67	12.951
426.02	12.737
426.38	12.583
426.73	13.209
427.09	13.113
427.44	14.375
427.79	12.907
428.15	13.226
428.50	13.314
428.85	13.729
429.21	13.448
429.56	12.865
429.92	13.427
430.27	13.958
430.62	13.793
430.98	13.957
431.33	13.767
431.68	13.566
432.04	13.430
432.39	14.131
432.74	14.029
433.10	13.956
433.45	13.069
433.80	13.774
434.16	13.971
434.51	13.479
434.86	14.060
435.22	13.864
435.57	13.525
435.92	14.361
436.28	13.650
436.63	13.397
436.98	12.887
437.34	14.589
437.69	13.477
438.04	14.237
438.39	14.621
438.75	14.028
439.10	13.326
439.45	13.337
439.81	13.976
440.16	14.083
440.51	14.000
440.86	14.286
441.22	13.378
441.57	14.053
441.92	14.527
442.27	13.528
442.63	14.056
442.98	13.375
443.33	13.893
443.68	13.913
444.03	14.980
444.39	14.537
444.74	13.656
445.09	13.706
445.44	14.913
445.79	13.259
446.15	15.170
446.50	13.936
446.85	13.699
447.20	14.402
447.55	13.923
447.91	14.318
448.26	13.687
448.61	14.601
448.96	14.846
449.31	13.754
449.66	14.825
450.02	13.352
450.37	14.087
450.72	14.237
451.07	14.079
451.42	12.825
451.77	14.123
452.12	14.422
452.47	14.673
452.83	14.036
453.18	14.105
453.53	14.366
453.88	14.952
454.23	13.785
454.58	15.040
454.93	13.665
455.28	13.958
455.63	14.865
455.98	14.578
456.34	13.596
456.69	14.447
457.04	15.243
457.39	14.055
457.74	14.530
458.09	14.907
458.44	14.665
458.79	14.182
459.14	15.630
459.49	14.506
459.84	14.840
460.19	15.215
460.54	14.459
460.89	14.182
461.24	14.693
461.59	14.537
461.94	14.513
462.29	15.068
462.64	14.295
462.99	14.793
463.34	14.787
463.69	14.631
464.04	14.411
464.39	15.173
464.74	14.480
465.09	14.612
465.44	15.172
465.79	15.285
466.14	15.593
466.49	14.680
466.84	15.066
467.19	14.776
467.54	14.557
467.89	13.564
468.24	14.846
468.59	15.678
468.94	14.148
469.29	14.555
469.64	14.555
469.99	14.585
470.34	14.763
470.68	15.407
471.03	15.554
471.38	14.444
471.73	15.175
472.08	14.056
472.43	13.449
472.78	14.800
473.13	13.453
473.48	14.997
473.83	14.330
474.17	14.777
474.52	14.898
474.87	14.569
475.22	13.451
475.57	14.000
475.92	15.011
476.27	13.943
476.61	14.648
476.96	14.925
477.31	14.962
477.66	14.831
478.01	14.911
478.36	14.563
478.70	15.056
479.05	15.251
479.40	14.508
479.75	13.965
480.10	14.931
480.45	14.362
480.79	14.610
481.14	15.153
481.49	14.860
481.84	14.193
482.19	14.938
482.53	14.962
482.88	14.713
483.23	14.319
483.58	15.264
483.92	14.477
484.27	14.621
484.62	14.730
484.97	14.458
485.31	14.208
485.66	14.672
486.01	14.044
486.36	14.338
486.70	14.647
487.05	14.473
487.40	14.557
487.75	14.206
488.09	14.330
488.44	13.938
488.79	14.503
489.13	14.378
489.48	15.171
489.83	14.279
490.17	14.758
490.52	14.221
490.87	14.411
491.22	14.292
491.56	14.491
491.91	14.504
492.26	14.528
492.60	14.320
492.95	14.660
493.30	14.531
493.64	14.480
493.99	14.484
494.34	14.952
494.68	14.513
495.03	14.293
495.37	13.815
495.72	13.998
496.07	14.547
496.41	14.914
496.76	14.110
497.11	14.131
497.45	15.086
497.80	14.007
498.14	14.145
498.49	13.461
498.84	13.835
499.18	14.522
499.53	14.467
499.87	14.093
500.22	14.510
500.56	14.707
500.91	13.990
501.26	14.993
501.60	14.107
501.95	14.783
502.29	14.265
502.64	14.993
502.98	14.231
503.33	14.098
503.67	14.224
504.02	14.437
504.36	14.216
504.71	14.286
505.06	14.179
505.40	15.070
505.75	14.024
506.09	14.408
506.44	14.035
506.78	13.598
507.13	14.058
507.47	14.502
507.82	14.610
508.16	13.990
508.51	14.323
508.85	14.545
509.19	14.286
509.54	14.799
509.88	13.830
510.23	14.046
510.57	14.709
510.92	14.876
511.26	13.557
511.61	13.769
511.95	14.278
512.30	14.513
512.64	13.801
512.98	15.017
513.33	14.278
513.67	14.070
514.02	13.031
514.36	14.848
514.70	14.318
515.05	14.694
515.39	13.206
515.74	14.369
516.08	14.179
516.42	14.108
516.77	15.020
517.11	14.474
517.46	14.234
517.80	14.380
518.14	14.372
518.49	13.748
518.83	13.769
519.17	14.091
519.52	13.939
519.86	13.978
520.20	13.631
520.55	14.092
520.89	13.838
521.23	14.652
521.58	13.918
521.92	14.566
522.26	14.667
522.61	14.892
522.95	13.146
523.29	13.856
523.64	13.679
523.98	13.877
524.32	13.891
524.66	14.596
525.01	13.423
525.35	14.562
525.69	13.142
526.04	14.426
526.38	13.622
526.72	13.921
527.06	14.648
527.41	13.729
527.75	12.673
528.09	14.626
528.43	13.902
528.78	14.447
529.12	14.789
529.46	13.015
529.80	13.428
530.15	14.359
530.49	14.036
530.83	14.669
531.17	14.276
531.51	13.262
531.86	14.417
532.20	13.495
532.54	14.639
532.88	13.043
533.22	13.168
533.57	14.164
533.91	12.797
534.25	13.325
534.59	13.179
534.93	12.757
535.27	13.782
535.62	13.875
535.96	13.704
536.30	13.416
536.64	14.409
536.98	13.630
537.32	13.476
537.66	13.510
538.01	13.333
538.35	14.527
538.69	13.035
539.03	13.879
539.37	13.706
539.71	14.009
540.05	13.502
540.39	13.089
540.73	14.236
541.07	13.866
541.42	12.424
541.76	12.824
542.10	14.517
542.44	13.458
542.78	14.586
543.12	13.035
543.46	12.260
543.80	13.043
544.14	13.633
544.48	13.976
544.82	13.464
545.16	13.615
545.50	12.853
545.84	13.839
546.18	13.245
546.52	14.083
546.86	13.818
547.20	13.432
547.54	12.603
547.88	14.068
548.22	11.992
548.56	12.291
548.90	13.612
549.24	13.034
549.58	13.267
549.92	13.357
550.26	14.523
550.60	13.300
550.94	13.577
551.28	13.920
551.62	13.737
551.96	13.676
552.30	13.589
552.64	13.300
552.98	13.735
553.32	13.636
553.66	13.266
554.00	12.793
554.34	13.574
554.68	13.304
555.02	13.459
555.36	13.228
555.69	12.966
556.03	13.193
556.37	12.802
556.71	13.958
557.05	13.747
557.39	12.621
557.73	13.567
558.07	13.037
558.41	12.865
558.75	12.624
559.08	12.685
559.42	13.017
559.76	14.110
560.10	13.721
560.44	13.367
560.78	12.735
561.12	13.389
561.45	12.945
561.79	13.728
562.13	13.745
562.47	14.216
562.81	12.801
563.15	13.226
563.48	13.753
563.82	13.049
564.16	12.103
564.50	12.702
564.84	13.624
565.17	13.660
565.51	14.081
565.85	12.914
566.19	13.570
566.52	12.524
566.86	13.148
567.20	14.165
567.54	14.176
567.88	13.289
568.21	13.535
568.55	12.725
568.89	12.575
569.23	12.494
569.56	12.610
569.90	13.729
570.24	13.003
570.57	12.583
570.91	12.683
571.25	13.327
571.59	13.300
571.92	13.006
572.26	13.122
572.60	12.969
572.93	12.852
573.27	12.591
573.61	12.475
573.95	12.799
574.28	12.869
574.62	13.345
574.96	12.861
575.29	13.008
575.63	12.636
575.97	12.190
576.30	12.935
576.64	12.428
576.98	12.914
577.31	12.992
577.65	12.883
577.98	12.954
578.32	12.692
578.66	12.823
578.99	12.204
579.33	12.836
579.67	12.529
580.00	12.351
580.34	12.622
580.67	12.699
581.01	12.363
581.35	12.539
581.68	12.729
582.02	12.851
582.35	12.691
582.69	12.819
583.02	12.754
583.36	12.655
583.70	12.212
584.03	13.039
584.37	12.233
584.70	12.794
585.04	12.608
585.37	12.554
585.71	12.651
586.04	12.310
586.38	12.323
586.72	12.796
587.05	12.773
587.39	13.138
587.72	13.034
588.06	13.260
588.39	12.390
588.73	12.794
589.06	12.852
589.40	13.123
589.73	12.465
590.07	12.600
590.40	13.026
590.73	12.515
591.07	12.705
591.40	13.085
591.74	12.728
592.07	13.018
592.41	12.739
592.74	13.028
593.08	13.388
593.41	12.467
593.75	12.529
594.08	12.581
594.41	13.494
594.75	12.835
595.08	12.594
595.42	13.367
595.75	12.679
596.09	12.806
596.42	13.134
596.75	12.807
597.09	13.446
597.42	12.746
597.75	12.843
598.09	13.195
598.42	12.329
598.76	12.375
599.09	13.023
599.42	12.957
599.76	13.364
600.09	13.092
600.42	13.559
600.76	13.296
601.09	12.799
601.42	12.742
601.76	13.006
602.09	12.434
602.42	12.881
602.76	12.921
603.09	12.419
603.42	13.014
603.76	13.004
604.09	13.216
604.42	12.531
604.76	12.909
605.09	12.658
605.42	13.076
605.75	12.376
606.09	12.868
606.42	12.275
606.75	12.666
607.09	12.660
607.42	13.116
607.75	12.892
608.08	13.511
608.42	12.914
608.75	12.897
609.08	13.200
609.41	12.755
609.75	12.921
610.08	12.745
610.41	12.916
610.74	13.781
611.07	12.931
611.41	12.658
611.74	13.676
612.07	14.071
612.40	12.846
612.73	12.870
613.07	12.878
613.40	13.465
613.73	13.243
614.06	12.905
614.39	13.360
614.72	12.458
615.06	12.772
615.39	12.480
615.72	13.797
616.05	13.197
616.38	12.826
616.71	13.333
617.05	13.691
617.38	13.189
617.71	12.531
618.04	13.540
618.37	12.516
618.70	13.299
619.03	12.864
619.36	13.953
619.69	12.706
620.03	12.810
620.36	13.010
620.69	14.142
621.02	13.318
621.35	12.823
621.68	12.623
622.01	13.107
622.34	13.898
622.67	13.359
623.00	13.160
623.33	14.328
623.66	12.186
623.99	13.609
624.32	12.574
624.65	12.877
624.99	13.368
625.32	12.575
625.65	14.064
625.98	12.754
626.31	12.887
626.64	12.971
626.97	13.870
627.30	12.851
627.63	12.349
627.96	13.142
628.29	12.960
628.62	12.034
628.95	14.469
629.28	13.064
629.61	12.758
629.94	13.989
630.26	13.022
630.59	14.573
630.92	14.114
631.25	13.710
631.58	14.074
631.91	11.383
632.24	14.111
632.57	14.000
632.90	12.989
633.23	13.084
633.56	11.813
633.89	14.623
634.22	13.223
634.55	13.341
634.88	14.148
635.20	12.484
635.53	12.977
635.86	13.098
636.19	13.919
636.52	13.620
636.85	12.876
637.18	11.750
637.51	14.870
637.83	12.517
638.16	12.895
638.49	13.379
638.82	13.127
639.15	15.435
639.48	12.581
639.81	13.140
640.13	14.189
640.46	15.670
640.79	14.706
641.12	14.386
641.45	13.630
641.77	13.024
642.10	12.840
642.43	14.416
642.76	12.756
643.09	14.921
643.41	14.762
643.74	14.626
644.07	16.069
644.40	14.911
644.73	13.861
645.05	12.688
645.38	16.060
645.71	12.887
646.04	16.807
646.36	15.532
646.69	13.495
647.02	15.162
647.35	13.177
647.67	13.139
648.00	15.817
648.33	16.863
648.66	13.065
648.98	12.580
649.31	14.769
649.64	13.750
649.96	13.501
650.29	14.262
650.62	13.253
650.94	16.526
651.27	13.865
651.60	14.014
651.92	15.240
652.25	15.025
652.58	12.777
652.90	13.162
653.23	15.484
653.56	14.047
653.88	13.607
654.21	14.430
654.54	16.113
654.86	13.644
655.19	15.903
655.52	13.681
655.84	13.096
656.17	14.385
656.49	19.649
656.82	20.450
657.15	15.140
657.47	11.249
657.80	8.691
658.13	9.834
658.45	13.372
658.78	13.018
659.10	13.101
659.43	12.645
659.75	14.044
660.08	13.490
660.41	12.418
660.73	12.541
661.06	13.478
661.38	14.643
661.71	13.958
662.03	12.702
662.36	14.925
662.68	13.502
663.01	14.437
663.33	14.512
663.66	13.734
663.98	14.063
664.31	10.962
664.63	16.814
664.96	15.184
665.28	14.317
665.61	12.685
665.93	13.786
666.26	15.789
666.58	15.593
666.91	13.363
667.23	14.912
667.56	15.646
667.88	16.516
668.21	11.982
668.53	12.617
668.86	14.088
669.18	11.872
669.50	13.084
669.83	11.679
670.15	15.695
670.48	14.720
670.80	12.984
671.13	12.190
671.45	15.541
671.77	15.203
672.10	14.201
672.42	14.022
672.75	13.455
673.07	12.613
673.39	14.572
673.72	16.339
674.04	12.951
674.37	13.196
674.69	16.393
675.01	12.553
675.34	13.232
675.66	16.199
675.98	13.877
676.31	14.932
676.63	12.644
676.95	15.487
677.28	13.457
677.60	16.290
677.92	17.841
678.25	13.567
678.57	17.284
678.89	12.369
679.22	13.627
679.54	16.174
679.86	12.800
680.18	14.639
680.51	13.594
680.83	13.714
681.15	15.607
681.48	18.053
681.80	16.129
682.12	15.292
682.44	14.538
682.77	11.688
683.09	17.400
683.41	15.265
683.73	15.297
684.06	12.688
684.38	12.971
684.70	15.638
685.02	14.567
685.34	15.789
685.67	11.553
685.99	14.178
686.31	14.004
686.63	15.780
686.96	14.048
687.28	13.487
687.60	14.453
687.92	12.646
688.24	14.764
688.56	13.627
688.89	13.462
689.21	15.536
689.53	15.402
689.85	14.254
690.17	12.332
690.49	14.088
690.82	14.699
691.14	14.151
691.46	16.630
691.78	16.300
692.10	16.314
692.42	10.444
692.74	12.876
693.06	15.281
693.39	13.423
693.71	14.898
694.03	14.903
694.35	12.641
694.67	13.712
694.99	10.230
695.31	15.561
695.63	11.735
695.95	11.663
696.27	14.214
696.59	17.112
696.91	15.169
697.23	16.667
697.56	13.462
697.88	13.964
698.20	14.775
698.52	14.798
698.84	15.291
699.16	15.238
699.48	15.000
699.80	13.784
700.12	15.869
700.44	13.966
700.76	13.411
701.08	13.081
701.40	12.991
701.72	16.358
702.04	18.590
702.36	18.373
702.68	15.868
703.00	13.623
703.32	12.894
703.64	18.529
703.96	15.698
704.28	16.272
704.60	12.975
704.91	13.016
705.23	15.858
705.55	16.892
705.87	18.771
706.19	13.194
706.51	12.847
706.83	13.443
707.15	15.287
707.47	16.253
707.79	13.402
708.11	11.450
708.43	16.209
708.74	14.545
709.06	11.699
709.38	14.943
709.70	13.125
710.02	18.098
710.34	13.861
710.66	11.746
710.98	17.350
711.29	12.903
711.61	15.335
711.93	12.131
712.25	17.608
712.57	18.118
712.89	19.784
713.20	15.808
713.52	9.701
713.84	14.591
714.16	14.426
714.48	13.016
714.80	14.154
715.11	17.579
715.43	16.867
715.75	17.757
716.07	12.787
716.39	16.054
716.70	17.770
717.02	17.037
717.34	14.885
717.66	18.257
717.97	14.754
718.29	16.807
718.61	20.238
718.93	15.054
719.24	13.235
719.56	7.925
719.88	15.273
720.20	10.861
720.51	22.556
720.83	14.458
721.15	15.574
721.46	14.510
721.78	17.241
722.10	18.800
722.42	17.355
722.73	18.725
723.05	12.851
723.37	20.392
723.68	13.360
724.00	17.480
724.32	14.815
724.63	14.108
724.95	18.595
725.27	14.912
725.58	14.655
725.90	15.079
726.22	19.188
726.53	16.350
726.85	13.333
727.16	18.797
727.48	15.769
727.80	11.885
728.11	13.866
728.43	10.744
728.74	14.453
729.06	15.152
729.38	10.895
729.69	15.354
730.01	19.291
730.32	12.351
730.64	17.582
730.96	18.657
731.27	15.714
731.59	19.936
731.90	14.724
732.22	17.178
732.53	19.205
732.85	14.430
733.16	14.493
733.48	16.376
733.80	14.235
734.11	16.552
734.43	14.626
734.74	17.211
735.06	14.734
735.37	13.761
735.69	15.484
736.00	14.815
736.32	16.887
736.63	9.310
736.95	14.493
737.26	17.881
737.58	15.108
737.89	14.695
738.21	13.534
738.52	15.385
738.83	15.234
739.15	13.675
739.46	15.726
739.78	17.483
740.09	14.685
740.41	18.182
740.72	18.613
741.04	13.095
741.35	13.420
741.66	18.519
741.98	11.905
742.29	17.840
742.61	16.043
742.92	19.159
743.23	11.842
743.55	13.063
743.86	20.444
744.18	15.238
744.49	21.675
744.80	18.274
745.12	26.289
745.43	16.080
745.74	15.049
746.06	14.634
746.37	21.586
746.68	23.881
747.00	18.325
747.31	14.423
747.62	14.747
747.94	16.594
748.25	16.279
748.56	21.905
748.88	10.870
749.19	15.962
749.50	26.471
749.82	19.111
750.13	19.824
750.44	17.480
750.75	15.600
751.07	18.214
751.38	15.498
751.69	13.359
752.01	16.538
752.32	13.230
752.63	15.769
752.94	16.667
753.26	18.696
753.57	18.304
753.88	19.397
754.19	17.427
754.51	19.141
754.82	17.787
755.13	15.226
755.44	22.727
755.75	19.342
756.07	11.245
756.38	15.625
756.69	19.134
757.00	17.422
757.31	18.456
757.63	23.676
757.94	15.607
758.25	16.860
758.56	18.329
758.87	18.182
759.18	13.000
759.50	16.726
759.81	9.854
760.12	13.514
760.43	16.505
760.74	18.437
761.05	19.382
761.36	16.467
761.67	19.527
761.99	16.129
762.30	17.754
762.61	16.226
762.92	21.076
763.23	16.588
763.54	15.111
763.85	17.722
764.16	13.469
764.47	22.458
764.78	16.854
765.10	20.863
765.41	17.097
765.72	16.981
766.03	8.481
766.34	19.549
766.65	21.862
766.96	15.000
767.27	16.146
767.58	20.349
767.89	13.548
768.20	16.564
768.51	16.393
768.82	17.838
769.13	11.500
769.44	19.737
769.75	20.779
770.06	19.725
770.37	14.554
770.68	13.021
770.99	20.297
771.30	16.505
771.61	18.981
771.92	16.017
772.23	10.748
772.54	15.426
772.85	11.834
773.16	18.293
773.47	22.289
773.78	26.374
774.09	24.667
774.39	18.519
774.70	18.792
775.01	6.522
775.32	9.701
775.63	10.744
775.94	18.045
776.25	12.143
776.56	21.311
776.87	15.044
777.18	17.699
777.48	8.182
777.79	20.000
778.10	10.092
778.41	13.559
778.72	23.140
779.03	22.388
779.34	21.053
779.65	17.647
779.95	15.217
780.26	15.646
780.57	2.586
780.88	25.926
781.19	13.131
781.50	8.000
781.80	20.915
782.11	17.949
782.42	16.867
782.73	9.489
783.04	18.919
783.34	9.848
783.65	12.403
783.96	21.138
784.27	13.675
784.57	17.073
784.88	19.512
785.19	25.439
785.50	13.402
785.81	13.333
786.11	13.725
786.42	12.727
786.73	16.216
787.04	17.822
787.34	25.714
787.65	8.571
787.96	18.627
788.26	16.216
788.57	25.000
788.88	14.844
789.19	21.368
789.49	1.681
789.80	11.966
790.11	15.929
790.41	16.162
790.72	18.868
791.03	5.556
791.33	0.000
791.64	26.882
791.95	9.333
792.25	11.429
792.56	24.390
792.87	28.571
793.17	9.211
793.48	6.757
793.79	4.225
794.09	8.861
794.40	10.638
794.70	14.953
795.01	11.404
795.32	8.182
795.62	18.750
795.93	17.526
796.23	9.890
796.54	27.368
796.85	27.397
797.15	12.500
797.46	21.918
797.76	42.254
798.07	17.500
798.37	22.059
798.68	27.143
798.99	32.857
799.29	19.737
799.60	15.000
799.90	11.111
800.21	6.250
800.51	22.222
800.82	11.475
801.12	1.754
801.43	12.676
801.73	18.644
802.04	13.115
802.34	23.636
802.65	5.769
802.95	31.481
803.26	5.000
803.56	15.385
803.87	21.053
804.17	22.581
804.48	13.846
804.78	2.564
805.09	27.907
805.39	0.000
805.70	5.660
806.00	43.860
806.30	31.081
806.61	20.588
806.91	34.568
807.22	25.333
807.52	10.448
807.83	8.065
808.13	11.111
808.43	5.455
808.74	27.273
809.04	28.302
809.35	17.808
809.65	28.070
809.95	25.000
810.26	15.686
810.56	-2.000
810.86	2.041
811.17	22.857
811.47	13.462
811.77	35.484
812.08	-39.474
812.38	16.667
812.69	8.696
812.99	-16.129
813.29	11.905
813.59	-70.370
813.90	10.638
814.20	-9.302
814.50	0.000
814.81	5.000
815.11	31.707
815.41	6.667
815.72	28.571
816.02	22.222
816.32	-15.385
816.62	24.324
816.93	-8.824
817.23	-26.087
817.53	-5.882
817.84	29.412
818.14	-3.125
818.44	31.034
818.74	0.000
819.04	-11.111
819.35	40.000
819.65	-36.000
819.95	6.667
820.25	-32.000
820.56	31.579
820.86	12.500
821.16	4.255
821.46	20.690
821.76	-15.385
822.07	2.500
822.37	20.930
822.67	-16.667
822.97	2.703
823.27	18.919
823.57	68.000
823.88	16.216
824.18	-42.857
824.48	7.692
824.78	-38.462
825.08	-17.391
825.38	12.500
825.69	12.500
825.99	-10.000
826.29	-13.514
826.59	0.000
826.89	40.000
827.19	8.571
827.49	36.842
827.79	-6.250
828.09	10.000
828.39	26.087
828.70	-3.448
829.00	6.897
829.30	25.000
829.60	46.875
829.90	50.000
830.20	11.538
830.50	-23.810
830.80	-14.286
831.10	35.897
831.40	-33.333
831.70	-11.765
832.00	-4.167
832.30	-52.632
832.60	6.250
832.90	-16.667
833.20	-64.706
833.50	-20.000
833.80	0.000
834.10	45.000
834.40	12.500
834.70	0.000
835.00	23.077
835.30	12.500
835.60	-13.793
835.90	-55.556
836.20	-90.909
836.50	-8.333
836.80	17.143
837.10	37.143
837.40	-17.647
837.70	-36.364
838.00	33.333
838.30	37.500
838.60	52.381
838.90	40.000
839.19	21.739
839.49	4.348
839.79	-27.778
840.09	-56.522
840.39	-22.727
840.69	37.500
840.99	5.263
841.29	12.500
841.59	-92.857
841.88	-5.556
842.18	-4.167
842.48	-52.941
842.78	27.586
843.08	0.000
843.38	-23.077
843.68	-200.000
843.97	-46.154
844.27	-100.000
844.57	-180.000
844.87	28.000
845.17	-300.000
845.47	7.143
845.76	-77.778
846.06	0.000
846.36	-100.000
846.66	-50.000
846.96	26.316
847.25	-8.333
847.55	-108.333
847.85	40.000
848.15	-10.000
848.44	46.154
848.74	52.632
849.04	466.667
849.34	-22.222
849.63	5.263
849.93	0.000
850.23	10.000
850.53	9.524
850.82	-8.000
851.12	52.632
851.42	-450.000
851.71	-42.857
852.01	-25.000
852.31	-29.412
852.61	-6.667
852.90	4.762
853.20	-33.333
853.50	11.111
853.79	-31.579
854.09	-33.333
854.39	10.714
854.68	-4.348
854.98	-100.000
855.28	10.345
855.57	-56.250
855.87	-5.000
856.17	-40.000
856.46	13.793
856.76	26.667
857.05	-23.529
857.35	-84.615
857.65	-27.273
857.94	29.630
858.24	21.429
858.53	-21.429
858.83	-83.333
859.13	-155.556
859.42	23.810
859.72	-112.500
860.01	-333.333
860.31	-137.500
860.60	-80.000
860.90	-44.444
861.20	-112.500
861.49	-100.000
861.79	17.647
862.08	-150.000
862.38	-66.667
862.67	-30.769
862.97	-5.882
863.26	50.000
863.56	-64.706
863.85	333.333
864.15	-30.000
864.44	-7.692
864.74	35.000
865.03	-137.500
865.33	-250.000
865.62	-29.412
865.92	-375.000
866.21	-100.000
866.51	-150.000
866.80	-1100.000
867.10	0.000
867.39	-23.529
867.69	4.348
867.98	0.000
868.27	-300.000
868.57	-37.500
868.86	-109.091
869.16	29.412
869.45	-33.333
869.75	-157.143
870.04	-300.000
870.33	-25.000
870.63	-40.000
870.92	-77.778
871.22	-66.667
871.51	0.000
871.80	41.667
872.10	70.000
>>>>>End Processed Spectral Data<<<<<
