SpectraSuite Data File
++++++++++++++++++++++++++++++++++++
Date: Sat May 16 11:34:17 PDT 2015
User: schluterlab
Dark Spectrum Present: Yes
Reference Spectrum Present: Yes
Number of Sampled Component Spectra: 1
Spectrometers: USB2E3373
Integration Time (usec): 3000 (USB2E3373)
Spectra Averaged: 3 (USB2E3373)
Boxcar Smoothing: 0 (USB2E3373)
Correct for Electrical Dark: No (USB2E3373)
Strobe/Lamp Enabled: No (USB2E3373)
Correct for Detector Non-linearity: No (USB2E3373)
Correct for Stray Light: No (USB2E3373)
Number of Pixels in Processed Spectrum: 2048
>>>>>Begin Processed Spectral Data<<<<<
178.53	0.000
178.91	106.667
179.29	766.667
179.67	-1100.000
180.04	-23.077
180.42	1200.000
180.80	175.000
181.18	650.000
181.56	-187.500
181.94	1600.000
182.31	400.000
182.69	-100.000
183.07	-633.333
183.45	1000.000
183.83	533.333
184.20	-200.000
184.58	-112.500
184.96	-325.000
185.34	112.500
185.72	-300.000
186.09	216.667
186.47	-112.500
186.85	-212.500
187.23	-37.500
187.61	-350.000
187.98	-212.500
188.36	-137.500
188.74	-112.500
189.12	1300.000
189.49	271.429
189.87	-41.667
190.25	725.000
190.63	-7.143
191.00	-244.444
191.38	220.000
191.76	-13.333
192.14	380.000
192.51	-320.000
192.89	-166.667
193.27	0.000
193.65	-288.889
194.02	-271.429
194.40	533.333
194.78	-120.000
195.15	-1900.000
195.53	-109.091
195.91	-550.000
196.29	140.000
196.66	-800.000
197.04	2600.000
197.42	-375.000
197.79	53.333
198.17	-266.667
198.55	-700.000
198.92	-800.000
199.30	200.000
199.68	150.000
200.05	-144.444
200.43	-188.889
200.81	-2200.000
201.18	-83.333
201.56	271.429
201.94	-46.667
202.31	-31.818
202.69	-130.000
203.07	-130.000
203.44	400.000
203.82	-233.333
204.19	-550.000
204.57	-200.000
204.95	-700.000
205.32	-12.500
205.70	2100.000
206.08	-1300.000
206.45	-50.000
206.83	-900.000
207.20	-100.000
207.58	-566.667
207.96	-566.667
208.33	-112.500
208.71	-200.000
209.08	200.000
209.46	-185.714
209.84	650.000
210.21	0.000
210.59	10.000
210.96	700.000
211.34	-166.667
211.71	100.000
212.09	250.000
212.46	1000.000
212.84	-2500.000
213.22	333.333
213.59	108.333
213.97	-55.556
214.34	280.000
214.72	-80.000
215.09	-466.667
215.47	-250.000
215.84	-20.000
216.22	-40.000
216.59	33.333
216.97	-625.000
217.34	850.000
217.72	-200.000
218.09	-383.333
218.47	-242.857
218.84	200.000
219.22	-128.571
219.59	0.000
219.97	200.000
220.34	575.000
220.72	225.000
221.09	0.000
221.47	0.000
221.84	233.333
222.22	-450.000
222.59	1300.000
222.97	-237.500
223.34	-1400.000
223.72	-966.667
224.09	-128.571
224.46	-200.000
224.84	-100.000
225.21	-200.000
225.59	-127.273
225.96	-125.000
226.34	-128.571
226.71	0.000
227.08	-25.000
227.46	3800.000
227.83	-314.286
228.21	-200.000
228.58	500.000
228.95	-106.250
229.33	-1500.000
229.70	-580.000
230.08	-750.000
230.45	-83.333
230.82	-316.667
231.20	-900.000
231.57	-650.000
231.95	1700.000
232.32	-23.810
232.69	-77.778
233.07	-342.857
233.44	-1000.000
233.81	-46.667
234.19	-55.556
234.56	-62.500
234.93	18.750
235.31	-300.000
235.68	-100.000
236.05	-17.647
236.43	-40.909
236.80	3.226
237.17	-41.667
237.55	-66.667
237.92	-59.091
238.29	-28.571
238.67	-20.588
239.04	-30.556
239.41	-38.710
239.79	-41.026
240.16	-45.238
240.53	-20.000
240.91	-5.128
241.28	-12.727
241.65	13.846
242.02	-3.279
242.40	1.639
242.77	-12.121
243.14	-16.949
243.51	-17.143
243.89	1.266
244.26	-4.494
244.63	7.368
245.00	13.684
245.38	7.627
245.75	5.310
246.12	4.800
246.49	1.575
246.87	-1.626
247.24	-6.780
247.61	-4.237
247.98	3.521
248.36	2.098
248.73	5.063
249.10	-3.822
249.47	4.678
249.84	3.977
250.22	1.190
250.59	7.345
250.96	9.424
251.33	10.900
251.70	4.808
252.08	6.635
252.45	2.370
252.82	1.905
253.19	2.979
253.56	12.097
253.94	9.705
254.31	8.155
254.68	6.504
255.05	5.645
255.42	11.111
255.79	5.376
256.16	8.627
256.54	10.662
256.91	5.682
257.28	6.960
257.65	8.865
258.02	11.321
258.39	9.030
258.76	4.054
259.14	5.556
259.51	9.180
259.88	10.671
260.25	12.112
260.62	9.646
260.99	6.528
261.36	11.585
261.73	13.006
262.10	11.111
262.47	10.826
262.85	13.429
263.22	10.029
263.59	8.000
263.96	10.145
264.33	7.859
264.70	9.116
265.07	7.692
265.44	12.403
265.81	9.044
266.18	8.608
266.55	12.010
266.92	12.091
267.29	8.232
267.66	10.617
268.03	12.802
268.40	8.685
268.77	11.084
269.14	8.121
269.51	9.655
269.88	7.798
270.25	6.760
270.62	10.069
270.99	9.459
271.36	9.790
271.73	9.417
272.10	7.323
272.47	12.000
272.84	11.333
273.21	8.945
273.58	12.088
273.95	8.772
274.32	8.824
274.69	9.628
275.06	11.043
275.43	10.268
275.80	10.794
276.17	8.577
276.54	9.980
276.91	11.317
277.28	9.736
277.65	9.917
278.02	11.273
278.39	8.841
278.76	9.163
279.13	10.672
279.50	8.946
279.87	9.302
280.23	9.109
280.60	8.946
280.97	9.126
281.34	8.897
281.71	10.577
282.08	8.871
282.45	6.314
282.82	11.628
283.19	11.636
283.56	11.722
283.92	13.251
284.29	7.807
284.66	10.612
285.03	10.695
285.40	10.148
285.77	8.772
286.14	8.845
286.51	9.236
286.87	8.348
287.24	9.556
287.61	9.421
287.98	11.092
288.35	6.612
288.72	9.677
289.08	9.153
289.45	10.438
289.82	8.304
290.19	8.867
290.56	6.116
290.93	7.154
291.29	8.266
291.66	9.501
292.03	9.733
292.40	9.187
292.77	8.540
293.13	8.780
293.50	8.767
293.87	7.362
294.24	8.446
294.60	7.424
294.97	9.256
295.34	6.370
295.71	8.036
296.08	6.759
296.44	8.584
296.81	7.977
297.18	8.169
297.55	9.040
297.91	8.089
298.28	9.041
298.65	7.392
299.02	9.091
299.38	8.289
299.75	8.016
300.12	8.077
300.48	7.289
300.85	6.291
301.22	9.056
301.59	7.152
301.95	9.194
302.32	7.301
302.69	6.732
303.05	6.471
303.42	7.750
303.79	8.134
304.15	7.820
304.52	7.818
304.89	8.737
305.25	6.593
305.62	5.758
305.99	8.009
306.35	7.991
306.72	5.809
307.09	8.286
307.45	7.832
307.82	5.698
308.19	6.600
308.55	7.952
308.92	6.337
309.29	8.000
309.65	7.211
310.02	7.127
310.38	7.243
310.75	6.967
311.12	7.438
311.48	6.785
311.85	7.415
312.22	8.033
312.58	8.138
312.95	5.912
313.31	7.592
313.68	8.342
314.05	7.418
314.41	6.036
314.78	7.592
315.14	7.799
315.51	6.282
315.87	8.325
316.24	6.997
316.61	8.253
316.97	6.866
317.34	7.129
317.70	6.494
318.07	6.623
318.43	7.584
318.80	7.230
319.16	7.129
319.53	6.955
319.89	6.679
320.26	8.333
320.62	5.865
320.99	7.363
321.35	5.714
321.72	6.858
322.08	6.924
322.45	6.832
322.81	7.109
323.18	7.685
323.54	7.301
323.91	7.322
324.27	7.795
324.64	7.313
325.00	8.290
325.37	7.059
325.73	8.486
326.10	6.466
326.46	6.918
326.83	7.064
327.19	7.673
327.56	8.177
327.92	7.307
328.29	7.619
328.65	6.455
329.01	8.127
329.38	7.761
329.74	6.960
330.11	7.434
330.47	6.358
330.84	7.608
331.20	6.859
331.56	6.837
331.93	8.171
332.29	6.484
332.66	7.902
333.02	6.878
333.38	7.706
333.75	7.391
334.11	7.200
334.48	6.708
334.84	8.049
335.20	6.649
335.57	7.310
335.93	8.057
336.29	7.706
336.66	6.432
337.02	7.748
337.38	7.219
337.75	7.375
338.11	6.440
338.47	7.117
338.84	7.169
339.20	7.733
339.56	8.111
339.93	8.201
340.29	5.580
340.65	6.906
341.02	6.577
341.38	8.003
341.74	7.536
342.11	6.911
342.47	6.352
342.83	6.885
343.20	7.600
343.56	7.184
343.92	8.598
344.28	7.822
344.65	7.178
345.01	5.966
345.37	7.807
345.73	6.301
346.10	5.805
346.46	6.986
346.82	6.897
347.19	6.163
347.55	6.421
347.91	7.402
348.27	6.683
348.63	7.593
349.00	7.399
349.36	5.699
349.72	6.927
350.08	6.415
350.45	7.092
350.81	6.369
351.17	6.672
351.53	6.285
351.89	7.437
352.26	6.589
352.62	8.525
352.98	6.725
353.34	6.235
353.70	6.564
354.07	7.553
354.43	6.640
354.79	6.260
355.15	6.629
355.51	5.391
355.87	6.403
356.24	6.195
356.60	7.333
356.96	6.928
357.32	5.780
357.68	5.977
358.04	6.774
358.40	5.955
358.77	6.105
359.13	6.350
359.49	6.727
359.85	7.165
360.21	7.154
360.57	6.852
360.93	7.556
361.29	6.726
361.66	5.488
362.02	6.731
362.38	6.310
362.74	6.813
363.10	6.098
363.46	7.977
363.82	7.216
364.18	6.657
364.54	7.720
364.90	7.128
365.26	6.562
365.62	7.769
365.98	7.895
366.35	7.183
366.71	7.118
367.07	7.481
367.43	7.687
367.79	6.529
368.15	6.615
368.51	7.063
368.87	8.242
369.23	6.596
369.59	7.292
369.95	6.624
370.31	7.384
370.67	6.146
371.03	7.070
371.39	5.446
371.75	7.225
372.11	6.528
372.47	7.231
372.83	7.371
373.19	5.929
373.55	8.234
373.91	6.615
374.27	7.050
374.63	5.866
374.99	7.441
375.35	7.133
375.71	6.955
376.07	6.571
376.42	6.358
376.78	6.471
377.14	6.305
377.50	6.770
377.86	7.282
378.22	7.412
378.58	6.980
378.94	7.090
379.30	5.972
379.66	7.407
380.02	6.358
380.38	7.251
380.74	6.917
381.09	7.147
381.45	7.339
381.81	6.534
382.17	6.391
382.53	6.018
382.89	7.177
383.25	7.285
383.61	6.781
383.97	7.287
384.32	6.320
384.68	8.283
385.04	6.824
385.40	6.695
385.76	7.012
386.12	6.621
386.48	7.178
386.83	7.423
387.19	7.770
387.55	6.602
387.91	6.817
388.27	6.393
388.62	6.310
388.98	6.178
389.34	7.589
389.70	6.638
390.06	6.650
390.42	6.987
390.77	7.066
391.13	7.329
391.49	6.675
391.85	7.107
392.20	7.464
392.56	6.781
392.92	6.788
393.28	7.290
393.64	7.035
393.99	7.569
394.35	6.630
394.71	7.474
395.07	7.282
395.42	6.257
395.78	6.034
396.14	6.667
396.50	7.156
396.85	7.711
397.21	7.412
397.57	7.295
397.92	7.845
398.28	7.778
398.64	7.674
399.00	7.697
399.35	6.426
399.71	8.362
400.07	7.821
400.42	7.664
400.78	7.275
401.14	7.605
401.49	7.429
401.85	7.138
402.21	8.224
402.57	8.192
402.92	7.804
403.28	6.863
403.63	7.190
403.99	7.707
404.35	7.367
404.70	7.958
405.06	7.612
405.42	6.888
405.77	6.787
406.13	7.836
406.49	7.549
406.84	7.618
407.20	8.009
407.55	7.980
407.91	6.930
408.27	7.966
408.62	7.998
408.98	7.398
409.34	6.947
409.69	7.372
410.05	7.641
410.40	7.787
410.76	8.062
411.11	7.668
411.47	7.033
411.83	7.457
412.18	6.993
412.54	7.077
412.89	7.655
413.25	7.143
413.60	7.716
413.96	7.024
414.31	7.768
414.67	7.365
415.03	7.697
415.38	7.872
415.74	7.410
416.09	7.609
416.45	6.812
416.80	8.127
417.16	6.645
417.51	8.536
417.87	8.091
418.22	8.028
418.58	7.510
418.93	8.461
419.29	7.905
419.64	7.286
420.00	8.323
420.35	8.161
420.71	7.743
421.06	8.107
421.42	7.611
421.77	8.152
422.12	8.226
422.48	8.124
422.83	8.030
423.19	7.962
423.54	8.184
423.90	7.345
424.25	8.145
424.61	8.082
424.96	8.250
425.31	7.602
425.67	7.450
426.02	8.032
426.38	7.925
426.73	7.832
427.09	8.211
427.44	8.068
427.79	7.558
428.15	8.558
428.50	7.918
428.85	7.854
429.21	8.080
429.56	7.760
429.92	8.267
430.27	8.225
430.62	7.471
430.98	7.841
431.33	8.378
431.68	7.668
432.04	8.618
432.39	9.003
432.74	8.094
433.10	8.610
433.45	7.311
433.80	8.175
434.16	8.866
434.51	7.945
434.86	8.905
435.22	8.352
435.57	7.405
435.92	8.148
436.28	8.665
436.63	8.423
436.98	8.018
437.34	8.328
437.69	8.751
438.04	7.941
438.39	8.544
438.75	9.080
439.10	9.106
439.45	7.966
439.81	8.434
440.16	8.461
440.51	9.176
440.86	8.444
441.22	8.237
441.57	8.263
441.92	8.133
442.27	9.037
442.63	8.369
442.98	8.352
443.33	8.951
443.68	8.494
444.03	8.841
444.39	8.957
444.74	8.150
445.09	8.279
445.44	8.723
445.79	8.159
446.15	9.255
446.50	7.676
446.85	8.671
447.20	8.938
447.55	8.674
447.91	9.152
448.26	8.827
448.61	8.319
448.96	8.627
449.31	8.681
449.66	9.616
450.02	8.089
450.37	8.870
450.72	8.983
451.07	9.428
451.42	7.745
451.77	8.558
452.12	8.880
452.47	8.312
452.83	8.853
453.18	9.677
453.53	8.396
453.88	9.270
454.23	8.706
454.58	9.758
454.93	8.123
455.28	7.967
455.63	8.661
455.98	9.096
456.34	8.005
456.69	9.568
457.04	9.527
457.39	8.553
457.74	9.273
458.09	8.179
458.44	10.104
458.79	8.744
459.14	9.527
459.49	9.059
459.84	9.500
460.19	8.711
460.54	8.530
460.89	8.576
461.24	9.897
461.59	9.027
461.94	9.930
462.29	8.636
462.64	10.079
462.99	9.505
463.34	8.643
463.69	9.160
464.04	9.022
464.39	9.020
464.74	8.924
465.09	8.659
465.44	8.855
465.79	9.081
466.14	8.918
466.49	9.154
466.84	9.244
467.19	9.476
467.54	7.722
467.89	9.063
468.24	9.145
468.59	8.994
468.94	8.875
469.29	8.837
469.64	9.704
469.99	9.993
470.34	9.552
470.68	9.956
471.03	9.566
471.38	9.167
471.73	9.580
472.08	8.568
472.43	9.524
472.78	10.000
473.13	9.808
473.48	9.955
473.83	9.243
474.17	9.427
474.52	9.974
474.87	10.490
475.22	8.673
475.57	9.611
475.92	9.719
476.27	9.486
476.61	9.296
476.96	10.061
477.31	9.957
477.66	9.629
478.01	9.616
478.36	9.953
478.70	10.037
479.05	10.654
479.40	9.896
479.75	9.888
480.10	10.169
480.45	9.865
480.79	10.316
481.14	9.433
481.49	10.213
481.84	10.171
482.19	10.781
482.53	9.564
482.88	10.204
483.23	9.906
483.58	9.991
483.92	9.651
484.27	9.482
484.62	10.626
484.97	9.704
485.31	9.216
485.66	9.170
486.01	9.081
486.36	9.269
486.70	9.655
487.05	9.487
487.40	9.829
487.75	9.573
488.09	9.605
488.44	9.675
488.79	10.789
489.13	9.661
489.48	10.481
489.83	9.825
490.17	10.492
490.52	10.598
490.87	9.792
491.22	10.229
491.56	10.231
491.91	10.210
492.26	10.236
492.60	9.657
492.95	10.709
493.30	10.386
493.64	10.249
493.99	10.182
494.34	10.905
494.68	10.861
495.03	10.134
495.37	10.079
495.72	10.363
496.07	10.746
496.41	10.653
496.76	10.091
497.11	10.598
497.45	11.159
497.80	10.405
498.14	10.511
498.49	10.196
498.84	10.097
499.18	11.014
499.53	10.326
499.87	10.618
500.22	10.539
500.56	10.905
500.91	10.493
501.26	10.966
501.60	10.159
501.95	11.208
502.29	10.250
502.64	10.985
502.98	10.733
503.33	11.184
503.67	9.962
504.02	10.237
504.36	10.637
504.71	10.081
505.06	9.885
505.40	11.228
505.75	10.671
506.09	10.718
506.44	10.426
506.78	11.089
507.13	10.608
507.47	11.789
507.82	10.945
508.16	11.295
508.51	11.025
508.85	10.921
509.19	10.466
509.54	11.099
509.88	11.543
510.23	10.797
510.57	11.958
510.92	11.332
511.26	11.164
511.61	11.231
511.95	11.315
512.30	10.775
512.64	11.352
512.98	12.156
513.33	11.367
513.67	11.558
514.02	10.850
514.36	12.022
514.70	11.262
515.05	12.293
515.39	11.765
515.74	11.751
516.08	12.450
516.42	12.011
516.77	11.901
517.11	11.899
517.46	11.722
517.80	12.274
518.14	10.870
518.49	11.775
518.83	11.513
519.17	12.433
519.52	11.163
519.86	12.605
520.20	12.775
520.55	12.185
520.89	11.209
521.23	12.515
521.58	12.100
521.92	12.413
522.26	11.556
522.61	11.660
522.95	11.934
523.29	12.476
523.64	12.492
523.98	12.858
524.32	12.445
524.66	12.112
525.01	11.561
525.35	12.436
525.69	12.297
526.04	12.402
526.38	13.113
526.72	12.324
527.06	11.914
527.41	12.145
527.75	11.089
528.09	12.641
528.43	12.066
528.78	13.379
529.12	12.740
529.46	12.307
529.80	11.943
530.15	12.556
530.49	12.937
530.83	13.163
531.17	11.515
531.51	11.922
531.86	13.298
532.20	12.618
532.54	12.433
532.88	12.516
533.22	11.564
533.57	12.859
533.91	12.609
534.25	12.445
534.59	10.806
534.93	11.886
535.27	12.838
535.62	12.148
535.96	11.959
536.30	12.435
536.64	13.081
536.98	13.136
537.32	11.403
537.66	12.084
538.01	11.615
538.35	12.635
538.69	11.965
539.03	12.661
539.37	11.643
539.71	12.875
540.05	11.720
540.39	12.396
540.73	12.301
541.07	13.115
541.42	11.681
541.76	11.296
542.10	12.762
542.44	12.925
542.78	11.872
543.12	13.103
543.46	12.260
543.80	11.237
544.14	12.089
544.48	12.598
544.82	12.111
545.16	12.475
545.50	10.229
545.84	12.378
546.18	12.205
546.52	13.016
546.86	12.251
547.20	11.744
547.54	12.259
547.88	12.342
548.22	11.402
548.56	11.222
548.90	12.803
549.24	12.684
549.58	12.491
549.92	12.933
550.26	12.789
550.60	12.162
550.94	13.212
551.28	12.792
551.62	13.146
551.96	12.084
552.30	13.031
552.64	11.893
552.98	13.315
553.32	12.121
553.66	13.410
554.00	12.935
554.34	11.625
554.68	13.231
555.02	13.603
555.36	12.437
555.69	11.963
556.03	12.000
556.37	12.660
556.71	12.956
557.05	11.899
557.39	11.952
557.73	12.619
558.07	13.489
558.41	12.715
558.75	11.863
559.08	11.907
559.42	12.711
559.76	12.577
560.10	13.423
560.44	13.367
560.78	12.665
561.12	12.767
561.45	12.397
561.79	12.056
562.13	12.202
562.47	12.185
562.81	12.376
563.15	13.576
563.48	12.992
563.82	12.779
564.16	12.847
564.50	12.298
564.84	12.169
565.17	12.931
565.51	12.777
565.85	12.711
566.19	12.516
566.52	12.133
566.86	12.010
567.20	13.257
567.54	12.345
567.88	12.674
568.21	11.521
568.55	12.142
568.89	11.431
569.23	11.846
569.56	11.686
569.90	11.172
570.24	11.349
570.57	10.791
570.91	11.493
571.25	11.511
571.59	11.271
571.92	11.310
572.26	11.084
572.60	11.294
572.93	11.056
573.27	10.732
573.61	10.754
573.95	10.963
574.28	10.461
574.62	11.083
574.96	10.793
575.29	10.772
575.63	11.043
575.97	10.518
576.30	10.989
576.64	11.044
576.98	10.774
577.31	10.679
577.65	11.116
577.98	10.525
578.32	10.692
578.66	10.369
578.99	10.986
579.33	10.550
579.67	11.007
580.00	10.317
580.34	10.543
580.67	10.762
581.01	10.466
581.35	10.919
581.68	10.286
582.02	10.721
582.35	10.614
582.69	10.948
583.02	10.477
583.36	10.677
583.70	10.599
584.03	11.072
584.37	11.042
584.70	10.944
585.04	10.380
585.37	10.692
585.71	10.885
586.04	10.765
586.38	10.719
586.72	10.936
587.05	11.130
587.39	10.762
587.72	10.725
588.06	10.757
588.39	11.222
588.73	11.316
589.06	11.189
589.40	11.199
589.73	11.225
590.07	11.180
590.40	11.587
590.73	11.116
591.07	10.738
591.40	11.482
591.74	10.817
592.07	11.126
592.41	11.168
592.74	11.376
593.08	11.054
593.41	11.349
593.75	10.617
594.08	11.107
594.41	11.830
594.75	11.287
595.08	11.165
595.42	11.597
595.75	11.319
596.09	11.253
596.42	11.211
596.75	11.686
597.09	11.532
597.42	11.480
597.75	11.249
598.09	11.161
598.42	11.710
598.76	11.088
599.09	11.839
599.42	10.919
599.76	11.061
600.09	11.298
600.42	11.850
600.76	11.977
601.09	10.824
601.42	10.803
601.76	11.488
602.09	11.166
602.42	11.070
602.76	10.594
603.09	11.008
603.42	11.241
603.76	11.488
604.09	11.414
604.42	11.449
604.76	11.470
605.09	11.844
605.42	12.323
605.75	11.082
606.09	11.457
606.42	10.934
606.75	11.335
607.09	11.645
607.42	11.048
607.75	10.949
608.08	11.930
608.42	11.542
608.75	10.841
609.08	11.495
609.41	11.709
609.75	11.799
610.08	11.029
610.41	11.518
610.74	11.750
611.07	11.562
611.41	11.296
611.74	12.185
612.07	11.654
612.40	11.887
612.73	11.524
613.07	11.502
613.40	11.932
613.73	11.608
614.06	11.312
614.39	11.838
614.72	11.285
615.06	11.467
615.39	11.340
615.72	11.733
616.05	11.596
616.38	11.840
616.71	12.072
617.05	13.088
617.38	12.322
617.71	10.811
618.04	12.174
618.37	11.887
618.70	12.581
619.03	11.104
619.36	12.192
619.69	11.845
620.03	11.846
620.36	11.603
620.69	12.060
621.02	11.187
621.35	11.855
621.68	12.131
622.01	12.540
622.34	12.345
622.67	12.109
623.00	12.012
623.33	12.388
623.66	11.300
623.99	12.180
624.32	11.384
624.65	12.436
624.99	11.053
625.32	11.826
625.65	11.888
625.98	11.815
626.31	12.969
626.64	11.967
626.97	11.387
627.30	12.511
627.63	11.572
627.96	12.707
628.29	11.121
628.62	13.372
628.95	11.909
629.28	12.218
629.61	11.973
629.94	13.138
630.26	12.525
630.59	12.563
630.92	13.113
631.25	12.802
631.58	14.074
631.91	10.851
632.24	13.000
632.57	12.889
632.90	13.678
633.23	13.084
633.56	12.281
633.89	12.382
634.22	11.924
634.55	14.183
634.88	14.027
635.20	11.735
635.53	12.341
635.86	12.091
636.19	12.210
636.52	13.023
636.85	12.034
637.18	11.750
637.51	12.020
637.83	12.117
638.16	11.842
638.49	11.724
638.82	12.741
639.15	12.840
639.48	11.543
639.81	13.970
640.13	13.649
640.46	14.103
640.79	13.725
641.12	14.669
641.45	12.626
641.77	12.725
642.10	11.480
642.43	14.112
642.76	13.701
643.09	12.540
643.41	15.238
643.74	15.421
644.07	15.913
644.40	11.831
644.73	13.861
645.05	11.686
645.38	13.245
645.71	15.979
646.04	14.622
646.36	13.438
646.69	13.668
647.02	14.079
647.35	14.260
647.67	13.504
648.00	16.344
648.33	13.153
648.66	11.774
648.98	11.465
649.31	11.385
649.64	13.125
649.96	13.344
650.29	11.475
650.62	13.425
650.94	13.322
651.27	15.078
651.60	12.803
651.92	15.068
652.25	12.688
652.58	13.458
652.90	12.199
653.23	10.645
653.56	12.207
653.88	12.787
654.21	13.255
654.54	12.458
654.86	13.162
655.19	12.464
655.52	11.867
655.84	10.092
656.17	10.641
656.49	14.469
656.82	15.074
657.15	11.650
657.47	8.441
657.80	6.525
658.13	7.520
658.45	10.109
658.78	9.829
659.10	10.187
659.43	10.012
659.75	9.717
660.08	10.156
660.41	9.788
660.73	11.441
661.06	12.464
661.38	13.214
661.71	11.663
662.03	12.298
662.36	11.940
662.68	11.814
663.01	10.191
663.33	11.338
663.66	12.232
663.98	10.714
664.31	11.186
664.63	13.053
664.96	11.280
665.28	9.544
665.61	12.896
665.93	13.580
666.26	14.170
666.58	11.850
666.91	12.695
667.23	14.474
667.56	12.245
667.88	13.575
668.21	11.982
668.53	10.981
668.86	12.009
669.18	12.329
669.50	12.150
669.83	12.652
670.15	10.987
670.48	11.215
670.80	10.251
671.13	9.255
671.45	12.613
671.77	8.994
672.10	14.793
672.42	12.546
672.75	9.455
673.07	10.270
673.39	14.754
673.72	14.567
674.04	10.403
674.37	7.835
674.69	14.549
675.01	11.277
675.34	10.195
675.66	11.663
675.98	12.996
676.31	13.122
676.63	14.023
676.95	11.947
677.28	11.833
677.60	14.480
677.92	13.216
678.25	11.816
678.57	11.728
678.89	11.530
679.22	12.159
679.54	13.609
679.86	8.200
680.18	10.076
680.51	10.242
680.83	11.810
681.15	11.175
681.48	12.779
681.80	11.290
682.12	12.676
682.44	11.591
682.77	9.957
683.09	14.256
683.41	13.938
683.73	10.731
684.06	10.753
684.38	9.833
684.70	11.728
685.02	10.236
685.34	9.942
685.67	10.417
685.99	7.183
686.31	12.208
686.63	9.929
686.96	12.200
687.28	9.634
687.60	13.867
687.92	11.479
688.24	10.433
688.56	10.421
688.89	7.479
689.21	13.567
689.53	11.034
689.85	11.581
690.17	8.744
690.49	10.393
690.82	11.084
691.14	11.085
691.46	12.639
691.78	10.132
692.10	11.441
692.42	10.000
692.74	12.446
693.06	10.112
693.39	12.304
693.71	11.061
694.03	13.391
694.35	11.738
694.67	10.638
694.99	5.627
695.31	11.735
695.63	7.143
695.95	13.400
696.27	11.222
696.59	11.497
696.91	10.955
697.23	10.417
697.56	10.096
697.88	10.135
698.20	7.709
698.52	10.762
698.84	11.408
699.16	10.476
699.48	10.250
699.80	10.777
700.12	13.098
700.44	8.659
700.76	11.662
701.08	13.372
701.40	7.251
701.72	10.185
702.04	9.936
702.36	10.542
702.68	6.886
703.00	10.725
703.32	8.309
703.64	13.235
703.96	11.628
704.28	12.722
704.60	10.127
704.91	7.619
705.23	11.003
705.55	7.095
705.87	15.017
706.19	5.903
706.51	11.111
706.83	15.738
707.15	8.599
707.47	9.091
707.79	8.247
708.11	5.598
708.43	13.965
708.74	8.831
709.06	10.306
709.38	6.322
709.70	7.187
710.02	14.417
710.34	6.931
710.66	10.159
710.98	9.464
711.29	8.710
711.61	6.709
711.93	7.213
712.25	7.973
712.57	10.105
712.89	7.914
713.20	15.120
713.52	1.866
713.84	12.100
714.16	10.492
714.48	10.794
714.80	7.385
715.11	13.256
715.43	11.145
715.75	11.215
716.07	9.836
716.39	5.017
716.70	11.150
717.02	6.667
717.34	7.252
717.66	8.714
717.97	12.705
718.29	3.782
718.61	13.095
718.93	7.885
719.24	2.941
719.56	7.925
719.88	9.455
720.20	9.738
720.51	12.030
720.83	10.843
721.15	11.885
721.46	9.412
721.78	8.429
722.10	7.600
722.42	7.851
722.73	7.968
723.05	8.032
723.37	10.980
723.68	9.717
724.00	13.821
724.32	10.700
724.63	5.809
724.95	8.678
725.27	6.579
725.58	6.897
725.90	6.349
726.22	13.653
726.53	8.745
726.85	2.745
727.16	4.887
727.48	3.846
727.80	9.836
728.11	6.303
728.43	8.678
728.74	11.328
729.06	9.470
729.38	10.895
729.69	7.874
730.01	7.874
730.32	3.187
730.64	10.256
730.96	9.328
731.27	7.857
731.59	11.254
731.90	4.908
732.22	9.816
732.53	11.589
732.85	10.403
733.16	5.435
733.48	9.756
733.80	5.338
734.11	7.241
734.43	8.844
734.74	9.496
735.06	6.897
735.37	10.398
735.69	2.581
736.00	7.071
736.32	9.272
736.63	1.724
736.95	3.623
737.26	9.603
737.58	5.036
737.89	10.036
738.21	4.511
738.52	2.692
738.83	9.766
739.15	11.538
739.46	10.887
739.78	9.091
740.09	4.895
740.41	6.643
740.72	6.204
741.04	5.952
741.35	4.762
741.66	8.796
741.98	7.143
742.29	11.268
742.61	9.626
742.92	9.813
743.23	5.702
743.55	3.604
743.86	9.333
744.18	8.571
744.49	13.793
744.80	5.584
745.12	8.763
745.43	8.040
745.74	4.369
746.06	4.390
746.37	10.573
746.68	3.980
747.00	8.377
747.31	8.173
747.62	10.138
747.94	6.550
748.25	10.233
748.56	9.048
748.88	-1.087
749.19	7.981
749.50	13.235
749.82	9.778
750.13	9.251
750.44	8.943
750.75	5.200
751.07	11.429
751.38	4.059
751.69	6.489
752.01	11.538
752.32	5.837
752.63	4.615
752.94	5.952
753.26	11.739
753.57	10.268
753.88	8.621
754.19	5.394
754.51	7.812
754.82	7.905
755.13	9.877
755.44	8.264
755.75	7.819
756.07	2.008
756.38	3.516
756.69	4.332
757.00	8.711
757.31	10.067
757.63	11.215
757.94	9.827
758.25	7.558
758.56	9.973
758.87	5.966
759.18	5.667
759.50	9.964
759.81	-0.365
760.12	6.081
760.43	8.091
760.74	8.125
761.05	7.303
761.36	6.587
761.67	7.988
761.99	7.419
762.30	6.522
762.61	5.660
762.92	9.417
763.23	10.427
763.54	3.111
763.85	12.658
764.16	8.163
764.47	6.356
764.78	9.738
765.10	9.712
765.41	6.774
765.72	8.491
766.03	3.180
766.34	9.023
766.65	6.478
766.96	0.500
767.27	6.250
767.58	9.884
767.89	1.935
768.20	12.883
768.51	7.104
768.82	9.189
769.13	7.000
769.44	9.649
769.75	7.792
770.06	15.596
770.37	3.756
770.68	2.083
770.99	4.455
771.30	-0.485
771.61	5.093
771.92	1.299
772.23	5.607
772.54	3.723
772.85	-0.592
773.16	10.976
773.47	9.036
773.78	6.044
774.09	1.333
774.39	0.617
774.70	6.711
775.01	0.000
775.32	0.000
775.63	-3.306
775.94	3.008
776.25	2.857
776.56	9.836
776.87	5.310
777.18	10.619
777.48	-1.818
777.79	-8.696
778.10	-6.422
778.41	-3.390
778.72	2.479
779.03	7.463
779.34	5.263
779.65	6.536
779.95	7.971
780.26	-0.680
780.57	-9.483
780.88	2.778
781.19	-26.263
781.50	1.600
781.80	0.000
782.11	10.256
782.42	4.217
782.73	-13.869
783.04	-1.351
783.34	2.273
783.65	9.302
783.96	2.439
784.27	-6.838
784.57	-5.691
784.88	3.252
785.19	9.649
785.50	-16.495
785.81	-8.571
786.11	-9.804
786.42	-6.364
786.73	0.901
787.04	0.000
787.34	3.810
787.65	-6.667
787.96	-8.824
788.26	-1.802
788.57	6.452
788.88	-1.563
789.19	0.000
789.49	-3.361
789.80	-5.983
790.11	7.080
790.41	-8.081
790.72	4.717
791.03	-26.389
791.33	-5.263
791.64	2.151
791.95	-1.333
792.25	-17.143
792.56	-3.659
792.87	6.122
793.17	-14.474
793.48	-20.270
793.79	-12.676
794.09	-2.532
794.40	4.255
794.70	7.477
795.01	-8.772
795.32	-7.273
795.62	0.000
795.93	-2.062
796.23	-15.385
796.54	8.421
796.85	-16.438
797.15	-5.556
797.46	13.699
797.76	-12.676
798.07	7.500
798.37	-4.412
798.68	2.857
798.99	-2.857
799.29	-5.263
799.60	-1.667
799.90	-16.667
800.21	-1.563
800.51	-1.587
800.82	1.639
801.12	-1.754
801.43	-9.859
801.73	-20.339
802.04	4.918
802.34	-20.000
802.65	-9.615
802.95	-14.815
803.26	-55.000
803.56	-11.538
803.87	-60.526
804.17	4.839
804.48	4.615
804.78	-12.821
805.09	-6.977
805.39	-50.000
805.70	-33.962
806.00	-8.772
806.30	13.514
806.61	-5.882
806.91	-4.938
807.22	-16.000
807.52	-8.955
807.83	-22.581
808.13	-14.286
808.43	-12.727
808.74	9.091
809.04	-20.755
809.35	-1.370
809.65	-8.772
809.95	10.294
810.26	-27.451
810.56	2.000
810.86	-12.245
811.17	-40.000
811.47	-15.385
811.77	-3.226
812.08	-55.263
812.38	2.381
812.69	-10.870
812.99	-12.903
813.29	-30.952
813.59	-77.778
813.90	-31.915
814.20	-23.256
814.50	-2.083
814.81	-16.667
815.11	-19.512
815.41	-16.667
815.72	-8.571
816.02	-50.000
816.32	2.564
816.62	-16.216
816.93	-52.941
817.23	-4.348
817.53	-47.059
817.84	-26.471
818.14	-65.625
818.44	-51.724
818.74	-29.032
819.04	-44.444
819.35	-16.667
819.65	-76.000
819.95	-26.667
820.25	-32.000
820.56	-39.474
820.86	-32.500
821.16	-2.128
821.46	3.448
821.76	-28.205
822.07	-55.000
822.37	-11.628
822.67	-86.667
822.97	-67.568
823.27	-2.703
823.57	-32.000
823.88	-5.405
824.18	-71.429
824.48	11.538
824.78	-115.385
825.08	-47.826
825.38	-41.667
825.69	-50.000
825.99	-115.000
826.29	-40.541
826.59	-35.294
826.89	-12.000
827.19	-28.571
827.49	-10.526
827.79	-50.000
828.09	-53.333
828.39	-30.435
828.70	-31.034
829.00	-51.724
829.30	8.333
829.60	9.375
829.90	-127.778
830.20	-42.308
830.50	-66.667
830.80	-53.571
831.10	2.564
831.40	-66.667
831.70	11.765
832.00	-41.667
832.30	-42.105
832.60	-75.000
832.90	-100.000
833.20	-117.647
833.50	-106.667
833.80	-93.333
834.10	-45.000
834.40	-8.333
834.70	-55.556
835.00	-26.923
835.30	-50.000
835.60	13.793
835.90	-105.556
836.20	-81.818
836.50	-225.000
836.80	8.571
837.10	2.857
837.40	-52.941
837.70	-127.273
838.00	-54.167
838.30	-37.500
838.60	-38.095
838.90	-40.000
839.19	-91.304
839.49	-13.043
839.79	-66.667
840.09	-78.261
840.39	-40.909
840.69	-93.750
840.99	-42.105
841.29	-81.250
841.59	-71.429
841.88	-72.222
842.18	-58.333
842.48	-52.941
842.78	-10.345
843.08	-28.571
843.38	0.000
843.68	-111.111
843.97	-84.615
844.27	-136.364
844.57	-380.000
844.87	16.000
845.17	-180.000
845.47	-107.143
845.76	-211.111
846.06	0.000
846.36	-700.000
846.66	-70.000
846.96	-89.474
847.25	-8.333
847.55	-25.000
847.85	-100.000
848.15	-40.000
848.44	30.769
848.74	-57.895
849.04	533.333
849.34	-66.667
849.63	-105.263
849.93	0.000
850.23	-35.000
850.53	19.048
850.82	-8.000
851.12	-63.158
851.42	-1050.000
851.71	-35.714
852.01	-83.333
852.31	-70.588
852.61	-93.333
852.90	-71.429
853.20	-66.667
853.50	-55.556
853.79	-26.316
854.09	-33.333
854.39	-14.286
854.68	-21.739
854.98	-216.667
855.28	-6.897
855.57	-106.250
855.87	-70.000
856.17	-106.667
856.46	-13.793
856.76	13.333
857.05	-58.824
857.35	-200.000
857.65	-36.364
857.94	-37.037
858.24	-164.286
858.53	-78.571
858.83	-108.333
859.13	-133.333
859.42	-19.048
859.72	-87.500
860.01	-633.333
860.31	-162.500
860.60	-460.000
860.90	-166.667
861.20	-225.000
861.49	-285.714
861.79	-58.824
862.08	-700.000
862.38	-150.000
862.67	-76.923
862.97	-35.294
863.26	-15.000
863.56	-94.118
863.85	733.333
864.15	-90.000
864.44	-138.462
864.74	-40.000
865.03	-212.500
865.33	-266.667
865.62	-58.824
865.92	-475.000
866.21	-42.857
866.51	-125.000
866.80	-2000.000
867.10	-433.333
867.39	-47.059
867.69	-17.391
867.98	-228.571
868.27	-300.000
868.57	-56.250
868.86	-81.818
869.16	-29.412
869.45	-166.667
869.75	-328.571
870.04	800.000
870.33	-133.333
870.63	-120.000
870.92	-155.556
871.22	-75.000
871.51	-90.909
871.80	-50.000
872.10	-100.000
>>>>>End Processed Spectral Data<<<<<
