SpectraSuite Data File
++++++++++++++++++++++++++++++++++++
Date: Sat May 16 11:07:07 PDT 2015
User: schluterlab
Dark Spectrum Present: Yes
Reference Spectrum Present: Yes
Number of Sampled Component Spectra: 1
Spectrometers: USB2E3373
Integration Time (usec): 3000 (USB2E3373)
Spectra Averaged: 3 (USB2E3373)
Boxcar Smoothing: 0 (USB2E3373)
Correct for Electrical Dark: No (USB2E3373)
Strobe/Lamp Enabled: No (USB2E3373)
Correct for Detector Non-linearity: No (USB2E3373)
Correct for Stray Light: No (USB2E3373)
Number of Pixels in Processed Spectrum: 2048
>>>>>Begin Processed Spectral Data<<<<<
178.53	0.000
178.91	13.333
179.29	466.667
179.67	-200.000
180.04	-7.692
180.42	-200.000
180.80	75.000
181.18	200.000
181.56	-25.000
181.94	500.000
182.31	175.000
182.69	15.385
183.07	33.333
183.45	400.000
183.83	233.333
184.20	-71.429
184.58	50.000
184.96	-350.000
185.34	37.500
185.72	-175.000
186.09	83.333
186.47	87.500
186.85	-75.000
187.23	-37.500
187.61	50.000
187.98	-100.000
188.36	162.500
188.74	-37.500
189.12	200.000
189.49	85.714
189.87	108.333
190.25	-25.000
190.63	64.286
191.00	-144.444
191.38	100.000
191.76	20.000
192.14	100.000
192.51	-100.000
192.89	166.667
193.27	0.000
193.65	0.000
194.02	0.000
194.40	-0.000
194.78	10.000
195.15	500.000
195.53	0.000
195.91	-133.333
196.29	140.000
196.66	0.000
197.04	1100.000
197.42	125.000
197.79	80.000
198.17	-333.333
198.55	400.000
198.92	-300.000
199.30	125.000
199.68	-150.000
200.05	66.667
200.43	-100.000
200.81	-500.000
201.18	-50.000
201.56	85.714
201.94	80.000
202.31	77.273
202.69	140.000
203.07	90.000
203.44	-66.667
203.82	-116.667
204.19	-325.000
204.57	275.000
204.95	800.000
205.32	25.000
205.70	300.000
206.08	-300.000
206.45	27.778
206.83	-750.000
207.20	150.000
207.58	-366.667
207.96	66.667
208.33	-25.000
208.71	33.333
209.08	70.000
209.46	-85.714
209.84	-150.000
210.21	0.000
210.59	75.000
210.96	-200.000
211.34	200.000
211.71	0.000
212.09	-25.000
212.46	250.000
212.84	-1100.000
213.22	33.333
213.59	75.000
213.97	122.222
214.34	90.000
214.72	-50.000
215.09	166.667
215.47	-16.667
215.84	0.000
216.22	-30.000
216.59	-20.000
216.97	0.000
217.34	-250.000
217.72	-28.571
218.09	33.333
218.47	-114.286
218.84	42.857
219.22	71.429
219.59	0.000
219.97	-0.000
220.34	225.000
220.72	125.000
221.09	38.462
221.47	0.000
221.84	-0.000
222.22	100.000
222.59	-200.000
222.97	-62.500
223.34	-200.000
223.72	100.000
224.09	7.143
224.46	250.000
224.84	78.571
225.21	-157.143
225.59	27.273
225.96	-137.500
226.34	157.143
226.71	11.111
227.08	55.000
227.46	1000.000
227.83	-28.571
228.21	0.000
228.58	-350.000
228.95	62.500
229.33	-500.000
229.70	-100.000
230.08	-400.000
230.45	83.333
230.82	116.667
231.20	500.000
231.57	250.000
231.95	700.000
232.32	90.476
232.69	33.333
233.07	0.000
233.44	0.000
233.81	-20.000
234.19	122.222
234.56	-6.250
234.93	21.875
235.31	0.000
235.68	0.000
236.05	11.765
236.43	18.182
236.80	38.710
237.17	66.667
237.55	9.524
237.92	4.545
238.29	14.286
238.67	23.529
239.04	50.000
239.41	32.258
239.79	-2.564
240.16	9.524
240.53	23.636
240.91	46.154
241.28	34.545
241.65	38.462
242.02	40.984
242.40	31.148
242.77	33.333
243.14	27.119
243.51	30.000
243.89	26.582
244.26	34.831
244.63	36.842
245.00	18.947
245.38	26.271
245.75	27.434
246.12	31.200
246.49	25.197
246.87	30.894
247.24	27.966
247.61	25.424
247.98	33.099
248.36	23.077
248.73	35.443
249.10	32.484
249.47	28.655
249.84	28.409
250.22	17.857
250.59	29.379
250.96	30.366
251.33	27.962
251.70	31.250
252.08	32.701
252.45	29.858
252.82	29.524
253.19	25.957
253.56	25.806
253.94	32.911
254.31	35.622
254.68	32.520
255.05	29.032
255.42	28.571
255.79	28.315
256.16	34.510
256.54	30.515
256.91	31.439
257.28	26.374
257.65	29.078
258.02	31.761
258.39	26.756
258.76	28.378
259.14	27.469
259.51	33.115
259.88	29.878
260.25	34.783
260.62	29.904
260.99	29.080
261.36	32.622
261.73	31.214
262.10	31.667
262.47	28.490
262.85	34.571
263.22	26.074
263.59	31.077
263.96	32.174
264.33	29.810
264.70	31.492
265.07	30.220
265.44	29.716
265.81	29.974
266.18	29.114
266.55	30.392
266.92	29.471
267.29	31.235
267.66	30.370
268.03	29.952
268.40	30.751
268.77	29.398
269.14	31.555
269.51	30.115
269.88	30.046
270.25	29.604
270.62	32.037
270.99	30.856
271.36	28.205
271.73	29.148
272.10	31.121
272.47	30.000
272.84	30.667
273.21	31.881
273.58	30.330
273.95	29.605
274.32	30.090
274.69	32.166
275.06	26.994
275.43	29.464
275.80	33.809
276.17	29.289
276.54	31.365
276.91	28.807
277.28	27.992
277.65	30.785
278.02	30.063
278.39	29.077
278.76	31.673
279.13	30.237
279.50	30.815
279.87	28.753
280.23	29.555
280.60	28.429
280.97	26.990
281.34	28.433
281.71	28.462
282.08	28.427
282.45	27.495
282.82	29.651
283.19	28.182
283.56	31.319
283.92	30.919
284.29	28.067
284.66	29.137
285.03	29.590
285.40	30.074
285.77	28.596
286.14	27.798
286.51	26.465
286.87	30.672
287.24	31.741
287.61	26.942
287.98	27.383
288.35	25.950
288.72	26.316
289.08	24.068
289.45	27.946
289.82	27.336
290.19	24.795
290.56	27.934
290.93	24.165
291.29	26.580
291.66	26.409
292.03	26.217
292.40	25.602
292.77	24.845
293.13	26.504
293.50	25.706
293.87	24.387
294.24	25.339
294.60	23.030
294.97	24.734
295.34	24.296
295.71	25.149
296.08	22.120
296.44	22.747
296.81	22.650
297.18	23.662
297.55	24.859
297.91	24.965
298.28	23.151
298.65	22.315
299.02	23.930
299.38	22.861
299.75	22.147
300.12	22.308
300.48	23.018
300.85	21.756
301.22	21.604
301.59	21.586
301.95	22.418
302.32	20.860
302.69	21.909
303.05	21.612
303.42	19.875
303.79	21.531
304.15	20.379
304.52	20.537
304.89	20.779
305.25	20.513
305.62	21.034
305.99	22.026
306.35	22.087
306.72	20.159
307.09	20.999
307.45	19.977
307.82	20.447
308.19	20.022
308.55	20.479
308.92	18.260
309.29	19.243
309.65	18.558
310.02	19.654
310.38	18.919
310.75	19.672
311.12	20.455
311.48	20.459
311.85	19.156
312.22	19.979
312.58	19.532
312.95	18.043
313.31	19.680
313.68	20.603
314.05	20.574
314.41	18.913
314.78	17.882
315.14	19.250
315.51	19.453
315.87	20.426
316.24	18.853
316.61	20.921
316.97	20.199
317.34	18.979
317.70	18.553
318.07	19.590
318.43	18.914
318.80	20.188
319.16	17.917
319.53	18.421
319.89	18.909
320.26	18.627
320.62	18.269
320.99	19.701
321.35	17.537
321.72	18.628
322.08	18.892
322.45	18.218
322.81	20.077
323.18	18.924
323.54	18.115
323.91	18.536
324.27	19.297
324.64	18.282
325.00	17.976
325.37	18.462
325.73	20.035
326.10	18.423
326.46	18.564
326.83	19.830
327.19	18.599
327.56	19.250
327.92	17.757
328.29	18.788
328.65	17.091
329.01	18.551
329.38	18.733
329.74	18.498
330.11	17.860
330.47	19.074
330.84	18.790
331.20	18.773
331.56	17.229
331.93	17.584
332.29	17.991
332.66	16.769
333.02	15.928
333.38	17.652
333.75	17.988
334.11	17.778
334.48	17.476
334.84	17.323
335.20	17.642
335.57	17.599
335.93	18.263
336.29	16.298
336.66	16.123
337.02	17.477
337.38	17.647
337.75	17.296
338.11	16.905
338.47	16.815
338.84	17.877
339.20	16.344
339.56	18.004
339.93	16.314
340.29	17.006
340.65	16.608
341.02	17.875
341.38	17.270
341.74	17.697
342.11	16.553
342.47	16.223
342.83	16.625
343.20	17.763
343.56	16.816
343.92	17.863
344.28	18.167
344.65	17.162
345.01	16.555
345.37	16.860
345.73	16.367
346.10	15.944
346.46	16.409
346.82	16.840
347.19	16.023
347.55	16.292
347.91	17.244
348.27	16.706
348.63	17.367
349.00	16.070
349.36	15.066
349.72	16.561
350.08	17.241
350.45	16.076
350.81	16.959
351.17	15.514
351.53	14.877
351.89	16.572
352.26	15.426
352.62	18.664
352.98	16.060
353.34	15.747
353.70	14.595
354.07	16.680
354.43	16.996
354.79	16.640
355.15	15.815
355.51	14.687
355.87	15.415
356.24	16.203
356.60	17.566
356.96	16.551
357.32	15.994
357.68	16.552
358.04	16.089
358.40	16.860
358.77	16.383
359.13	16.220
359.49	16.100
359.85	15.396
360.21	16.210
360.57	17.093
360.93	16.519
361.29	16.143
361.66	15.854
362.02	16.124
362.38	17.021
362.74	16.264
363.10	15.925
363.46	16.880
363.82	16.327
364.18	16.208
364.54	16.369
364.90	16.422
365.26	16.262
365.62	16.465
365.98	16.358
366.35	15.493
366.71	14.799
367.07	16.302
367.43	16.404
367.79	16.082
368.15	15.576
368.51	16.853
368.87	16.621
369.23	16.140
369.59	15.833
369.95	15.645
370.31	17.300
370.67	15.257
371.03	15.087
371.39	15.488
371.75	15.308
372.11	14.993
372.47	15.763
372.83	16.620
373.19	16.643
373.55	16.538
373.91	15.718
374.27	15.606
374.63	16.011
374.99	15.994
375.35	15.209
375.71	16.205
376.07	15.674
376.42	15.298
376.78	16.013
377.14	15.729
377.50	16.054
377.86	15.345
378.22	15.641
378.58	15.503
378.94	15.413
379.30	15.600
379.66	16.576
380.02	15.270
380.38	15.831
380.74	15.826
381.09	16.696
381.45	16.348
381.81	15.547
382.17	15.288
382.53	15.137
382.89	15.730
383.25	16.737
383.61	15.920
383.97	16.044
384.32	14.143
384.68	16.022
385.04	14.432
385.40	14.790
385.76	15.488
386.12	15.615
386.48	15.842
386.83	15.644
387.19	16.019
387.55	15.869
387.91	15.175
388.27	15.199
388.62	15.685
388.98	15.324
389.34	15.055
389.70	15.164
390.06	14.978
390.42	15.833
390.77	16.088
391.13	15.404
391.49	15.658
391.85	14.838
392.20	14.563
392.56	14.661
392.92	15.117
393.28	16.303
393.64	15.574
393.99	15.569
394.35	15.511
394.71	15.256
395.07	15.505
395.42	15.256
395.78	14.708
396.14	16.012
396.50	16.086
396.85	16.286
397.21	15.310
397.57	14.894
397.92	15.281
398.28	15.111
398.64	15.526
399.00	16.348
399.35	14.769
399.71	16.144
400.07	15.881
400.42	14.964
400.78	15.504
401.14	16.168
401.49	15.271
401.85	15.192
402.21	16.031
402.57	16.323
402.92	15.419
403.28	16.115
403.63	14.859
403.99	15.351
404.35	15.036
404.70	16.208
405.06	15.283
405.42	14.945
405.77	14.876
406.13	15.219
406.49	15.398
406.84	14.637
407.20	15.607
407.55	16.403
407.91	15.674
408.27	15.502
408.62	16.115
408.98	14.979
409.34	15.356
409.69	15.438
410.05	15.706
410.40	15.328
410.76	15.175
411.11	14.963
411.47	15.793
411.83	15.403
412.18	15.099
412.54	14.765
412.89	15.249
413.25	14.994
413.60	15.067
413.96	15.219
414.31	15.107
414.67	15.492
415.03	16.106
415.38	14.444
415.74	15.657
416.09	15.409
416.45	15.410
416.80	15.280
417.16	14.551
417.51	16.152
417.87	15.340
418.22	15.297
418.58	15.212
418.93	14.960
419.29	14.931
419.64	14.824
420.00	16.221
420.35	15.671
420.71	15.006
421.06	15.562
421.42	15.281
421.77	15.578
422.12	15.501
422.48	14.912
422.83	15.774
423.19	15.256
423.54	15.043
423.90	14.691
424.25	14.989
424.61	15.802
424.96	15.857
425.31	14.925
425.67	14.728
426.02	15.491
426.38	15.608
426.73	15.722
427.09	15.502
427.44	15.455
427.79	14.826
428.15	16.038
428.50	15.718
428.85	16.127
429.21	15.219
429.56	15.313
429.92	15.681
430.27	15.753
430.62	15.047
430.98	15.421
431.33	15.528
431.68	15.335
432.04	16.788
432.39	16.068
432.74	15.228
433.10	15.194
433.45	14.911
433.80	15.845
434.16	15.905
434.51	15.397
434.86	15.759
435.22	16.036
435.57	15.483
435.92	15.240
436.28	14.659
436.63	15.602
436.98	14.834
437.34	14.649
437.69	15.461
438.04	15.655
438.39	15.824
438.75	15.250
439.10	15.103
439.45	14.484
439.81	15.602
440.16	15.559
440.51	15.529
440.86	14.980
441.22	14.649
441.57	15.895
441.92	15.652
442.27	15.747
442.63	15.236
442.98	14.391
443.33	14.552
443.68	15.320
444.03	15.521
444.39	14.929
444.74	15.198
445.09	15.296
445.44	15.082
445.79	15.451
446.15	16.046
446.50	14.916
446.85	15.341
447.20	15.220
447.55	15.193
447.91	16.058
448.26	14.972
448.61	14.941
448.96	15.910
449.31	14.769
449.66	15.799
450.02	15.457
450.37	14.957
450.72	15.198
451.07	16.153
451.42	14.684
451.77	15.560
452.12	15.554
452.47	16.121
452.83	14.560
453.18	15.623
453.53	15.299
453.88	15.132
454.23	14.571
454.58	16.656
454.93	15.428
455.28	15.296
455.63	15.971
455.98	15.843
456.34	14.930
456.69	15.947
457.04	15.181
457.39	14.833
457.74	15.653
458.09	16.241
458.44	15.300
458.79	15.191
459.14	14.775
459.49	15.690
459.84	15.739
460.19	15.931
460.54	15.366
460.89	15.135
461.24	15.118
461.59	15.533
461.94	15.468
462.29	16.141
462.64	15.481
462.99	15.730
463.34	15.598
463.69	15.204
464.04	15.349
464.39	15.651
464.74	16.076
465.09	15.213
465.44	15.285
465.79	16.018
466.14	15.708
466.49	15.429
466.84	15.666
467.19	15.835
467.54	15.380
467.89	15.906
468.24	15.380
468.59	15.053
468.94	15.305
469.29	15.854
469.64	16.240
469.99	15.665
470.34	15.965
470.68	16.206
471.03	15.760
471.38	15.000
471.73	16.434
472.08	15.797
472.43	15.187
472.78	15.333
473.13	15.109
473.48	15.954
473.83	15.136
474.17	15.605
474.52	16.816
474.87	15.793
475.22	15.575
475.57	14.833
475.92	14.903
476.27	14.571
476.61	15.099
476.96	15.763
477.31	15.447
477.66	16.104
478.01	15.883
478.36	15.191
478.70	15.163
479.05	15.684
479.40	15.596
479.75	15.800
480.10	15.228
480.45	14.942
480.79	16.239
481.14	16.106
481.49	16.021
481.84	15.950
482.19	15.395
482.53	15.862
482.88	15.472
483.23	15.446
483.58	15.772
483.92	15.480
484.27	14.754
484.62	15.032
484.97	15.004
485.31	15.296
485.66	15.658
486.01	15.184
486.36	15.154
486.70	15.345
487.05	15.009
487.40	15.678
487.75	15.525
488.09	14.793
488.44	15.156
488.79	15.883
489.13	15.900
489.48	15.579
489.83	15.983
490.17	15.673
490.52	15.987
490.87	15.150
491.22	15.834
491.56	15.602
491.91	15.363
492.26	15.991
492.60	15.604
492.95	15.374
493.30	16.008
493.64	15.421
493.99	15.535
494.34	15.857
494.68	16.245
495.03	15.440
495.37	15.044
495.72	15.570
496.07	15.204
496.41	16.582
496.76	15.571
497.11	16.298
497.45	15.948
497.80	15.608
498.14	16.257
498.49	15.470
498.84	15.534
499.18	16.082
499.53	16.707
499.87	15.058
500.22	15.833
500.56	16.258
500.91	15.320
501.26	16.739
501.60	15.070
501.95	16.522
502.29	15.683
502.64	15.936
502.98	15.477
503.33	16.212
503.67	15.421
504.02	15.451
504.36	15.784
504.71	15.957
505.06	15.377
505.40	16.018
505.75	15.955
506.09	15.571
506.44	15.489
506.78	16.458
507.13	16.014
507.47	16.015
507.82	16.211
508.16	15.907
508.51	15.817
508.85	15.683
509.19	16.484
509.54	16.226
509.88	16.223
510.23	16.090
510.57	16.720
510.92	16.541
511.26	15.789
511.61	16.361
511.95	16.002
512.30	15.668
512.64	15.582
512.98	15.897
513.33	16.145
513.67	16.136
514.02	15.716
514.36	16.343
514.70	16.016
515.05	16.409
515.39	15.802
515.74	17.161
516.08	16.081
516.42	17.620
516.77	16.696
517.11	16.362
517.46	16.089
517.80	16.306
518.14	15.519
518.49	15.959
518.83	15.074
519.17	16.341
519.52	15.789
519.86	16.428
520.20	16.626
520.55	15.815
520.89	14.715
521.23	16.667
521.58	15.611
521.92	16.086
522.26	16.254
522.61	16.223
522.95	15.826
523.29	16.301
523.64	16.802
523.98	16.359
524.32	16.719
524.66	15.963
525.01	16.378
525.35	16.237
525.69	15.355
526.04	17.232
526.38	17.314
526.72	15.262
527.06	16.602
527.41	16.304
527.75	15.116
528.09	16.214
528.43	16.066
528.78	16.771
529.12	17.286
529.46	16.881
529.80	15.946
530.15	16.098
530.49	16.235
530.83	16.765
531.17	15.556
531.51	15.874
531.86	15.997
532.20	15.655
532.54	17.045
532.88	16.271
533.22	16.110
533.57	16.319
533.91	16.542
534.25	15.273
534.59	15.553
534.93	15.184
535.27	15.733
535.62	16.944
535.96	15.902
536.30	15.052
536.64	16.667
536.98	16.314
537.32	15.964
537.66	16.090
538.01	16.289
538.35	16.014
538.69	16.043
539.03	16.114
539.37	15.436
539.71	16.278
540.05	16.175
540.39	16.759
540.73	15.688
541.07	16.393
541.42	16.205
541.76	15.615
542.10	16.745
542.44	16.123
542.78	16.147
543.12	15.818
543.46	14.658
543.80	15.853
544.14	14.909
544.48	16.995
544.82	15.562
545.16	16.432
545.50	14.670
545.84	15.994
546.18	16.713
546.52	15.932
546.86	15.100
547.20	16.385
547.54	15.771
547.88	16.191
548.22	15.269
548.56	15.164
548.90	15.633
549.24	15.907
549.58	16.514
549.92	16.113
550.26	17.341
550.60	15.149
550.94	16.277
551.28	16.403
551.62	15.657
551.96	16.208
552.30	16.028
552.64	15.975
552.98	16.048
553.32	16.378
553.66	16.510
554.00	16.347
554.34	15.523
554.68	16.228
555.02	16.715
555.36	16.535
555.69	14.900
556.03	15.298
556.37	16.643
556.71	16.965
557.05	16.112
557.39	15.071
557.73	16.411
558.07	16.880
558.41	16.380
558.75	16.578
559.08	15.409
559.42	16.156
559.76	17.255
560.10	16.257
560.44	16.763
560.78	15.449
561.12	15.873
561.45	15.342
561.79	16.725
562.13	16.339
562.47	16.667
562.81	15.700
563.15	16.935
563.48	16.033
563.82	15.754
564.16	16.227
564.50	17.070
564.84	16.733
565.17	16.578
565.51	16.297
565.85	15.010
566.19	16.140
566.52	15.525
566.86	15.676
567.20	16.041
567.54	15.948
567.88	15.578
568.21	16.331
568.55	16.066
568.89	14.761
569.23	15.410
569.56	15.469
569.90	15.696
570.24	15.520
570.57	15.677
570.91	15.403
571.25	15.824
571.59	15.954
571.92	15.149
572.26	15.728
572.60	15.669
572.93	15.175
573.27	15.305
573.61	15.343
573.95	15.620
574.28	15.614
574.62	15.074
574.96	15.030
575.29	15.168
575.63	15.715
575.97	15.291
576.30	15.374
576.64	15.248
576.98	15.178
577.31	15.066
577.65	15.567
577.98	15.258
578.32	15.092
578.66	14.857
578.99	15.524
579.33	15.021
579.67	14.634
580.00	14.980
580.34	15.460
580.67	15.322
581.01	14.534
581.35	14.833
581.68	15.095
582.02	15.403
582.35	14.976
582.69	15.154
583.02	14.987
583.36	15.229
583.70	14.798
584.03	15.221
584.37	15.507
584.70	15.517
585.04	15.291
585.37	15.060
585.71	15.409
586.04	15.350
586.38	14.916
586.72	14.966
587.05	15.038
587.39	15.406
587.72	15.344
588.06	15.516
588.39	14.981
588.73	15.450
589.06	15.761
589.40	15.768
589.73	15.616
590.07	14.967
590.40	15.609
590.73	15.514
591.07	15.041
591.40	15.425
591.74	16.247
592.07	15.450
592.41	15.584
592.74	15.565
593.08	15.826
593.41	15.033
593.75	14.837
594.08	15.169
594.41	15.675
594.75	15.100
595.08	15.301
595.42	15.535
595.75	14.517
596.09	15.056
596.42	15.589
596.75	15.222
597.09	16.207
597.42	15.103
597.75	15.589
598.09	15.861
598.42	16.041
598.76	15.698
599.09	15.667
599.42	15.302
599.76	15.176
600.09	15.573
600.42	15.837
600.76	15.367
601.09	15.306
601.42	14.761
601.76	15.693
602.09	15.215
602.42	15.556
602.76	15.330
603.09	15.323
603.42	15.834
603.76	15.397
604.09	15.298
604.42	15.945
604.76	15.438
605.09	15.506
605.42	15.913
605.75	15.222
606.09	15.608
606.42	14.663
606.75	15.758
607.09	15.792
607.42	15.449
607.75	16.026
608.08	15.680
608.42	15.894
608.75	15.467
609.08	15.392
609.41	15.247
609.75	15.505
610.08	15.392
610.41	15.759
610.74	16.344
611.07	15.669
611.41	15.683
611.74	16.195
612.07	16.165
612.40	15.245
612.73	15.940
613.07	15.685
613.40	16.201
613.73	15.150
614.06	15.321
614.39	15.445
614.72	15.140
615.06	15.163
615.39	15.681
615.72	15.698
616.05	15.461
616.38	15.844
616.71	16.517
617.05	15.380
617.38	16.161
617.71	14.681
618.04	15.652
618.37	15.157
618.70	16.362
619.03	15.234
619.36	16.350
619.69	16.583
620.03	15.358
620.36	15.682
620.69	15.937
621.02	15.677
621.35	15.323
621.68	15.656
622.01	15.615
622.34	15.916
622.67	15.703
623.00	15.991
623.33	17.239
623.66	15.436
623.99	16.466
624.32	17.336
624.65	15.600
624.99	15.982
625.32	14.970
625.65	15.618
625.98	14.945
626.31	16.639
626.64	16.151
626.97	16.952
627.30	16.170
627.63	15.544
627.96	16.449
628.29	15.717
628.62	15.473
628.95	16.732
629.28	16.729
629.61	15.996
629.94	15.406
630.26	16.899
630.59	17.085
630.92	14.915
631.25	18.246
631.58	17.249
631.91	14.468
632.24	16.000
632.57	16.111
632.90	16.437
633.23	16.121
633.56	16.140
633.89	15.802
634.22	15.702
634.55	16.106
634.88	16.929
635.20	15.481
635.53	17.939
635.86	15.995
636.19	15.995
636.52	17.204
636.85	16.606
637.18	14.375
637.51	18.216
637.83	14.381
638.16	17.105
638.49	15.862
638.82	17.246
639.15	15.824
639.48	15.953
639.81	17.427
640.13	16.892
640.46	14.672
640.79	16.807
641.12	17.066
641.45	16.212
641.77	15.120
642.10	14.199
642.43	15.781
642.76	15.906
643.09	15.397
643.41	18.413
643.74	18.601
644.07	17.941
644.40	16.694
644.73	15.842
645.05	18.030
645.38	16.887
645.71	17.182
646.04	16.639
646.36	14.660
646.69	17.301
647.02	17.509
647.35	15.884
647.67	15.328
648.00	18.278
648.33	18.381
648.66	15.968
648.98	15.924
649.31	17.385
649.64	15.781
649.96	17.268
650.29	15.574
650.62	19.621
650.94	16.189
651.27	18.198
651.60	16.609
651.92	17.637
652.25	16.694
652.58	15.503
652.90	17.175
653.23	16.452
653.56	16.221
653.88	16.230
654.21	16.443
654.54	15.449
654.86	16.693
655.19	15.043
655.52	15.722
655.84	14.606
656.17	16.175
656.49	22.312
656.82	22.976
657.15	16.893
657.47	12.422
657.80	9.735
658.13	10.884
658.45	14.994
658.78	14.906
659.10	15.068
659.43	14.605
659.75	14.713
660.08	15.156
660.41	16.216
660.73	15.842
661.06	19.420
661.38	18.214
661.71	16.252
662.03	19.556
662.36	18.337
662.68	16.878
663.01	17.622
663.33	15.646
663.66	18.670
663.98	14.063
664.31	16.555
664.63	18.142
664.96	15.618
665.28	17.137
665.61	16.068
665.93	18.724
666.26	17.814
666.58	17.048
666.91	15.813
667.23	17.982
667.56	15.193
667.88	15.158
668.21	16.820
668.53	18.224
668.86	15.473
669.18	17.580
669.50	15.187
669.83	13.869
670.15	17.489
670.48	14.019
670.80	15.945
671.13	14.221
671.45	18.018
671.77	16.916
672.10	16.568
672.42	16.052
672.75	15.273
673.07	16.036
673.39	19.490
673.72	18.110
674.04	16.985
674.37	14.227
674.69	17.418
675.01	18.298
675.34	18.004
675.66	17.063
675.98	17.621
676.31	18.778
676.63	19.770
676.95	14.823
677.28	17.169
677.60	20.814
677.92	18.722
678.25	17.505
678.57	18.724
678.89	14.465
679.22	18.449
679.54	18.146
679.86	14.200
680.18	15.019
680.51	15.270
680.83	17.333
681.15	16.378
681.48	16.227
681.80	15.524
682.12	15.493
682.44	18.861
682.77	15.152
683.09	19.078
683.41	18.142
683.73	15.982
684.06	12.473
684.38	18.828
684.70	17.284
685.02	15.748
685.34	15.595
685.67	14.015
685.99	13.233
686.31	16.876
686.63	16.312
686.96	15.157
687.28	16.570
687.60	15.234
687.92	15.370
688.24	16.142
688.56	16.834
688.89	16.239
689.21	17.943
689.53	17.931
689.85	16.704
690.17	14.126
690.49	16.166
690.82	14.940
691.14	17.453
691.46	16.408
691.78	15.419
692.10	20.127
692.42	17.111
692.74	17.597
693.06	19.326
693.39	17.226
693.71	14.673
694.03	17.063
694.35	15.350
694.67	17.967
694.99	15.601
695.31	15.561
695.63	14.286
695.95	17.370
696.27	17.207
696.59	16.578
696.91	14.326
697.23	17.708
697.56	11.298
697.88	17.793
698.20	17.559
698.52	17.265
698.84	20.146
699.16	14.762
699.48	15.000
699.80	15.539
700.12	16.877
700.44	16.760
700.76	15.160
701.08	17.442
701.40	17.825
701.72	16.358
702.04	18.590
702.36	19.578
702.68	15.868
703.00	15.362
703.32	12.034
703.64	20.294
703.96	17.151
704.28	15.976
704.60	13.291
704.91	12.063
705.23	16.505
705.55	15.541
705.87	18.771
706.19	13.542
706.51	13.542
706.83	18.033
707.15	17.197
707.47	17.631
707.79	14.433
708.11	14.758
708.43	16.708
708.74	15.584
709.06	14.763
709.38	14.943
709.70	17.187
710.02	23.313
710.34	15.512
710.66	14.286
710.98	17.666
711.29	13.548
711.61	16.933
711.93	15.410
712.25	17.608
712.57	14.983
712.89	16.906
713.20	19.244
713.52	16.418
713.84	16.014
714.16	14.754
714.48	14.603
714.80	11.692
715.11	16.715
715.43	16.265
715.75	16.511
716.07	12.459
716.39	19.064
716.70	20.557
717.02	19.259
717.34	16.794
717.66	19.502
717.97	16.803
718.29	17.647
718.61	17.460
718.93	18.638
719.24	15.074
719.56	10.943
719.88	16.727
720.20	17.603
720.51	18.797
720.83	15.663
721.15	16.803
721.46	16.471
721.78	13.410
722.10	17.600
722.42	15.702
722.73	19.124
723.05	15.261
723.37	18.039
723.68	12.955
724.00	13.415
724.32	21.399
724.63	10.373
724.95	19.421
725.27	18.860
725.58	12.500
725.90	12.302
726.22	15.129
726.53	13.688
726.85	14.118
727.16	12.782
727.48	16.154
727.80	13.934
728.11	20.588
728.43	13.223
728.74	21.484
729.06	17.424
729.38	15.564
729.69	11.024
730.01	19.291
730.32	13.546
730.64	17.949
730.96	20.522
731.27	17.143
731.59	19.293
731.90	16.871
732.22	15.644
732.53	20.861
732.85	17.450
733.16	17.029
733.48	13.937
733.80	14.235
734.11	19.655
734.43	14.286
734.74	16.617
735.06	13.480
735.37	16.514
735.69	13.548
736.00	14.141
736.32	16.556
736.63	17.241
736.95	15.217
737.26	14.901
737.58	19.784
737.89	18.280
738.21	12.782
738.52	13.077
738.83	16.406
739.15	14.103
739.46	14.919
739.78	16.084
740.09	16.434
740.41	16.434
740.72	17.153
741.04	15.079
741.35	12.987
741.66	14.815
741.98	13.810
742.29	21.596
742.61	17.647
742.92	18.224
743.23	16.667
743.55	14.865
743.86	22.222
744.18	17.619
744.49	21.182
744.80	18.782
745.12	20.619
745.43	13.568
745.74	14.563
746.06	17.561
746.37	21.145
746.68	12.935
747.00	13.089
747.31	14.423
747.62	12.442
747.94	15.721
748.25	18.605
748.56	16.667
748.88	8.152
749.19	16.432
749.50	20.098
749.82	20.000
750.13	21.145
750.44	15.041
750.75	22.400
751.07	18.929
751.38	14.760
751.69	15.267
752.01	16.538
752.32	12.451
752.63	13.462
752.94	15.476
753.26	20.870
753.57	17.857
753.88	18.103
754.19	14.523
754.51	19.922
754.82	16.206
755.13	14.815
755.44	20.248
755.75	19.753
756.07	12.048
756.38	17.578
756.69	16.606
757.00	15.679
757.31	20.134
757.63	19.003
757.94	14.740
758.25	15.698
758.56	19.137
758.87	15.341
759.18	15.000
759.50	18.861
759.81	12.774
760.12	13.176
760.43	20.388
760.74	17.188
761.05	17.697
761.36	16.168
761.67	17.751
761.99	10.968
762.30	16.667
762.61	16.604
762.92	19.731
763.23	17.536
763.54	16.000
763.85	18.987
764.16	16.735
764.47	18.644
764.78	17.228
765.10	20.863
765.41	15.161
765.72	16.352
766.03	9.894
766.34	13.910
766.65	16.194
766.96	17.500
767.27	15.104
767.58	17.442
767.89	14.194
768.20	23.313
768.51	17.486
768.82	21.081
769.13	15.500
769.44	14.912
769.75	19.048
770.06	18.349
770.37	16.432
770.68	17.708
770.99	19.307
771.30	16.019
771.61	18.056
771.92	14.286
772.23	19.159
772.54	17.021
772.85	21.302
773.16	21.951
773.47	18.675
773.78	23.626
774.09	22.000
774.39	19.136
774.70	12.081
775.01	15.942
775.32	12.687
775.63	9.917
775.94	26.316
776.25	19.286
776.56	22.131
776.87	18.584
777.18	15.044
777.48	20.000
777.79	9.565
778.10	11.009
778.41	12.712
778.72	19.008
779.03	25.373
779.34	9.774
779.65	16.993
779.95	22.464
780.26	10.884
780.57	6.897
780.88	17.593
781.19	3.030
781.50	12.000
781.80	13.072
782.11	7.692
782.42	18.675
782.73	4.380
783.04	15.541
783.34	14.394
783.65	16.279
783.96	23.577
784.27	16.239
784.57	25.203
784.88	17.073
785.19	32.456
785.50	-2.062
785.81	23.810
786.11	4.902
786.42	11.818
786.73	19.820
787.04	28.713
787.34	14.286
787.65	10.476
787.96	15.686
788.26	12.613
788.57	21.774
788.88	19.531
789.19	22.222
789.49	18.487
789.80	13.675
790.11	21.239
790.41	22.222
790.72	18.868
791.03	13.889
791.33	18.421
791.64	30.108
791.95	13.333
792.25	10.000
792.56	18.293
792.87	16.327
793.17	21.053
793.48	-2.703
793.79	2.817
794.09	22.785
794.40	17.021
794.70	14.953
795.01	3.509
795.32	14.545
795.62	18.750
795.93	7.216
796.23	-1.099
796.54	25.263
796.85	15.068
797.15	15.278
797.46	31.507
797.76	21.127
798.07	18.750
798.37	13.235
798.68	24.286
798.99	30.000
799.29	19.737
799.60	26.667
799.90	16.667
800.21	17.187
800.51	19.048
800.82	9.836
801.12	3.509
801.43	19.718
801.73	1.695
802.04	4.918
802.34	12.727
802.65	13.462
802.95	16.667
803.26	0.000
803.56	15.385
803.87	-2.632
804.17	20.968
804.48	33.846
804.78	-7.692
805.09	44.186
805.39	-9.375
805.70	-3.774
806.00	38.596
806.30	37.838
806.61	11.765
806.91	23.457
807.22	10.667
807.52	20.896
807.83	19.355
808.13	7.937
808.43	14.545
808.74	37.879
809.04	16.981
809.35	28.767
809.65	22.807
809.95	20.588
810.26	17.647
810.56	16.000
810.86	-14.286
811.17	0.000
811.47	-3.846
811.77	16.129
812.08	-34.211
812.38	19.048
812.69	-4.348
812.99	19.355
813.29	-2.381
813.59	-14.815
813.90	14.894
814.20	9.302
814.50	20.833
814.81	6.667
815.11	29.268
815.41	3.333
815.72	37.143
816.02	11.111
816.32	25.641
816.62	29.730
816.93	-32.353
817.23	-4.348
817.53	14.706
817.84	17.647
818.14	-15.625
818.44	17.241
818.74	12.903
819.04	33.333
819.35	33.333
819.65	36.000
819.95	20.000
820.25	12.000
820.56	26.316
820.86	25.000
821.16	12.766
821.46	32.759
821.76	7.692
822.07	7.500
822.37	4.651
822.67	16.667
822.97	32.432
823.27	16.216
823.57	44.000
823.88	13.514
824.18	-9.524
824.48	15.385
824.78	-46.154
825.08	0.000
825.38	41.667
825.69	-4.167
825.99	5.000
826.29	10.811
826.59	17.647
826.89	36.000
827.19	2.857
827.49	18.421
827.79	3.125
828.09	13.333
828.39	39.130
828.70	-34.483
829.00	37.931
829.30	22.222
829.60	37.500
829.90	50.000
830.20	30.769
830.50	-23.810
830.80	39.286
831.10	35.897
831.40	23.810
831.70	20.588
832.00	45.833
832.30	26.316
832.60	-18.750
832.90	-83.333
833.20	11.765
833.50	-6.667
833.80	26.667
834.10	15.000
834.40	16.667
834.70	-5.556
835.00	30.769
835.30	-4.167
835.60	24.138
835.90	27.778
836.20	-63.636
836.50	0.000
836.80	25.714
837.10	62.857
837.40	-5.882
837.70	54.545
838.00	37.500
838.30	-6.250
838.60	4.762
838.90	20.000
839.19	39.130
839.49	0.000
839.79	-22.222
840.09	4.348
840.39	-22.727
840.69	-12.500
840.99	15.789
841.29	6.250
841.59	-42.857
841.88	-16.667
842.18	29.167
842.48	-35.294
842.78	58.621
843.08	-21.429
843.38	7.692
843.68	-122.222
843.97	-38.462
844.27	36.364
844.57	-180.000
844.87	56.000
845.17	120.000
845.47	-21.429
845.76	77.778
846.06	0.000
846.36	-50.000
846.66	10.000
846.96	42.105
847.25	62.500
847.55	-83.333
847.85	26.667
848.15	50.000
848.44	80.769
848.74	5.263
849.04	33.333
849.34	-77.778
849.63	-36.842
849.93	0.000
850.23	30.000
850.53	66.667
850.82	16.000
851.12	31.579
851.42	-750.000
851.71	28.571
852.01	-16.667
852.31	52.941
852.61	93.333
852.90	28.571
853.20	-50.000
853.50	5.556
853.79	-36.842
854.09	33.333
854.39	-7.143
854.68	-17.391
854.98	-91.667
855.28	37.931
855.57	0.000
855.87	30.000
856.17	-33.333
856.46	37.931
856.76	0.000
857.05	-64.706
857.35	-107.692
857.65	-18.182
857.94	18.519
858.24	-57.143
858.53	14.286
858.83	16.667
859.13	0.000
859.42	66.667
859.72	-112.500
860.01	-166.667
860.31	37.500
860.60	0.000
860.90	22.222
861.20	62.500
861.49	-28.571
861.79	47.059
862.08	-350.000
862.38	-75.000
862.67	76.923
862.97	64.706
863.26	75.000
863.56	23.529
863.85	200.000
864.15	60.000
864.44	-7.692
864.74	65.000
865.03	-12.500
865.33	16.667
865.62	0.000
865.92	-200.000
866.21	-28.571
866.51	-91.667
866.80	600.000
867.10	-266.667
867.39	0.000
867.69	39.130
867.98	128.571
868.27	80.000
868.57	-12.500
868.86	-81.818
869.16	41.176
869.45	16.667
869.75	114.286
870.04	100.000
870.33	8.333
870.63	220.000
870.92	66.667
871.22	33.333
871.51	0.000
871.80	100.000
872.10	-10.000
>>>>>End Processed Spectral Data<<<<<
