SpectraSuite Data File
++++++++++++++++++++++++++++++++++++
Date: Sat May 16 11:17:33 PDT 2015
User: schluterlab
Dark Spectrum Present: Yes
Reference Spectrum Present: Yes
Number of Sampled Component Spectra: 1
Spectrometers: USB2E3373
Integration Time (usec): 3000 (USB2E3373)
Spectra Averaged: 3 (USB2E3373)
Boxcar Smoothing: 0 (USB2E3373)
Correct for Electrical Dark: No (USB2E3373)
Strobe/Lamp Enabled: No (USB2E3373)
Correct for Detector Non-linearity: No (USB2E3373)
Correct for Stray Light: No (USB2E3373)
Number of Pixels in Processed Spectrum: 2048
>>>>>Begin Processed Spectral Data<<<<<
178.53	0.000
178.91	60.000
179.29	333.333
179.67	-2200.000
180.04	-38.462
180.42	200.000
180.80	200.000
181.18	50.000
181.56	-50.000
181.94	1500.000
182.31	300.000
182.69	38.462
183.07	-600.000
183.45	1150.000
183.83	466.667
184.20	-85.714
184.58	-150.000
184.96	-100.000
185.34	112.500
185.72	-600.000
186.09	150.000
186.47	-62.500
186.85	-50.000
187.23	-25.000
187.61	-100.000
187.98	-337.500
188.36	-75.000
188.74	-87.500
189.12	1100.000
189.49	385.714
189.87	-83.333
190.25	300.000
190.63	14.286
191.00	-144.444
191.38	400.000
191.76	6.667
192.14	380.000
192.51	60.000
192.89	100.000
193.27	0.000
193.65	-111.111
194.02	-185.714
194.40	966.667
194.78	-30.000
195.15	-300.000
195.53	-45.455
195.91	-216.667
196.29	200.000
196.66	-433.333
197.04	1600.000
197.42	-150.000
197.79	33.333
198.17	-166.667
198.55	-550.000
198.92	-800.000
199.30	237.500
199.68	-900.000
200.05	-155.556
200.43	-144.444
200.81	-1800.000
201.18	-33.333
201.56	85.714
201.94	0.000
202.31	50.000
202.69	50.000
203.07	0.000
203.44	433.333
203.82	-150.000
204.19	-300.000
204.57	-50.000
204.95	-400.000
205.32	37.500
205.70	500.000
206.08	-1900.000
206.45	-27.778
206.83	-950.000
207.20	550.000
207.58	-500.000
207.96	-233.333
208.33	-62.500
208.71	-100.000
209.08	290.000
209.46	-157.143
209.84	850.000
210.21	0.000
210.59	20.000
210.96	900.000
211.34	-283.333
211.71	-133.333
212.09	225.000
212.46	800.000
212.84	-2000.000
213.22	266.667
213.59	116.667
213.97	22.222
214.34	140.000
214.72	-100.000
215.09	0.000
215.47	-100.000
215.84	0.000
216.22	30.000
216.59	13.333
216.97	-325.000
217.34	750.000
217.72	-142.857
218.09	-216.667
218.47	14.286
218.84	114.286
219.22	14.286
219.59	0.000
219.97	228.571
220.34	375.000
220.72	187.500
221.09	-84.615
221.47	0.000
221.84	433.333
222.22	-500.000
222.59	700.000
222.97	-162.500
223.34	50.000
223.72	-866.667
224.09	-85.714
224.46	-25.000
224.84	-42.857
225.21	-100.000
225.59	-136.364
225.96	-125.000
226.34	-85.714
226.71	-100.000
227.08	50.000
227.46	700.000
227.83	-71.429
228.21	-162.500
228.58	250.000
228.95	-6.250
229.33	-800.000
229.70	-200.000
230.08	-250.000
230.45	16.667
230.82	-166.667
231.20	0.000
231.57	-750.000
231.95	1500.000
232.32	47.619
232.69	-111.111
233.07	-200.000
233.44	-1000.000
233.81	-86.667
234.19	-155.556
234.56	-56.250
234.93	28.125
235.31	-128.571
235.68	-71.429
236.05	-100.000
236.43	-36.364
236.80	-9.677
237.17	20.833
237.55	-28.571
237.92	-54.545
238.29	-14.286
238.67	-14.706
239.04	8.333
239.41	-29.032
239.79	-25.641
240.16	-4.762
240.53	-5.455
240.91	5.128
241.28	16.364
241.65	-10.769
242.02	-11.475
242.40	-26.230
242.77	1.515
243.14	-18.644
243.51	-7.143
243.89	-15.190
244.26	-19.101
244.63	0.000
245.00	3.158
245.38	3.390
245.75	4.425
246.12	3.200
246.49	-7.087
246.87	-9.756
247.24	-11.017
247.61	-7.627
247.98	-7.042
248.36	-5.594
248.73	4.430
249.10	-6.369
249.47	1.170
249.84	5.114
250.22	-8.333
250.59	0.000
250.96	1.571
251.33	0.948
251.70	1.923
252.08	-3.318
252.45	0.474
252.82	-6.190
253.19	-2.128
253.56	-5.242
253.94	-1.688
254.31	0.429
254.68	0.000
255.05	-2.016
255.42	3.968
255.79	-2.867
256.16	1.569
256.54	2.206
256.91	-3.030
257.28	-4.762
257.65	-2.837
258.02	2.201
258.39	-2.341
258.76	0.338
259.14	0.617
259.51	0.656
259.88	1.524
260.25	1.553
260.62	-1.286
260.99	-2.374
261.36	3.049
261.73	1.445
262.10	2.778
262.47	-2.279
262.85	3.714
263.22	-1.433
263.59	-6.462
263.96	-0.290
264.33	1.355
264.70	-1.105
265.07	0.275
265.44	-1.034
265.81	2.067
266.18	-3.291
266.55	-2.206
266.92	1.763
267.29	0.242
267.66	0.494
268.03	0.242
268.40	0.469
268.77	1.928
269.14	-1.392
269.51	1.149
269.88	-0.229
270.25	-0.699
270.62	0.915
270.99	-0.225
271.36	-0.699
271.73	0.897
272.10	1.602
272.47	-0.444
272.84	1.556
273.21	-0.459
273.58	2.418
273.95	1.096
274.32	0.000
274.69	0.656
275.06	1.022
275.43	-1.339
275.80	3.870
276.17	1.046
276.54	2.240
276.91	1.852
277.28	0.406
277.65	0.620
278.02	0.418
278.39	0.393
278.76	0.000
279.13	1.186
279.50	-0.199
279.87	-0.211
280.23	2.024
280.60	1.392
280.97	0.194
281.34	-1.741
281.71	2.115
282.08	0.202
282.45	-2.037
282.82	0.581
283.19	0.727
283.56	2.564
283.92	1.590
284.29	-1.673
284.66	1.259
285.03	2.852
285.40	1.661
285.77	0.351
286.14	-0.542
286.51	-0.710
286.87	1.270
287.24	2.048
287.61	1.983
287.98	2.600
288.35	0.826
288.72	0.000
289.08	-0.678
289.45	0.000
289.82	1.384
290.19	2.627
290.56	0.661
290.93	-0.636
291.29	0.486
291.66	0.161
292.03	3.140
292.40	0.904
292.77	2.795
293.13	0.000
293.50	1.337
293.87	1.227
294.24	2.715
294.60	0.455
294.97	4.856
295.34	1.037
295.71	2.083
296.08	1.536
296.44	1.431
296.81	2.564
297.18	1.408
297.55	2.966
297.91	3.626
298.28	0.959
298.65	1.395
299.02	2.674
299.38	2.005
299.75	0.951
300.12	2.308
300.48	3.197
300.85	1.966
301.22	2.587
301.59	2.601
301.95	4.660
302.32	0.913
302.69	3.550
303.05	2.442
303.42	2.375
303.79	2.751
304.15	3.199
304.52	3.267
304.89	2.715
305.25	2.808
305.62	2.585
305.99	4.711
306.35	3.552
306.72	3.417
307.09	3.519
307.45	3.405
307.82	2.793
308.19	3.244
308.55	3.377
308.92	2.470
309.29	2.811
309.65	3.712
310.02	4.536
310.38	3.784
310.75	4.611
311.12	5.475
311.48	4.906
311.85	4.428
312.22	5.561
312.58	5.392
312.95	4.179
313.31	4.396
313.68	5.628
314.05	6.133
314.41	5.030
314.78	4.695
315.14	5.627
315.51	5.370
315.87	5.808
316.24	5.248
316.61	6.718
316.97	6.070
317.34	5.684
317.70	6.679
318.07	7.090
318.43	5.431
318.80	6.854
319.16	5.910
319.53	6.297
319.89	6.773
320.26	7.059
320.62	5.865
320.99	8.955
321.35	7.882
321.72	6.653
322.08	8.309
322.45	6.931
322.81	8.934
323.18	9.414
323.54	8.318
323.91	8.897
324.27	9.411
324.64	8.867
325.00	9.773
325.37	9.593
325.73	10.586
326.10	9.832
326.46	12.522
326.83	10.298
327.19	11.843
327.56	12.777
327.92	12.914
328.29	14.026
328.65	11.545
329.01	14.399
329.38	13.292
329.74	14.560
330.11	14.234
330.47	14.623
330.84	16.132
331.20	15.343
331.56	15.679
331.93	16.430
332.29	17.078
332.66	17.823
333.02	16.199
333.38	18.548
333.75	17.988
334.11	17.067
334.48	18.270
334.84	19.073
335.20	18.794
335.57	18.682
335.93	20.233
336.29	19.309
336.66	17.974
337.02	20.631
337.38	19.697
337.75	20.632
338.11	20.394
338.47	19.840
338.84	20.780
339.20	21.705
339.56	21.569
339.93	20.459
340.29	21.081
340.65	21.154
341.02	21.669
341.38	20.640
341.74	21.084
342.11	20.990
342.47	21.116
342.83	21.075
343.20	21.093
343.56	19.429
343.92	21.202
344.28	22.288
344.65	20.545
345.01	20.924
345.37	21.927
345.73	19.149
346.10	19.542
346.46	19.334
346.82	21.251
347.19	20.789
347.55	21.108
347.91	20.315
348.27	20.207
348.63	21.567
349.00	20.684
349.36	20.062
349.72	21.178
350.08	20.690
350.45	20.252
350.81	19.984
351.17	19.453
351.53	19.968
351.89	20.695
352.26	20.620
352.62	21.275
352.98	20.807
353.34	20.863
353.70	20.695
354.07	21.007
354.43	21.581
354.79	20.761
355.15	20.767
355.51	20.625
355.87	21.502
356.24	20.334
356.60	22.160
356.96	21.324
357.32	20.269
357.68	20.766
358.04	20.169
358.40	20.727
358.77	20.479
359.13	20.811
359.49	21.466
359.85	20.655
360.21	20.852
360.57	21.913
360.93	20.593
361.29	21.076
361.66	21.341
362.02	21.080
362.38	22.084
362.74	22.051
363.10	20.660
363.46	21.011
363.82	21.356
364.18	21.274
364.54	21.229
364.90	21.663
365.26	21.184
365.62	21.810
365.98	23.257
366.35	21.620
366.71	22.058
367.07	22.159
367.43	22.512
367.79	21.649
368.15	21.408
368.51	22.587
368.87	22.940
369.23	22.526
369.59	22.014
369.95	22.763
370.31	23.418
370.67	22.126
371.03	22.449
371.39	21.641
371.75	23.462
372.11	23.099
372.47	22.415
372.83	23.227
373.19	23.429
373.55	23.223
373.91	23.329
374.27	23.819
374.63	23.533
374.99	24.061
375.35	22.678
375.71	25.523
376.07	23.614
376.42	22.384
376.78	24.510
377.14	24.000
377.50	24.049
377.86	24.057
378.22	24.623
378.58	22.915
378.94	23.921
379.30	24.436
379.66	25.440
380.02	24.005
380.38	24.230
380.74	24.853
381.09	24.194
381.45	25.597
381.81	26.013
382.17	24.749
382.53	25.410
382.89	25.718
383.25	25.587
383.61	24.941
383.97	25.658
384.32	26.095
384.68	26.300
385.04	26.147
385.40	25.867
385.76	25.976
386.12	26.546
386.48	26.980
386.83	26.810
387.19	26.898
387.55	26.348
387.91	26.378
388.27	26.719
388.62	26.743
388.98	26.287
389.34	27.234
389.70	26.918
390.06	27.595
390.42	26.987
390.77	26.814
391.13	28.385
391.49	27.074
391.85	26.933
392.20	26.517
392.56	26.878
392.92	27.496
393.28	28.645
393.64	27.360
393.99	27.631
394.35	27.920
394.71	27.239
395.07	27.307
395.42	26.758
395.78	26.838
396.14	27.601
396.50	27.768
396.85	27.637
397.21	26.671
397.57	29.179
397.92	27.459
398.28	29.278
398.64	27.365
399.00	28.596
399.35	27.847
399.71	28.281
400.07	27.403
400.42	28.285
400.78	27.072
401.14	28.084
401.49	27.123
401.85	27.273
402.21	27.950
402.57	28.641
402.92	27.942
403.28	27.328
403.63	26.603
403.99	27.035
404.35	27.415
404.70	28.379
405.06	27.797
405.42	27.429
405.77	26.697
406.13	27.314
406.49	27.861
406.84	26.335
407.20	27.739
407.55	26.662
407.91	27.526
408.27	27.390
408.62	27.541
408.98	27.896
409.34	27.239
409.69	27.410
410.05	27.411
410.40	27.958
410.76	27.801
411.11	29.115
411.47	28.389
411.83	27.506
412.18	26.795
412.54	26.724
412.89	28.007
413.25	26.623
413.60	26.549
413.96	27.234
414.31	27.890
414.67	26.603
415.03	27.555
415.38	28.367
415.74	28.028
416.09	26.535
416.45	26.190
416.80	27.698
417.16	27.641
417.51	27.774
417.87	28.220
418.22	27.118
418.58	28.241
418.93	28.510
419.29	28.168
419.64	27.010
420.00	28.676
420.35	27.203
420.71	28.211
421.06	27.751
421.42	28.044
421.77	27.303
422.12	28.260
422.48	27.686
422.83	27.904
423.19	27.617
423.54	27.666
423.90	28.340
424.25	28.620
424.61	27.865
424.96	29.140
425.31	27.446
425.67	28.080
426.02	27.367
426.38	28.675
426.73	27.878
427.09	29.044
427.44	27.898
427.79	29.012
428.15	28.725
428.50	28.680
428.85	29.376
429.21	28.334
429.56	28.438
429.92	29.108
430.27	27.966
430.62	28.945
430.98	28.228
431.33	29.029
431.68	29.169
432.04	28.819
432.39	29.174
432.74	28.597
433.10	28.419
433.45	28.094
433.80	29.059
434.16	28.049
434.51	29.205
434.86	29.936
435.22	28.842
435.57	28.947
435.92	29.484
436.28	29.258
436.63	28.265
436.98	29.553
437.34	28.470
437.69	29.463
438.04	28.701
438.39	28.520
438.75	30.210
439.10	29.095
439.45	28.968
439.81	28.012
440.16	29.358
440.51	30.176
440.86	28.803
441.22	29.961
441.57	28.737
441.92	29.565
442.27	29.113
442.63	29.506
442.98	28.894
443.33	29.434
443.68	28.869
444.03	28.880
444.39	29.613
444.74	29.460
445.09	29.276
445.44	29.826
445.79	28.965
446.15	30.011
446.50	28.307
446.85	29.964
447.20	29.928
447.55	29.282
447.91	29.871
448.26	29.330
448.61	28.919
448.96	30.140
449.31	30.947
449.66	30.338
450.02	29.751
450.37	29.739
450.72	30.113
451.07	29.478
451.42	29.740
451.77	29.563
452.12	30.513
452.47	29.786
452.83	30.810
453.18	30.297
453.53	29.478
453.88	30.562
454.23	28.839
454.58	31.013
454.93	30.668
455.28	29.509
455.63	31.265
455.98	30.000
456.34	29.987
456.69	30.144
457.04	29.195
457.39	27.990
457.74	30.006
458.09	30.162
458.44	30.427
458.79	30.213
459.14	30.063
459.49	29.781
459.84	29.623
460.19	29.057
460.54	28.675
460.89	30.101
461.24	29.569
461.59	29.836
461.94	30.554
462.29	31.030
462.64	30.303
462.99	30.790
463.34	29.912
463.69	30.534
464.04	29.584
464.39	29.271
464.74	30.142
465.09	30.066
465.44	29.667
465.79	29.836
466.14	29.747
466.49	29.994
466.84	30.432
467.19	30.673
467.54	30.253
467.89	30.949
468.24	29.454
468.59	30.918
468.94	30.225
469.29	30.994
469.64	29.852
469.99	31.465
470.34	30.661
470.68	30.451
471.03	30.351
471.38	30.139
471.73	31.119
472.08	30.455
472.43	29.987
472.78	29.733
473.13	30.152
473.48	30.185
473.83	29.839
474.17	30.191
474.52	31.010
474.87	31.352
475.22	30.088
475.57	30.056
475.92	30.184
476.27	30.571
476.61	29.972
476.96	29.961
477.31	30.786
477.66	30.603
478.01	31.172
478.36	29.806
478.70	31.233
479.05	31.693
479.40	30.622
479.75	30.479
480.10	30.605
480.45	30.029
480.79	31.688
481.14	29.955
481.49	30.978
481.84	30.097
482.19	30.471
482.53	30.492
482.88	30.850
483.23	30.000
483.58	31.221
483.92	30.721
484.27	29.065
484.62	30.540
484.97	30.398
485.31	29.952
485.66	28.588
486.01	29.044
486.36	29.925
486.70	29.910
487.05	29.871
487.40	29.487
487.75	29.674
488.09	29.432
488.44	29.398
488.79	29.926
489.13	30.126
489.48	30.995
489.83	31.135
490.17	30.692
490.52	30.616
490.87	30.439
491.22	31.667
491.56	31.667
491.91	31.918
492.26	30.802
492.60	30.067
492.95	31.080
493.30	30.872
493.64	30.277
493.99	30.880
494.34	31.619
494.68	31.788
495.03	30.880
495.37	30.678
495.72	30.747
496.07	31.347
496.41	31.403
496.76	31.598
497.11	30.711
497.45	31.705
497.80	31.016
498.14	30.697
498.49	30.839
498.84	31.262
499.18	31.530
499.53	31.271
499.87	31.033
500.22	30.980
500.56	31.516
500.91	31.527
501.26	32.266
501.60	31.391
501.95	31.739
502.29	31.082
502.64	31.683
502.98	31.241
503.33	31.109
503.67	30.316
504.02	31.579
504.36	31.471
504.71	31.611
505.06	31.003
505.40	32.186
505.75	31.301
506.09	31.699
506.44	32.381
506.78	31.109
507.13	30.742
507.47	31.716
507.82	31.131
508.16	31.969
508.51	31.376
508.85	31.832
509.19	31.659
509.54	31.078
509.88	31.543
510.23	30.765
510.57	32.222
510.92	32.385
511.26	31.792
511.61	31.102
511.95	31.196
512.30	32.106
512.64	31.386
512.98	31.903
513.33	31.631
513.67	32.049
514.02	31.711
514.36	31.911
514.70	31.466
515.05	32.018
515.39	31.834
515.74	32.752
516.08	32.161
516.42	32.181
516.77	33.333
517.11	32.323
517.46	32.656
517.80	33.995
518.14	31.220
518.49	31.919
518.83	31.335
519.17	31.794
519.52	31.348
519.86	32.676
520.20	32.029
520.55	33.108
520.89	31.935
521.23	32.906
521.58	32.665
521.92	33.312
522.26	33.333
522.61	32.256
522.95	32.419
523.29	32.602
523.64	31.543
523.98	32.782
524.32	32.118
524.66	32.174
525.01	32.691
525.35	32.410
525.69	32.921
526.04	32.507
526.38	33.100
526.72	32.056
527.06	33.268
527.41	33.399
527.75	31.749
528.09	32.627
528.43	31.148
528.78	31.847
529.12	34.123
529.46	32.603
529.80	31.504
530.15	32.131
530.49	31.824
530.83	32.417
531.17	32.458
531.51	32.016
531.86	31.863
532.20	31.781
532.54	32.219
532.88	32.740
533.22	33.155
533.57	33.290
533.91	32.272
534.25	31.804
534.59	31.418
534.93	32.172
535.27	32.033
535.62	32.161
535.96	33.355
536.30	31.414
536.64	33.201
536.98	33.757
537.32	32.066
537.66	31.704
538.01	32.509
538.35	33.108
538.69	32.353
539.03	33.108
539.37	32.668
539.71	32.155
540.05	32.831
540.39	32.895
540.73	32.205
541.07	32.719
541.42	32.005
541.76	31.694
542.10	32.816
542.44	32.045
542.78	33.311
543.12	32.451
543.46	31.712
543.80	31.706
544.14	32.169
544.48	31.824
544.82	32.409
545.16	32.730
545.50	31.763
545.84	32.337
546.18	32.871
546.52	32.717
546.86	32.051
547.20	32.068
547.54	31.956
547.88	32.515
548.22	31.782
548.56	31.062
548.90	32.615
549.24	32.516
549.58	31.616
549.92	33.640
550.26	32.514
550.60	32.575
550.94	33.285
551.28	32.205
551.62	32.053
551.96	33.140
552.30	32.265
552.64	31.879
552.98	31.605
553.32	31.530
553.66	33.670
554.00	33.547
554.34	31.841
554.68	32.529
555.02	32.344
555.36	31.201
555.69	31.734
556.03	31.509
556.37	32.148
556.71	33.214
557.05	33.259
557.39	32.146
557.73	32.969
558.07	33.233
558.41	32.236
558.75	32.624
559.08	31.206
559.42	32.159
559.76	33.052
560.10	33.259
560.44	32.803
560.78	31.872
561.12	32.919
561.45	32.055
561.79	32.474
562.13	32.468
562.47	32.913
562.81	31.612
563.15	32.190
563.48	32.896
563.82	32.725
564.16	31.440
564.50	32.930
564.84	31.548
565.17	32.361
565.51	31.812
565.85	32.792
566.19	33.597
566.52	31.507
566.86	32.238
567.20	32.930
567.54	32.369
567.88	30.653
568.21	31.096
568.55	32.344
568.89	31.064
569.23	31.004
569.56	30.349
569.90	30.370
570.24	31.229
570.57	29.174
570.91	29.378
571.25	29.864
571.59	30.128
571.92	29.226
572.26	29.838
572.60	29.538
572.93	29.266
573.27	29.329
573.61	28.850
573.95	29.883
574.28	28.431
574.62	29.309
574.96	28.465
575.29	29.522
575.63	29.360
575.97	28.937
576.30	29.076
576.64	29.452
576.98	28.987
577.31	29.106
577.65	29.255
577.98	29.209
578.32	28.478
578.66	29.007
578.99	29.401
579.33	28.787
579.67	29.571
580.00	28.894
580.34	29.085
580.67	28.904
581.01	28.405
581.35	28.656
581.68	28.702
582.02	28.970
582.35	28.669
582.69	29.100
583.02	28.979
583.36	29.576
583.70	29.160
584.03	29.149
584.37	29.472
584.70	29.077
585.04	29.494
585.37	28.783
585.71	28.810
586.04	28.875
586.38	29.137
586.72	29.059
587.05	29.283
587.39	29.254
587.72	28.750
588.06	29.629
588.39	29.593
588.73	29.753
589.06	29.763
589.40	30.299
589.73	29.816
590.07	29.789
590.40	30.185
590.73	29.628
591.07	29.713
591.40	30.286
591.74	29.626
592.07	30.180
592.41	29.469
592.74	29.439
593.08	29.694
593.41	29.441
593.75	29.871
594.08	30.086
594.41	30.610
594.75	29.483
595.08	30.038
595.42	30.130
595.75	29.915
596.09	29.569
596.42	29.583
596.75	29.323
597.09	30.677
597.42	29.638
597.75	30.204
598.09	30.140
598.42	30.181
598.76	29.111
599.09	29.676
599.42	29.335
599.76	28.841
600.09	29.924
600.42	30.232
600.76	29.944
601.09	29.358
601.42	29.205
601.76	29.439
602.09	29.693
602.42	30.206
602.76	29.290
603.09	29.315
603.42	30.258
603.76	30.275
604.09	29.836
604.42	29.351
604.76	29.874
605.09	29.747
605.42	29.610
605.75	30.272
606.09	30.220
606.42	29.870
606.75	29.712
607.09	29.687
607.42	30.502
607.75	30.375
608.08	30.773
608.42	29.896
608.75	29.626
609.08	29.713
609.41	30.294
609.75	30.327
610.08	30.833
610.41	30.410
610.74	30.899
611.07	30.933
611.41	28.946
611.74	30.231
612.07	30.773
612.40	30.757
612.73	30.264
613.07	29.279
613.40	30.816
613.73	30.082
614.06	29.874
614.39	30.665
614.72	29.888
615.06	29.783
615.39	29.571
615.72	30.255
616.05	30.149
616.38	31.050
616.71	30.571
617.05	31.062
617.38	31.393
617.71	31.020
618.04	30.870
618.37	31.384
618.70	31.486
619.03	30.061
619.36	32.488
619.69	32.089
620.03	30.165
620.36	30.661
620.69	31.012
621.02	30.594
621.35	31.774
621.68	31.557
622.01	31.392
622.34	31.522
622.67	30.938
623.00	31.829
623.33	31.493
623.66	30.355
623.99	31.504
624.32	31.027
624.65	31.788
624.99	32.412
625.32	30.165
625.65	32.712
625.98	31.847
626.31	32.219
626.64	31.967
626.97	31.678
627.30	31.915
627.63	30.052
627.96	31.854
628.29	32.261
628.62	32.187
628.95	34.055
629.28	32.801
629.61	32.974
629.94	32.703
630.26	33.499
630.59	32.462
630.92	32.933
631.25	33.165
631.58	33.228
631.91	30.000
632.24	33.444
632.57	33.667
632.90	32.299
633.23	33.294
633.56	32.164
633.89	34.198
634.22	33.058
634.55	34.255
634.88	33.615
635.20	32.834
635.53	34.224
635.86	31.864
636.19	32.601
636.52	32.258
636.85	33.093
637.18	33.250
637.51	34.572
637.83	34.088
638.16	32.105
638.49	34.621
638.82	34.620
639.15	34.760
639.48	31.388
639.81	34.578
640.13	33.108
640.46	32.621
640.79	33.473
641.12	33.145
641.45	33.429
641.77	32.934
642.10	33.837
642.43	34.294
642.76	34.803
643.09	33.810
643.41	36.984
643.74	35.930
644.07	34.321
644.40	33.387
644.73	33.663
645.05	33.389
645.38	35.430
645.71	36.254
646.04	34.118
646.36	33.857
646.69	33.910
647.02	36.282
647.35	33.935
647.67	34.489
648.00	34.622
648.33	36.594
648.66	34.194
648.98	33.280
649.31	33.692
649.64	33.594
649.96	34.694
650.29	33.607
650.62	35.628
650.94	32.546
651.27	33.795
651.60	33.391
651.92	35.616
652.25	31.386
652.58	33.390
652.90	32.905
653.23	31.613
653.56	33.445
653.88	33.279
654.21	33.725
654.54	33.887
654.86	33.868
655.19	31.089
655.52	30.461
655.84	27.448
656.17	29.858
656.49	40.642
656.82	41.474
657.15	31.434
657.47	23.234
657.80	17.784
658.13	20.387
658.45	27.348
658.78	27.056
659.10	27.024
659.43	27.159
659.75	27.419
660.08	28.177
660.41	28.050
660.73	28.823
661.06	33.188
661.38	35.536
661.71	31.549
662.03	35.484
662.36	33.902
662.68	32.068
663.01	35.244
663.33	34.014
663.66	34.549
663.98	33.705
664.31	35.347
664.63	33.850
664.96	32.104
665.28	33.839
665.61	32.770
665.93	34.568
666.26	34.818
666.58	34.719
666.91	35.189
667.23	34.430
667.56	34.694
667.88	36.878
668.21	32.258
668.53	33.879
668.86	33.025
669.18	34.018
669.50	33.645
669.83	37.470
670.15	34.081
670.48	33.645
670.80	33.713
671.13	33.860
671.45	32.432
671.77	32.548
672.10	33.136
672.42	33.764
672.75	31.455
673.07	28.649
673.39	32.787
673.72	34.449
674.04	32.484
674.37	31.340
674.69	32.787
675.01	31.489
675.34	30.586
675.66	34.557
675.98	36.123
676.31	35.068
676.63	37.011
676.95	34.071
677.28	35.267
677.60	33.937
677.92	33.040
678.25	34.354
678.57	35.391
678.89	31.866
679.22	35.220
679.54	34.517
679.86	30.000
680.18	35.171
680.51	29.236
680.83	34.286
681.15	33.333
681.48	34.483
681.80	33.065
682.12	32.394
682.44	31.631
682.77	33.333
683.09	32.285
683.41	33.850
683.73	29.224
684.06	30.323
684.38	32.845
684.70	29.218
685.02	32.087
685.34	31.189
685.67	30.492
685.99	28.544
686.31	32.496
686.63	33.156
686.96	31.238
687.28	31.021
687.60	31.641
687.92	29.377
688.24	31.102
688.56	30.862
688.89	30.556
689.21	32.385
689.53	34.943
689.85	33.408
690.17	34.081
690.49	32.333
690.82	32.530
691.14	30.660
691.46	34.590
691.78	32.599
692.10	33.475
692.42	29.778
692.74	32.833
693.06	32.809
693.39	30.649
693.71	29.571
694.03	34.557
694.35	31.151
694.67	30.969
694.99	30.435
695.31	34.439
695.63	30.102
695.95	32.754
696.27	31.920
696.59	32.620
696.91	32.022
697.23	32.031
697.56	30.529
697.88	29.505
698.20	29.122
698.52	27.803
698.84	32.767
699.16	30.000
699.48	30.250
699.80	28.822
700.12	34.005
700.44	28.492
700.76	31.778
701.08	32.558
701.40	27.795
701.72	34.568
702.04	36.859
702.36	32.831
702.68	32.036
703.00	33.043
703.32	28.080
703.64	36.176
703.96	36.628
704.28	32.249
704.60	31.329
704.91	28.254
705.23	33.657
705.55	28.041
705.87	35.154
706.19	30.556
706.51	27.431
706.83	37.049
707.15	31.210
707.47	30.579
707.79	33.505
708.11	29.008
708.43	32.419
708.74	28.052
709.06	27.855
709.38	30.747
709.70	30.000
710.02	30.368
710.34	29.373
710.66	29.206
710.98	31.230
711.29	30.000
711.61	30.990
711.93	27.213
712.25	31.561
712.57	28.920
712.89	34.892
713.20	33.677
713.52	29.478
713.84	33.096
714.16	31.475
714.48	34.603
714.80	31.692
715.11	32.277
715.43	32.229
715.75	31.464
716.07	30.492
716.39	32.441
716.70	31.010
717.02	30.370
717.34	30.534
717.66	31.950
717.97	28.689
718.29	34.454
718.61	37.302
718.93	31.541
719.24	27.941
719.56	26.038
719.88	32.000
720.20	27.341
720.51	30.827
720.83	32.932
721.15	30.738
721.46	32.549
721.78	30.651
722.10	33.600
722.42	26.860
722.73	27.490
723.05	32.129
723.37	27.451
723.68	30.364
724.00	35.772
724.32	30.453
724.63	31.950
724.95	29.752
725.27	27.193
725.58	33.190
725.90	30.556
726.22	29.889
726.53	29.658
726.85	29.412
727.16	29.323
727.48	27.308
727.80	30.328
728.11	31.933
728.43	29.752
728.74	31.250
729.06	31.818
729.38	29.961
729.69	24.016
730.01	33.465
730.32	30.279
730.64	29.670
730.96	30.597
731.27	31.786
731.59	28.296
731.90	26.994
732.22	27.607
732.53	27.815
732.85	27.517
733.16	27.174
733.48	25.784
733.80	28.826
734.11	26.552
734.43	25.510
734.74	29.377
735.06	26.959
735.37	29.358
735.69	22.258
736.00	24.916
736.32	27.152
736.63	26.897
736.95	27.899
737.26	31.788
737.58	27.698
737.89	30.108
738.21	29.699
738.52	28.462
738.83	28.906
739.15	26.923
739.46	33.065
739.78	28.671
740.09	26.923
740.41	27.273
740.72	32.482
741.04	28.175
741.35	30.303
741.66	26.852
741.98	27.619
742.29	29.108
742.61	32.620
742.92	35.514
743.23	21.930
743.55	27.928
743.86	27.556
744.18	24.762
744.49	32.020
744.80	28.426
745.12	29.897
745.43	26.633
745.74	31.553
746.06	27.805
746.37	29.515
746.68	33.333
747.00	29.319
747.31	28.365
747.62	33.641
747.94	24.017
748.25	30.233
748.56	29.048
748.88	20.652
749.19	26.761
749.50	33.824
749.82	25.778
750.13	27.313
750.44	26.423
750.75	28.400
751.07	29.286
751.38	27.675
751.69	24.427
752.01	27.308
752.32	24.903
752.63	28.846
752.94	25.397
753.26	33.478
753.57	33.929
753.88	27.155
754.19	26.556
754.51	25.000
754.82	27.273
755.13	28.807
755.44	29.339
755.75	25.926
756.07	23.695
756.38	26.562
756.69	28.520
757.00	25.087
757.31	29.195
757.63	32.087
757.94	23.410
758.25	26.453
758.56	26.685
758.87	28.977
759.18	28.000
759.50	25.267
759.81	22.628
760.12	22.973
760.43	24.272
760.74	28.125
761.05	28.090
761.36	27.246
761.67	24.852
761.99	20.000
762.30	26.449
762.61	26.792
762.92	28.251
763.23	31.280
763.54	21.333
763.85	29.536
764.16	28.163
764.47	28.390
764.78	24.345
765.10	26.619
765.41	25.484
765.72	26.101
766.03	21.908
766.34	24.060
766.65	23.482
766.96	30.500
767.27	28.646
767.58	15.698
767.89	29.032
768.20	21.472
768.51	28.962
768.82	27.027
769.13	17.000
769.44	26.316
769.75	25.108
770.06	29.817
770.37	24.413
770.68	29.167
770.99	22.772
771.30	28.641
771.61	23.148
771.92	25.974
772.23	24.299
772.54	26.596
772.85	28.402
773.16	30.488
773.47	34.940
773.78	30.220
774.09	19.333
774.39	29.630
774.70	24.161
775.01	23.913
775.32	26.119
775.63	18.182
775.94	30.827
776.25	27.857
776.56	27.049
776.87	32.743
777.18	21.239
777.48	20.909
777.79	13.043
778.10	22.018
778.41	10.169
778.72	19.008
779.03	23.881
779.34	24.060
779.65	25.490
779.95	26.087
780.26	24.490
780.57	25.000
780.88	19.444
781.19	23.232
781.50	12.000
781.80	24.837
782.11	23.718
782.42	25.301
782.73	14.599
783.04	24.324
783.34	30.303
783.65	20.930
783.96	24.390
784.27	20.513
784.57	17.886
784.88	17.073
785.19	23.684
785.50	16.495
785.81	22.857
786.11	19.608
786.42	16.364
786.73	27.928
787.04	26.733
787.34	22.857
787.65	25.714
787.96	25.490
788.26	18.919
788.57	23.387
788.88	17.969
789.19	29.060
789.49	19.328
789.80	19.658
790.11	25.664
790.41	33.333
790.72	30.189
791.03	8.333
791.33	14.474
791.64	18.280
791.95	13.333
792.25	20.000
792.56	21.951
792.87	34.694
793.17	15.789
793.48	27.027
793.79	12.676
794.09	12.658
794.40	26.596
794.70	16.822
795.01	12.281
795.32	18.182
795.62	27.679
795.93	21.649
796.23	3.297
796.54	29.474
796.85	8.219
797.15	19.444
797.46	30.137
797.76	18.310
798.07	25.000
798.37	20.588
798.68	14.286
798.99	32.857
799.29	15.789
799.60	26.667
799.90	6.944
800.21	12.500
800.51	11.111
800.82	29.508
801.12	12.281
801.43	16.901
801.73	1.695
802.04	11.475
802.34	20.000
802.65	3.846
802.95	31.481
803.26	2.500
803.56	15.385
803.87	2.632
804.17	17.742
804.48	41.538
804.78	5.128
805.09	2.326
805.39	12.500
805.70	-7.547
806.00	45.614
806.30	25.676
806.61	27.941
806.91	20.988
807.22	26.667
807.52	17.910
807.83	3.226
808.13	17.460
808.43	-3.636
808.74	13.636
809.04	30.189
809.35	13.699
809.65	40.351
809.95	13.235
810.26	5.882
810.56	-10.000
810.86	-18.367
811.17	-8.571
811.47	42.308
811.77	16.129
812.08	-18.421
812.38	23.810
812.69	8.696
812.99	12.903
813.29	-2.381
813.59	-40.741
813.90	6.383
814.20	-23.256
814.50	10.417
814.81	18.333
815.11	-14.634
815.41	-13.333
815.72	45.714
816.02	5.556
816.32	17.949
816.62	35.135
816.93	-41.176
817.23	13.043
817.53	-23.529
817.84	-14.706
818.14	6.250
818.44	-24.138
818.74	-16.129
819.04	-7.407
819.35	6.667
819.65	-24.000
819.95	3.333
820.25	12.000
820.56	-7.895
820.86	15.000
821.16	12.766
821.46	6.897
821.76	20.513
822.07	-12.500
822.37	13.953
822.67	-3.333
822.97	-18.919
823.27	-5.405
823.57	48.000
823.88	5.405
824.18	-14.286
824.48	-23.077
824.78	-53.846
825.08	-13.043
825.38	0.000
825.69	4.167
825.99	-55.000
826.29	-18.919
826.59	2.941
826.89	32.000
827.19	2.857
827.49	7.895
827.79	6.250
828.09	-10.000
828.39	4.348
828.70	-17.241
829.00	3.448
829.30	0.000
829.60	43.750
829.90	33.333
830.20	7.692
830.50	-38.095
830.80	10.714
831.10	20.513
831.40	-47.619
831.70	20.588
832.00	-29.167
832.30	-36.842
832.60	25.000
832.90	-33.333
833.20	-5.882
833.50	-100.000
833.80	-73.333
834.10	-70.000
834.40	-8.333
834.70	-5.556
835.00	7.692
835.30	-8.333
835.60	-31.034
835.90	-11.111
836.20	-145.455
836.50	-75.000
836.80	20.000
837.10	60.000
837.40	-5.882
837.70	-81.818
838.00	-4.167
838.30	-25.000
838.60	0.000
838.90	0.000
839.19	-26.087
839.49	-13.043
839.79	-33.333
840.09	4.348
840.39	-36.364
840.69	37.500
840.99	-31.579
841.29	-56.250
841.59	14.286
841.88	-27.778
842.18	12.500
842.48	-41.176
842.78	17.241
843.08	-14.286
843.38	-100.000
843.68	-122.222
843.97	-23.077
844.27	-36.364
844.57	-40.000
844.87	32.000
845.17	-40.000
845.47	-14.286
845.76	-100.000
846.06	0.000
846.36	-275.000
846.66	-100.000
846.96	-26.316
847.25	37.500
847.55	-25.000
847.85	-26.667
848.15	-150.000
848.44	65.385
848.74	42.105
849.04	500.000
849.34	-122.222
849.63	-63.158
849.93	0.000
850.23	-20.000
850.53	23.810
850.82	-20.000
851.12	5.263
851.42	-600.000
851.71	-7.143
852.01	-58.333
852.31	-58.824
852.61	0.000
852.90	-28.571
853.20	-33.333
853.50	5.556
853.79	-57.895
854.09	-100.000
854.39	-3.571
854.68	4.348
854.98	-183.333
855.28	34.483
855.57	-25.000
855.87	-80.000
856.17	-46.667
856.46	-24.138
856.76	-73.333
857.05	-17.647
857.35	-146.154
857.65	-18.182
857.94	14.815
858.24	-150.000
858.53	-71.429
858.83	-91.667
859.13	-55.556
859.42	42.857
859.72	-200.000
860.01	-266.667
860.31	-175.000
860.60	-180.000
860.90	-166.667
861.20	-75.000
861.49	-342.857
861.79	0.000
862.08	-700.000
862.38	-125.000
862.67	-46.154
862.97	-17.647
863.26	20.000
863.56	-5.882
863.85	166.667
864.15	-120.000
864.44	-100.000
864.74	-5.000
865.03	-112.500
865.33	-83.333
865.62	-23.529
865.92	-475.000
866.21	7.143
866.51	-8.333
866.80	-1200.000
867.10	-333.333
867.39	-5.882
867.69	17.391
867.98	-28.571
868.27	-280.000
868.57	-131.250
868.86	-90.909
869.16	11.765
869.45	-233.333
869.75	-42.857
870.04	100.000
870.33	16.667
870.63	-180.000
870.92	-33.333
871.22	-16.667
871.51	9.091
871.80	-33.333
872.10	-50.000
>>>>>End Processed Spectral Data<<<<<
