SpectraSuite Data File
++++++++++++++++++++++++++++++++++++
Date: Sat May 16 11:09:44 PDT 2015
User: schluterlab
Dark Spectrum Present: Yes
Reference Spectrum Present: Yes
Number of Sampled Component Spectra: 1
Spectrometers: USB2E3373
Integration Time (usec): 3000 (USB2E3373)
Spectra Averaged: 3 (USB2E3373)
Boxcar Smoothing: 0 (USB2E3373)
Correct for Electrical Dark: No (USB2E3373)
Strobe/Lamp Enabled: No (USB2E3373)
Correct for Detector Non-linearity: No (USB2E3373)
Correct for Stray Light: No (USB2E3373)
Number of Pixels in Processed Spectrum: 2048
>>>>>Begin Processed Spectral Data<<<<<
178.53	0.000
178.91	6.667
179.29	-100.000
179.67	-100.000
180.04	7.692
180.42	-0.000
180.80	75.000
181.18	225.000
181.56	-100.000
181.94	100.000
182.31	150.000
182.69	53.846
183.07	66.667
183.45	750.000
183.83	300.000
184.20	-42.857
184.58	0.000
184.96	-225.000
185.34	43.750
185.72	-275.000
186.09	100.000
186.47	-125.000
186.85	-87.500
187.23	150.000
187.61	-125.000
187.98	-162.500
188.36	-87.500
188.74	0.000
189.12	600.000
189.49	157.143
189.87	108.333
190.25	75.000
190.63	-28.571
191.00	-133.333
191.38	80.000
191.76	0.000
192.14	340.000
192.51	-60.000
192.89	-200.000
193.27	0.000
193.65	-122.222
194.02	-85.714
194.40	366.667
194.78	-100.000
195.15	0.000
195.53	-72.727
195.91	-350.000
196.29	-20.000
196.66	-100.000
197.04	1300.000
197.42	75.000
197.79	66.667
198.17	-200.000
198.55	-50.000
198.92	-1200.000
199.30	125.000
199.68	-250.000
200.05	33.333
200.43	-44.444
200.81	-500.000
201.18	-25.000
201.56	85.714
201.94	6.667
202.31	59.091
202.69	80.000
203.07	40.000
203.44	433.333
203.82	-83.333
204.19	-25.000
204.57	-200.000
204.95	-200.000
205.32	106.250
205.70	100.000
206.08	-100.000
206.45	33.333
206.83	-700.000
207.20	100.000
207.58	-200.000
207.96	-166.667
208.33	-50.000
208.71	-144.444
209.08	60.000
209.46	0.000
209.84	-100.000
210.21	0.000
210.59	55.000
210.96	-100.000
211.34	-133.333
211.71	-300.000
212.09	100.000
212.46	150.000
212.84	-1000.000
213.22	466.667
213.59	83.333
213.97	11.111
214.34	60.000
214.72	10.000
215.09	233.333
215.47	50.000
215.84	-40.000
216.22	-10.000
216.59	100.000
216.97	75.000
217.34	700.000
217.72	28.571
218.09	-83.333
218.47	-85.714
218.84	-71.429
219.22	28.571
219.59	0.000
219.97	157.143
220.34	350.000
220.72	212.500
221.09	30.769
221.47	0.000
221.84	66.667
222.22	300.000
222.59	-200.000
222.97	-150.000
223.34	450.000
223.72	200.000
224.09	7.143
224.46	-175.000
224.84	42.857
225.21	-57.143
225.59	-9.091
225.96	-162.500
226.34	185.714
226.71	-33.333
227.08	20.000
227.46	600.000
227.83	-14.286
228.21	-62.500
228.58	-100.000
228.95	-18.750
229.33	-900.000
229.70	-180.000
230.08	-550.000
230.45	-66.667
230.82	166.667
231.20	-100.000
231.57	-400.000
231.95	1200.000
232.32	47.619
232.69	-88.889
233.07	0.000
233.44	-450.000
233.81	6.667
234.19	0.000
234.56	50.000
234.93	21.875
235.31	-57.143
235.68	-21.429
236.05	29.412
236.43	-54.545
236.80	0.000
237.17	-4.167
237.55	-9.524
237.92	-22.727
238.29	-17.143
238.67	44.118
239.04	11.111
239.41	-12.903
239.79	-30.769
240.16	-2.381
240.53	1.818
240.91	-2.564
241.28	12.727
241.65	18.462
242.02	9.836
242.40	8.197
242.77	-1.515
243.14	-13.559
243.51	-10.000
243.89	2.532
244.26	-2.247
244.63	1.053
245.00	6.316
245.38	8.475
245.75	-1.770
246.12	7.200
246.49	7.874
246.87	-3.252
247.24	-3.390
247.61	8.475
247.98	11.268
248.36	-6.993
248.73	9.494
249.10	3.185
249.47	4.678
249.84	4.545
250.22	-2.976
250.59	6.215
250.96	0.000
251.33	7.583
251.70	4.327
252.08	3.791
252.45	3.791
252.82	0.952
253.19	5.532
253.56	5.645
253.94	2.954
254.31	3.433
254.68	6.911
255.05	2.823
255.42	4.762
255.79	3.943
256.16	6.667
256.54	7.721
256.91	3.409
257.28	0.366
257.65	2.837
258.02	10.063
258.39	6.689
258.76	2.027
259.14	3.704
259.51	4.590
259.88	8.841
260.25	4.348
260.62	0.643
260.99	0.890
261.36	4.573
261.73	4.335
262.10	7.222
262.47	3.989
262.85	6.857
263.22	2.292
263.59	4.615
263.96	6.087
264.33	5.962
264.70	5.249
265.07	1.099
265.44	4.651
265.81	4.393
266.18	0.000
266.55	3.431
266.92	3.526
267.29	5.327
267.66	1.975
268.03	9.179
268.40	6.338
268.77	4.096
269.14	3.480
269.51	6.667
269.88	4.587
270.25	2.797
270.62	2.059
270.99	3.829
271.36	4.429
271.73	5.605
272.10	4.805
272.47	4.444
272.84	9.111
273.21	4.587
273.58	4.396
273.95	3.728
274.32	4.299
274.69	4.814
275.06	5.930
275.43	2.455
275.80	5.499
276.17	5.021
276.54	7.128
276.91	4.115
277.28	4.665
277.65	4.752
278.02	5.846
278.39	3.929
278.76	3.586
279.13	4.150
279.50	2.982
279.87	3.805
280.23	5.263
280.60	3.380
280.97	3.689
281.34	6.576
281.71	3.462
282.08	5.444
282.45	1.426
282.82	5.039
283.19	4.182
283.56	7.509
283.92	4.417
284.29	4.647
284.66	3.237
285.03	5.882
285.40	4.244
285.77	4.386
286.14	5.596
286.51	4.263
286.87	4.900
287.24	7.167
287.61	5.950
287.98	3.293
288.35	5.289
288.72	4.924
289.08	3.390
289.45	4.882
289.82	2.768
290.19	6.076
290.56	2.975
290.93	4.928
291.29	3.890
291.66	3.865
292.03	5.651
292.40	5.422
292.77	3.261
293.13	4.553
293.50	4.458
293.87	6.595
294.24	4.374
294.60	2.727
294.97	4.856
295.34	3.852
295.71	6.696
296.08	2.304
296.44	3.004
296.81	6.125
297.18	3.099
297.55	5.791
297.91	5.579
298.28	3.973
298.65	5.021
299.02	5.615
299.38	4.813
299.75	4.891
300.12	6.538
300.48	4.987
300.85	3.539
301.22	5.563
301.59	4.941
301.95	6.549
302.32	3.781
302.69	5.018
303.05	4.029
303.42	3.625
303.79	5.144
304.15	5.806
304.52	6.418
304.89	5.549
305.25	4.762
305.62	4.700
305.99	6.949
306.35	5.771
306.72	3.645
307.09	6.129
307.45	6.470
307.82	4.693
308.19	5.369
308.55	5.229
308.92	4.941
309.29	4.649
309.65	7.105
310.02	4.860
310.38	5.405
310.75	7.275
311.12	6.818
311.48	6.054
311.85	5.458
312.22	7.415
312.58	8.138
312.95	7.136
313.31	6.094
313.68	7.538
314.05	7.023
314.41	6.640
314.78	5.495
315.14	7.502
315.51	6.383
315.87	6.099
316.24	7.191
316.61	8.157
316.97	6.070
317.34	6.840
317.70	6.030
318.07	7.556
318.43	7.584
318.80	8.075
319.16	7.317
319.53	6.767
319.89	6.115
320.26	7.353
320.62	7.596
320.99	7.960
321.35	6.995
321.72	6.755
322.08	7.319
322.45	5.842
322.81	7.205
323.18	7.012
323.54	8.133
323.91	7.970
324.27	8.935
324.64	9.141
325.00	9.162
325.37	7.330
325.73	9.536
326.10	7.883
326.46	7.618
326.83	9.447
327.19	8.090
327.56	9.796
327.92	8.836
328.29	8.225
328.65	7.182
329.01	8.746
329.38	9.188
329.74	10.531
330.11	8.794
330.47	8.810
330.84	9.258
331.20	9.116
331.56	9.845
331.93	9.414
332.29	10.411
332.66	8.955
333.02	10.588
333.38	10.125
333.75	10.597
334.11	10.222
334.48	10.150
334.84	11.549
335.20	11.702
335.57	10.560
335.93	11.370
336.29	11.249
336.66	9.339
337.02	11.532
337.38	10.606
337.75	11.062
338.11	11.628
338.47	11.388
338.84	9.982
339.20	9.490
339.56	11.854
339.93	10.670
340.29	10.806
340.65	10.052
341.02	11.130
341.38	10.952
341.74	11.092
342.11	10.751
342.47	10.730
342.83	10.076
343.20	11.529
343.56	9.878
343.92	11.436
344.28	12.195
344.65	11.304
345.01	11.176
345.37	11.379
345.73	9.247
346.10	9.648
346.46	10.804
346.82	11.067
347.19	10.518
347.55	11.316
347.91	10.866
348.27	11.058
348.63	11.551
349.00	11.854
349.36	10.226
349.72	11.545
350.08	11.708
350.45	11.032
350.81	11.067
351.17	11.093
351.53	10.024
351.89	11.560
352.26	11.628
352.62	12.596
352.98	10.918
353.34	11.271
353.70	10.656
354.07	11.408
354.43	11.542
354.79	11.410
355.15	10.703
355.51	11.484
355.87	11.462
356.24	11.438
356.60	11.845
356.96	11.855
357.32	11.481
357.68	11.724
358.04	11.855
358.40	11.524
358.77	11.360
359.13	12.089
359.49	11.338
359.85	12.043
360.21	12.633
360.57	12.425
360.93	12.593
361.29	12.033
361.66	10.671
362.02	10.799
362.38	12.032
362.74	12.747
363.10	12.339
363.46	13.248
363.82	12.974
364.18	12.373
364.54	13.295
364.90	12.509
365.26	12.625
365.62	13.400
365.98	13.229
366.35	13.028
366.71	10.994
367.07	11.997
367.43	13.658
367.79	11.890
368.15	12.091
368.51	12.867
368.87	14.217
369.23	13.053
369.59	12.986
369.95	13.108
370.31	12.940
370.67	12.437
371.03	13.703
371.39	12.023
371.75	13.448
372.11	13.271
372.47	12.292
372.83	13.074
373.19	13.429
373.55	13.934
373.91	13.940
374.27	12.936
374.63	13.112
374.99	13.282
375.35	13.392
375.71	13.977
376.07	13.689
376.42	12.649
376.78	14.444
377.14	13.695
377.50	13.991
377.86	15.280
378.22	14.196
378.58	14.639
378.94	13.440
379.30	14.442
379.66	14.876
380.02	13.963
380.38	13.535
380.74	14.302
381.09	14.470
381.45	14.439
381.81	14.217
382.17	14.098
382.53	14.286
382.89	14.773
383.25	13.666
383.61	14.917
383.97	15.187
384.32	14.581
384.68	15.054
385.04	14.614
385.40	14.607
385.76	14.451
386.12	14.803
386.48	14.851
386.83	14.479
387.19	15.003
387.55	14.537
387.91	14.878
388.27	14.717
388.62	15.204
388.98	14.839
389.34	15.116
389.70	15.591
390.06	14.792
390.42	15.321
390.77	15.205
391.13	16.087
391.49	15.533
391.85	15.399
392.20	15.109
392.56	14.661
392.92	15.117
393.28	15.442
393.64	15.213
393.99	15.385
394.35	14.659
394.71	14.947
395.07	16.259
395.42	14.243
395.78	15.085
396.14	16.511
396.50	15.719
396.85	15.176
397.21	14.338
397.57	15.562
397.92	15.398
398.28	15.611
398.64	15.348
399.00	15.899
399.35	15.107
399.71	15.970
400.07	16.239
400.42	16.302
400.78	14.967
401.14	15.569
401.49	15.920
401.85	16.107
402.21	15.495
402.57	15.473
402.92	15.544
403.28	15.748
403.63	14.979
403.99	16.221
404.35	16.123
404.70	15.623
405.06	15.456
405.42	15.006
405.77	15.894
406.13	15.616
406.49	15.818
406.84	15.597
407.20	16.608
407.55	15.389
407.91	14.896
408.27	16.176
408.62	15.093
408.98	15.828
409.34	15.966
409.69	14.997
410.05	15.706
410.40	15.512
410.76	15.886
411.11	15.586
411.47	15.281
411.83	15.831
412.18	14.913
412.54	14.948
412.89	16.100
413.25	14.345
413.60	15.128
413.96	14.787
414.31	16.881
414.67	15.302
415.03	15.977
415.38	16.070
415.74	16.108
416.09	16.113
416.45	15.146
416.80	16.320
417.16	16.213
417.51	16.284
417.87	16.181
418.22	15.992
418.58	16.560
418.93	16.616
419.29	16.437
419.64	15.641
420.00	16.221
420.35	16.499
420.71	15.966
421.06	16.923
421.42	15.984
421.77	16.527
422.12	16.228
422.48	16.195
422.83	16.856
423.19	16.203
423.54	17.233
423.90	16.426
424.25	15.950
424.61	17.431
424.96	17.964
425.31	16.713
425.67	16.848
426.02	16.236
426.38	16.999
426.73	16.423
427.09	16.912
427.44	17.330
427.79	16.686
428.15	16.637
428.50	17.243
428.85	17.446
429.21	17.322
429.56	17.396
429.92	16.934
430.27	17.049
430.62	17.137
430.98	17.094
431.33	18.090
431.68	17.480
432.04	17.124
432.39	17.892
432.74	18.525
433.10	18.233
433.45	17.444
433.80	16.965
434.16	18.377
434.51	18.082
434.86	18.453
435.22	18.653
435.57	17.993
435.92	17.761
436.28	17.923
436.63	17.750
436.98	17.583
437.34	16.952
437.69	17.211
438.04	17.924
438.39	17.870
438.75	18.044
439.10	18.490
439.45	17.683
439.81	19.157
440.16	18.171
440.51	19.235
440.86	18.566
441.22	17.745
441.57	18.211
441.92	17.749
442.27	18.777
442.63	18.455
442.98	17.043
443.33	18.232
443.68	18.343
444.03	18.566
444.39	17.915
444.74	18.778
445.09	17.763
445.44	18.289
445.79	17.542
446.15	18.182
446.50	17.474
446.85	18.163
447.20	18.590
447.55	17.901
447.91	18.866
448.26	18.324
448.61	18.110
448.96	18.768
449.31	17.700
449.66	18.890
450.02	18.393
450.37	18.145
450.72	18.192
451.07	19.485
451.42	18.773
451.77	18.731
452.12	18.236
452.47	19.773
452.83	18.288
453.18	19.292
453.53	18.657
453.88	18.959
454.23	18.742
454.58	19.702
454.93	19.332
455.28	19.312
455.63	18.796
455.98	18.976
456.34	18.107
456.69	19.512
457.04	18.316
457.39	18.242
457.74	18.370
458.09	19.084
458.44	19.111
458.79	19.339
459.14	19.509
459.49	19.361
459.84	18.775
460.19	18.854
460.54	18.633
460.89	19.002
461.24	19.551
461.59	20.047
461.94	19.987
462.29	19.238
462.64	19.433
462.99	19.478
463.34	19.311
463.69	19.020
464.04	18.512
464.39	19.415
464.74	19.444
465.09	19.122
465.44	19.459
465.79	19.571
466.14	19.678
466.49	19.862
466.84	19.508
467.19	20.012
467.54	18.987
467.89	19.112
468.24	20.131
468.59	20.112
468.94	19.550
469.29	17.999
469.64	19.407
469.99	19.244
470.34	19.906
470.68	20.276
471.03	20.716
471.38	18.194
471.73	20.839
472.08	19.679
472.43	19.562
472.78	19.067
473.13	19.152
473.48	20.485
473.83	19.913
474.17	19.936
474.52	19.949
474.87	19.930
475.22	19.174
475.57	19.500
475.92	19.924
476.27	19.429
476.61	19.718
476.96	19.620
477.31	20.075
477.66	19.867
478.01	19.287
478.36	19.487
478.70	19.808
479.05	19.740
479.40	20.622
479.75	19.980
480.10	19.296
480.45	19.197
480.79	19.595
481.14	19.819
481.49	19.942
481.84	19.741
482.19	19.507
482.53	20.218
482.88	19.554
483.23	19.859
483.58	21.184
483.92	19.732
484.27	19.096
484.62	20.173
484.97	19.914
485.31	19.168
485.66	18.845
486.01	18.346
486.36	18.660
486.70	19.187
487.05	18.341
487.40	18.884
487.75	19.371
488.09	18.623
488.44	19.993
488.79	20.021
489.13	19.437
489.48	20.555
489.83	20.393
490.17	20.461
490.52	20.380
490.87	19.630
491.22	19.430
491.56	20.880
491.91	20.897
492.26	20.472
492.60	19.838
492.95	20.466
493.30	20.962
493.64	21.157
493.99	19.933
494.34	20.429
494.68	21.067
495.03	19.407
495.37	20.796
495.72	20.187
496.07	20.507
496.41	20.843
496.76	21.142
497.11	21.149
497.45	20.833
497.80	20.910
498.14	20.285
498.49	20.794
498.84	20.825
499.18	21.101
499.53	20.604
499.87	20.319
500.22	20.882
500.56	20.260
500.91	21.084
501.26	20.961
501.60	20.221
501.95	21.063
502.29	20.359
502.64	21.546
502.98	20.939
503.33	20.818
503.67	20.881
504.02	20.183
504.36	20.637
504.71	20.415
505.06	20.469
505.40	21.257
505.75	20.681
506.09	20.627
506.44	21.053
506.78	21.676
507.13	21.267
507.47	21.231
507.82	21.941
508.16	21.192
508.51	21.484
508.85	21.325
509.19	20.984
509.54	21.670
509.88	22.660
510.23	21.384
510.57	22.116
510.92	21.536
511.26	21.318
511.61	21.166
511.95	21.336
512.30	21.935
512.64	21.480
512.98	21.837
513.33	21.582
513.67	21.608
514.02	20.582
514.36	21.163
514.70	21.166
515.05	22.184
515.39	21.453
515.74	22.804
516.08	22.190
516.42	22.040
516.77	22.588
517.11	22.311
517.46	21.890
517.80	22.142
518.14	21.860
518.49	22.056
518.83	22.433
519.17	22.499
519.52	21.978
519.86	23.297
520.20	22.249
520.55	22.585
520.89	23.043
521.23	22.772
521.58	22.759
521.92	23.116
522.26	22.159
522.61	22.560
522.95	22.399
523.29	22.132
523.64	21.924
523.98	22.470
524.32	21.873
524.66	22.609
525.01	22.479
525.35	23.196
525.69	22.707
526.04	22.846
526.38	23.297
526.72	22.414
527.06	22.656
527.41	22.244
527.75	22.376
528.09	23.031
528.43	22.426
528.78	22.048
529.12	22.599
529.46	21.972
529.80	22.724
530.15	22.666
530.49	22.445
530.83	22.986
531.17	22.424
531.51	22.371
531.86	22.054
532.20	22.672
532.54	22.393
532.88	22.727
533.22	22.594
533.57	22.781
533.91	21.910
534.25	22.062
534.59	21.487
534.93	22.029
535.27	22.341
535.62	22.059
535.96	21.913
536.30	22.120
536.64	22.444
536.98	22.881
537.32	22.115
537.66	22.267
538.01	21.718
538.35	23.311
538.69	22.594
539.03	22.275
539.37	22.089
539.71	22.949
540.05	21.727
540.39	22.715
540.73	23.497
541.07	23.361
541.42	22.012
541.76	20.731
542.10	22.957
542.44	22.652
542.78	21.981
543.12	22.878
543.46	21.849
543.80	21.204
544.14	21.357
544.48	23.228
544.82	21.583
545.16	23.139
545.50	20.996
545.84	22.392
546.18	22.677
546.52	23.044
546.86	22.507
547.20	22.996
547.54	21.970
547.88	22.827
548.22	21.822
548.56	22.244
548.90	22.102
549.24	22.004
549.58	22.371
549.92	22.403
550.26	23.266
550.60	23.115
550.94	23.139
551.28	22.799
551.62	22.378
551.96	22.359
552.30	22.718
552.64	23.012
552.98	22.565
553.32	22.511
553.66	23.720
554.00	21.891
554.34	22.744
554.68	22.807
555.02	21.925
555.36	21.855
555.69	21.633
556.03	21.825
556.37	22.475
556.71	22.334
557.05	22.838
557.39	22.420
557.73	23.487
558.07	22.381
558.41	23.037
558.75	22.814
559.08	21.634
559.42	23.354
559.76	23.236
560.10	23.714
560.44	22.327
560.78	23.521
561.12	21.532
561.45	22.534
561.79	21.882
562.13	22.230
562.47	21.429
562.81	22.419
563.15	22.953
563.48	23.082
563.82	22.515
564.16	22.245
564.50	22.984
564.84	21.693
565.17	21.751
565.51	21.904
565.85	23.124
566.19	21.805
566.52	23.092
566.86	22.630
567.20	22.700
567.54	22.977
567.88	21.050
568.21	21.141
568.55	21.103
568.89	20.378
569.23	20.685
569.56	20.849
569.90	20.456
570.24	20.368
570.57	19.649
570.91	20.129
571.25	19.780
571.59	19.763
571.92	19.464
572.26	20.012
572.60	19.671
572.93	19.480
573.27	18.933
573.61	19.300
573.95	19.851
574.28	18.643
574.62	19.471
574.96	19.217
575.29	19.131
575.63	19.246
575.97	19.067
576.30	19.074
576.64	18.747
576.98	19.084
577.31	19.166
577.65	18.967
577.98	18.746
578.32	18.670
578.66	19.169
578.99	19.823
579.33	19.066
579.67	19.199
580.00	18.775
580.34	19.007
580.67	18.975
581.01	18.716
581.35	19.104
581.68	18.779
582.02	18.744
582.35	18.716
582.69	18.676
583.02	19.452
583.36	19.495
583.70	19.201
584.03	19.774
584.37	19.702
584.70	19.561
585.04	19.063
585.37	18.902
585.71	19.207
586.04	19.124
586.38	19.113
586.72	19.109
587.05	19.201
587.39	19.066
587.72	19.299
588.06	19.175
588.39	19.539
588.73	19.855
589.06	20.301
589.40	20.508
589.73	19.972
590.07	19.337
590.40	20.775
590.73	20.032
591.07	20.533
591.40	20.451
591.74	20.938
592.07	20.631
592.41	20.722
592.74	20.407
593.08	19.876
593.41	19.342
593.75	19.486
594.08	19.950
594.41	20.185
594.75	20.385
595.08	20.038
595.42	20.159
595.75	19.625
596.09	20.217
596.42	21.195
596.75	20.742
597.09	20.971
597.42	20.297
597.75	20.461
598.09	20.108
598.42	20.592
598.76	20.058
599.09	19.692
599.42	19.954
599.76	19.555
600.09	20.344
600.42	19.901
600.76	20.038
601.09	19.939
601.42	19.747
601.76	20.639
602.09	20.000
602.42	20.494
602.76	19.817
603.09	20.282
603.42	20.266
603.76	20.144
604.09	20.144
604.42	20.150
604.76	20.148
605.09	19.756
605.42	21.055
605.75	20.224
606.09	20.756
606.42	19.522
606.75	20.052
607.09	20.732
607.42	21.083
607.75	19.779
608.08	20.289
608.42	20.482
608.75	19.953
609.08	21.286
609.41	20.727
609.75	20.722
610.08	20.931
610.41	20.434
610.74	20.503
611.07	20.791
611.41	20.071
611.74	21.954
612.07	21.482
612.40	20.416
612.73	20.732
613.07	20.748
613.40	21.182
613.73	20.872
614.06	20.868
614.39	22.604
614.72	20.559
615.06	21.467
615.39	20.727
615.72	20.587
616.05	20.320
616.38	21.648
616.71	21.321
617.05	22.557
617.38	21.362
617.71	21.437
618.04	21.118
618.37	21.132
618.70	22.229
619.03	22.072
619.36	21.564
619.69	21.680
620.03	21.556
620.36	21.589
620.69	22.111
621.02	21.994
621.35	22.742
621.68	22.623
622.01	23.139
622.34	22.438
622.67	21.797
623.00	22.418
623.33	22.537
623.66	22.083
623.99	22.707
624.32	22.917
624.65	22.001
624.99	22.479
625.32	20.060
625.65	22.766
625.98	22.144
626.31	23.165
626.64	22.092
626.97	22.774
627.30	23.660
627.63	23.143
627.96	23.325
628.29	23.070
628.62	22.923
628.95	23.130
629.28	22.368
629.61	24.043
629.94	24.197
630.26	24.652
630.59	24.322
630.92	23.023
631.25	25.000
631.58	24.339
631.91	23.191
632.24	24.889
632.57	23.667
632.90	24.943
633.23	26.402
633.56	25.029
633.89	25.708
634.22	23.967
634.55	25.000
634.88	23.096
635.20	23.221
635.53	23.664
635.86	25.189
636.19	24.908
636.52	25.090
636.85	22.623
637.18	23.250
637.51	24.783
637.83	24.101
638.16	23.026
638.49	25.379
638.82	24.324
639.15	24.125
639.48	25.681
639.81	25.588
640.13	25.270
640.46	25.641
640.79	25.210
641.12	25.811
641.45	24.247
641.77	25.749
642.10	24.169
642.43	23.824
642.76	25.512
643.09	23.810
643.41	25.397
643.74	25.755
644.07	28.393
644.40	25.284
644.73	26.568
645.05	26.544
645.38	26.656
645.71	27.835
646.04	27.395
646.36	25.829
646.69	25.779
647.02	25.271
647.35	27.256
647.67	27.372
648.00	28.120
648.33	28.668
648.66	25.968
648.98	25.000
649.31	25.231
649.64	25.937
649.96	25.432
650.29	23.934
650.62	24.957
650.94	26.813
651.27	25.303
651.60	24.221
651.92	27.055
652.25	25.710
652.58	23.680
652.90	25.843
653.23	24.194
653.56	23.746
653.88	25.738
654.21	26.510
654.54	26.080
654.86	23.274
655.19	23.352
655.52	20.106
655.84	17.864
656.17	19.011
656.49	26.027
656.82	27.067
657.15	20.708
657.47	15.178
657.80	11.748
658.13	13.835
658.45	19.389
658.78	18.811
659.10	19.552
659.43	19.626
659.75	20.574
660.08	22.031
660.41	21.987
660.73	23.102
661.06	24.348
661.38	28.036
661.71	25.813
662.03	26.411
662.36	28.998
662.68	27.215
663.01	25.690
663.33	29.478
663.66	25.536
663.98	27.232
664.31	24.161
664.63	28.982
664.96	27.332
665.28	24.295
665.61	25.370
665.93	27.984
666.26	25.709
666.58	27.443
666.91	25.612
667.23	28.289
667.56	27.211
667.88	29.638
668.21	29.263
668.53	26.869
668.86	26.328
669.18	28.995
669.50	26.636
669.83	29.440
670.15	26.457
670.48	22.430
670.80	25.968
671.13	24.153
671.45	24.099
671.77	27.409
672.10	25.049
672.42	25.461
672.75	26.364
673.07	23.423
673.39	24.590
673.72	26.575
674.04	27.601
674.37	24.536
674.69	25.410
675.01	24.468
675.34	24.729
675.66	26.566
675.98	25.110
676.31	28.054
676.63	28.046
676.95	26.770
677.28	25.522
677.60	27.376
677.92	27.093
678.25	27.790
678.57	25.309
678.89	25.157
679.22	26.205
679.54	26.036
679.86	25.600
680.18	23.574
680.51	23.464
680.83	27.048
681.15	25.241
681.48	27.586
681.80	26.613
682.12	23.139
682.44	23.969
682.77	24.459
683.09	26.205
683.41	25.885
683.73	25.342
684.06	25.161
684.38	27.824
684.70	24.691
685.02	26.969
685.34	24.951
685.67	24.621
685.99	23.062
686.31	24.596
686.63	21.986
686.96	25.139
687.28	22.543
687.60	22.656
687.92	21.401
688.24	25.787
688.56	23.246
688.89	22.436
689.21	23.414
689.53	27.816
689.85	25.612
690.17	25.336
690.49	26.097
690.82	26.747
691.14	23.113
691.46	27.494
691.78	25.551
692.10	26.271
692.42	22.222
692.74	27.468
693.06	25.843
693.39	21.924
693.71	25.282
694.03	26.782
694.35	23.476
694.67	22.931
694.99	23.529
695.31	26.020
695.63	23.980
695.95	29.777
696.27	23.691
696.59	24.332
696.91	27.528
697.23	22.656
697.56	23.077
697.88	21.847
698.20	21.627
698.52	20.628
698.84	25.000
699.16	25.238
699.48	24.500
699.80	25.313
700.12	24.685
700.44	23.464
700.76	23.032
701.08	24.128
701.40	24.169
701.72	23.765
702.04	32.051
702.36	25.602
702.68	24.551
703.00	26.957
703.32	24.355
703.64	25.588
703.96	27.035
704.28	26.331
704.60	23.101
704.91	19.365
705.23	26.537
705.55	22.635
705.87	26.280
706.19	24.653
706.51	25.347
706.83	23.934
707.15	28.025
707.47	22.865
707.79	24.742
708.11	19.084
708.43	24.439
708.74	23.896
709.06	21.170
709.38	24.425
709.70	26.250
710.02	27.914
710.34	23.432
710.66	20.635
710.98	26.814
711.29	22.258
711.61	24.281
711.93	21.967
712.25	27.907
712.57	21.254
712.89	28.058
713.20	26.117
713.52	22.015
713.84	26.335
714.16	24.918
714.48	24.127
714.80	24.615
715.11	25.648
715.43	28.313
715.75	28.972
716.07	19.016
716.39	24.415
716.70	22.648
717.02	27.037
717.34	24.809
717.66	26.556
717.97	25.000
718.29	28.571
718.61	26.190
718.93	26.165
719.24	22.426
719.56	21.132
719.88	28.364
720.20	22.846
720.51	28.195
720.83	23.293
721.15	20.492
721.46	25.490
721.78	24.521
722.10	23.600
722.42	26.860
722.73	23.108
723.05	29.317
723.37	25.490
723.68	21.862
724.00	27.642
724.32	29.630
724.63	22.822
724.95	25.207
725.27	23.684
725.58	22.414
725.90	23.810
726.22	23.247
726.53	22.814
726.85	21.569
727.16	26.692
727.48	26.154
727.80	20.492
728.11	22.269
728.43	26.033
728.74	24.219
729.06	28.030
729.38	25.292
729.69	25.591
730.01	25.984
730.32	21.514
730.64	26.374
730.96	25.000
731.27	23.214
731.59	24.759
731.90	24.233
732.22	22.393
732.53	27.483
732.85	24.497
733.16	23.551
733.48	20.209
733.80	23.488
734.11	23.448
734.43	21.769
734.74	21.662
735.06	19.436
735.37	25.076
735.69	22.581
736.00	22.222
736.32	23.510
736.63	20.345
736.95	21.739
737.26	26.159
737.58	24.820
737.89	26.523
738.21	19.549
738.52	22.692
738.83	21.875
739.15	20.940
739.46	25.403
739.78	23.077
740.09	20.979
740.41	24.476
740.72	28.832
741.04	25.000
741.35	20.779
741.66	27.315
741.98	25.714
742.29	27.700
742.61	31.551
742.92	31.308
743.23	18.421
743.55	23.874
743.86	30.222
744.18	29.048
744.49	29.064
744.80	22.843
745.12	26.289
745.43	28.643
745.74	25.728
746.06	25.366
746.37	27.753
746.68	22.388
747.00	21.990
747.31	23.077
747.62	23.041
747.94	22.707
748.25	31.628
748.56	27.143
748.88	26.087
749.19	29.577
749.50	26.471
749.82	26.667
750.13	27.313
750.44	27.642
750.75	25.200
751.07	25.714
751.38	22.509
751.69	21.756
752.01	22.692
752.32	17.899
752.63	21.923
752.94	21.825
753.26	22.609
753.57	27.679
753.88	16.810
754.19	21.577
754.51	23.047
754.82	25.296
755.13	18.930
755.44	21.488
755.75	22.634
756.07	16.466
756.38	19.531
756.69	28.881
757.00	20.209
757.31	23.490
757.63	23.364
757.94	22.832
758.25	16.570
758.56	25.606
758.87	23.864
759.18	18.000
759.50	26.335
759.81	18.613
760.12	21.284
760.43	22.330
760.74	24.375
761.05	23.876
761.36	23.952
761.67	22.781
761.99	25.161
762.30	23.188
762.61	20.377
762.92	24.664
763.23	23.697
763.54	24.889
763.85	27.426
764.16	25.714
764.47	26.271
764.78	20.974
765.10	26.259
765.41	20.000
765.72	22.327
766.03	17.668
766.34	21.053
766.65	22.267
766.96	22.500
767.27	26.562
767.58	26.744
767.89	25.806
768.20	22.699
768.51	25.683
768.82	18.919
769.13	21.500
769.44	17.105
769.75	19.913
770.06	26.147
770.37	23.944
770.68	27.083
770.99	28.218
771.30	22.816
771.61	21.759
771.92	17.749
772.23	20.093
772.54	19.149
772.85	19.527
773.16	25.000
773.47	23.494
773.78	29.121
774.09	20.667
774.39	30.247
774.70	21.477
775.01	23.913
775.32	27.612
775.63	14.876
775.94	24.812
776.25	23.571
776.56	26.230
776.87	31.858
777.18	28.319
777.48	13.636
777.79	20.870
778.10	24.771
778.41	8.475
778.72	28.099
779.03	25.373
779.34	22.556
779.65	25.490
779.95	31.159
780.26	17.687
780.57	16.379
780.88	17.593
781.19	24.242
781.50	22.400
781.80	21.569
782.11	26.923
782.42	21.687
782.73	16.788
783.04	23.649
783.34	18.182
783.65	27.907
783.96	23.577
784.27	23.077
784.57	21.138
784.88	17.886
785.19	25.439
785.50	13.402
785.81	22.857
786.11	15.686
786.42	11.818
786.73	30.631
787.04	27.723
787.34	20.952
787.65	21.905
787.96	17.647
788.26	19.820
788.57	19.355
788.88	19.531
789.19	21.368
789.49	20.168
789.80	23.077
790.11	23.894
790.41	21.212
790.72	32.075
791.03	11.111
791.33	19.737
791.64	29.032
791.95	17.333
792.25	7.143
792.56	19.512
792.87	31.633
793.17	21.053
793.48	10.811
793.79	30.986
794.09	30.380
794.40	27.660
794.70	14.019
795.01	16.667
795.32	22.727
795.62	24.107
795.93	28.866
796.23	16.484
796.54	26.316
796.85	16.438
797.15	29.167
797.46	34.247
797.76	18.310
798.07	21.250
798.37	29.412
798.68	28.571
798.99	22.857
799.29	28.947
799.60	21.667
799.90	11.111
800.21	3.125
800.51	25.397
800.82	21.311
801.12	12.281
801.43	11.268
801.73	15.254
802.04	14.754
802.34	34.545
802.65	23.077
802.95	31.481
803.26	0.000
803.56	30.769
803.87	18.421
804.17	41.935
804.48	24.615
804.78	48.718
805.09	48.837
805.39	-6.250
805.70	13.208
806.00	42.105
806.30	22.973
806.61	27.941
806.91	30.864
807.22	21.333
807.52	14.925
807.83	12.903
808.13	15.873
808.43	5.455
808.74	12.121
809.04	37.736
809.35	31.507
809.65	19.298
809.95	27.941
810.26	23.529
810.56	24.000
810.86	6.122
811.17	48.571
811.47	17.308
811.77	6.452
812.08	-21.053
812.38	45.238
812.69	28.261
812.99	35.484
813.29	11.905
813.59	-14.815
813.90	14.894
814.20	2.326
814.50	16.667
814.81	6.667
815.11	4.878
815.41	-13.333
815.72	60.000
816.02	25.000
816.32	33.333
816.62	16.216
816.93	-14.706
817.23	17.391
817.53	0.000
817.84	14.706
818.14	-15.625
818.44	0.000
818.74	6.452
819.04	3.704
819.35	33.333
819.65	-4.000
819.95	23.333
820.25	-20.000
820.56	21.053
820.86	-7.500
821.16	46.809
821.46	25.862
821.76	12.821
822.07	-27.500
822.37	11.628
822.67	30.000
822.97	0.000
823.27	56.757
823.57	68.000
823.88	10.811
824.18	42.857
824.48	3.846
824.78	-69.231
825.08	47.826
825.38	33.333
825.69	8.333
825.99	5.000
826.29	-16.216
826.59	-8.824
826.89	60.000
827.19	5.714
827.49	26.316
827.79	28.125
828.09	23.333
828.39	52.174
828.70	-3.448
829.00	37.931
829.30	30.556
829.60	53.125
829.90	-11.111
830.20	-11.538
830.50	-4.762
830.80	10.714
831.10	17.949
831.40	-14.286
831.70	17.647
832.00	50.000
832.30	42.105
832.60	-31.250
832.90	-41.667
833.20	-35.294
833.50	-33.333
833.80	20.000
834.10	-10.000
834.40	33.333
834.70	0.000
835.00	30.769
835.30	29.167
835.60	-10.345
835.90	0.000
836.20	0.000
836.50	-33.333
836.80	31.429
837.10	45.714
837.40	-5.882
837.70	-18.182
838.00	16.667
838.30	18.750
838.60	33.333
838.90	75.000
839.19	-8.696
839.49	4.348
839.79	11.111
840.09	-13.043
840.39	-45.455
840.69	-37.500
840.99	47.368
841.29	-56.250
841.59	-50.000
841.88	-33.333
842.18	-25.000
842.48	-47.059
842.78	27.586
843.08	7.143
843.38	-7.692
843.68	-122.222
843.97	-23.077
844.27	0.000
844.57	-140.000
844.87	24.000
845.17	-80.000
845.47	28.571
845.76	-155.556
846.06	0.000
846.36	-50.000
846.66	-50.000
846.96	105.263
847.25	37.500
847.55	16.667
847.85	60.000
848.15	-50.000
848.44	61.538
848.74	52.632
849.04	100.000
849.34	-33.333
849.63	10.526
849.93	0.000
850.23	-40.000
850.53	14.286
850.82	20.000
851.12	57.895
851.42	-400.000
851.71	57.143
852.01	-8.333
852.31	5.882
852.61	-33.333
852.90	-9.524
853.20	-100.000
853.50	38.889
853.79	-42.105
854.09	20.000
854.39	39.286
854.68	21.739
854.98	-116.667
855.28	27.586
855.57	-12.500
855.87	-30.000
856.17	-46.667
856.46	24.138
856.76	86.667
857.05	-5.882
857.35	-107.692
857.65	0.000
857.94	3.704
858.24	-21.429
858.53	64.286
858.83	-50.000
859.13	-33.333
859.42	42.857
859.72	0.000
860.01	0.000
860.31	-75.000
860.60	-200.000
860.90	-66.667
861.20	12.500
861.49	-171.429
861.79	64.706
862.08	-200.000
862.38	-41.667
862.67	69.231
862.97	-11.765
863.26	25.000
863.56	5.882
863.85	166.667
864.15	-50.000
864.44	0.000
864.74	100.000
865.03	-125.000
865.33	0.000
865.62	-58.824
865.92	-50.000
866.21	-50.000
866.51	-33.333
866.80	-900.000
867.10	33.333
867.39	58.824
867.69	60.870
867.98	85.714
868.27	-200.000
868.57	-25.000
868.86	-18.182
869.16	94.118
869.45	-133.333
869.75	100.000
870.04	400.000
870.33	58.333
870.63	100.000
870.92	-122.222
871.22	-25.000
871.51	-9.091
871.80	8.333
872.10	-10.000
>>>>>End Processed Spectral Data<<<<<
