SpectraSuite Data File
++++++++++++++++++++++++++++++++++++
Date: Sat May 16 11:23:58 PDT 2015
User: schluterlab
Dark Spectrum Present: Yes
Reference Spectrum Present: Yes
Number of Sampled Component Spectra: 1
Spectrometers: USB2E3373
Integration Time (usec): 3000 (USB2E3373)
Spectra Averaged: 3 (USB2E3373)
Boxcar Smoothing: 0 (USB2E3373)
Correct for Electrical Dark: No (USB2E3373)
Strobe/Lamp Enabled: No (USB2E3373)
Correct for Detector Non-linearity: No (USB2E3373)
Correct for Stray Light: No (USB2E3373)
Number of Pixels in Processed Spectrum: 2048
>>>>>Begin Processed Spectral Data<<<<<
178.53	0.000
178.91	133.333
179.29	466.667
179.67	-1500.000
180.04	-76.923
180.42	2200.000
180.80	325.000
181.18	200.000
181.56	-125.000
181.94	300.000
182.31	400.000
182.69	-53.846
183.07	-500.000
183.45	1200.000
183.83	266.667
184.20	-200.000
184.58	-250.000
184.96	-175.000
185.34	112.500
185.72	-375.000
186.09	316.667
186.47	-237.500
186.85	-75.000
187.23	-112.500
187.61	-400.000
187.98	-187.500
188.36	-50.000
188.74	-125.000
189.12	1100.000
189.49	257.143
189.87	-66.667
190.25	450.000
190.63	7.143
191.00	-88.889
191.38	300.000
191.76	-26.667
192.14	620.000
192.51	-400.000
192.89	-433.333
193.27	0.000
193.65	-122.222
194.02	-314.286
194.40	666.667
194.78	-170.000
195.15	-900.000
195.53	-90.909
195.91	-366.667
196.29	240.000
196.66	-833.333
197.04	2200.000
197.42	-25.000
197.79	-53.333
198.17	-66.667
198.55	-400.000
198.92	-1300.000
199.30	100.000
199.68	-650.000
200.05	11.111
200.43	-188.889
200.81	-700.000
201.18	-16.667
201.56	185.714
201.94	-33.333
202.31	18.182
202.69	30.000
203.07	10.000
203.44	766.667
203.82	-350.000
204.19	-625.000
204.57	-500.000
204.95	-100.000
205.32	-12.500
205.70	1100.000
206.08	-500.000
206.45	0.000
206.83	-1250.000
207.20	-200.000
207.58	-866.667
207.96	-66.667
208.33	-212.500
208.71	-77.778
209.08	290.000
209.46	-271.429
209.84	1050.000
210.21	0.000
210.59	40.000
210.96	-100.000
211.34	-316.667
211.71	-566.667
212.09	325.000
212.46	850.000
212.84	-2700.000
213.22	766.667
213.59	108.333
213.97	-111.111
214.34	100.000
214.72	-100.000
215.09	-366.667
215.47	-116.667
215.84	-130.000
216.22	-100.000
216.59	33.333
216.97	-350.000
217.34	750.000
217.72	-200.000
218.09	-83.333
218.47	-185.714
218.84	142.857
219.22	-42.857
219.59	0.000
219.97	242.857
220.34	375.000
220.72	225.000
221.09	-23.077
221.47	0.000
221.84	433.333
222.22	-250.000
222.59	2500.000
222.97	-250.000
223.34	-400.000
223.72	-933.333
224.09	-42.857
224.46	-225.000
224.84	-21.429
225.21	-228.571
225.59	-63.636
225.96	-150.000
226.34	-142.857
226.71	-111.111
227.08	10.000
227.46	2000.000
227.83	-128.571
228.21	-125.000
228.58	500.000
228.95	-43.750
229.33	-500.000
229.70	-340.000
230.08	-850.000
230.45	-91.667
230.82	-133.333
231.20	-1500.000
231.57	-450.000
231.95	500.000
232.32	-38.095
232.69	-122.222
233.07	-285.714
233.44	-1000.000
233.81	-40.000
234.19	-111.111
234.56	-112.500
234.93	28.125
235.31	-57.143
235.68	-100.000
236.05	-11.765
236.43	-9.091
236.80	-22.581
237.17	-41.667
237.55	-42.857
237.92	-22.727
238.29	25.714
238.67	26.471
239.04	2.778
239.41	29.032
239.79	-2.564
240.16	2.381
240.53	12.727
240.91	41.026
241.28	23.636
241.65	38.462
242.02	34.426
242.40	21.311
242.77	33.333
243.14	30.508
243.51	28.571
243.89	32.911
244.26	29.213
244.63	28.421
245.00	23.158
245.38	34.746
245.75	34.513
246.12	32.000
246.49	38.583
246.87	24.390
247.24	32.203
247.61	36.441
247.98	40.845
248.36	43.357
248.73	38.608
249.10	35.669
249.47	39.181
249.84	39.205
250.22	29.762
250.59	37.853
250.96	42.408
251.33	45.498
251.70	41.346
252.08	38.389
252.45	37.915
252.82	41.905
253.19	39.574
253.56	36.694
253.94	36.287
254.31	40.343
254.68	40.650
255.05	42.742
255.42	38.095
255.79	35.484
256.16	41.569
256.54	42.647
256.91	40.530
257.28	36.630
257.65	38.298
258.02	40.881
258.39	39.465
258.76	35.811
259.14	39.506
259.51	40.656
259.88	40.854
260.25	40.683
260.62	41.479
260.99	39.466
261.36	40.244
261.73	42.197
262.10	39.722
262.47	38.746
262.85	43.143
263.22	42.980
263.59	42.462
263.96	40.870
264.33	43.360
264.70	41.989
265.07	39.835
265.44	39.018
265.81	41.085
266.18	41.013
266.55	43.627
266.92	43.325
267.29	42.615
267.66	41.728
268.03	41.304
268.40	42.019
268.77	44.819
269.14	39.675
269.51	40.000
269.88	36.697
270.25	43.124
270.62	40.046
270.99	43.018
271.36	41.026
271.73	41.480
272.10	41.419
272.47	41.556
272.84	41.556
273.21	44.037
273.58	39.780
273.95	41.228
274.32	41.855
274.69	43.326
275.06	41.718
275.43	43.080
275.80	42.566
276.17	39.958
276.54	42.566
276.91	38.683
277.28	41.582
277.65	42.355
278.02	42.380
278.39	41.061
278.76	42.629
279.13	41.700
279.50	40.159
279.87	39.323
280.23	39.676
280.60	41.750
280.97	40.194
281.34	41.586
281.71	41.538
282.08	43.750
282.45	41.344
282.82	40.310
283.19	40.909
283.56	39.927
283.92	42.049
284.29	41.264
284.66	38.129
285.03	40.285
285.40	42.804
285.77	41.579
286.14	39.350
286.51	41.030
286.87	40.290
287.24	40.956
287.61	38.512
287.98	38.995
288.35	38.678
288.72	38.031
289.08	37.119
289.45	37.542
289.82	35.640
290.19	37.603
290.56	35.868
290.93	37.202
291.29	37.277
291.66	36.554
292.03	37.520
292.40	32.831
292.77	36.180
293.13	36.098
293.50	36.553
293.87	35.583
294.24	35.294
294.60	32.727
294.97	34.750
295.34	32.889
295.71	34.821
296.08	31.490
296.44	33.047
296.81	34.615
297.18	31.972
297.55	34.605
297.91	34.868
298.28	31.233
298.65	32.078
299.02	32.487
299.38	31.952
299.75	31.386
300.12	31.667
300.48	31.586
300.85	30.406
301.22	30.530
301.59	30.819
301.95	33.123
302.32	28.422
302.69	30.355
303.05	28.694
303.42	28.750
303.79	31.220
304.15	29.384
304.52	29.172
304.89	30.342
305.25	29.060
305.62	27.380
305.99	30.153
306.35	28.302
306.72	29.385
307.09	29.625
307.45	28.263
307.82	29.497
308.19	29.306
308.55	28.105
308.92	28.786
309.29	28.432
309.65	27.996
310.02	27.430
310.38	29.297
310.75	27.766
311.12	28.822
311.48	28.810
311.85	27.497
312.22	27.497
312.58	28.281
312.95	26.707
313.31	27.173
313.68	29.146
314.05	27.794
314.41	27.968
314.78	26.274
315.14	27.937
315.51	27.862
315.87	27.880
316.24	26.628
316.61	28.407
316.97	27.662
317.34	28.131
317.70	25.696
318.07	27.239
318.43	26.873
318.80	29.202
319.16	26.829
319.53	26.786
319.89	25.870
320.26	26.667
320.62	25.481
320.99	25.075
321.35	25.813
321.72	25.793
322.08	27.596
322.45	27.921
322.81	27.762
323.18	28.050
323.54	27.819
323.91	26.969
324.27	27.186
324.64	25.868
325.00	26.963
325.37	25.792
325.73	27.209
326.10	24.978
326.46	26.007
326.83	26.298
327.19	25.354
327.56	27.598
327.92	26.253
328.29	26.407
328.65	24.182
329.01	25.883
329.38	24.442
329.74	27.015
330.11	25.657
330.47	25.886
330.84	26.581
331.20	26.625
331.56	25.160
331.93	26.821
332.29	27.123
332.66	25.988
333.02	25.249
333.38	25.179
333.75	24.666
334.11	25.956
334.48	24.625
334.84	26.159
335.20	25.887
335.57	25.181
335.93	26.768
336.29	25.509
336.66	25.991
337.02	24.865
337.38	23.708
337.75	25.285
338.11	24.687
338.47	24.822
338.84	23.775
339.20	25.747
339.56	26.025
339.93	25.132
340.29	24.358
340.65	24.650
341.02	25.970
341.38	23.505
341.74	25.741
342.11	25.171
342.47	24.464
342.83	24.937
343.20	24.509
343.56	23.510
343.92	24.290
344.28	24.979
344.65	24.010
345.01	23.025
345.37	23.920
345.73	24.059
346.10	24.039
346.46	22.340
346.82	22.855
347.19	23.747
347.55	23.836
347.91	23.071
348.27	22.593
348.63	23.910
349.00	23.866
349.36	22.717
349.72	24.522
350.08	23.978
350.45	23.562
350.81	24.045
351.17	23.473
351.53	22.434
351.89	23.040
352.26	23.256
352.62	24.270
352.98	24.130
353.34	24.301
353.70	22.471
354.07	23.997
354.43	23.241
354.79	22.979
355.15	23.642
355.51	22.813
355.87	22.055
356.24	24.384
356.60	25.060
356.96	22.787
357.32	22.090
357.68	22.912
358.04	22.941
358.40	22.815
358.77	22.720
359.13	22.877
359.49	21.995
359.85	22.713
360.21	23.288
360.57	23.268
360.93	23.704
361.29	22.496
361.66	21.494
362.02	22.411
362.38	22.891
362.74	23.150
363.10	22.238
363.46	22.863
363.82	22.595
364.18	22.793
364.54	24.232
364.90	22.152
365.26	22.254
365.62	22.594
365.98	22.760
366.35	21.197
366.71	22.481
367.07	22.795
367.43	23.610
367.79	22.474
368.15	22.191
368.51	23.147
368.87	22.596
369.23	22.807
369.59	21.806
369.95	22.058
370.31	21.871
370.67	21.258
371.03	21.720
371.39	21.924
371.75	22.175
372.11	22.238
372.47	21.981
372.83	22.253
373.19	23.000
373.55	21.956
373.91	22.262
374.27	21.697
374.63	23.326
374.99	22.392
375.35	21.063
375.71	23.093
376.07	22.587
376.42	21.258
376.78	22.418
377.14	22.644
377.50	22.373
377.86	21.782
378.22	21.482
378.58	21.680
378.94	21.887
379.30	22.547
379.66	22.404
380.02	21.628
380.38	21.752
380.74	21.923
381.09	22.437
381.45	22.375
381.81	21.537
382.17	21.491
382.53	20.608
382.89	21.411
383.25	21.433
383.61	21.993
383.97	21.433
384.32	22.716
384.68	22.370
385.04	21.679
385.40	21.424
385.76	22.378
386.12	21.237
386.48	21.782
386.83	22.699
387.19	22.236
387.55	21.684
387.91	21.280
388.27	20.748
388.62	21.815
388.98	20.533
389.34	21.909
389.70	22.533
390.06	21.815
390.42	21.474
390.77	22.082
391.13	21.739
391.49	22.333
391.85	21.945
392.20	21.602
392.56	22.297
392.92	21.620
393.28	22.445
393.64	21.828
393.99	21.846
394.35	21.837
394.71	21.742
395.07	21.720
395.42	21.514
395.78	20.867
396.14	22.492
396.50	21.346
396.85	22.517
397.21	21.385
397.57	21.581
397.92	21.838
398.28	22.056
398.64	22.011
399.00	22.303
399.35	21.195
399.71	22.997
400.07	22.806
400.42	22.567
400.78	22.361
401.14	21.257
401.49	21.108
401.85	21.843
402.21	21.871
402.57	21.420
402.92	22.404
403.28	22.426
403.63	20.671
403.99	21.753
404.35	20.592
404.70	21.592
405.06	21.857
405.42	21.894
405.77	21.041
406.13	21.749
406.49	21.630
406.84	21.416
407.20	22.026
407.55	21.153
407.91	21.503
408.27	22.120
408.62	20.686
408.98	22.256
409.34	21.633
409.69	21.613
410.05	21.225
410.40	21.337
410.76	21.340
411.11	21.446
411.47	22.634
411.83	21.883
412.18	21.040
412.54	20.500
412.89	21.810
413.25	20.779
413.60	21.264
413.96	20.949
414.31	21.590
414.67	21.270
415.03	22.122
415.38	20.690
415.74	20.876
416.09	20.716
416.45	20.767
416.80	21.261
417.16	20.997
417.51	21.996
417.87	21.230
418.22	20.986
418.58	21.438
418.93	20.478
419.29	21.518
419.64	20.917
420.00	21.507
420.35	20.875
420.71	21.188
421.06	21.243
421.42	20.667
421.77	21.161
422.12	20.537
422.48	21.005
422.83	21.526
423.19	20.379
423.54	21.441
423.90	21.168
424.25	20.079
424.61	21.411
424.96	21.592
425.31	21.465
425.67	20.802
426.02	20.711
426.38	22.202
426.73	20.573
427.09	21.691
427.44	20.795
427.79	21.047
428.15	20.946
428.50	21.290
428.85	21.043
429.21	20.919
429.56	20.938
429.92	20.441
430.27	21.735
430.62	21.526
430.98	21.171
431.33	22.145
431.68	21.769
432.04	21.824
432.39	21.311
432.74	21.283
433.10	21.216
433.45	20.725
433.80	20.829
434.16	20.849
434.51	21.973
434.86	20.972
435.22	21.659
435.57	20.808
435.92	22.157
436.28	20.831
436.63	21.085
436.98	20.160
437.34	22.209
437.69	21.120
438.04	20.987
438.39	21.420
438.75	19.732
439.10	20.933
439.45	20.459
439.81	20.361
440.16	20.897
440.51	20.882
440.86	20.532
441.22	19.458
441.57	20.842
441.92	21.330
442.27	21.591
442.63	20.708
442.98	20.203
443.33	20.977
443.68	20.688
444.03	21.120
444.39	20.901
444.74	20.595
445.09	20.943
445.44	21.328
445.79	20.806
446.15	21.577
446.50	19.815
446.85	20.318
447.20	20.174
447.55	21.381
447.91	21.168
448.26	19.777
448.61	20.430
448.96	21.849
449.31	19.786
449.66	21.752
450.02	19.612
450.37	20.812
450.72	19.944
451.07	21.307
451.42	20.260
451.77	20.886
452.12	20.262
452.47	21.348
452.83	20.850
453.18	21.316
453.53	21.269
453.88	22.129
454.23	19.952
454.58	20.820
454.93	21.033
455.28	19.503
455.63	21.499
455.98	21.024
456.34	19.949
456.69	21.201
457.04	20.529
457.39	20.156
457.74	21.087
458.09	21.230
458.44	20.727
458.79	21.076
459.14	20.251
459.49	20.959
459.84	20.011
460.19	20.943
460.54	20.448
460.89	20.460
461.24	20.947
461.59	20.985
461.94	20.751
462.29	20.131
462.64	20.158
462.99	21.553
463.34	19.649
463.69	20.420
464.04	20.269
464.39	19.773
464.74	19.858
465.09	19.964
465.44	20.305
465.79	21.545
466.14	20.886
466.49	21.186
466.84	20.108
467.19	20.324
467.54	20.316
467.89	20.530
468.24	19.774
468.59	20.175
468.94	19.871
469.29	20.013
469.64	19.609
469.99	20.662
470.34	19.840
470.68	20.131
471.03	19.959
471.38	19.931
471.73	20.420
472.08	19.344
472.43	20.399
472.78	20.200
473.13	19.549
473.48	19.209
473.83	20.533
474.17	19.936
474.52	20.524
474.87	19.639
475.22	19.292
475.57	20.111
475.92	20.842
476.27	20.000
476.61	20.338
476.96	19.229
477.31	20.291
477.66	20.144
478.01	19.611
478.36	19.591
478.70	19.541
479.05	20.281
479.40	20.259
479.75	19.725
480.10	19.296
480.45	18.810
480.79	19.891
481.14	20.472
481.49	19.652
481.84	19.417
482.19	20.466
482.53	19.744
482.88	19.744
483.23	20.047
483.58	20.814
483.92	20.019
484.27	19.805
484.62	19.784
484.97	20.070
485.31	19.680
485.66	19.303
486.01	20.202
486.36	21.403
486.70	22.186
487.05	21.187
487.40	21.047
487.75	21.252
488.09	21.217
488.44	21.651
488.79	21.507
489.13	21.529
489.48	20.636
489.83	20.830
490.17	20.244
490.52	19.656
490.87	19.215
491.22	19.851
491.56	19.769
491.91	20.277
492.26	19.387
492.60	19.505
492.95	18.896
493.30	19.343
493.64	19.229
493.99	19.216
494.34	19.524
494.68	20.037
495.03	19.981
495.37	19.076
495.72	19.548
496.07	19.193
496.41	19.639
496.76	19.178
497.11	19.548
497.45	19.444
497.80	19.410
498.14	19.303
498.49	19.789
498.84	19.126
499.18	19.932
499.53	20.312
499.87	19.450
500.22	19.363
500.56	19.710
500.91	19.310
501.26	20.670
501.60	19.355
501.95	20.097
502.29	19.839
502.64	19.849
502.98	18.879
503.33	20.019
503.67	19.444
504.02	19.845
504.36	20.245
504.71	19.554
505.06	19.171
505.40	19.860
505.75	19.157
506.09	19.515
506.44	19.348
506.78	19.870
507.13	19.567
507.47	19.927
507.82	18.585
508.16	19.637
508.51	19.784
508.85	19.151
509.19	19.100
509.54	20.032
509.88	20.000
510.23	19.340
510.57	19.894
510.92	19.871
511.26	19.511
511.61	18.413
511.95	18.642
512.30	18.087
512.64	18.308
512.98	19.197
513.33	19.110
513.67	19.319
514.02	18.400
514.36	19.335
514.70	18.563
515.05	18.468
515.39	18.397
515.74	18.848
516.08	18.790
516.42	17.620
516.77	18.949
517.11	18.764
517.46	19.139
517.80	18.833
518.14	17.754
518.49	18.051
518.83	17.864
519.17	18.591
519.52	18.450
519.86	19.295
520.20	18.337
520.55	18.831
520.89	17.846
521.23	19.231
521.58	18.307
521.92	19.443
522.26	18.730
522.61	18.061
522.95	16.465
523.29	19.060
523.64	18.114
523.98	18.205
524.32	18.353
524.66	18.199
525.01	17.534
525.35	17.912
525.69	17.762
526.04	18.734
526.38	19.032
526.72	17.880
527.06	18.424
527.41	17.558
527.75	17.888
528.09	18.531
528.43	18.230
528.78	18.844
529.12	18.374
529.46	17.526
529.80	17.947
530.15	17.901
530.49	18.305
530.83	18.991
531.17	17.845
531.51	17.816
531.86	18.367
532.20	17.611
532.54	19.385
532.88	18.050
533.22	18.449
533.57	18.668
533.91	17.853
534.25	18.228
534.59	17.239
534.93	17.673
535.27	19.635
535.62	18.862
535.96	19.005
536.30	17.605
536.64	18.725
536.98	18.079
537.32	18.106
537.66	18.805
538.01	18.625
538.35	18.581
538.69	17.580
539.03	18.619
539.37	18.696
539.71	17.879
540.05	17.478
540.39	18.975
540.73	17.830
541.07	18.306
541.42	17.826
541.76	17.143
542.10	18.028
542.44	18.921
542.78	19.403
543.12	19.348
543.46	17.877
543.80	18.261
544.14	18.133
544.48	19.226
544.82	18.471
545.16	18.913
545.50	17.093
545.84	19.541
546.18	18.863
546.52	18.990
546.86	18.162
547.20	17.722
547.54	18.113
547.88	19.575
548.22	17.824
548.56	18.904
548.90	18.801
549.24	17.589
549.58	18.701
549.92	19.011
550.26	19.147
550.60	17.781
550.94	18.978
551.28	17.908
551.62	18.095
551.96	18.162
552.30	18.885
552.64	17.945
552.98	18.430
553.32	18.326
553.66	18.962
554.00	19.048
554.34	17.834
554.68	18.421
555.02	17.656
555.36	18.116
555.69	18.195
556.03	18.246
556.37	17.710
556.71	18.397
557.05	18.625
557.39	17.595
557.73	18.235
558.07	18.613
558.41	17.502
558.75	17.871
559.08	17.588
559.42	17.688
559.76	18.328
560.10	18.121
560.44	19.292
560.78	18.511
561.12	18.288
561.45	19.110
561.79	17.631
562.13	18.022
562.47	18.838
562.81	17.044
563.15	18.474
563.48	18.176
563.82	18.661
564.16	18.391
564.50	18.884
564.84	18.519
565.17	17.507
565.51	18.905
565.85	18.932
566.19	19.104
566.52	19.178
566.86	17.952
567.20	19.189
567.54	19.669
567.88	19.263
568.21	19.855
568.55	19.353
568.89	19.284
569.23	19.806
569.56	19.378
569.90	20.181
570.24	20.105
570.57	19.719
570.91	20.571
571.25	20.752
571.59	20.762
571.92	20.565
572.26	21.120
572.60	20.695
572.93	20.626
573.27	20.030
573.61	20.132
573.95	21.181
574.28	21.362
574.62	21.124
574.96	20.937
575.29	21.011
575.63	21.582
575.97	20.469
576.30	20.800
576.64	21.201
576.98	20.926
577.31	21.549
577.65	21.472
577.98	21.466
578.32	21.027
578.66	21.932
578.99	21.853
579.33	21.527
579.67	20.923
580.00	21.205
580.34	21.086
580.67	21.574
581.01	21.138
581.35	21.334
581.68	21.011
582.02	21.535
582.35	21.454
582.69	21.755
583.02	21.795
583.36	21.711
583.70	21.352
584.03	21.794
584.37	21.759
584.70	21.412
585.04	21.722
585.37	21.169
585.71	21.384
586.04	22.036
586.38	21.144
586.72	21.392
587.05	20.986
587.39	21.142
587.72	20.972
588.06	21.320
588.39	21.817
588.73	21.545
589.06	21.547
589.40	21.539
589.73	20.999
590.07	21.704
590.40	21.070
590.73	20.752
591.07	20.246
591.40	21.057
591.74	21.156
592.07	20.901
592.41	20.297
592.74	20.446
593.08	20.323
593.41	20.724
593.75	20.244
594.08	21.244
594.41	21.774
594.75	20.649
595.08	20.789
595.42	20.845
595.75	20.801
596.09	20.450
596.42	21.440
596.75	20.267
597.09	20.837
597.42	20.122
597.75	20.283
598.09	20.741
598.42	20.725
598.76	20.307
599.09	19.890
599.42	20.607
599.76	20.612
600.09	20.458
600.42	20.775
600.76	20.716
601.09	20.509
601.42	20.499
601.76	20.405
602.09	20.450
602.42	20.412
602.76	20.066
603.09	20.161
603.42	20.226
603.76	20.503
604.09	20.665
604.42	20.358
604.76	20.715
605.09	20.886
605.42	20.479
605.75	20.181
606.09	20.506
606.42	20.109
606.75	20.309
607.09	20.026
607.42	20.114
607.75	20.530
608.08	20.696
608.42	20.814
608.75	20.234
609.08	19.922
609.41	19.781
609.75	20.088
610.08	19.755
610.41	19.614
610.74	21.083
611.07	21.298
611.41	18.558
611.74	20.257
612.07	20.032
612.40	20.149
612.73	19.117
613.07	19.648
613.40	20.799
613.73	20.436
614.06	19.989
614.39	19.673
614.72	19.553
615.06	18.913
615.39	19.371
615.72	20.532
616.05	19.934
616.38	19.617
616.71	19.339
617.05	20.688
617.38	19.814
617.71	19.410
618.04	19.752
618.37	19.371
618.70	20.469
619.03	18.619
619.36	19.873
619.69	20.531
620.03	18.733
620.36	19.128
620.69	20.316
621.02	19.178
621.35	18.387
621.68	18.197
622.01	20.146
622.34	18.323
622.67	18.516
623.00	18.286
623.33	18.806
623.66	17.947
623.99	19.398
624.32	18.304
624.65	18.617
624.99	18.447
625.32	18.787
625.65	19.736
625.98	17.762
626.31	18.271
626.64	18.996
626.97	18.579
627.30	18.128
627.63	17.271
627.96	18.451
628.29	18.658
628.62	17.287
628.95	17.520
629.28	15.695
629.61	17.076
629.94	18.242
630.26	17.992
630.59	18.090
630.92	18.018
631.25	18.246
631.58	17.989
631.91	15.426
632.24	17.333
632.57	18.556
632.90	17.931
633.23	17.290
633.56	17.193
633.89	16.627
634.22	16.293
634.55	16.466
634.88	17.412
635.20	13.858
635.53	16.031
635.86	16.499
636.19	16.606
636.52	15.412
636.85	16.847
637.18	14.625
637.51	16.357
637.83	16.511
638.16	15.000
638.49	14.207
638.82	16.088
639.15	16.861
639.48	15.305
639.81	17.151
640.13	12.838
640.46	14.957
640.79	16.246
641.12	17.348
641.45	14.347
641.77	17.216
642.10	14.502
642.43	15.781
642.76	15.591
643.09	14.603
643.41	13.492
643.74	15.739
644.07	16.849
644.40	15.883
644.73	15.842
645.05	14.190
645.38	13.742
645.71	14.777
646.04	15.126
646.36	13.787
646.69	14.014
647.02	15.884
647.35	15.884
647.67	13.504
648.00	16.696
648.33	17.538
648.66	12.419
648.98	17.038
649.31	14.769
649.64	17.031
649.96	16.327
650.29	12.951
650.62	16.351
650.94	14.840
651.27	16.118
651.60	14.533
651.92	13.870
652.25	14.524
652.58	15.673
652.90	14.928
653.23	15.484
653.56	15.217
653.88	15.902
654.21	15.268
654.54	17.774
654.86	13.644
655.19	16.762
655.52	18.443
655.84	19.342
656.17	22.181
656.49	31.053
656.82	33.564
657.15	26.157
657.47	19.519
657.80	14.804
658.13	17.188
658.45	24.274
658.78	25.060
659.10	26.052
659.43	25.628
659.75	25.649
660.08	24.115
660.41	22.279
660.73	19.582
661.06	20.725
661.38	18.393
661.71	14.149
662.03	14.919
662.36	17.271
662.68	13.502
663.01	15.711
663.33	14.512
663.66	14.163
663.98	9.598
664.31	10.067
664.63	16.593
664.96	13.449
665.28	13.449
665.61	14.165
665.93	17.078
666.26	13.968
666.58	13.514
666.91	12.695
667.23	17.544
667.56	12.472
667.88	13.122
668.21	8.756
668.53	10.280
668.86	15.012
669.18	11.644
669.50	14.019
669.83	10.949
670.15	13.453
670.48	12.383
670.80	11.617
671.13	12.641
671.45	11.937
671.77	12.420
672.10	13.412
672.42	15.314
672.75	12.364
673.07	12.613
673.39	16.393
673.72	14.173
674.04	14.225
674.37	15.258
674.69	14.959
675.01	12.553
675.34	13.015
675.66	16.631
675.98	14.097
676.31	14.932
676.63	16.092
676.95	13.717
677.28	14.153
677.60	17.195
677.92	15.198
678.25	15.317
678.57	16.872
678.89	14.256
679.22	13.836
679.54	15.976
679.86	14.600
680.18	13.308
680.51	15.270
680.83	14.667
681.15	16.763
681.48	16.024
681.80	13.508
682.12	13.682
682.44	16.306
682.77	10.823
683.09	16.771
683.41	15.708
683.73	12.100
684.06	15.269
684.38	16.527
684.70	15.638
685.02	15.945
685.34	13.450
685.67	15.152
685.99	14.556
686.31	15.799
686.63	12.943
686.96	16.636
687.28	14.066
687.60	13.477
687.92	13.424
688.24	14.567
688.56	15.631
688.89	15.171
689.21	17.287
689.53	14.943
689.85	12.695
690.17	13.453
690.49	14.088
690.82	13.253
691.14	14.151
691.46	14.412
691.78	15.859
692.10	16.737
692.42	12.444
692.74	14.378
693.06	13.708
693.39	16.331
693.71	12.190
694.03	17.279
694.35	12.641
694.67	12.766
694.99	12.020
695.31	11.990
695.63	14.286
695.95	12.407
696.27	15.711
696.59	16.043
696.91	10.112
697.23	15.885
697.56	13.942
697.88	12.387
698.20	13.490
698.52	14.350
698.84	12.864
699.16	16.429
699.48	16.250
699.80	12.782
700.12	14.861
700.44	11.173
700.76	10.204
701.08	8.721
701.40	8.157
701.72	9.259
702.04	11.218
702.36	14.458
702.68	9.581
703.00	10.725
703.32	12.034
703.64	16.765
703.96	13.372
704.28	13.018
704.60	10.127
704.91	10.159
705.23	10.356
705.55	8.784
705.87	12.287
706.19	11.111
706.51	10.069
706.83	15.738
707.15	11.146
707.47	12.397
707.79	9.794
708.11	12.468
708.43	16.958
708.74	10.130
709.06	13.649
709.38	12.644
709.70	12.188
710.02	16.871
710.34	9.901
710.66	12.063
710.98	15.457
711.29	10.000
711.61	10.863
711.93	12.459
712.25	11.960
712.57	8.711
712.89	15.468
713.20	11.340
713.52	6.716
713.84	9.964
714.16	10.492
714.48	7.619
714.80	8.615
715.11	11.816
715.43	17.169
715.75	13.707
716.07	10.820
716.39	13.043
716.70	11.498
717.02	12.593
717.34	12.595
717.66	14.938
717.97	8.197
718.29	13.866
718.61	10.714
718.93	14.337
719.24	8.824
719.56	8.679
719.88	13.818
720.20	12.360
720.51	15.789
720.83	10.040
721.15	9.426
721.46	14.118
721.78	8.046
722.10	14.800
722.42	12.810
722.73	11.952
723.05	11.647
723.37	14.902
723.68	11.336
724.00	16.260
724.32	14.403
724.63	10.788
724.95	12.810
725.27	7.456
725.58	7.759
725.90	12.698
726.22	13.284
726.53	15.970
726.85	8.627
727.16	10.526
727.48	13.846
727.80	9.836
728.11	10.084
728.43	11.983
728.74	12.109
729.06	13.258
729.38	9.728
729.69	9.843
730.01	11.811
730.32	13.944
730.64	17.582
730.96	16.418
731.27	11.429
731.59	13.183
731.90	13.804
732.22	10.736
732.53	19.205
732.85	14.430
733.16	11.957
733.48	13.937
733.80	11.388
734.11	11.379
734.43	12.245
734.74	15.727
735.06	15.361
735.37	15.291
735.69	11.290
736.00	7.744
736.32	11.258
736.63	6.897
736.95	12.681
737.26	15.232
737.58	14.388
737.89	10.753
738.21	6.015
738.52	10.000
738.83	15.234
739.15	11.111
739.46	9.677
739.78	10.839
740.09	13.986
740.41	11.189
740.72	13.869
741.04	12.302
741.35	10.823
741.66	11.111
741.98	10.952
742.29	10.329
742.61	14.439
742.92	13.551
743.23	9.649
743.55	10.811
743.86	15.556
744.18	10.476
744.49	13.793
744.80	12.183
745.12	10.825
745.43	12.563
745.74	10.680
746.06	11.707
746.37	17.621
746.68	14.925
747.00	13.613
747.31	9.615
747.62	10.599
747.94	10.480
748.25	12.093
748.56	12.381
748.88	4.348
749.19	14.085
749.50	21.569
749.82	16.000
750.13	15.859
750.44	11.789
750.75	16.800
751.07	15.714
751.38	16.236
751.69	10.687
752.01	11.923
752.32	8.560
752.63	10.000
752.94	13.492
753.26	13.043
753.57	9.821
753.88	11.638
754.19	12.863
754.51	11.719
754.82	13.043
755.13	11.111
755.44	13.223
755.75	10.288
756.07	10.040
756.38	9.766
756.69	16.245
757.00	11.498
757.31	16.779
757.63	15.888
757.94	13.006
758.25	12.791
758.56	19.137
758.87	16.193
759.18	14.333
759.50	12.456
759.81	10.219
760.12	11.149
760.43	11.327
760.74	15.313
761.05	13.483
761.36	15.269
761.67	15.089
761.99	12.903
762.30	15.580
762.61	15.094
762.92	16.143
763.23	11.848
763.54	7.556
763.85	17.300
764.16	13.878
764.47	12.288
764.78	14.607
765.10	14.029
765.41	12.903
765.72	15.094
766.03	8.834
766.34	16.917
766.65	12.955
766.96	10.500
767.27	11.979
767.58	10.465
767.89	10.968
768.20	14.110
768.51	8.743
768.82	15.676
769.13	9.500
769.44	14.035
769.75	16.883
770.06	15.138
770.37	10.798
770.68	14.062
770.99	14.356
771.30	11.650
771.61	11.111
771.92	10.823
772.23	8.879
772.54	11.702
772.85	1.183
773.16	15.244
773.47	15.663
773.78	19.780
774.09	12.667
774.39	9.877
774.70	10.067
775.01	6.522
775.32	5.970
775.63	3.306
775.94	1.504
776.25	10.000
776.56	12.295
776.87	9.735
777.18	4.425
777.48	-11.818
777.79	1.739
778.10	0.917
778.41	2.542
778.72	14.050
779.03	4.478
779.34	14.286
779.65	11.765
779.95	7.971
780.26	6.803
780.57	-5.172
780.88	1.852
781.19	-11.111
781.50	-1.600
781.80	5.882
782.11	11.538
782.42	11.446
782.73	-5.109
783.04	14.865
783.34	7.576
783.65	10.078
783.96	17.886
784.27	7.692
784.57	12.195
784.88	5.691
785.19	11.404
785.50	-8.247
785.81	5.714
786.11	0.000
786.42	0.000
786.73	12.613
787.04	8.911
787.34	13.333
787.65	-0.952
787.96	-9.804
788.26	11.712
788.57	13.710
788.88	6.250
789.19	5.983
789.49	9.244
789.80	10.256
790.11	7.080
790.41	10.101
790.72	8.491
791.03	-1.389
791.33	0.000
791.64	5.376
791.95	4.000
792.25	-7.143
792.56	2.439
792.87	12.245
793.17	3.947
793.48	-20.270
793.79	-4.225
794.09	11.392
794.40	6.383
794.70	-1.869
795.01	-10.526
795.32	8.182
795.62	4.464
795.93	-14.433
796.23	-12.088
796.54	10.526
796.85	10.959
797.15	-12.500
797.46	10.959
797.76	-9.859
798.07	15.000
798.37	0.000
798.68	7.143
798.99	-1.429
799.29	1.316
799.60	5.000
799.90	-16.667
800.21	-4.688
800.51	-4.762
800.82	6.557
801.12	-7.018
801.43	-1.408
801.73	-18.644
802.04	-8.197
802.34	-12.727
802.65	0.000
802.95	0.000
803.26	-50.000
803.56	5.769
803.87	-23.684
804.17	3.226
804.48	0.000
804.78	-25.641
805.09	13.953
805.39	-37.500
805.70	-24.528
806.00	17.544
806.30	16.216
806.61	-7.353
806.91	1.235
807.22	6.667
807.52	0.000
807.83	-6.452
808.13	-7.937
808.43	5.455
808.74	-13.636
809.04	-7.547
809.35	-1.370
809.65	8.772
809.95	0.000
810.26	-3.922
810.56	-26.000
810.86	-10.204
811.17	-14.286
811.47	-23.077
811.77	-19.355
812.08	-31.579
812.38	-7.143
812.69	-2.174
812.99	-9.677
813.29	-35.714
813.59	-74.074
813.90	-23.404
814.20	-34.884
814.50	-6.250
814.81	-15.000
815.11	-24.390
815.41	-50.000
815.72	-8.571
816.02	-38.889
816.32	0.000
816.62	-16.216
816.93	-35.294
817.23	-8.696
817.53	-41.176
817.84	-8.824
818.14	-53.125
818.44	-10.345
818.74	-38.710
819.04	-40.741
819.35	-46.667
819.65	-4.000
819.95	-16.667
820.25	-16.000
820.56	-18.421
820.86	-15.000
821.16	8.511
821.46	10.345
821.76	-41.026
822.07	-40.000
822.37	6.977
822.67	-30.000
822.97	-35.135
823.27	-27.027
823.57	16.000
823.88	13.514
824.18	-23.810
824.48	-50.000
824.78	-130.769
825.08	-17.391
825.38	-70.833
825.69	-41.667
825.99	-125.000
826.29	-21.622
826.59	-41.176
826.89	-20.000
827.19	-14.286
827.49	0.000
827.79	-40.625
828.09	-33.333
828.39	-13.043
828.70	-65.517
829.00	-37.931
829.30	2.778
829.60	3.125
829.90	-44.444
830.20	-34.615
830.50	-66.667
830.80	-39.286
831.10	-2.564
831.40	-90.476
831.70	-5.882
832.00	-8.333
832.30	-21.053
832.60	-37.500
832.90	-108.333
833.20	-82.353
833.50	-166.667
833.80	-140.000
834.10	-90.000
834.40	-33.333
834.70	-116.667
835.00	3.846
835.30	-16.667
835.60	-20.690
835.90	-88.889
836.20	-145.455
836.50	-150.000
836.80	-5.714
837.10	17.143
837.40	-52.941
837.70	-172.727
838.00	-54.167
838.30	-81.250
838.60	-42.857
838.90	-20.000
839.19	-52.174
839.49	-34.783
839.79	-61.111
840.09	-69.565
840.39	-68.182
840.69	-31.250
840.99	-147.368
841.29	-37.500
841.59	-71.429
841.88	-77.778
842.18	8.333
842.48	-105.882
842.78	-13.793
843.08	-57.143
843.38	-69.231
843.68	-133.333
843.97	7.692
844.27	-181.818
844.57	-160.000
844.87	-20.000
845.17	-180.000
845.47	-107.143
845.76	-100.000
846.06	0.000
846.36	-475.000
846.66	-100.000
846.96	-47.368
847.25	4.167
847.55	-125.000
847.85	-80.000
848.15	-110.000
848.44	46.154
848.74	-42.105
849.04	600.000
849.34	-166.667
849.63	-110.526
849.93	0.000
850.23	-45.000
850.53	-28.571
850.82	-28.000
851.12	-47.368
851.42	-750.000
851.71	-85.714
852.01	-83.333
852.31	-88.235
852.61	-60.000
852.90	-90.476
853.20	-450.000
853.50	-50.000
853.79	-84.211
854.09	40.000
854.39	-21.429
854.68	-52.174
854.98	-266.667
855.28	3.448
855.57	-12.500
855.87	-75.000
856.17	-93.333
856.46	-6.897
856.76	-140.000
857.05	-82.353
857.35	-123.077
857.65	-172.727
857.94	-18.519
858.24	-92.857
858.53	-107.143
858.83	-125.000
859.13	-211.111
859.42	47.619
859.72	-262.500
860.01	-533.333
860.31	-175.000
860.60	-320.000
860.90	-222.222
861.20	-212.500
861.49	-228.571
861.79	-17.647
862.08	-1000.000
862.38	-125.000
862.67	-7.692
862.97	0.000
863.26	-10.000
863.56	-29.412
863.85	466.667
864.15	-60.000
864.44	-53.846
864.74	-15.000
865.03	-325.000
865.33	-366.667
865.62	-29.412
865.92	-425.000
866.21	-107.143
866.51	-166.667
866.80	-1000.000
867.10	-166.667
867.39	-76.471
867.69	52.174
867.98	-314.286
868.27	-460.000
868.57	-50.000
868.86	-63.636
869.16	0.000
869.45	-283.333
869.75	-171.429
870.04	1800.000
870.33	-50.000
870.63	-160.000
870.92	-200.000
871.22	-91.667
871.51	-27.273
871.80	-41.667
872.10	-20.000
>>>>>End Processed Spectral Data<<<<<
