SpectraSuite Data File
++++++++++++++++++++++++++++++++++++
Date: Sat May 16 11:13:04 PDT 2015
User: schluterlab
Dark Spectrum Present: Yes
Reference Spectrum Present: Yes
Number of Sampled Component Spectra: 1
Spectrometers: USB2E3373
Integration Time (usec): 3000 (USB2E3373)
Spectra Averaged: 3 (USB2E3373)
Boxcar Smoothing: 0 (USB2E3373)
Correct for Electrical Dark: No (USB2E3373)
Strobe/Lamp Enabled: No (USB2E3373)
Correct for Detector Non-linearity: No (USB2E3373)
Correct for Stray Light: No (USB2E3373)
Number of Pixels in Processed Spectrum: 2048
>>>>>Begin Processed Spectral Data<<<<<
178.53	0.000
178.91	60.000
179.29	400.000
179.67	0.000
180.04	15.385
180.42	-300.000
180.80	275.000
181.18	150.000
181.56	0.000
181.94	100.000
182.31	450.000
182.69	0.000
183.07	-433.333
183.45	600.000
183.83	333.333
184.20	57.143
184.58	-37.500
184.96	-175.000
185.34	81.250
185.72	-550.000
186.09	133.333
186.47	-187.500
186.85	12.500
187.23	162.500
187.61	-100.000
187.98	-87.500
188.36	-25.000
188.74	-25.000
189.12	-0.000
189.49	171.429
189.87	16.667
190.25	50.000
190.63	-7.143
191.00	-11.111
191.38	240.000
191.76	26.667
192.14	260.000
192.51	-120.000
192.89	-300.000
193.27	0.000
193.65	-33.333
194.02	-171.429
194.40	166.667
194.78	-80.000
195.15	-200.000
195.53	-72.727
195.91	-266.667
196.29	40.000
196.66	-600.000
197.04	1400.000
197.42	-125.000
197.79	6.667
198.17	-133.333
198.55	-150.000
198.92	-200.000
199.30	150.000
199.68	0.000
200.05	11.111
200.43	-133.333
200.81	-700.000
201.18	8.333
201.56	42.857
201.94	0.000
202.31	31.818
202.69	90.000
203.07	10.000
203.44	500.000
203.82	-283.333
204.19	-50.000
204.57	-75.000
204.95	-700.000
205.32	31.250
205.70	800.000
206.08	-1500.000
206.45	-5.556
206.83	-500.000
207.20	-100.000
207.58	-433.333
207.96	-100.000
208.33	-112.500
208.71	-33.333
209.08	140.000
209.46	-142.857
209.84	150.000
210.21	0.000
210.59	90.000
210.96	-0.000
211.34	-283.333
211.71	133.333
212.09	175.000
212.46	650.000
212.84	-1800.000
213.22	533.333
213.59	66.667
213.97	0.000
214.34	70.000
214.72	-10.000
215.09	-466.667
215.47	-150.000
215.84	20.000
216.22	110.000
216.59	0.000
216.97	-150.000
217.34	350.000
217.72	28.571
218.09	-100.000
218.47	-114.286
218.84	57.143
219.22	85.714
219.59	0.000
219.97	142.857
220.34	225.000
220.72	112.500
221.09	-46.154
221.47	0.000
221.84	333.333
222.22	50.000
222.59	600.000
222.97	-200.000
223.34	-200.000
223.72	-66.667
224.09	-57.143
224.46	-25.000
224.84	28.571
225.21	-57.143
225.59	-109.091
225.96	-112.500
226.34	185.714
226.71	-44.444
227.08	15.000
227.46	700.000
227.83	0.000
228.21	-137.500
228.58	-0.000
228.95	-31.250
229.33	-400.000
229.70	-160.000
230.08	-850.000
230.45	8.333
230.82	-66.667
231.20	-1000.000
231.57	-300.000
231.95	900.000
232.32	33.333
232.69	-100.000
233.07	-157.143
233.44	-550.000
233.81	-20.000
234.19	-77.778
234.56	25.000
234.93	34.375
235.31	-14.286
235.68	-42.857
236.05	-17.647
236.43	-9.091
236.80	-9.677
237.17	-8.333
237.55	0.000
237.92	-68.182
238.29	-14.286
238.67	17.647
239.04	36.111
239.41	-9.677
239.79	-12.821
240.16	-21.429
240.53	-1.818
240.91	5.128
241.28	18.182
241.65	13.846
242.02	8.197
242.40	-1.639
242.77	-3.030
243.14	-1.695
243.51	-7.143
243.89	-3.797
244.26	5.618
244.63	11.579
245.00	10.526
245.38	16.102
245.75	9.735
246.12	7.200
246.49	12.598
246.87	0.000
247.24	-1.695
247.61	-0.847
247.98	5.634
248.36	13.986
248.73	12.025
249.10	5.732
249.47	16.374
249.84	10.227
250.22	3.571
250.59	13.559
250.96	8.901
251.33	11.848
251.70	3.846
252.08	13.744
252.45	6.635
252.82	10.476
253.19	6.383
253.56	8.065
253.94	9.283
254.31	11.588
254.68	13.008
255.05	7.661
255.42	13.095
255.79	10.753
256.16	11.373
256.54	12.132
256.91	11.364
257.28	8.791
257.65	8.865
258.02	11.006
258.39	12.375
258.76	6.757
259.14	11.111
259.51	14.098
259.88	7.317
260.25	12.112
260.62	9.325
260.99	9.792
261.36	12.195
261.73	12.428
262.10	11.667
262.47	9.972
262.85	12.571
263.22	12.034
263.59	10.154
263.96	12.174
264.33	13.550
264.70	12.431
265.07	11.538
265.44	12.145
265.81	8.010
266.18	6.835
266.55	9.559
266.92	13.350
267.29	11.864
267.66	11.111
268.03	11.594
268.40	12.676
268.77	12.771
269.14	10.209
269.51	14.253
269.88	10.092
270.25	8.159
270.62	10.984
270.99	13.063
271.36	13.520
271.73	12.108
272.10	11.670
272.47	10.444
272.84	12.889
273.21	12.156
273.58	12.527
273.95	12.281
274.32	10.633
274.69	13.348
275.06	13.088
275.43	13.616
275.80	13.035
276.17	14.226
276.54	14.257
276.91	8.642
277.28	13.590
277.65	11.364
278.02	11.273
278.39	13.360
278.76	10.558
279.13	9.881
279.50	12.922
279.87	13.742
280.23	11.741
280.60	12.127
280.97	12.816
281.34	12.186
281.71	12.692
282.08	11.290
282.45	11.813
282.82	13.372
283.19	12.000
283.56	13.187
283.92	11.837
284.29	11.524
284.66	10.612
285.03	14.973
285.40	12.362
285.77	12.807
286.14	11.011
286.51	13.144
286.87	12.341
287.24	11.604
287.61	13.223
287.98	11.265
288.35	10.248
288.72	9.338
289.08	10.339
289.45	11.953
289.82	9.343
290.19	11.987
290.56	10.248
290.93	11.765
291.29	9.076
291.66	10.789
292.03	11.617
292.40	11.295
292.77	11.491
293.13	9.593
293.50	10.401
293.87	11.196
294.24	9.955
294.60	8.636
294.97	10.015
295.34	9.778
295.71	9.970
296.08	8.909
296.44	8.584
296.81	9.829
297.18	8.873
297.55	10.311
297.91	10.460
298.28	9.315
298.65	8.229
299.02	11.096
299.38	10.160
299.75	9.783
300.12	10.385
300.48	9.463
300.85	7.602
301.22	9.832
301.59	10.143
301.95	10.076
302.32	7.823
302.69	10.037
303.05	9.158
303.42	9.500
303.79	10.287
304.15	10.308
304.52	9.335
304.89	9.209
305.25	8.547
305.62	8.813
305.99	11.072
306.35	9.767
306.72	7.859
307.09	10.329
307.45	9.081
307.82	7.709
308.19	8.837
308.55	8.061
308.92	7.948
309.29	9.189
309.65	9.226
310.02	9.611
310.38	6.919
310.75	10.348
311.12	9.401
311.48	8.873
311.85	9.887
312.22	9.578
312.58	9.563
312.95	9.582
313.31	7.892
313.68	8.643
314.05	10.485
314.41	8.551
314.78	8.192
315.14	9.773
315.51	9.422
315.87	10.455
316.24	9.038
316.61	11.132
316.97	10.547
317.34	9.056
317.70	8.813
318.07	9.422
318.43	9.363
318.80	11.455
319.16	9.662
319.53	9.305
319.89	10.442
320.26	10.196
320.62	9.423
320.99	10.050
321.35	8.966
321.72	9.110
322.08	10.188
322.45	9.109
322.81	10.183
323.18	10.663
323.54	10.259
323.91	10.287
324.27	10.266
324.64	10.969
325.00	10.733
325.37	10.498
325.73	11.374
326.10	10.452
326.46	11.646
326.83	10.809
327.19	11.676
327.56	12.436
327.92	12.150
328.29	11.688
328.65	10.273
329.01	11.219
329.38	10.705
329.74	13.278
330.11	12.602
330.47	10.990
330.84	12.741
331.20	11.552
331.56	11.121
331.93	11.989
332.29	11.963
332.66	11.501
333.02	12.036
333.38	12.007
333.75	11.665
334.11	11.644
334.48	12.445
334.84	12.248
335.20	11.791
335.57	12.545
335.93	13.339
336.29	12.489
336.66	11.806
337.02	12.703
337.38	13.012
337.75	12.818
338.11	11.896
338.47	12.722
338.84	12.341
339.20	13.181
339.56	12.923
339.93	10.758
340.29	11.957
340.65	12.413
341.02	12.395
341.38	11.626
341.74	12.193
342.11	11.604
342.47	11.159
342.83	12.594
343.20	11.785
343.56	11.265
343.92	12.855
344.28	13.457
344.65	11.881
345.01	11.933
345.37	13.538
345.73	12.193
346.10	10.957
346.46	11.698
346.82	11.227
347.19	11.915
347.55	11.717
347.91	11.732
348.27	11.058
348.63	12.763
349.00	11.854
349.36	10.929
349.72	12.659
350.08	11.548
350.45	10.481
350.81	12.182
351.17	11.334
351.53	10.979
351.89	11.075
352.26	11.318
352.62	11.444
352.98	12.896
353.34	11.990
353.70	10.502
354.07	12.352
354.43	11.858
354.79	11.252
355.15	10.383
355.51	12.500
355.87	11.225
356.24	11.914
356.60	13.457
356.96	12.163
357.32	11.006
357.68	11.954
358.04	13.318
358.40	12.374
358.77	11.824
359.13	11.324
359.49	11.867
359.85	11.433
360.21	12.253
360.57	12.048
360.93	12.148
361.29	11.958
361.66	10.671
362.02	11.834
362.38	12.252
362.74	12.234
363.10	12.052
363.46	12.892
363.82	11.735
364.18	12.373
364.54	12.795
364.90	12.648
365.26	11.769
365.62	12.687
365.98	12.945
366.35	11.549
366.71	11.769
367.07	11.997
367.43	12.835
367.79	11.753
368.15	10.740
368.51	13.357
368.87	12.775
369.23	12.000
369.59	12.847
369.95	13.390
370.31	12.729
370.67	12.364
371.03	12.099
371.39	11.245
371.75	12.017
372.11	11.908
372.47	11.714
372.83	12.656
373.19	12.500
373.55	12.808
373.91	12.091
374.27	12.936
374.63	12.491
374.99	13.213
375.35	11.777
375.71	12.762
376.07	12.457
376.42	11.325
376.78	12.680
377.14	12.678
377.50	12.186
377.86	12.094
378.22	12.500
378.58	12.292
378.94	11.591
379.30	12.431
379.66	12.811
380.02	11.943
380.38	12.447
380.74	12.075
381.09	12.771
381.45	12.530
381.81	11.918
382.17	11.529
382.53	12.097
382.89	11.124
383.25	11.981
383.61	12.677
383.97	11.635
384.32	12.140
384.68	12.334
385.04	11.655
385.40	11.625
385.76	13.171
386.12	12.555
386.48	12.562
386.83	12.209
387.19	12.194
387.55	11.145
387.91	11.678
388.27	11.158
388.62	11.779
388.98	10.781
389.34	11.077
389.70	12.119
390.06	11.684
390.42	12.244
390.77	12.177
391.13	12.050
391.49	10.605
391.85	11.658
392.20	11.711
392.56	10.935
392.92	11.751
393.28	12.170
393.64	11.365
393.99	11.877
394.35	11.618
394.71	10.994
395.07	11.551
395.42	11.144
395.78	11.376
396.14	12.025
396.50	11.131
396.85	11.104
397.21	11.179
397.57	11.550
397.92	11.300
398.28	11.333
398.64	11.362
399.00	11.798
399.35	11.612
399.71	11.731
400.07	11.343
400.42	11.192
400.78	11.866
401.14	11.078
401.49	10.554
401.85	10.128
402.21	10.548
402.57	11.044
402.92	11.076
403.28	11.275
403.63	10.545
403.99	10.317
404.35	10.145
404.70	11.001
405.06	10.784
405.42	10.332
405.77	10.124
406.13	10.278
406.49	10.066
406.84	11.518
407.20	11.249
407.55	11.020
407.91	10.363
408.27	10.723
408.62	11.064
408.98	11.280
409.34	9.628
409.69	10.271
410.05	10.370
410.40	9.565
410.76	10.433
411.11	9.913
411.47	10.358
411.83	10.880
412.18	9.839
412.54	9.091
412.89	10.510
413.25	9.917
413.60	10.389
413.96	9.057
414.31	10.336
414.67	9.841
415.03	10.285
415.38	10.345
415.74	11.469
416.09	9.655
416.45	10.053
416.80	10.598
417.16	9.502
417.51	10.965
417.87	10.421
418.22	11.125
418.58	10.911
418.93	10.239
419.29	10.853
419.64	9.799
420.00	10.632
420.35	9.817
420.71	10.144
421.06	10.414
421.42	10.363
421.77	9.659
422.12	10.632
422.48	9.834
422.83	10.308
423.19	10.022
423.54	9.856
423.90	9.717
424.25	9.615
424.61	10.314
424.96	10.181
425.31	10.565
425.67	10.143
426.02	9.696
426.38	10.405
426.73	10.695
427.09	9.743
427.44	10.455
427.79	9.709
428.15	10.712
428.50	10.205
428.85	9.892
429.21	10.017
429.56	10.208
429.92	10.020
430.27	10.568
430.62	10.449
430.98	10.559
431.33	10.299
431.68	10.831
432.04	10.520
432.39	10.598
432.74	10.192
433.10	10.298
433.45	10.363
433.80	10.638
434.16	10.048
434.51	10.137
434.86	11.248
435.22	10.356
435.57	10.037
435.92	10.375
436.28	10.148
436.63	9.949
436.98	10.195
437.34	10.159
437.69	10.560
438.04	11.117
438.39	10.229
438.75	11.001
439.10	10.328
439.45	10.078
439.81	10.663
440.16	10.562
440.51	10.882
440.86	10.006
441.22	10.779
441.57	10.368
441.92	10.281
442.27	10.335
442.63	10.139
442.98	9.368
443.33	10.434
443.68	9.901
444.03	10.314
444.39	10.915
444.74	10.848
445.09	10.691
445.44	10.805
445.79	9.995
446.15	10.898
446.50	10.615
446.85	10.775
447.20	10.776
447.55	9.945
447.91	10.724
448.26	10.615
448.61	9.394
448.96	10.700
449.31	10.541
449.66	11.105
450.02	10.693
450.37	9.159
450.72	10.056
451.07	10.308
451.42	10.657
451.77	11.011
452.12	10.429
452.47	10.579
452.83	11.182
453.18	11.069
453.53	10.137
453.88	10.347
454.23	9.794
454.58	11.374
454.93	10.705
455.28	11.026
455.63	10.197
455.98	11.446
456.34	10.229
456.69	11.445
457.04	10.510
457.39	10.048
457.74	11.223
458.09	10.789
458.44	10.970
458.79	10.314
459.14	11.010
459.49	11.545
459.84	10.736
460.19	10.143
460.54	10.466
460.89	10.090
461.24	11.658
461.59	10.434
461.94	10.248
462.29	10.899
462.64	11.199
462.99	11.513
463.34	10.736
463.69	9.987
464.04	11.424
464.39	10.454
464.74	10.284
465.09	10.583
465.44	9.983
465.79	11.168
466.14	11.507
466.49	11.111
466.84	11.104
467.19	10.723
467.54	10.759
467.89	11.406
468.24	11.580
468.59	11.305
468.94	11.190
469.29	10.006
469.64	11.388
469.99	11.614
470.34	11.089
470.68	10.610
471.03	11.562
471.38	11.667
471.73	11.329
472.08	11.847
472.43	10.875
472.78	11.600
473.13	9.808
473.48	11.232
473.83	11.663
474.17	11.401
474.52	11.829
474.87	11.247
475.22	11.327
475.57	11.500
475.92	11.771
476.27	11.314
476.61	11.268
476.96	11.794
477.31	11.141
477.66	11.289
478.01	11.129
478.36	11.943
478.70	11.586
479.05	12.169
479.40	11.399
479.75	11.927
480.10	11.458
480.45	11.074
480.79	11.797
481.14	11.440
481.49	11.084
481.84	11.188
482.19	12.015
482.53	11.695
482.88	11.818
483.23	11.502
483.58	12.211
483.92	11.801
484.27	11.342
484.62	11.015
484.97	11.613
485.31	10.368
485.66	10.362
486.01	10.239
486.36	10.918
486.70	11.072
487.05	10.800
487.40	11.191
487.75	11.061
488.09	10.809
488.44	11.333
488.79	12.062
489.13	11.754
489.48	12.031
489.83	11.834
490.17	11.711
490.52	11.775
490.87	11.039
491.22	10.649
491.56	11.852
491.91	12.166
492.26	11.368
492.60	11.180
492.95	11.709
493.30	11.672
493.64	11.801
493.99	11.711
494.34	11.952
494.68	12.594
495.03	11.807
495.37	11.701
495.72	12.083
496.07	11.779
496.41	12.274
496.76	12.100
497.11	11.823
497.45	12.021
497.80	12.006
498.14	11.984
498.49	11.803
498.84	11.893
499.18	12.183
499.53	12.275
499.87	11.969
500.22	12.206
500.56	12.156
500.91	12.217
501.26	12.664
501.60	12.374
501.95	12.464
502.29	12.282
502.64	13.201
502.98	12.075
503.33	12.547
503.67	12.787
504.02	12.747
504.36	12.108
504.71	12.259
505.06	12.731
505.40	13.124
505.75	12.043
506.09	12.639
506.44	12.782
506.78	13.547
507.13	13.028
507.47	13.250
507.82	12.287
508.16	13.731
508.51	13.241
508.85	12.733
509.19	12.925
509.54	13.214
509.88	13.245
510.23	13.155
510.57	13.704
510.92	14.286
511.26	13.876
511.61	13.877
511.95	13.254
512.30	13.689
512.64	14.357
512.98	14.466
513.33	14.772
513.67	14.182
514.02	13.647
514.36	14.626
514.70	14.092
515.05	15.152
515.39	15.225
515.74	16.056
516.08	15.274
516.42	15.524
516.77	15.540
517.11	15.160
517.46	14.892
517.80	15.644
518.14	14.795
518.49	15.362
518.83	15.549
519.17	16.282
519.52	15.269
519.86	16.308
520.20	16.565
520.55	15.815
520.89	15.967
521.23	15.873
521.58	16.489
521.92	17.099
522.26	16.381
522.61	16.477
522.95	15.635
523.29	17.618
523.64	15.928
523.98	17.123
524.32	16.908
524.66	16.211
525.01	16.699
525.35	17.848
525.69	16.851
526.04	17.363
526.38	17.759
526.72	16.922
527.06	18.164
527.41	17.096
527.75	17.294
528.09	18.001
528.43	18.492
528.78	18.153
529.12	18.438
529.46	17.204
529.80	17.818
530.15	17.965
530.49	18.952
530.83	19.581
531.17	18.384
531.51	17.950
531.86	18.762
532.20	18.421
532.54	19.719
532.88	18.511
533.22	18.316
533.57	18.799
533.91	17.790
534.25	18.228
534.59	18.239
534.93	17.859
535.27	19.257
535.62	19.118
535.96	18.358
536.30	18.521
536.64	19.057
536.98	18.785
537.32	19.696
537.66	19.552
538.01	18.763
538.35	20.473
538.69	19.118
539.03	19.499
539.37	19.029
539.71	20.080
540.05	19.123
540.39	20.360
540.73	19.558
541.07	19.877
541.42	19.244
541.76	18.272
542.10	19.986
542.44	20.053
542.78	20.760
543.12	19.280
543.46	18.836
543.80	18.395
544.14	18.670
544.48	19.751
544.82	19.756
545.16	19.920
545.50	19.112
545.84	20.445
546.18	19.903
546.52	19.772
546.86	20.442
547.20	21.097
547.54	18.664
547.88	19.177
548.22	18.021
548.56	19.439
548.90	19.946
549.24	20.182
549.58	20.466
549.92	20.495
550.26	20.592
550.60	18.563
550.94	20.146
551.28	20.391
551.62	20.679
551.96	20.839
552.30	20.139
552.64	19.493
552.98	20.603
553.32	19.986
553.66	21.053
554.00	20.327
554.34	19.711
554.68	20.175
555.02	21.056
555.36	20.058
555.69	19.771
556.03	19.789
556.37	21.053
556.71	20.544
557.05	21.212
557.39	21.010
557.73	21.955
558.07	20.874
558.41	20.494
558.75	21.217
559.08	20.467
559.42	21.057
559.76	20.782
560.10	21.029
560.44	20.520
560.78	21.225
561.12	19.600
561.45	20.959
561.79	20.697
562.13	20.547
562.47	20.448
562.81	21.004
563.15	21.414
563.48	20.318
563.82	19.743
564.16	21.095
564.50	21.102
564.84	20.040
565.17	19.695
565.51	21.512
565.85	20.825
566.19	20.356
566.52	20.222
566.86	20.038
567.20	21.126
567.54	21.796
567.88	20.045
568.21	19.743
568.55	20.467
568.89	19.334
569.23	19.389
569.56	18.327
569.90	19.473
570.24	19.053
570.57	19.227
570.91	18.803
571.25	18.774
571.59	19.326
571.92	18.542
572.26	18.274
572.60	18.275
572.93	18.613
573.27	18.567
573.61	18.067
573.95	18.600
574.28	18.074
574.62	18.709
574.96	18.569
575.29	18.420
575.63	18.503
575.97	18.581
576.30	18.992
576.64	18.773
576.98	18.437
577.31	18.522
577.65	18.631
577.98	18.186
578.32	18.712
578.66	18.461
578.99	18.653
579.33	18.488
579.67	18.717
580.00	18.651
580.34	18.664
580.67	18.436
581.01	18.350
581.35	18.136
581.68	17.939
582.02	18.249
582.35	18.319
582.69	18.776
583.02	18.744
583.36	18.899
583.70	18.484
584.03	19.558
584.37	18.945
584.70	19.138
585.04	18.785
585.37	18.234
585.71	18.505
586.04	18.794
586.38	18.631
586.72	19.222
587.05	19.201
587.39	18.820
587.72	18.928
588.06	19.037
588.39	18.798
588.73	18.920
589.06	19.853
589.40	20.062
589.73	19.334
590.07	18.755
590.40	20.443
590.73	19.752
591.07	19.754
591.40	20.061
591.74	20.330
592.07	20.405
592.41	19.915
592.74	19.716
593.08	19.361
593.41	19.046
593.75	19.156
594.08	19.626
594.41	20.037
594.75	20.008
595.08	19.662
595.42	20.087
595.75	19.919
596.09	20.334
596.42	20.213
596.75	20.440
597.09	21.015
597.42	19.817
597.75	20.239
598.09	20.334
598.42	20.018
598.76	19.020
599.09	19.613
599.42	19.185
599.76	20.159
600.09	19.809
600.42	20.623
600.76	20.339
601.09	19.559
601.42	19.193
601.76	19.977
602.09	20.245
602.42	20.412
602.76	19.859
603.09	19.960
603.42	20.346
603.76	20.463
604.09	20.144
604.42	19.734
604.76	20.235
605.09	21.248
605.42	20.257
605.75	20.483
606.09	20.382
606.42	19.062
606.75	19.665
607.09	20.556
607.42	20.511
607.75	20.044
608.08	20.741
608.42	20.009
608.75	20.187
609.08	20.604
609.41	20.379
609.75	20.332
610.08	20.490
610.41	21.398
610.74	21.132
611.07	21.298
611.41	20.524
611.74	21.851
612.07	21.643
612.40	21.748
612.73	21.217
613.07	21.134
613.40	22.058
613.73	21.689
614.06	20.593
614.39	22.153
614.72	20.447
615.06	20.652
615.39	19.913
615.72	20.858
616.05	20.596
616.38	21.880
616.71	21.802
617.05	21.713
617.38	21.920
617.71	21.376
618.04	22.298
618.37	21.698
618.70	22.164
619.03	21.801
619.36	22.622
619.69	21.823
620.03	22.245
620.36	21.449
620.69	22.972
621.02	22.679
621.35	22.903
621.68	22.377
622.01	22.816
622.34	22.050
622.67	21.953
623.00	23.871
623.33	23.358
623.66	21.492
623.99	22.707
624.32	22.024
624.65	23.326
624.99	22.629
625.32	22.904
625.65	23.077
625.98	22.222
626.31	22.675
626.64	22.343
626.97	22.945
627.30	23.319
627.63	22.453
627.96	23.151
628.29	24.265
628.62	22.254
628.95	24.803
629.28	24.060
629.61	23.160
629.94	25.142
630.26	25.149
630.59	24.824
630.92	24.625
631.25	24.597
631.58	23.810
631.91	22.553
632.24	24.667
632.57	24.444
632.90	24.253
633.23	26.869
633.56	24.211
633.89	24.528
634.22	25.620
634.55	24.760
634.88	24.909
635.20	24.095
635.53	26.336
635.86	24.685
636.19	24.176
636.52	24.373
636.85	24.308
637.18	24.375
637.51	26.890
637.83	25.433
638.16	25.000
638.49	24.828
638.82	25.483
639.15	25.162
639.48	23.476
639.81	26.556
640.13	25.811
640.46	26.068
640.79	25.350
641.12	26.939
641.45	26.686
641.77	24.850
642.10	25.529
642.43	26.252
642.76	25.827
643.09	26.190
643.41	26.825
643.74	26.868
644.07	25.585
644.40	27.391
644.73	27.393
645.05	26.878
645.38	25.662
645.71	28.179
646.04	25.882
646.36	22.688
646.69	25.433
647.02	27.437
647.35	26.173
647.67	26.460
648.00	28.998
648.33	27.993
648.66	25.484
648.98	25.796
649.31	25.846
649.64	25.156
649.96	27.159
650.29	25.082
650.62	27.367
650.94	27.319
651.27	27.383
651.60	26.817
651.92	26.027
652.25	25.209
652.58	23.680
652.90	23.917
653.23	27.097
653.56	26.087
653.88	25.902
654.21	26.007
654.54	27.243
654.86	25.522
655.19	24.212
655.52	22.147
655.84	18.611
656.17	19.688
656.49	27.765
656.82	30.029
657.15	22.470
657.47	17.139
657.80	13.109
658.13	15.429
658.45	21.501
658.78	21.653
659.10	22.341
659.43	22.413
659.75	23.249
660.08	23.281
660.41	23.813
660.73	25.083
661.06	27.536
661.38	28.929
661.71	27.151
662.03	27.419
662.36	30.917
662.68	26.582
663.01	31.210
663.33	29.252
663.66	27.897
663.98	25.223
664.31	27.293
664.63	32.301
664.96	26.030
665.28	27.115
665.61	24.313
665.93	28.807
666.26	29.352
666.58	28.898
666.91	28.953
667.23	30.044
667.56	26.757
667.88	27.828
668.21	29.263
668.53	27.103
668.86	32.102
669.18	30.365
669.50	26.402
669.83	26.764
670.15	26.009
670.48	26.168
670.80	25.740
671.13	27.540
671.45	27.477
671.77	27.623
672.10	29.191
672.42	25.092
672.75	24.364
673.07	25.586
673.39	25.501
673.72	28.346
674.04	26.327
674.37	25.979
674.69	28.893
675.01	27.447
675.34	26.464
675.66	29.590
675.98	29.075
676.31	26.697
676.63	31.494
676.95	25.442
677.28	24.826
677.60	28.733
677.92	29.295
678.25	27.133
678.57	25.309
678.89	26.205
679.22	26.625
679.54	27.613
679.86	23.000
680.18	26.616
680.51	25.326
680.83	28.571
681.15	27.553
681.48	29.412
681.80	26.411
682.12	26.761
682.44	26.326
682.77	27.273
683.09	26.625
683.41	28.761
683.73	27.397
684.06	23.441
684.38	25.523
684.70	26.955
685.02	25.591
685.34	27.096
685.67	23.485
685.99	25.520
686.31	26.750
686.63	25.532
686.96	26.433
687.28	23.892
687.60	25.000
687.92	24.514
688.24	26.181
688.56	25.451
688.89	25.427
689.21	27.133
689.53	26.207
689.85	25.612
690.17	23.991
690.49	26.790
690.82	26.024
691.14	26.415
691.46	29.268
691.78	26.432
692.10	26.483
692.42	26.889
692.74	24.893
693.06	27.865
693.39	27.740
693.71	24.605
694.03	30.022
694.35	26.862
694.67	27.896
694.99	26.598
695.31	27.041
695.63	25.765
695.95	26.303
696.27	28.429
696.59	28.342
696.91	27.528
697.23	29.427
697.56	25.000
697.88	26.577
698.20	25.268
698.52	23.991
698.84	29.612
699.16	24.762
699.48	23.250
699.80	26.316
700.12	27.708
700.44	23.184
700.76	28.280
701.08	31.395
701.40	27.492
701.72	26.852
702.04	30.449
702.36	31.024
702.68	29.042
703.00	27.826
703.32	26.074
703.64	28.529
703.96	27.326
704.28	30.473
704.60	28.481
704.91	28.254
705.23	28.479
705.55	29.730
705.87	32.082
706.19	29.167
706.51	28.819
706.83	29.836
707.15	24.841
707.47	28.926
707.79	24.742
708.11	24.173
708.43	25.686
708.74	27.013
709.06	25.070
709.38	28.448
709.70	27.188
710.02	28.221
710.34	23.762
710.66	29.841
710.98	26.814
711.29	26.452
711.61	24.281
711.93	26.885
712.25	27.575
712.57	27.178
712.89	29.856
713.20	30.584
713.52	25.746
713.84	27.046
714.16	28.197
714.48	24.762
714.80	24.923
715.11	26.513
715.43	29.819
715.75	26.791
716.07	28.197
716.39	25.418
716.70	28.571
717.02	27.407
717.34	27.099
717.66	33.610
717.97	29.098
718.29	24.790
718.61	32.143
718.93	27.599
719.24	26.471
719.56	30.566
719.88	26.182
720.20	29.213
720.51	32.331
720.83	27.309
721.15	28.279
721.46	25.882
721.78	26.437
722.10	27.600
722.42	24.793
722.73	29.084
723.05	28.514
723.37	31.373
723.68	22.267
724.00	31.301
724.32	27.572
724.63	26.971
724.95	33.058
725.27	25.877
725.58	30.603
725.90	23.413
726.22	30.996
726.53	26.996
726.85	21.961
727.16	29.323
727.48	24.231
727.80	32.787
728.11	26.891
728.43	26.033
728.74	27.344
729.06	29.167
729.38	22.568
729.69	22.835
730.01	26.378
730.32	25.100
730.64	27.106
730.96	30.970
731.27	25.000
731.59	25.723
731.90	27.914
732.22	23.926
732.53	28.477
732.85	25.168
733.16	28.261
733.48	27.875
733.80	25.267
734.11	26.207
734.43	22.789
734.74	26.706
735.06	26.019
735.37	24.465
735.69	20.645
736.00	25.589
736.32	24.503
736.63	22.069
736.95	26.812
737.26	26.159
737.58	26.619
737.89	25.806
738.21	22.180
738.52	27.308
738.83	24.609
739.15	22.650
739.46	27.419
739.78	25.524
740.09	24.476
740.41	26.224
740.72	28.832
741.04	24.206
741.35	25.541
741.66	25.000
741.98	26.190
742.29	27.700
742.61	26.203
742.92	28.972
743.23	28.509
743.55	27.928
743.86	29.778
744.18	31.905
744.49	30.542
744.80	28.426
745.12	31.959
745.43	26.633
745.74	27.184
746.06	24.390
746.37	28.194
746.68	29.353
747.00	27.225
747.31	25.000
747.62	31.797
747.94	28.384
748.25	26.977
748.56	24.762
748.88	28.261
749.19	32.864
749.50	33.333
749.82	29.333
750.13	30.396
750.44	24.390
750.75	27.600
751.07	26.786
751.38	24.723
751.69	20.229
752.01	26.923
752.32	27.237
752.63	22.692
752.94	25.794
753.26	24.783
753.57	27.679
753.88	28.017
754.19	29.461
754.51	26.953
754.82	27.668
755.13	26.337
755.44	28.512
755.75	30.041
756.07	24.096
756.38	22.656
756.69	28.520
757.00	28.223
757.31	24.832
757.63	24.299
757.94	27.746
758.25	25.291
758.56	28.571
758.87	24.716
759.18	26.667
759.50	28.470
759.81	22.263
760.12	23.311
760.43	28.155
760.74	30.000
761.05	24.719
761.36	26.347
761.67	23.964
761.99	22.903
762.30	26.087
762.61	28.302
762.92	33.632
763.23	25.118
763.54	28.000
763.85	31.224
764.16	22.857
764.47	30.085
764.78	27.715
765.10	22.662
765.41	26.452
765.72	24.528
766.03	20.848
766.34	29.323
766.65	23.482
766.96	22.000
767.27	32.292
767.58	37.209
767.89	28.387
768.20	24.540
768.51	27.869
768.82	28.649
769.13	22.500
769.44	20.175
769.75	29.437
770.06	28.440
770.37	25.352
770.68	27.083
770.99	23.762
771.30	20.388
771.61	20.370
771.92	23.377
772.23	24.766
772.54	26.596
772.85	26.627
773.16	36.585
773.47	34.940
773.78	33.516
774.09	32.000
774.39	28.395
774.70	22.819
775.01	17.391
775.32	25.373
775.63	24.793
775.94	32.331
776.25	36.429
776.56	29.508
776.87	32.743
777.18	38.053
777.48	26.364
777.79	19.130
778.10	21.101
778.41	23.729
778.72	23.967
779.03	38.060
779.34	26.316
779.65	37.255
779.95	25.362
780.26	20.408
780.57	20.690
780.88	27.778
781.19	27.273
781.50	20.800
781.80	18.301
782.11	20.513
782.42	25.301
782.73	28.467
783.04	25.676
783.34	31.061
783.65	28.682
783.96	38.211
784.27	23.932
784.57	22.764
784.88	35.772
785.19	32.456
785.50	11.340
785.81	18.095
786.11	14.706
786.42	24.545
786.73	26.126
787.04	31.683
787.34	21.905
787.65	19.048
787.96	31.373
788.26	29.730
788.57	24.194
788.88	20.312
789.19	23.932
789.49	20.168
789.80	32.479
790.11	27.434
790.41	34.343
790.72	29.245
791.03	22.222
791.33	35.526
791.64	38.710
791.95	30.667
792.25	17.143
792.56	29.268
792.87	35.714
793.17	35.526
793.48	17.568
793.79	22.535
794.09	30.380
794.40	17.021
794.70	21.495
795.01	16.667
795.32	21.818
795.62	29.464
795.93	17.526
796.23	10.989
796.54	21.053
796.85	17.808
797.15	19.444
797.46	27.397
797.76	33.803
798.07	27.500
798.37	25.000
798.68	20.000
798.99	14.286
799.29	42.105
799.60	28.333
799.90	15.278
800.21	18.750
800.51	30.159
800.82	34.426
801.12	28.070
801.43	22.535
801.73	5.085
802.04	24.590
802.34	20.000
802.65	36.538
802.95	29.630
803.26	-5.000
803.56	32.692
803.87	5.263
804.17	35.484
804.48	26.154
804.78	12.821
805.09	34.884
805.39	12.500
805.70	16.981
806.00	49.123
806.30	33.784
806.61	17.647
806.91	16.049
807.22	18.667
807.52	37.313
807.83	11.290
808.13	3.175
808.43	29.091
808.74	30.303
809.04	26.415
809.35	34.247
809.65	43.860
809.95	47.059
810.26	27.451
810.56	2.000
810.86	34.694
811.17	28.571
811.47	15.385
811.77	19.355
812.08	-18.421
812.38	38.095
812.69	13.043
812.99	45.161
813.29	0.000
813.59	7.407
813.90	17.021
814.20	9.302
814.50	33.333
814.81	33.333
815.11	19.512
815.41	46.667
815.72	51.429
816.02	16.667
816.32	28.205
816.62	18.919
816.93	5.882
817.23	39.130
817.53	32.353
817.84	20.588
818.14	40.625
818.44	17.241
818.74	22.581
819.04	22.222
819.35	33.333
819.65	-16.000
819.95	33.333
820.25	0.000
820.56	23.684
820.86	17.500
821.16	38.298
821.46	43.103
821.76	-20.513
822.07	15.000
822.37	20.930
822.67	0.000
822.97	40.541
823.27	16.216
823.57	108.000
823.88	10.811
824.18	-57.143
824.48	57.692
824.78	-7.692
825.08	-4.348
825.38	16.667
825.69	12.500
825.99	-20.000
826.29	21.622
826.59	23.529
826.89	16.000
827.19	0.000
827.49	50.000
827.79	18.750
828.09	3.333
828.39	65.217
828.70	-24.138
829.00	48.276
829.30	47.222
829.60	65.625
829.90	-38.889
830.20	7.692
830.50	-57.143
830.80	3.571
831.10	7.692
831.40	33.333
831.70	11.765
832.00	33.333
832.30	5.263
832.60	12.500
832.90	-41.667
833.20	0.000
833.50	-33.333
833.80	20.000
834.10	-20.000
834.40	-8.333
834.70	44.444
835.00	23.077
835.30	29.167
835.60	20.690
835.90	-22.222
836.20	-18.182
836.50	-8.333
836.80	20.000
837.10	37.143
837.40	17.647
837.70	-54.545
838.00	37.500
838.30	-25.000
838.60	23.810
838.90	90.000
839.19	43.478
839.49	34.783
839.79	0.000
840.09	-56.522
840.39	-13.636
840.69	12.500
840.99	63.158
841.29	-37.500
841.59	-7.143
841.88	-11.111
842.18	-12.500
842.48	-11.765
842.78	24.138
843.08	35.714
843.38	-30.769
843.68	33.333
843.97	-30.769
844.27	9.091
844.57	60.000
844.87	24.000
845.17	20.000
845.47	-7.143
845.76	-66.667
846.06	0.000
846.36	-75.000
846.66	20.000
846.96	0.000
847.25	20.833
847.55	25.000
847.85	20.000
848.15	-30.000
848.44	69.231
848.74	36.842
849.04	233.333
849.34	-66.667
849.63	-15.789
849.93	0.000
850.23	-5.000
850.53	19.048
850.82	16.000
851.12	-15.789
851.42	-200.000
851.71	28.571
852.01	-75.000
852.31	-17.647
852.61	13.333
852.90	-42.857
853.20	-133.333
853.50	-22.222
853.79	5.263
854.09	-40.000
854.39	35.714
854.68	13.043
854.98	-133.333
855.28	37.931
855.57	25.000
855.87	50.000
856.17	-46.667
856.46	0.000
856.76	13.333
857.05	-29.412
857.35	-46.154
857.65	-18.182
857.94	51.852
858.24	-78.571
858.53	-21.429
858.83	-41.667
859.13	-122.222
859.42	42.857
859.72	-75.000
860.01	133.333
860.31	-25.000
860.60	-220.000
860.90	33.333
861.20	25.000
861.49	-71.429
861.79	52.941
862.08	-550.000
862.38	25.000
862.67	-7.692
862.97	41.176
863.26	30.000
863.56	-41.176
863.85	366.667
864.15	-70.000
864.44	-15.385
864.74	60.000
865.03	-125.000
865.33	-50.000
865.62	-17.647
865.92	-50.000
866.21	-7.143
866.51	-83.333
866.80	-300.000
867.10	-200.000
867.39	47.059
867.69	26.087
867.98	-100.000
868.27	-20.000
868.57	-18.750
868.86	-100.000
869.16	41.176
869.45	-50.000
869.75	-157.143
870.04	600.000
870.33	-16.667
870.63	-20.000
870.92	100.000
871.22	8.333
871.51	-63.636
871.80	-25.000
872.10	20.000
>>>>>End Processed Spectral Data<<<<<
