SpectraSuite Data File
++++++++++++++++++++++++++++++++++++
Date: Sat May 16 11:25:19 PDT 2015
User: schluterlab
Dark Spectrum Present: Yes
Reference Spectrum Present: Yes
Number of Sampled Component Spectra: 1
Spectrometers: USB2E3373
Integration Time (usec): 3000 (USB2E3373)
Spectra Averaged: 3 (USB2E3373)
Boxcar Smoothing: 0 (USB2E3373)
Correct for Electrical Dark: No (USB2E3373)
Strobe/Lamp Enabled: No (USB2E3373)
Correct for Detector Non-linearity: No (USB2E3373)
Correct for Stray Light: No (USB2E3373)
Number of Pixels in Processed Spectrum: 2048
>>>>>Begin Processed Spectral Data<<<<<
178.53	0.000
178.91	126.667
179.29	233.333
179.67	-800.000
180.04	-92.308
180.42	400.000
180.80	250.000
181.18	425.000
181.56	-137.500
181.94	1200.000
182.31	350.000
182.69	15.385
183.07	-566.667
183.45	1600.000
183.83	466.667
184.20	-228.571
184.58	-162.500
184.96	-500.000
185.34	175.000
185.72	-525.000
186.09	200.000
186.47	-262.500
186.85	-225.000
187.23	-150.000
187.61	-125.000
187.98	-325.000
188.36	-200.000
188.74	-237.500
189.12	900.000
189.49	257.143
189.87	-75.000
190.25	300.000
190.63	-21.429
191.00	-66.667
191.38	400.000
191.76	-60.000
192.14	620.000
192.51	-200.000
192.89	-466.667
193.27	0.000
193.65	-100.000
194.02	-214.286
194.40	533.333
194.78	-40.000
195.15	-700.000
195.53	-200.000
195.91	-333.333
196.29	300.000
196.66	-433.333
197.04	2900.000
197.42	-225.000
197.79	-40.000
198.17	-633.333
198.55	-1050.000
198.92	-1500.000
199.30	250.000
199.68	-200.000
200.05	-122.222
200.43	-188.889
200.81	-1700.000
201.18	-25.000
201.56	257.143
201.94	-46.667
202.31	0.000
202.69	10.000
203.07	-120.000
203.44	733.333
203.82	-333.333
204.19	-400.000
204.57	-25.000
204.95	-600.000
205.32	-31.250
205.70	-500.000
206.08	-1600.000
206.45	-22.222
206.83	-1400.000
207.20	-100.000
207.58	-366.667
207.96	-666.667
208.33	-150.000
208.71	-200.000
209.08	210.000
209.46	-100.000
209.84	700.000
210.21	0.000
210.59	-25.000
210.96	1200.000
211.34	-200.000
211.71	-433.333
212.09	200.000
212.46	700.000
212.84	-1700.000
213.22	466.667
213.59	100.000
213.97	-55.556
214.34	240.000
214.72	-50.000
215.09	-300.000
215.47	-183.333
215.84	-60.000
216.22	-100.000
216.59	6.667
216.97	-375.000
217.34	700.000
217.72	-314.286
218.09	-333.333
218.47	-71.429
218.84	142.857
219.22	-157.143
219.59	0.000
219.97	71.429
220.34	400.000
220.72	225.000
221.09	-46.154
221.47	0.000
221.84	733.333
222.22	-250.000
222.59	800.000
222.97	-200.000
223.34	-800.000
223.72	-366.667
224.09	-21.429
224.46	-225.000
224.84	-100.000
225.21	-128.571
225.59	-81.818
225.96	-87.500
226.34	-128.571
226.71	-155.556
227.08	15.000
227.46	2700.000
227.83	-200.000
228.21	-237.500
228.58	150.000
228.95	-43.750
229.33	-800.000
229.70	-240.000
230.08	-550.000
230.45	-25.000
230.82	-266.667
231.20	-900.000
231.57	-450.000
231.95	1300.000
232.32	9.524
232.69	-22.222
233.07	-28.571
233.44	-1050.000
233.81	-13.333
234.19	-88.889
234.56	-25.000
234.93	21.875
235.31	-185.714
235.68	-171.429
236.05	23.529
236.43	-54.545
236.80	-12.903
237.17	29.167
237.55	-52.381
237.92	-27.273
238.29	14.286
238.67	17.647
239.04	38.889
239.41	3.226
239.79	-25.641
240.16	-9.524
240.53	14.545
240.91	48.718
241.28	29.091
241.65	47.692
242.02	26.230
242.40	24.590
242.77	45.455
243.14	20.339
243.51	18.571
243.89	37.975
244.26	30.337
244.63	38.947
245.00	33.684
245.38	39.831
245.75	38.053
246.12	39.200
246.49	33.071
246.87	23.577
247.24	37.288
247.61	43.220
247.98	34.507
248.36	38.462
248.73	41.772
249.10	36.943
249.47	38.596
249.84	40.341
250.22	32.143
250.59	44.068
250.96	34.555
251.33	44.076
251.70	39.423
252.08	44.076
252.45	39.336
252.82	43.810
253.19	41.702
253.56	42.339
253.94	44.304
254.31	45.494
254.68	51.626
255.05	43.145
255.42	46.032
255.79	42.652
256.16	41.961
256.54	46.324
256.91	43.561
257.28	41.026
257.65	43.617
258.02	46.855
258.39	44.816
258.76	37.838
259.14	40.432
259.51	41.311
259.88	40.244
260.25	46.273
260.62	44.373
260.99	42.730
261.36	42.988
261.73	43.642
262.10	40.833
262.47	43.305
262.85	48.571
263.22	41.547
263.59	43.077
263.96	46.957
264.33	46.070
264.70	45.856
265.07	43.407
265.44	39.276
265.81	42.377
266.18	40.506
266.55	43.382
266.92	46.096
267.29	44.552
267.66	45.679
268.03	45.894
268.40	43.427
268.77	40.723
269.14	42.923
269.51	43.908
269.88	42.890
270.25	41.026
270.62	44.394
270.99	42.342
271.36	44.988
271.73	46.637
272.10	44.622
272.47	42.444
272.84	47.778
273.21	45.413
273.58	44.176
273.95	43.202
274.32	45.023
274.69	46.389
275.06	46.830
275.43	45.312
275.80	45.010
276.17	42.678
276.54	42.363
276.91	44.856
277.28	43.611
277.65	45.455
278.02	44.676
278.39	41.847
278.76	40.040
279.13	44.269
279.50	45.129
279.87	45.455
280.23	45.547
280.60	44.334
280.97	44.660
281.34	43.327
281.71	43.462
282.08	48.790
282.45	42.770
282.82	43.798
283.19	41.273
283.56	45.604
283.92	41.519
284.29	42.379
284.66	41.187
285.03	42.781
285.40	43.173
285.77	44.737
286.14	43.682
286.51	43.694
286.87	42.650
287.24	40.956
287.61	42.314
287.98	40.901
288.35	40.992
288.72	40.917
289.08	41.017
289.45	38.384
289.82	38.062
290.19	40.722
290.56	38.347
290.93	39.746
291.29	41.491
291.66	41.546
292.03	36.578
292.40	35.693
292.77	36.801
293.13	39.512
293.50	36.999
293.87	37.270
294.24	36.802
294.60	35.758
294.97	37.026
295.34	33.481
295.71	35.714
296.08	34.255
296.44	32.475
296.81	33.903
297.18	33.662
297.55	36.158
297.91	35.146
298.28	34.384
298.65	34.589
299.02	33.690
299.38	33.155
299.75	33.832
300.12	33.462
300.48	32.481
300.85	33.683
301.22	31.177
301.59	30.559
301.95	33.879
302.32	32.725
302.69	31.701
303.05	31.624
303.42	30.125
303.79	32.895
304.15	32.701
304.52	30.688
304.89	32.940
305.25	32.357
305.62	30.787
305.99	33.569
306.35	30.522
306.72	30.979
307.09	30.193
307.45	30.647
307.82	30.503
308.19	31.208
308.55	30.065
308.92	29.001
309.29	30.378
309.65	30.541
310.02	31.425
310.38	29.189
310.75	28.484
311.12	30.372
311.48	30.689
311.85	29.557
312.22	28.424
312.58	30.112
312.95	28.848
313.31	29.371
313.68	28.945
314.05	29.674
314.41	28.169
314.78	28.072
315.14	30.306
315.51	28.470
315.87	28.364
316.24	28.669
316.61	29.655
316.97	30.846
317.34	27.746
317.70	28.015
318.07	28.731
318.43	28.464
318.80	29.953
319.16	28.330
319.53	28.195
319.89	27.469
320.26	28.529
320.62	27.115
320.99	28.159
321.35	27.783
321.72	27.226
322.08	27.992
322.45	28.911
322.81	27.666
323.18	28.050
323.54	28.466
323.91	26.877
324.27	28.137
324.64	27.148
325.00	27.051
325.37	29.140
325.73	28.696
326.10	27.547
326.46	28.196
326.83	28.085
327.19	28.190
327.56	28.620
327.92	27.613
328.29	29.091
328.65	27.727
329.01	28.004
329.38	25.959
329.74	29.396
330.11	27.471
330.47	26.885
330.84	27.498
331.20	27.708
331.56	26.709
331.93	27.531
332.29	27.397
332.66	26.602
333.02	27.511
333.38	26.165
333.75	27.783
334.11	27.200
334.48	26.302
334.84	27.822
335.20	26.862
335.57	27.256
335.93	28.559
336.29	26.838
336.66	26.608
337.02	27.117
337.38	26.471
337.75	27.480
338.11	26.744
338.47	27.936
338.84	26.951
339.20	26.538
339.56	27.718
339.93	26.367
340.29	26.749
340.65	25.787
341.02	26.138
341.38	26.116
341.74	25.995
342.11	27.218
342.47	26.781
342.83	25.861
343.20	26.900
343.56	25.878
343.92	26.544
344.28	26.829
344.65	25.660
345.01	25.630
345.37	26.578
345.73	25.532
346.10	24.366
346.46	25.183
346.82	26.143
347.19	26.541
347.55	25.441
347.91	25.118
348.27	24.662
348.63	25.767
349.00	24.821
349.36	24.590
349.72	26.354
350.08	26.383
350.45	25.532
350.81	26.433
351.17	25.563
351.53	24.503
351.89	25.141
352.26	25.969
352.62	25.499
352.98	24.842
353.34	26.139
353.70	24.093
354.07	24.469
354.43	24.348
354.79	23.930
355.15	24.521
355.51	25.078
355.87	23.953
356.24	24.464
356.60	26.511
356.96	25.250
357.32	24.545
357.68	24.828
358.04	24.480
358.40	24.981
358.77	25.966
359.13	24.407
359.49	24.792
359.85	24.619
360.21	24.277
360.57	25.452
360.93	25.333
361.29	25.785
361.66	24.009
362.02	24.408
362.38	24.652
362.74	24.982
363.10	25.036
363.46	25.071
363.82	24.417
364.18	24.964
364.54	25.518
364.90	24.668
365.26	24.608
365.62	25.089
365.98	24.751
366.35	23.944
366.71	24.101
367.07	24.629
367.43	25.944
367.79	24.811
368.15	24.111
368.51	25.594
368.87	25.137
369.23	24.982
369.59	24.306
369.95	23.961
370.31	23.769
370.67	23.500
371.03	24.708
371.39	23.762
371.75	25.608
372.11	24.821
372.47	24.367
372.83	24.339
373.19	24.286
373.55	25.053
373.91	23.755
374.27	23.819
374.63	24.224
374.99	24.965
375.35	23.688
375.71	24.240
376.07	23.546
376.42	22.318
376.78	24.706
377.14	23.729
377.50	24.823
377.86	23.797
378.22	24.121
378.58	23.286
378.94	24.106
379.30	24.132
379.66	24.894
380.02	23.173
380.38	23.625
380.74	24.267
381.09	23.784
381.45	23.687
381.81	24.138
382.17	23.622
382.53	22.979
382.89	23.864
383.25	23.841
383.61	23.939
383.97	23.699
384.32	23.091
384.68	24.486
385.04	24.396
385.40	23.250
385.76	23.720
386.12	23.548
386.48	24.257
386.83	24.172
387.19	23.491
387.55	24.107
387.91	23.533
388.27	21.894
388.62	23.377
388.98	22.471
389.34	23.929
389.70	23.812
390.06	24.114
390.42	24.038
390.77	24.101
391.13	25.155
391.49	23.955
391.85	23.566
392.20	22.876
392.56	23.091
392.92	23.331
393.28	23.479
393.64	23.873
393.99	24.062
394.35	23.358
394.71	23.965
395.07	23.980
395.42	23.480
395.78	23.130
396.14	23.988
396.50	23.792
396.85	24.121
397.21	23.694
397.57	23.708
397.92	24.005
398.28	24.056
398.64	23.379
399.00	23.820
399.35	23.732
399.71	23.926
400.07	23.164
400.42	24.331
400.78	23.137
401.14	22.216
401.49	24.175
401.85	23.002
402.21	23.540
402.57	23.786
402.92	24.418
403.28	23.775
403.63	22.888
403.99	24.177
404.35	23.007
404.70	24.108
405.06	23.875
405.42	23.001
405.77	23.020
406.13	24.020
406.49	24.566
406.84	23.335
407.20	23.852
407.55	23.369
407.91	23.381
408.27	24.142
408.62	23.933
408.98	23.651
409.34	23.827
409.69	23.819
410.05	23.590
410.40	22.992
410.76	23.474
411.11	23.504
411.47	23.721
411.83	23.105
412.18	23.453
412.54	22.087
412.89	24.301
413.25	22.786
413.60	23.694
413.96	23.044
414.31	23.486
414.67	22.667
415.03	24.062
415.38	24.203
415.74	24.356
416.09	22.954
416.45	22.421
416.80	22.952
417.16	22.924
417.51	24.163
417.87	23.495
418.22	22.566
418.58	23.748
418.93	23.299
419.29	23.902
419.64	23.053
420.00	23.755
420.35	24.069
420.71	23.349
421.06	23.550
421.42	22.424
421.77	23.841
422.12	23.279
422.48	22.929
422.83	23.178
423.19	23.385
423.54	23.401
423.90	23.597
424.25	22.738
424.61	23.884
424.96	23.932
425.31	23.253
425.67	23.266
426.02	22.433
426.38	23.412
426.73	24.021
427.09	23.468
427.44	22.841
427.79	22.965
428.15	22.861
428.50	23.754
428.85	22.782
429.21	22.690
429.56	22.917
429.92	23.447
430.27	23.380
430.62	24.660
430.98	23.419
431.33	22.946
431.68	22.895
432.04	23.615
432.39	23.419
432.74	22.902
433.10	22.960
433.45	22.798
433.80	22.900
434.16	23.858
434.51	23.836
434.86	23.550
435.22	22.383
435.57	23.011
435.92	23.329
436.28	23.383
436.63	23.799
436.98	22.680
437.34	22.623
437.69	22.345
438.04	22.859
438.39	23.827
438.75	22.934
439.10	23.654
439.45	23.174
439.81	23.795
440.16	22.317
440.51	22.882
440.86	22.499
441.22	22.886
441.57	23.053
441.92	23.325
442.27	23.106
442.63	22.908
442.98	22.856
443.33	22.131
443.68	22.981
444.03	23.134
444.39	22.956
444.74	23.183
445.09	22.697
445.44	22.904
445.79	22.794
446.15	23.220
446.50	22.646
446.85	22.935
447.20	22.829
447.55	22.818
447.91	23.863
448.26	22.179
448.61	22.581
448.96	23.585
449.31	22.322
449.66	23.125
450.02	23.047
450.37	22.493
450.72	23.164
451.07	22.879
451.42	21.314
451.77	22.202
452.12	23.123
452.47	22.670
452.83	22.423
453.18	23.466
453.53	23.383
453.88	22.548
454.23	22.551
454.58	22.436
454.93	22.985
455.28	22.307
455.63	23.649
455.98	23.735
456.34	22.046
456.69	22.201
457.04	22.495
457.39	22.189
457.74	22.977
458.09	23.376
458.44	23.557
458.79	22.085
459.14	23.674
459.49	22.380
459.84	21.922
460.19	22.255
460.54	22.928
460.89	22.029
461.24	22.829
461.59	23.740
461.94	23.234
462.29	22.216
462.64	22.332
462.99	22.825
463.34	22.552
463.69	23.028
464.04	22.261
464.39	22.103
464.74	21.986
465.09	22.008
465.44	22.899
465.79	23.237
466.14	22.497
466.49	21.992
466.84	22.689
467.19	22.444
467.54	21.582
467.89	22.688
468.24	21.615
468.59	21.924
468.94	22.186
469.29	21.118
469.64	21.496
469.99	22.215
470.34	22.111
470.68	22.093
471.03	22.230
471.38	22.083
471.73	21.748
472.08	22.155
472.43	21.236
472.78	22.133
473.13	21.670
473.48	22.080
473.83	21.278
474.17	21.847
474.52	23.018
474.87	22.786
475.22	21.888
475.57	22.111
475.92	21.814
476.27	22.000
476.61	21.746
476.96	21.912
477.31	21.851
477.66	21.970
478.01	21.610
478.36	21.844
478.70	22.637
479.05	21.958
479.40	21.917
479.75	22.222
480.10	21.528
480.45	21.325
480.79	22.310
481.14	21.877
481.49	21.636
481.84	21.729
482.19	22.202
482.53	22.491
482.88	21.310
483.23	22.254
483.58	22.618
483.92	21.691
484.27	22.596
484.62	21.382
484.97	21.278
485.31	21.856
485.66	22.490
486.01	22.757
486.36	23.260
486.70	23.665
487.05	22.817
487.40	23.050
487.75	22.600
488.09	22.359
488.44	22.327
488.79	22.320
489.13	22.100
489.48	22.594
489.83	22.620
490.17	21.550
490.52	21.966
490.87	20.878
491.22	21.392
491.56	22.222
491.91	22.137
492.26	21.840
492.60	21.408
492.95	21.990
493.30	21.677
493.64	21.392
493.99	21.272
494.34	22.381
494.68	22.051
495.03	21.797
495.37	21.731
495.72	21.464
496.07	22.196
496.41	21.769
496.76	21.872
497.11	21.196
497.45	22.318
497.80	21.311
498.14	21.169
498.49	20.894
498.84	21.408
499.18	21.784
499.53	21.189
499.87	21.573
500.22	21.863
500.56	21.861
500.91	21.478
501.26	22.271
501.60	21.907
501.95	22.512
502.29	20.595
502.64	22.112
502.98	20.891
503.33	21.523
503.67	21.504
504.02	20.956
504.36	22.059
504.71	21.682
505.06	21.468
505.40	21.806
505.75	21.494
506.09	22.194
506.44	21.704
506.78	21.676
507.13	21.009
507.47	21.492
507.82	21.425
508.16	21.192
508.51	21.123
508.85	20.963
509.19	20.460
509.54	21.353
509.88	22.074
510.23	21.384
510.57	22.328
510.92	21.966
511.26	21.053
511.61	20.140
511.95	21.282
512.30	21.660
512.64	20.312
512.98	20.737
513.33	21.472
513.67	20.771
514.02	21.477
514.36	20.665
514.70	20.374
515.05	20.640
515.39	20.588
515.74	21.815
516.08	20.115
516.42	21.870
516.77	21.144
517.11	21.339
517.46	21.711
517.80	20.758
518.14	20.411
518.49	20.562
518.83	20.534
519.17	22.025
519.52	20.416
519.86	20.908
520.20	20.844
520.55	20.246
520.89	20.413
521.23	21.184
521.58	19.937
521.92	20.393
522.26	19.937
522.61	20.406
522.95	19.209
523.29	20.188
523.64	20.425
523.98	20.369
524.32	20.365
524.66	19.938
525.01	20.360
525.35	21.005
525.69	20.169
526.04	20.822
526.38	21.388
526.72	19.860
527.06	20.768
527.41	21.122
527.75	19.670
528.09	20.649
528.43	20.721
528.78	21.420
529.12	20.743
529.46	21.456
529.80	20.529
530.15	21.442
530.49	21.345
530.83	21.873
531.17	20.067
531.51	19.692
531.86	21.791
532.20	21.053
532.54	20.120
532.88	21.014
533.22	20.120
533.57	20.496
533.91	20.662
534.25	20.365
534.59	19.800
534.93	20.411
535.27	21.082
535.62	21.739
535.96	20.362
536.30	20.092
536.64	21.049
536.98	21.116
537.32	19.972
537.66	21.317
538.01	20.962
538.35	21.824
538.69	20.521
539.03	20.379
539.37	21.357
539.71	20.881
540.05	20.836
540.39	19.945
540.73	20.802
541.07	20.423
541.42	19.716
541.76	20.266
542.10	21.472
542.44	20.986
542.78	21.506
543.12	21.317
543.46	19.932
543.80	20.535
544.14	20.551
544.48	20.932
544.82	21.516
545.16	20.322
545.50	21.198
545.84	20.376
546.18	20.874
546.52	19.915
546.86	19.943
547.20	20.534
547.54	20.661
547.88	21.831
548.22	19.790
548.56	19.973
548.90	21.092
549.24	20.743
549.58	20.819
549.92	21.272
550.26	21.387
550.60	19.701
550.94	20.876
551.28	20.918
551.62	20.310
551.96	20.767
552.30	20.767
552.64	21.112
552.98	20.603
553.32	19.769
553.66	21.341
554.00	20.824
554.34	19.639
554.68	20.249
555.02	21.056
555.36	20.129
555.69	20.774
556.03	20.842
556.37	20.057
556.71	21.761
557.05	20.177
557.39	19.376
557.73	21.080
558.07	20.874
558.41	20.494
558.75	20.532
559.08	19.222
559.42	20.597
559.76	20.552
560.10	20.507
560.44	20.954
560.78	20.111
561.12	21.187
561.45	20.685
561.79	20.627
562.13	20.687
562.47	20.588
562.81	20.156
563.15	20.714
563.48	20.387
563.82	21.095
564.16	20.487
564.50	20.833
564.84	21.561
565.17	20.822
565.51	21.382
565.85	21.433
566.19	21.410
566.52	21.070
566.86	20.733
567.20	21.913
567.54	22.445
567.88	21.608
568.21	21.644
568.55	21.633
568.89	21.521
569.23	21.379
569.56	22.530
569.90	22.699
570.24	23.112
570.57	22.250
570.91	22.543
571.25	22.990
571.59	23.197
571.92	22.976
572.26	22.798
572.60	22.960
572.93	22.422
573.27	22.744
573.61	22.570
573.95	22.592
574.28	22.424
574.62	23.310
574.96	22.707
575.29	23.704
575.63	23.175
575.97	22.627
576.30	23.184
576.64	23.238
576.98	22.817
577.31	22.837
577.65	23.350
577.98	23.687
578.32	23.153
578.66	23.436
578.99	23.119
579.33	23.713
579.67	22.800
580.00	22.966
580.34	23.092
580.67	23.069
581.01	23.126
581.35	23.143
581.68	22.996
582.02	23.352
582.35	23.456
582.69	23.606
583.02	23.828
583.36	23.403
583.70	22.913
584.03	23.276
584.37	23.004
584.70	23.077
585.04	22.759
585.37	22.792
585.71	23.149
586.04	23.075
586.38	22.641
586.72	23.140
587.05	23.280
587.39	23.272
587.72	23.493
588.06	23.026
588.39	22.415
588.73	22.812
589.06	23.178
589.40	22.947
589.73	22.663
590.07	22.906
590.40	22.657
590.73	22.111
591.07	21.926
591.40	22.054
591.74	23.067
592.07	22.387
592.41	22.548
592.74	22.944
593.08	22.794
593.41	22.697
593.75	22.420
594.08	22.610
594.41	23.105
594.75	22.952
595.08	23.383
595.42	22.724
595.75	22.969
596.09	22.235
596.42	22.791
596.75	22.941
597.09	22.618
597.42	22.741
597.75	22.188
598.09	22.503
598.42	22.183
598.76	21.885
599.09	22.297
599.42	22.568
599.76	22.650
600.09	23.015
600.42	22.560
600.76	23.126
601.09	23.319
601.42	22.517
601.76	22.586
602.09	22.209
602.42	22.387
602.76	22.518
603.09	22.218
603.42	22.039
603.76	22.537
604.09	22.387
604.42	22.981
604.76	22.154
605.09	22.242
605.42	22.872
605.75	21.777
606.09	21.876
606.42	22.036
606.75	22.370
607.09	22.585
607.42	22.403
607.75	22.472
608.08	23.046
608.42	22.327
608.75	21.682
609.08	21.968
609.41	21.674
609.75	21.989
610.08	22.451
610.41	22.602
610.74	22.292
611.07	22.819
611.41	21.180
611.74	22.622
612.07	23.093
612.40	21.322
612.73	21.540
613.07	22.289
613.40	23.153
613.73	21.308
614.06	21.197
614.39	22.830
614.72	21.397
615.06	20.870
615.39	21.053
615.72	22.271
616.05	21.811
616.38	22.055
616.71	21.502
617.05	21.954
617.38	21.362
617.71	20.885
618.04	21.304
618.37	21.132
618.70	22.555
619.03	21.733
619.36	22.269
619.69	22.326
620.03	21.419
620.36	21.167
620.69	20.818
621.02	20.776
621.35	21.210
621.68	20.574
622.01	21.521
622.34	21.972
622.67	20.937
623.00	21.576
623.33	21.418
623.66	20.901
623.99	21.880
624.32	20.312
624.65	20.456
624.99	20.538
625.32	20.210
625.65	22.533
625.98	20.423
626.31	20.881
626.64	20.586
626.97	21.661
627.30	20.766
627.63	18.480
627.96	19.669
628.29	19.118
628.62	19.866
628.95	21.063
629.28	19.267
629.61	19.921
629.94	20.416
630.26	19.980
630.59	20.603
630.92	20.621
631.25	19.556
631.58	20.741
631.91	18.617
632.24	19.556
632.57	18.000
632.90	19.080
633.23	18.224
633.56	17.895
633.89	19.575
634.22	19.126
634.55	19.952
634.88	20.073
635.20	18.352
635.53	18.448
635.86	18.892
636.19	18.315
636.52	18.877
636.85	19.013
637.18	16.375
637.51	20.446
637.83	17.577
638.16	18.947
638.49	16.828
638.82	19.305
639.15	18.936
639.48	18.158
639.81	19.087
640.13	19.054
640.46	18.946
640.79	20.308
641.12	20.028
641.45	18.221
641.77	17.814
642.10	18.429
642.43	18.968
642.76	17.795
643.09	17.937
643.41	19.206
643.74	17.011
644.07	16.693
644.40	17.990
644.73	19.472
645.05	16.194
645.38	18.212
645.71	19.416
646.04	19.160
646.36	16.579
646.69	16.955
647.02	17.509
647.35	16.787
647.67	16.606
648.00	19.859
648.33	19.224
648.66	16.774
648.98	19.745
649.31	20.154
649.64	18.750
649.96	16.327
650.29	18.525
650.62	18.933
650.94	17.369
651.27	16.638
651.60	18.339
651.92	18.493
652.25	15.526
652.58	16.525
652.90	17.657
653.23	18.871
653.56	17.726
653.88	18.361
654.21	19.295
654.54	19.103
654.86	17.175
655.19	18.625
655.52	23.054
655.84	24.062
656.17	27.390
656.49	37.329
656.82	38.375
657.15	28.868
657.47	21.197
657.80	15.995
658.13	18.014
658.45	24.066
658.78	23.389
659.10	22.939
659.43	22.382
659.75	22.738
660.08	22.083
660.41	21.183
660.73	18.482
661.06	20.000
661.38	17.679
661.71	17.782
662.03	18.952
662.36	16.631
662.68	16.667
663.01	17.410
663.33	18.594
663.66	18.455
663.98	14.286
664.31	15.884
664.63	17.257
664.96	16.486
665.28	18.221
665.61	15.222
665.93	19.959
666.26	17.206
666.58	18.919
666.91	18.263
667.23	17.325
667.56	16.780
667.88	16.290
668.21	16.129
668.53	15.654
668.86	18.938
669.18	16.210
669.50	16.355
669.83	16.058
670.15	17.265
670.48	15.421
670.80	17.312
671.13	15.576
671.45	14.640
671.77	18.201
672.10	19.921
672.42	20.664
672.75	18.364
673.07	19.099
673.39	17.668
673.72	16.535
674.04	16.561
674.37	17.526
674.69	20.492
675.01	15.745
675.34	17.354
675.66	16.847
675.98	20.044
676.31	17.647
676.63	16.552
676.95	15.044
677.28	18.329
677.60	18.778
677.92	18.062
678.25	17.724
678.57	19.547
678.89	16.562
679.22	15.933
679.54	21.696
679.86	14.200
680.18	18.061
680.51	15.642
680.83	20.381
681.15	17.919
681.48	17.444
681.80	19.556
682.12	19.316
682.44	15.914
682.77	16.017
683.09	17.820
683.41	17.699
683.73	15.525
684.06	19.785
684.38	15.272
684.70	18.313
685.02	19.291
685.34	18.908
685.67	15.152
685.99	18.147
686.31	17.056
686.63	19.326
686.96	17.930
687.28	17.148
687.60	19.141
687.92	14.981
688.24	17.323
688.56	15.431
688.89	17.735
689.21	20.569
689.53	16.552
689.85	18.263
690.17	14.574
690.49	17.783
690.82	16.145
691.14	13.679
691.46	18.625
691.78	17.401
692.10	15.890
692.42	18.889
692.74	17.167
693.06	18.427
693.39	15.213
693.71	18.059
694.03	20.734
694.35	18.284
694.67	18.203
694.99	15.601
695.31	18.367
695.63	13.265
695.95	15.633
696.27	16.209
696.59	16.845
696.91	17.416
697.23	16.927
697.56	18.510
697.88	15.991
698.20	18.630
698.52	17.040
698.84	20.631
699.16	17.619
699.48	16.500
699.80	18.296
700.12	18.388
700.44	16.201
700.76	13.120
701.08	16.279
701.40	13.595
701.72	12.963
702.04	15.064
702.36	17.169
702.68	13.772
703.00	15.362
703.32	12.894
703.64	18.235
703.96	16.860
704.28	14.497
704.60	12.975
704.91	11.746
705.23	14.887
705.55	11.486
705.87	13.311
706.19	13.889
706.51	15.625
706.83	15.738
707.15	18.471
707.47	17.080
707.79	15.979
708.11	15.013
708.43	17.456
708.74	18.182
709.06	15.042
709.38	15.805
709.70	18.437
710.02	16.258
710.34	14.521
710.66	13.651
710.98	14.511
711.29	11.290
711.61	12.780
711.93	11.803
712.25	18.272
712.57	16.028
712.89	15.468
713.20	19.244
713.52	13.433
713.84	13.523
714.16	13.115
714.48	15.238
714.80	14.154
715.11	16.138
715.43	21.386
715.75	14.953
716.07	14.098
716.39	13.043
716.70	17.770
717.02	13.333
717.34	18.702
717.66	13.693
717.97	11.475
718.29	9.244
718.61	11.905
718.93	16.487
719.24	15.074
719.56	13.585
719.88	14.182
720.20	14.607
720.51	16.165
720.83	17.671
721.15	11.475
721.46	14.510
721.78	14.943
722.10	14.000
722.42	13.223
722.73	12.351
723.05	14.056
723.37	14.902
723.68	16.599
724.00	19.106
724.32	12.757
724.63	14.523
724.95	13.636
725.27	11.404
725.58	13.362
725.90	17.460
726.22	22.509
726.53	18.251
726.85	14.902
727.16	16.165
727.48	15.385
727.80	12.295
728.11	13.866
728.43	11.570
728.74	19.531
729.06	14.015
729.38	16.732
729.69	11.811
730.01	12.598
730.32	13.147
730.64	15.018
730.96	21.642
731.27	20.714
731.59	15.434
731.90	17.178
732.22	18.405
732.53	18.212
732.85	14.094
733.16	14.855
733.48	17.073
733.80	13.879
734.11	18.276
734.43	14.286
734.74	17.507
735.06	17.555
735.37	19.266
735.69	10.000
736.00	16.498
736.32	18.874
736.63	11.724
736.95	11.232
737.26	18.874
737.58	18.705
737.89	20.789
738.21	15.038
738.52	18.846
738.83	18.359
739.15	14.957
739.46	16.935
739.78	18.531
740.09	14.685
740.41	15.734
740.72	21.168
741.04	11.508
741.35	12.554
741.66	16.667
741.98	10.476
742.29	20.188
742.61	17.112
742.92	17.757
743.23	11.404
743.55	11.712
743.86	18.667
744.18	13.333
744.49	16.256
744.80	10.152
745.12	17.526
745.43	14.573
745.74	13.592
746.06	17.561
746.37	14.978
746.68	12.935
747.00	14.136
747.31	14.904
747.62	16.590
747.94	13.974
748.25	11.163
748.56	12.857
748.88	7.065
749.19	14.554
749.50	22.059
749.82	16.000
750.13	18.943
750.44	14.228
750.75	16.000
751.07	17.857
751.38	13.653
751.69	15.649
752.01	15.769
752.32	13.230
752.63	16.923
752.94	15.873
753.26	17.391
753.57	20.982
753.88	18.966
754.19	14.938
754.51	13.672
754.82	16.601
755.13	18.519
755.44	13.636
755.75	15.638
756.07	14.458
756.38	17.578
756.69	15.523
757.00	17.422
757.31	18.456
757.63	18.069
757.94	16.185
758.25	17.733
758.56	21.563
758.87	17.330
759.18	17.000
759.50	16.014
759.81	8.394
760.12	12.162
760.43	20.712
760.74	21.250
761.05	19.663
761.36	22.156
761.67	18.047
761.99	19.355
762.30	16.304
762.61	20.755
762.92	20.628
763.23	17.062
763.54	16.444
763.85	16.878
764.16	15.510
764.47	19.492
764.78	19.101
765.10	19.065
765.41	18.710
765.72	19.497
766.03	10.601
766.34	18.421
766.65	17.004
766.96	12.500
767.27	13.021
767.58	15.116
767.89	13.548
768.20	13.497
768.51	12.022
768.82	21.622
769.13	9.500
769.44	14.035
769.75	19.048
770.06	19.725
770.37	15.023
770.68	16.146
770.99	11.881
771.30	16.019
771.61	18.981
771.92	12.554
772.23	17.290
772.54	12.766
772.85	10.651
773.16	16.463
773.47	23.494
773.78	17.582
774.09	8.000
774.39	11.728
774.70	12.752
775.01	1.449
775.32	12.687
775.63	4.959
775.94	15.789
776.25	20.714
776.56	9.016
776.87	15.044
777.18	17.699
777.48	3.636
777.79	3.478
778.10	4.587
778.41	9.322
778.72	9.091
779.03	16.418
779.34	20.301
779.65	21.569
779.95	12.319
780.26	6.803
780.57	-6.897
780.88	12.963
781.19	-2.020
781.50	4.000
781.80	16.340
782.11	10.256
782.42	15.663
782.73	3.650
783.04	19.595
783.34	12.879
783.65	12.403
783.96	21.138
784.27	17.949
784.57	13.008
784.88	16.260
785.19	9.649
785.50	-1.031
785.81	10.476
786.11	6.863
786.42	0.909
786.73	13.514
787.04	10.891
787.34	9.524
787.65	1.905
787.96	0.980
788.26	17.117
788.57	13.710
788.88	5.469
789.19	11.111
789.49	9.244
789.80	11.111
790.11	11.504
790.41	12.121
790.72	7.547
791.03	-5.556
791.33	-1.316
791.64	9.677
791.95	9.333
792.25	-2.857
792.56	7.317
792.87	18.367
793.17	-2.632
793.48	-6.757
793.79	-7.042
794.09	2.532
794.40	17.021
794.70	16.822
795.01	6.140
795.32	-5.455
795.62	5.357
795.93	-6.186
796.23	4.396
796.54	16.842
796.85	6.849
797.15	-5.556
797.46	-5.479
797.76	11.268
798.07	3.750
798.37	4.412
798.68	4.286
798.99	-2.857
799.29	1.316
799.60	10.000
799.90	-13.889
800.21	-20.313
800.51	-9.524
800.82	-1.639
801.12	1.754
801.43	-1.408
801.73	-8.475
802.04	11.475
802.34	0.000
802.65	-17.308
802.95	-1.852
803.26	-27.500
803.56	11.538
803.87	-10.526
804.17	8.065
804.48	7.692
804.78	-41.026
805.09	-4.651
805.39	-34.375
805.70	-1.887
806.00	28.070
806.30	27.027
806.61	2.941
806.91	12.346
807.22	4.000
807.52	-5.970
807.83	3.226
808.13	-6.349
808.43	-20.000
808.74	13.636
809.04	22.642
809.35	4.110
809.65	3.509
809.95	20.588
810.26	7.843
810.56	-18.000
810.86	-8.163
811.17	-34.286
811.47	9.615
811.77	-3.226
812.08	-36.842
812.38	-9.524
812.69	-4.348
812.99	-19.355
813.29	-21.429
813.59	-55.556
813.90	-25.532
814.20	-37.209
814.50	25.000
814.81	-6.667
815.11	-26.829
815.41	-23.333
815.72	-11.429
816.02	-27.778
816.32	2.564
816.62	-18.919
816.93	-35.294
817.23	-26.087
817.53	-2.941
817.84	2.941
818.14	-53.125
818.44	-48.276
818.74	-48.387
819.04	-22.222
819.35	-36.667
819.65	-72.000
819.95	3.333
820.25	-16.000
820.56	-23.684
820.86	-32.500
821.16	2.128
821.46	-17.241
821.76	-15.385
822.07	-25.000
822.37	-20.930
822.67	-20.000
822.97	-18.919
823.27	13.514
823.57	8.000
823.88	-2.703
824.18	-38.095
824.48	-26.923
824.78	-138.462
825.08	-73.913
825.38	-83.333
825.69	-12.500
825.99	-70.000
826.29	-5.405
826.59	-23.529
826.89	0.000
827.19	-31.429
827.49	-15.789
827.79	-28.125
828.09	-53.333
828.39	-34.783
828.70	-27.586
829.00	-27.586
829.30	-27.778
829.60	-6.250
829.90	16.667
830.20	-11.538
830.50	-90.476
830.80	-32.143
831.10	12.821
831.40	-19.048
831.70	-32.353
832.00	-20.833
832.30	-52.632
832.60	18.750
832.90	-91.667
833.20	-135.294
833.50	-133.333
833.80	-113.333
834.10	-45.000
834.40	-58.333
834.70	-27.778
835.00	-15.385
835.30	-50.000
835.60	-20.690
835.90	-122.222
836.20	-90.909
836.50	-108.333
836.80	-34.286
837.10	37.143
837.40	-88.235
837.70	-209.091
838.00	-16.667
838.30	-37.500
838.60	-4.762
838.90	-35.000
839.19	-39.130
839.49	-34.783
839.79	-77.778
840.09	-56.522
840.39	-36.364
840.69	-87.500
840.99	-21.053
841.29	-68.750
841.59	-92.857
841.88	-77.778
842.18	-41.667
842.48	-123.529
842.78	-3.448
843.08	-7.143
843.38	-76.923
843.68	-200.000
843.97	-84.615
844.27	-200.000
844.57	-280.000
844.87	4.000
845.17	-180.000
845.47	-64.286
845.76	-155.556
846.06	0.000
846.36	-525.000
846.66	-190.000
846.96	-15.789
847.25	-54.167
847.55	-108.333
847.85	6.667
848.15	-140.000
848.44	15.385
848.74	-15.789
849.04	866.667
849.34	-166.667
849.63	-100.000
849.93	0.000
850.23	-85.000
850.53	-28.571
850.82	-48.000
851.12	-73.684
851.42	-1050.000
851.71	-128.571
852.01	-116.667
852.31	-5.882
852.61	-26.667
852.90	-80.952
853.20	-200.000
853.50	-50.000
853.79	-73.684
854.09	-66.667
854.39	0.000
854.68	-26.087
854.98	-241.667
855.28	-3.448
855.57	-75.000
855.87	-50.000
856.17	-113.333
856.46	-24.138
856.76	-53.333
857.05	-76.471
857.35	-69.231
857.65	-118.182
857.94	-18.519
858.24	-121.429
858.53	-157.143
858.83	-91.667
859.13	-177.778
859.42	19.048
859.72	-262.500
860.01	-833.333
860.31	-162.500
860.60	-420.000
860.90	-144.444
861.20	-162.500
861.49	-157.143
861.79	-23.529
862.08	-650.000
862.38	-158.333
862.67	-46.154
862.97	35.294
863.26	-15.000
863.56	-88.235
863.85	633.333
864.15	-80.000
864.44	-130.769
864.74	35.000
865.03	-275.000
865.33	-216.667
865.62	-35.294
865.92	-700.000
866.21	-71.429
866.51	-175.000
866.80	-1400.000
867.10	-266.667
867.39	-64.706
867.69	21.739
867.98	-157.143
868.27	-100.000
868.57	-81.250
868.86	-181.818
869.16	0.000
869.45	-150.000
869.75	-200.000
870.04	1500.000
870.33	-33.333
870.63	-200.000
870.92	-111.111
871.22	-58.333
871.51	-90.909
871.80	-75.000
872.10	20.000
>>>>>End Processed Spectral Data<<<<<
