SpectraSuite Data File
++++++++++++++++++++++++++++++++++++
Date: Sat May 16 11:11:39 PDT 2015
User: schluterlab
Dark Spectrum Present: Yes
Reference Spectrum Present: Yes
Number of Sampled Component Spectra: 1
Spectrometers: USB2E3373
Integration Time (usec): 3000 (USB2E3373)
Spectra Averaged: 3 (USB2E3373)
Boxcar Smoothing: 0 (USB2E3373)
Correct for Electrical Dark: No (USB2E3373)
Strobe/Lamp Enabled: No (USB2E3373)
Correct for Detector Non-linearity: No (USB2E3373)
Correct for Stray Light: No (USB2E3373)
Number of Pixels in Processed Spectrum: 2048
>>>>>Begin Processed Spectral Data<<<<<
178.53	0.000
178.91	46.667
179.29	266.667
179.67	-400.000
180.04	53.846
180.42	600.000
180.80	125.000
181.18	50.000
181.56	-50.000
181.94	200.000
182.31	25.000
182.69	-15.385
183.07	-66.667
183.45	1450.000
183.83	333.333
184.20	-128.571
184.58	-12.500
184.96	-150.000
185.34	87.500
185.72	-675.000
186.09	133.333
186.47	-25.000
186.85	-50.000
187.23	-75.000
187.61	75.000
187.98	-262.500
188.36	-75.000
188.74	-62.500
189.12	300.000
189.49	242.857
189.87	83.333
190.25	275.000
190.63	-71.429
191.00	-100.000
191.38	160.000
191.76	60.000
192.14	340.000
192.51	-60.000
192.89	-66.667
193.27	0.000
193.65	55.556
194.02	-171.429
194.40	333.333
194.78	-60.000
195.15	-400.000
195.53	0.000
195.91	-150.000
196.29	120.000
196.66	-133.333
197.04	2100.000
197.42	150.000
197.79	126.667
198.17	-333.333
198.55	-50.000
198.92	-300.000
199.30	150.000
199.68	-350.000
200.05	-111.111
200.43	-88.889
200.81	-1500.000
201.18	-100.000
201.56	28.571
201.94	-46.667
202.31	22.727
202.69	80.000
203.07	-60.000
203.44	433.333
203.82	-200.000
204.19	-125.000
204.57	-225.000
204.95	-300.000
205.32	-25.000
205.70	800.000
206.08	-1100.000
206.45	-5.556
206.83	-700.000
207.20	-50.000
207.58	-166.667
207.96	-100.000
208.33	-75.000
208.71	-22.222
209.08	130.000
209.46	-242.857
209.84	100.000
210.21	0.000
210.59	50.000
210.96	500.000
211.34	0.000
211.71	-33.333
212.09	125.000
212.46	1150.000
212.84	-1400.000
213.22	400.000
213.59	83.333
213.97	-11.111
214.34	100.000
214.72	20.000
215.09	33.333
215.47	-100.000
215.84	70.000
216.22	90.000
216.59	0.000
216.97	-325.000
217.34	350.000
217.72	-100.000
218.09	-83.333
218.47	-185.714
218.84	-28.571
219.22	0.000
219.59	0.000
219.97	228.571
220.34	325.000
220.72	150.000
221.09	-84.615
221.47	0.000
221.84	466.667
222.22	-250.000
222.59	400.000
222.97	-112.500
223.34	50.000
223.72	33.333
224.09	-57.143
224.46	-225.000
224.84	42.857
225.21	-42.857
225.59	81.818
225.96	12.500
226.34	171.429
226.71	-100.000
227.08	0.000
227.46	500.000
227.83	42.857
228.21	-100.000
228.58	-150.000
228.95	-12.500
229.33	-100.000
229.70	-60.000
230.08	-350.000
230.45	41.667
230.82	-50.000
231.20	500.000
231.57	200.000
231.95	1100.000
232.32	80.952
232.69	-100.000
233.07	-185.714
233.44	-550.000
233.81	40.000
234.19	11.111
234.56	56.250
234.93	28.125
235.31	-200.000
235.68	-100.000
236.05	-11.765
236.43	-31.818
236.80	3.226
237.17	37.500
237.55	-14.286
237.92	-68.182
238.29	11.429
238.67	23.529
239.04	22.222
239.41	-9.677
239.79	-33.333
240.16	-14.286
240.53	7.273
240.91	35.897
241.28	30.909
241.65	24.615
242.02	1.639
242.40	0.000
242.77	15.152
243.14	15.254
243.51	-2.857
243.89	10.127
244.26	20.225
244.63	27.368
245.00	20.000
245.38	16.102
245.75	17.699
246.12	20.800
246.49	18.898
246.87	3.252
247.24	10.169
247.61	17.797
247.98	14.789
248.36	15.385
248.73	17.722
249.10	15.924
249.47	21.053
249.84	18.750
250.22	17.857
250.59	9.605
250.96	18.848
251.33	24.171
251.70	11.538
252.08	20.379
252.45	14.692
252.82	15.714
253.19	19.149
253.56	18.952
253.94	13.924
254.31	18.884
254.68	19.106
255.05	17.742
255.42	18.651
255.79	15.054
256.16	19.216
256.54	18.015
256.91	18.939
257.28	15.018
257.65	16.667
258.02	21.069
258.39	20.067
258.76	15.203
259.14	17.901
259.51	17.049
259.88	18.293
260.25	21.739
260.62	18.328
260.99	14.837
261.36	17.378
261.73	19.653
262.10	16.667
262.47	19.658
262.85	18.571
263.22	13.467
263.59	17.846
263.96	17.101
264.33	16.531
264.70	16.298
265.07	19.505
265.44	16.279
265.81	16.537
266.18	15.696
266.55	18.873
266.92	17.380
267.29	17.918
267.66	19.506
268.03	21.739
268.40	16.667
268.77	17.590
269.14	17.633
269.51	18.391
269.88	16.055
270.25	14.918
270.62	17.620
270.99	17.793
271.36	18.881
271.73	21.300
272.10	20.137
272.47	15.111
272.84	18.222
273.21	18.807
273.58	16.044
273.95	18.640
274.32	17.195
274.69	20.569
275.06	20.450
275.43	17.634
275.80	16.497
276.17	16.946
276.54	18.941
276.91	14.815
277.28	18.458
277.65	19.421
278.02	18.998
278.39	18.271
278.76	18.127
279.13	17.787
279.50	16.302
279.87	16.490
280.23	20.040
280.60	15.905
280.97	15.534
281.34	16.248
281.71	18.846
282.08	17.944
282.45	14.868
282.82	15.891
283.19	16.545
283.56	18.132
283.92	17.314
284.29	17.658
284.66	17.086
285.03	18.182
285.40	17.897
285.77	17.895
286.14	17.690
286.51	17.940
286.87	17.423
287.24	17.577
287.61	15.702
287.98	16.811
288.35	16.033
288.72	15.110
289.08	13.220
289.45	16.498
289.82	15.225
290.19	17.077
290.56	14.050
290.93	14.785
291.29	15.397
291.66	15.459
292.03	17.268
292.40	15.060
292.77	14.752
293.13	17.398
293.50	14.264
293.87	17.178
294.24	14.932
294.60	15.152
294.97	13.657
295.34	13.037
295.71	13.244
296.08	12.903
296.44	14.020
296.81	15.100
297.18	13.803
297.55	15.960
297.91	15.202
298.28	12.329
298.65	13.668
299.02	15.374
299.38	13.503
299.75	13.859
300.12	14.615
300.48	13.171
300.85	13.237
301.22	13.713
301.59	13.004
301.95	13.854
302.32	12.125
302.69	12.852
303.05	12.943
303.42	12.625
303.79	12.679
304.15	12.915
304.52	12.485
304.89	12.161
305.25	13.065
305.62	11.633
305.99	14.370
306.35	13.319
306.72	12.528
307.09	15.096
307.45	12.032
307.82	11.397
308.19	13.311
308.55	11.547
308.92	11.708
309.29	11.784
309.65	13.786
310.02	11.555
310.38	12.216
310.75	12.910
311.12	12.707
311.48	12.735
311.85	10.711
312.22	11.740
312.58	12.920
312.95	11.723
313.31	12.687
313.68	12.764
314.05	13.650
314.41	11.167
314.78	11.688
315.14	10.958
315.51	10.740
315.87	13.746
316.24	11.467
316.61	12.284
316.97	12.836
317.34	12.235
317.70	11.410
318.07	12.593
318.43	11.142
318.80	13.803
319.16	11.445
319.53	11.936
319.89	12.700
320.26	13.039
320.62	11.250
320.99	12.836
321.35	11.429
321.72	12.794
322.08	11.573
322.45	11.287
322.81	12.104
323.18	11.143
323.54	11.368
323.91	11.677
324.27	12.072
324.64	11.700
325.00	11.780
325.37	12.670
325.73	13.561
326.10	11.160
326.46	12.785
326.83	11.915
327.19	12.177
327.56	13.032
327.92	11.555
328.29	12.208
328.65	10.818
329.01	13.163
329.38	11.418
329.74	13.187
330.11	12.058
330.47	12.625
330.84	12.191
331.20	11.913
331.56	10.939
331.93	12.433
332.29	12.603
332.66	11.940
333.02	11.493
333.38	12.545
333.75	12.734
334.11	12.533
334.48	11.033
334.84	12.861
335.20	11.525
335.57	11.733
335.93	11.191
336.29	12.489
336.66	11.013
337.02	11.982
337.38	10.695
337.75	11.853
338.11	12.522
338.47	10.854
338.84	10.889
339.20	11.511
339.56	13.547
339.93	11.376
340.29	10.629
340.65	11.626
341.02	11.720
341.38	12.300
341.74	11.516
342.11	10.836
342.47	11.416
342.83	10.160
343.20	10.504
343.56	9.959
343.92	11.519
344.28	11.690
344.65	10.479
345.01	11.176
345.37	11.711
345.73	10.311
346.10	9.730
346.46	10.642
346.82	10.585
347.19	10.353
347.55	10.915
347.91	11.496
348.27	9.944
348.63	10.985
349.00	11.695
349.36	9.602
349.72	11.226
350.08	12.269
350.45	10.875
350.81	11.306
351.17	10.450
351.53	10.342
351.89	9.620
352.26	11.628
352.62	11.214
352.98	10.839
353.34	10.392
353.70	10.193
354.07	10.936
354.43	11.067
354.79	11.490
355.15	9.904
355.51	10.000
355.87	10.593
356.24	9.929
356.60	11.039
356.96	10.085
357.32	10.689
357.68	10.881
358.04	11.316
358.40	10.518
358.77	10.510
359.13	10.252
359.49	10.884
359.85	10.747
360.21	10.426
360.57	10.843
360.93	11.037
361.29	10.762
361.66	9.832
362.02	10.281
362.38	10.565
362.74	11.209
363.10	9.828
363.46	10.897
363.82	10.204
364.18	10.347
364.54	11.937
364.90	10.482
365.26	10.485
365.62	10.549
365.98	11.522
366.35	11.056
366.71	10.571
367.07	10.374
367.43	11.325
367.79	10.653
368.15	10.597
368.51	10.839
368.87	11.332
369.23	11.158
369.59	11.181
369.95	10.218
370.31	11.392
370.67	10.412
371.03	10.714
371.39	9.901
371.75	11.731
372.11	11.478
372.47	11.135
372.83	11.544
373.19	10.929
373.55	10.837
373.91	10.313
374.27	11.157
374.63	10.766
374.99	10.779
375.35	10.431
375.71	11.681
376.07	10.130
376.42	10.000
376.78	10.458
377.14	10.712
377.50	11.734
377.86	10.598
378.22	11.369
378.58	11.180
378.94	10.543
379.30	10.664
379.66	11.597
380.02	11.171
380.38	10.755
380.74	10.785
381.09	11.775
381.45	11.098
381.81	11.676
382.17	10.902
382.53	11.307
382.89	11.962
383.25	12.041
383.61	11.203
383.97	11.574
384.32	12.516
384.68	12.152
385.04	11.896
385.40	11.564
385.76	11.463
386.12	12.555
386.48	12.500
386.83	13.067
387.19	12.732
387.55	11.811
387.91	12.092
388.27	11.218
388.62	12.800
388.98	12.417
389.34	12.179
389.70	11.815
390.06	11.933
390.42	12.628
390.77	12.555
391.13	12.609
391.49	11.915
391.85	12.594
392.20	12.257
392.56	12.523
392.92	13.063
393.28	12.801
393.64	12.628
393.99	11.877
394.35	13.078
394.71	13.033
395.07	13.685
395.42	12.336
395.78	12.508
396.14	13.146
396.50	12.355
396.85	12.832
397.21	12.697
397.57	13.313
397.92	13.173
398.28	13.500
398.64	13.385
399.00	13.708
399.35	12.401
399.71	13.298
400.07	13.672
400.42	13.747
400.78	12.999
401.14	12.934
401.49	12.559
401.85	13.057
402.21	13.170
402.57	13.167
402.92	13.090
403.28	13.174
403.63	12.043
403.99	13.424
404.35	13.164
404.70	12.932
405.06	13.552
405.42	12.915
405.77	13.292
406.13	12.834
406.49	13.901
406.84	12.897
407.20	13.604
407.55	13.173
407.91	13.212
408.27	13.051
408.62	13.410
408.98	12.856
409.34	12.553
409.69	13.170
410.05	13.584
410.40	12.814
410.76	13.159
411.11	12.656
411.47	13.427
411.83	13.875
412.18	12.995
412.54	12.935
412.89	13.609
413.25	12.220
413.60	12.880
413.96	13.432
414.31	13.456
414.67	13.333
415.03	13.325
415.38	13.338
415.74	13.144
416.09	12.980
416.45	12.698
416.80	13.719
417.16	12.824
417.51	14.051
417.87	13.463
418.22	13.717
418.58	13.607
418.93	13.734
419.29	13.927
419.64	12.626
420.00	14.338
420.35	13.010
420.71	13.445
421.06	13.964
421.42	12.881
421.77	13.735
422.12	14.382
422.48	13.362
422.83	13.781
423.19	13.252
423.54	14.063
423.90	13.129
424.25	12.783
424.61	13.752
424.96	13.985
425.31	14.366
425.67	13.696
426.02	13.196
426.38	14.338
426.73	14.202
427.09	14.338
427.44	13.977
427.79	12.965
428.15	14.363
428.50	14.135
428.85	14.209
429.21	13.558
429.56	13.854
429.92	14.228
430.27	14.257
430.62	14.107
430.98	13.225
431.33	14.088
431.68	13.458
432.04	15.053
432.39	14.758
432.74	14.448
433.10	14.181
433.45	13.702
433.80	14.166
434.16	14.293
434.51	14.411
434.86	14.704
435.22	14.254
435.57	14.565
435.92	14.127
436.28	15.193
436.63	14.132
436.98	14.147
437.34	14.589
437.69	14.527
438.04	14.237
438.39	14.501
438.75	14.377
439.10	14.547
439.45	13.941
439.81	14.277
440.16	14.310
440.51	15.118
440.86	14.170
441.22	14.594
441.57	14.842
441.92	14.987
442.27	14.123
442.63	15.290
442.98	13.939
443.33	15.431
443.68	13.966
444.03	14.931
444.39	14.733
444.74	14.923
445.09	14.857
445.44	14.856
445.79	14.278
446.15	15.279
446.50	14.916
446.85	14.418
447.20	14.760
447.55	14.862
447.91	15.216
448.26	14.358
448.61	14.488
448.96	15.126
449.31	14.374
449.66	14.768
450.02	14.792
450.37	14.435
450.72	14.237
451.07	15.273
451.42	14.498
451.77	14.961
452.12	16.150
452.47	15.239
452.83	14.735
453.18	15.686
453.53	15.299
453.88	15.191
454.23	15.478
454.58	15.786
454.93	15.302
455.28	15.233
455.63	15.049
455.98	15.843
456.34	13.787
456.69	15.009
457.04	15.673
457.39	14.713
457.74	14.589
458.09	15.487
458.44	16.109
458.79	15.415
459.14	14.946
459.49	16.163
459.84	15.795
460.19	15.513
460.54	15.124
460.89	15.415
461.24	15.118
461.59	15.651
461.94	15.468
462.29	15.188
462.64	14.756
462.99	16.064
463.34	15.733
463.69	14.695
464.04	14.763
464.39	15.173
464.74	16.076
465.09	14.732
465.44	15.736
465.79	16.074
466.14	15.362
466.49	15.141
466.84	15.606
467.19	15.648
467.54	14.430
467.89	15.536
468.24	15.143
468.59	15.116
468.94	15.048
469.29	14.945
469.64	16.240
469.99	16.340
470.34	15.898
470.68	16.497
471.03	16.242
471.38	15.208
471.73	14.755
472.08	15.797
472.43	15.380
472.78	16.667
473.13	15.706
473.48	15.061
473.83	15.757
474.17	15.924
474.52	16.368
474.87	16.026
475.22	15.693
475.57	15.444
475.92	15.713
476.27	15.143
476.61	15.437
476.96	15.428
477.31	15.662
477.66	16.104
478.01	15.505
478.36	15.506
478.70	16.177
479.05	16.171
479.40	16.062
479.75	15.545
480.10	15.724
480.45	14.990
480.79	15.844
481.14	16.056
481.49	15.344
481.84	15.395
482.19	16.172
482.53	15.720
482.88	15.377
483.23	15.822
483.58	16.327
483.92	15.528
484.27	15.286
484.62	14.860
484.97	15.238
485.31	15.200
485.66	15.566
486.01	14.779
486.36	14.859
486.70	15.530
487.05	14.741
487.40	15.251
487.75	15.553
488.09	15.009
488.44	15.156
488.79	15.210
489.13	15.709
489.48	16.150
489.83	16.201
490.17	16.108
490.52	15.897
490.87	15.843
491.22	15.740
491.56	16.019
491.91	15.840
492.26	16.085
492.60	15.652
492.95	16.468
493.30	15.626
493.64	16.220
493.99	16.826
494.34	16.190
494.68	16.339
495.03	15.679
495.37	15.487
495.72	16.503
496.07	16.518
496.41	16.258
496.76	16.073
497.11	16.627
497.45	16.331
497.80	15.508
498.14	16.994
498.49	15.269
498.84	16.117
499.18	17.641
499.53	16.220
499.87	15.734
500.22	16.373
500.56	15.908
500.91	16.256
501.26	16.497
501.60	15.840
501.95	16.570
502.29	16.249
502.64	16.124
502.98	16.052
503.33	16.071
503.67	16.236
504.02	15.017
504.36	16.765
504.71	15.704
505.06	16.575
505.40	17.265
505.75	16.413
506.09	16.886
506.44	16.692
506.78	16.407
507.13	16.272
507.47	16.954
507.82	16.675
508.16	17.409
508.51	16.177
508.85	16.770
509.19	15.908
509.54	16.543
509.88	17.234
510.23	16.981
510.57	16.878
510.92	17.078
511.26	16.321
511.61	16.523
511.95	16.703
512.30	16.712
512.64	16.416
512.98	16.997
513.33	17.573
513.67	16.639
514.02	16.779
514.36	17.285
514.70	17.035
515.05	17.553
515.39	17.301
515.74	18.266
516.08	17.637
516.42	17.620
516.77	17.331
517.11	17.048
517.46	17.644
517.80	17.750
518.14	17.029
518.49	17.035
518.83	16.914
519.17	17.525
519.52	17.235
519.86	17.085
520.20	17.665
520.55	17.415
520.89	16.844
521.23	17.766
521.58	17.367
521.92	18.049
522.26	17.397
522.61	16.920
522.95	17.294
523.29	17.994
523.64	17.364
523.98	16.614
524.32	17.976
524.66	17.019
525.01	17.148
525.35	17.912
525.69	17.762
526.04	17.363
526.38	17.823
526.72	17.433
527.06	17.969
527.41	17.492
527.75	17.360
528.09	17.803
528.43	17.705
528.78	18.279
529.12	18.054
529.46	17.719
529.80	17.495
530.15	18.158
530.49	16.947
530.83	19.188
531.17	17.441
531.51	17.683
531.86	17.248
532.20	17.544
532.54	18.850
532.88	17.391
533.22	17.848
533.57	18.342
533.91	17.104
534.25	16.782
534.59	16.989
534.93	17.610
535.27	16.677
535.62	17.519
535.96	17.259
536.30	17.277
536.64	17.331
536.98	18.008
537.32	17.139
537.66	17.108
538.01	17.663
538.35	17.027
538.69	16.979
539.03	16.520
539.37	17.764
539.71	17.879
540.05	17.683
540.39	17.867
540.73	17.830
541.07	18.238
541.42	17.083
541.76	16.611
542.10	17.556
542.44	16.989
542.78	17.164
543.12	17.108
543.46	17.055
543.80	16.789
544.14	17.663
544.48	17.388
544.82	17.862
545.16	17.773
545.50	15.814
545.84	17.803
546.18	17.337
546.52	17.425
546.86	17.664
547.20	17.229
547.54	17.011
547.88	17.452
548.22	16.252
548.56	16.900
548.90	18.127
549.24	17.239
549.58	17.149
549.92	17.527
550.26	19.003
550.60	18.492
550.94	17.810
551.28	16.855
551.62	18.316
551.96	17.656
552.30	17.700
552.64	17.382
552.98	18.150
553.32	17.460
553.66	18.745
554.00	18.479
554.34	17.473
554.68	17.178
555.02	17.438
555.36	17.901
555.69	17.550
556.03	16.912
556.37	18.279
556.71	17.323
557.05	17.664
557.39	16.704
557.73	18.673
558.07	18.237
558.41	17.651
558.75	18.175
559.08	17.665
559.42	18.300
559.76	18.021
560.10	18.270
560.44	18.642
560.78	17.606
561.12	17.736
561.45	18.630
561.79	18.049
562.13	17.812
562.47	17.787
562.81	17.185
563.15	17.005
563.48	18.590
563.82	17.512
564.16	16.565
564.50	17.406
564.84	17.063
565.17	16.512
565.51	17.862
565.85	18.391
566.19	18.577
566.52	17.547
566.86	17.636
567.20	18.523
567.54	17.956
567.88	17.085
568.21	17.170
568.55	16.967
568.89	16.849
569.23	16.705
569.56	15.931
569.90	16.562
570.24	15.971
570.57	16.098
570.91	16.253
571.25	16.375
571.59	16.422
571.92	16.488
572.26	15.638
572.60	15.824
572.93	15.732
573.27	15.793
573.61	15.314
573.95	15.939
574.28	15.717
574.62	15.963
574.96	15.653
575.29	15.701
575.63	15.477
575.97	15.318
576.30	15.264
576.64	15.744
576.98	15.427
577.31	15.280
577.65	15.768
577.98	15.632
578.32	15.155
578.66	15.432
578.99	15.644
579.33	15.926
579.67	15.394
580.00	15.501
580.34	15.313
580.67	15.396
581.01	15.356
581.35	15.443
581.68	15.477
582.02	15.752
582.35	15.373
582.69	15.516
583.02	15.760
583.36	15.586
583.70	15.515
584.03	15.167
584.37	15.399
584.70	15.252
585.04	15.114
585.37	15.179
585.71	16.014
586.04	15.451
586.38	15.183
586.72	15.868
587.05	15.916
587.39	15.733
587.72	15.928
588.06	16.369
588.39	15.722
588.73	15.782
589.06	16.176
589.40	16.386
589.73	15.899
590.07	16.497
590.40	16.494
590.73	15.994
591.07	16.025
591.40	16.378
591.74	16.725
592.07	16.306
592.41	16.688
592.74	15.757
593.08	16.581
593.41	16.086
593.75	15.628
594.08	15.996
594.41	17.079
594.75	16.119
595.08	15.902
595.42	16.329
595.75	16.354
596.09	16.220
596.42	16.776
596.75	16.257
597.09	16.474
597.42	16.063
597.75	16.165
598.09	16.403
598.42	16.438
598.76	15.698
599.09	16.377
599.42	15.994
599.76	16.233
600.09	16.489
600.42	16.255
600.76	16.384
601.09	15.686
601.42	15.433
601.76	16.316
602.09	16.319
602.42	16.132
602.76	16.244
603.09	15.887
603.42	15.874
603.76	15.796
604.09	16.340
604.42	15.612
604.76	15.831
605.09	15.552
605.42	16.401
605.75	16.128
606.09	16.438
606.42	15.375
606.75	16.273
607.09	16.983
607.42	16.373
607.75	15.806
608.08	16.991
608.42	16.320
608.75	16.589
609.08	16.366
609.41	15.197
609.75	15.895
610.08	16.814
610.41	15.952
610.74	16.441
611.07	16.633
611.41	16.188
611.74	17.429
612.07	17.454
612.40	16.311
612.73	16.694
613.07	15.795
613.40	16.804
613.73	16.785
614.06	16.474
614.39	17.136
614.72	16.145
615.06	16.848
615.39	16.332
615.72	17.110
616.05	16.565
616.38	17.295
616.71	16.517
617.05	16.466
617.38	17.214
617.71	15.602
618.04	16.894
618.37	17.107
618.70	17.405
619.03	17.129
619.36	18.111
619.69	16.726
620.03	16.942
620.36	16.034
620.69	17.516
621.02	17.580
621.35	17.258
621.68	17.049
622.01	17.880
622.34	16.460
622.67	16.953
623.00	16.450
623.33	18.284
623.66	16.765
623.99	17.218
624.32	16.815
624.65	17.366
624.99	16.878
625.32	17.440
625.65	17.094
625.98	16.119
626.31	17.537
626.64	15.983
626.97	17.209
627.30	17.191
627.63	15.717
627.96	17.406
628.29	17.279
628.62	17.956
628.95	17.421
629.28	18.703
629.61	16.683
629.94	17.864
630.26	18.290
630.59	18.593
630.92	17.918
631.25	18.952
631.58	18.095
631.91	17.553
632.24	17.667
632.57	19.000
632.90	18.046
633.23	17.290
633.56	17.895
633.89	19.693
634.22	19.362
634.55	18.029
634.88	18.380
635.20	17.228
635.53	18.193
635.86	16.625
636.19	18.559
636.52	17.802
636.85	17.329
637.18	17.250
637.51	17.472
637.83	17.044
638.16	18.026
638.49	18.483
638.82	18.662
639.15	19.196
639.48	16.732
639.81	18.811
640.13	17.432
640.46	19.516
640.79	19.048
641.12	18.336
641.45	18.364
641.77	17.665
642.10	18.278
642.43	19.120
642.76	18.740
643.09	18.254
643.41	18.889
643.74	17.170
644.07	17.629
644.40	18.963
644.73	18.812
645.05	21.035
645.38	19.868
645.71	19.931
646.04	20.504
646.36	17.103
646.69	20.069
647.02	18.592
647.35	18.953
647.67	17.701
648.00	19.508
648.33	19.562
648.66	17.258
648.98	20.860
649.31	17.692
649.64	20.156
649.96	18.838
650.29	17.377
650.62	17.728
650.94	18.550
651.27	17.678
651.60	16.263
651.92	18.664
652.25	19.866
652.58	15.162
652.90	17.175
653.23	18.387
653.56	18.395
653.88	16.721
654.21	20.302
654.54	19.601
654.86	17.496
655.19	16.332
655.52	16.100
655.84	15.146
656.17	16.347
656.49	21.969
656.82	22.145
657.15	16.594
657.47	12.439
657.80	9.556
658.13	10.825
658.45	14.164
658.78	14.016
659.10	13.798
659.43	13.411
659.75	13.926
660.08	14.115
660.41	14.098
660.73	16.062
661.06	17.101
661.38	18.214
661.71	17.591
662.03	18.548
662.36	20.043
662.68	18.776
663.01	20.382
663.33	17.460
663.66	18.670
663.98	16.964
664.31	15.884
664.63	18.142
664.96	19.306
665.28	16.703
665.61	17.548
665.93	17.078
666.26	19.636
666.58	16.424
666.91	15.590
667.23	17.325
667.56	17.007
667.88	19.231
668.21	15.207
668.53	17.056
668.86	19.169
669.18	17.123
669.50	16.822
669.83	16.302
670.15	19.283
670.48	17.523
670.80	17.084
671.13	15.576
671.45	15.991
671.77	17.773
672.10	17.949
672.42	17.159
672.75	16.909
673.07	14.414
673.39	18.944
673.72	18.110
674.04	16.773
674.37	15.052
674.69	19.672
675.01	16.170
675.34	16.703
675.66	17.063
675.98	17.841
676.31	18.778
676.63	15.172
676.95	17.035
677.28	16.705
677.60	17.647
677.92	20.485
678.25	20.131
678.57	19.342
678.89	14.046
679.22	16.562
679.54	18.540
679.86	16.000
680.18	16.160
680.51	15.084
680.83	19.048
681.15	18.112
681.48	21.501
681.80	16.935
682.12	15.493
682.44	18.075
682.77	16.450
683.09	17.820
683.41	17.699
683.73	13.699
684.06	19.140
684.38	19.247
684.70	16.461
685.02	15.748
685.34	17.544
685.67	16.098
685.99	12.287
686.31	17.415
686.63	14.539
686.96	14.048
687.28	14.258
687.60	17.578
687.92	11.089
688.24	15.945
688.56	16.633
688.89	16.239
689.21	18.162
689.53	18.621
689.85	16.036
690.17	15.471
690.49	16.628
690.82	14.699
691.14	15.330
691.46	17.738
691.78	16.079
692.10	14.619
692.42	15.556
692.74	18.670
693.06	14.831
693.39	16.779
693.71	16.930
694.03	19.222
694.35	16.253
694.67	13.475
694.99	13.811
695.31	18.112
695.63	13.010
695.95	14.888
696.27	15.461
696.59	18.449
696.91	19.101
697.23	16.146
697.56	13.702
697.88	15.541
698.20	15.846
698.52	15.919
698.84	16.990
699.16	17.619
699.48	14.000
699.80	14.286
700.12	16.373
700.44	13.128
700.76	14.869
701.08	16.860
701.40	17.523
701.72	14.815
702.04	17.628
702.36	19.578
702.68	15.868
703.00	15.072
703.32	12.321
703.64	21.176
703.96	18.023
704.28	16.272
704.60	15.190
704.91	15.238
705.23	17.152
705.55	17.230
705.87	22.867
706.19	17.014
706.51	14.236
706.83	16.721
707.15	15.605
707.47	17.906
707.79	13.402
708.11	12.977
708.43	15.960
708.74	14.805
709.06	16.156
709.38	14.655
709.70	16.250
710.02	19.939
710.34	14.851
710.66	12.381
710.98	15.457
711.29	11.290
711.61	11.182
711.93	15.082
712.25	14.618
712.57	16.725
712.89	15.827
713.20	14.777
713.52	15.672
713.84	17.794
714.16	15.410
714.48	14.286
714.80	14.154
715.11	17.579
715.43	17.470
715.75	17.445
716.07	16.721
716.39	17.391
716.70	20.557
717.02	18.519
717.34	19.847
717.66	14.938
717.97	17.213
718.29	20.168
718.61	18.254
718.93	21.147
719.24	10.662
719.56	13.585
719.88	14.909
720.20	14.607
720.51	21.429
720.83	15.663
721.15	11.066
721.46	17.255
721.78	18.774
722.10	19.600
722.42	9.504
722.73	16.335
723.05	20.482
723.37	21.176
723.68	12.146
724.00	15.854
724.32	17.284
724.63	16.598
724.95	18.595
725.27	7.456
725.58	15.086
725.90	12.698
726.22	19.557
726.53	12.548
726.85	11.765
727.16	16.541
727.48	14.231
727.80	13.525
728.11	12.605
728.43	16.529
728.74	17.578
729.06	17.424
729.38	16.732
729.69	14.961
730.01	18.898
730.32	16.335
730.64	17.582
730.96	15.672
731.27	16.071
731.59	15.756
731.90	15.644
732.22	16.258
732.53	15.563
732.85	14.430
733.16	16.304
733.48	14.983
733.80	11.388
734.11	16.897
734.43	17.347
734.74	13.947
735.06	14.107
735.37	14.985
735.69	14.194
736.00	14.141
736.32	16.225
736.63	13.448
736.95	14.130
737.26	14.570
737.58	15.108
737.89	14.695
738.21	11.278
738.52	11.923
738.83	13.281
739.15	12.393
739.46	14.113
739.78	14.685
740.09	14.685
740.41	9.441
740.72	18.613
741.04	13.095
741.35	11.255
741.66	16.667
741.98	12.381
742.29	20.657
742.61	13.369
742.92	16.822
743.23	13.596
743.55	19.820
743.86	17.778
744.18	14.286
744.49	20.690
744.80	16.244
745.12	17.526
745.43	11.558
745.74	14.563
746.06	15.122
746.37	19.824
746.68	21.891
747.00	15.183
747.31	13.942
747.62	8.295
747.94	12.227
748.25	13.023
748.56	19.524
748.88	5.978
749.19	19.718
749.50	21.569
749.82	13.778
750.13	18.943
750.44	9.756
750.75	17.200
751.07	14.286
751.38	13.653
751.69	12.214
752.01	15.769
752.32	11.673
752.63	11.923
752.94	17.063
753.26	13.913
753.57	16.964
753.88	16.379
754.19	13.693
754.51	15.625
754.82	11.462
755.13	16.049
755.44	11.983
755.75	14.815
756.07	12.450
756.38	12.109
756.69	16.968
757.00	16.028
757.31	17.114
757.63	12.150
757.94	15.607
758.25	14.244
758.56	20.216
758.87	11.932
759.18	6.667
759.50	15.658
759.81	12.044
760.12	12.838
760.43	16.828
760.74	14.375
761.05	15.730
761.36	12.275
761.67	13.018
761.99	15.161
762.30	18.841
762.61	13.962
762.92	18.386
763.23	15.640
763.54	12.444
763.85	16.878
764.16	14.694
764.47	11.017
764.78	14.232
765.10	23.381
765.41	13.226
765.72	15.723
766.03	9.187
766.34	11.654
766.65	11.336
766.96	10.000
767.27	15.625
767.58	9.302
767.89	15.484
768.20	18.405
768.51	16.940
768.82	15.135
769.13	16.000
769.44	14.035
769.75	12.554
770.06	15.596
770.37	13.615
770.68	10.937
770.99	14.356
771.30	13.592
771.61	17.130
771.92	10.390
772.23	9.813
772.54	17.021
772.85	11.834
773.16	15.854
773.47	10.843
773.78	22.527
774.09	10.667
774.39	14.198
774.70	16.107
775.01	13.768
775.32	10.448
775.63	5.785
775.94	16.541
776.25	12.857
776.56	13.934
776.87	23.009
777.18	12.389
777.48	0.000
777.79	17.391
778.10	13.761
778.41	12.712
778.72	11.570
779.03	15.672
779.34	15.789
779.65	18.301
779.95	25.362
780.26	10.884
780.57	0.000
780.88	10.185
781.19	1.010
781.50	4.800
781.80	13.072
782.11	8.974
782.42	15.060
782.73	2.190
783.04	14.189
783.34	16.667
783.65	12.403
783.96	8.943
784.27	15.385
784.57	13.008
784.88	11.382
785.19	10.526
785.50	-15.464
785.81	9.524
786.11	18.627
786.42	11.818
786.73	13.514
787.04	14.851
787.34	1.905
787.65	13.333
787.96	0.980
788.26	18.919
788.57	17.742
788.88	10.156
789.19	12.821
789.49	10.084
789.80	17.094
790.11	14.159
790.41	7.071
790.72	19.811
791.03	-8.333
791.33	10.526
791.64	21.505
791.95	4.000
792.25	7.143
792.56	0.000
792.87	16.327
793.17	21.053
793.48	-5.405
793.79	-5.634
794.09	12.658
794.40	12.766
794.70	14.019
795.01	-2.632
795.32	7.273
795.62	10.714
795.93	6.186
796.23	14.286
796.54	20.000
796.85	5.479
797.15	5.556
797.46	13.699
797.76	7.042
798.07	11.250
798.37	20.588
798.68	31.429
798.99	18.571
799.29	18.421
799.60	21.667
799.90	4.167
800.21	12.500
800.51	17.460
800.82	8.197
801.12	8.772
801.43	-11.268
801.73	5.085
802.04	16.393
802.34	-3.636
802.65	21.154
802.95	-5.556
803.26	-10.000
803.56	19.231
803.87	-23.684
804.17	17.742
804.48	12.308
804.78	-2.564
805.09	18.605
805.39	-37.500
805.70	-11.321
806.00	17.544
806.30	21.622
806.61	5.882
806.91	4.938
807.22	10.667
807.52	4.478
807.83	-11.290
808.13	7.937
808.43	5.455
808.74	7.576
809.04	15.094
809.35	13.699
809.65	0.000
809.95	22.059
810.26	15.686
810.56	-16.000
810.86	-10.204
811.17	20.000
811.47	11.538
811.77	12.903
812.08	-21.053
812.38	19.048
812.69	-8.696
812.99	-3.226
813.29	-7.143
813.59	-48.148
813.90	8.511
814.20	-23.256
814.50	2.083
814.81	0.000
815.11	9.756
815.41	-30.000
815.72	11.429
816.02	0.000
816.32	12.821
816.62	0.000
816.93	-11.765
817.23	-2.174
817.53	26.471
817.84	-2.941
818.14	-15.625
818.44	-6.897
818.74	-3.226
819.04	-29.630
819.35	13.333
819.65	-36.000
819.95	-16.667
820.25	12.000
820.56	5.263
820.86	0.000
821.16	8.511
821.46	8.621
821.76	-2.564
822.07	-42.500
822.37	-6.977
822.67	-43.333
822.97	2.703
823.27	10.811
823.57	8.000
823.88	13.514
824.18	-19.048
824.48	19.231
824.78	-169.231
825.08	8.696
825.38	-50.000
825.69	-25.000
825.99	-40.000
826.29	-10.811
826.59	-5.882
826.89	16.000
827.19	40.000
827.49	36.842
827.79	-9.375
828.09	-16.667
828.39	30.435
828.70	-34.483
829.00	-24.138
829.30	0.000
829.60	12.500
829.90	-5.556
830.20	-34.615
830.50	-42.857
830.80	-28.571
831.10	17.949
831.40	-4.762
831.70	-38.235
832.00	54.167
832.30	-5.263
832.60	25.000
832.90	-108.333
833.20	-35.294
833.50	-53.333
833.80	-26.667
834.10	-30.000
834.40	25.000
834.70	27.778
835.00	30.769
835.30	-45.833
835.60	-10.345
835.90	-38.889
836.20	-18.182
836.50	-175.000
836.80	5.714
837.10	51.429
837.40	-5.882
837.70	-36.364
838.00	33.333
838.30	-6.250
838.60	-4.762
838.90	20.000
839.19	-39.130
839.49	21.739
839.79	-44.444
840.09	-34.783
840.39	-86.364
840.69	-6.250
840.99	68.421
841.29	-43.750
841.59	-85.714
841.88	-33.333
842.18	8.333
842.48	-5.882
842.78	-10.345
843.08	35.714
843.38	46.154
843.68	-133.333
843.97	-46.154
844.27	-36.364
844.57	200.000
844.87	20.000
845.17	40.000
845.47	-100.000
845.76	-11.111
846.06	0.000
846.36	-175.000
846.66	-70.000
846.96	26.316
847.25	33.333
847.55	-50.000
847.85	-13.333
848.15	0.000
848.44	57.692
848.74	-10.526
849.04	466.667
849.34	-66.667
849.63	-73.684
849.93	0.000
850.23	20.000
850.53	14.286
850.82	-12.000
851.12	36.842
851.42	-600.000
851.71	85.714
852.01	-66.667
852.31	17.647
852.61	0.000
852.90	4.762
853.20	-100.000
853.50	66.667
853.79	-57.895
854.09	-66.667
854.39	0.000
854.68	-21.739
854.98	-116.667
855.28	31.034
855.57	-75.000
855.87	-55.000
856.17	-60.000
856.46	3.448
856.76	-26.667
857.05	-47.059
857.35	-76.923
857.65	-9.091
857.94	14.815
858.24	-50.000
858.53	-57.143
858.83	-33.333
859.13	-77.778
859.42	28.571
859.72	-37.500
860.01	-366.667
860.31	25.000
860.60	-100.000
860.90	-22.222
861.20	-50.000
861.49	-214.286
861.79	11.765
862.08	-300.000
862.38	-58.333
862.67	-46.154
862.97	11.765
863.26	0.000
863.56	29.412
863.85	233.333
864.15	-70.000
864.44	-38.462
864.74	50.000
865.03	-87.500
865.33	0.000
865.62	-17.647
865.92	-150.000
866.21	-114.286
866.51	-33.333
866.80	400.000
867.10	-133.333
867.39	-5.882
867.69	47.826
867.98	14.286
868.27	-220.000
868.57	12.500
868.86	-100.000
869.16	100.000
869.45	-100.000
869.75	-14.286
870.04	-100.000
870.33	0.000
870.63	40.000
870.92	-55.556
871.22	0.000
871.51	0.000
871.80	-91.667
872.10	-20.000
>>>>>End Processed Spectral Data<<<<<
