SpectraSuite Data File
++++++++++++++++++++++++++++++++++++
Date: Sat May 16 11:42:32 PDT 2015
User: schluterlab
Dark Spectrum Present: Yes
Reference Spectrum Present: Yes
Number of Sampled Component Spectra: 1
Spectrometers: USB2E3373
Integration Time (usec): 3000 (USB2E3373)
Spectra Averaged: 3 (USB2E3373)
Boxcar Smoothing: 0 (USB2E3373)
Correct for Electrical Dark: No (USB2E3373)
Strobe/Lamp Enabled: No (USB2E3373)
Correct for Detector Non-linearity: No (USB2E3373)
Correct for Stray Light: No (USB2E3373)
Number of Pixels in Processed Spectrum: 2048
>>>>>Begin Processed Spectral Data<<<<<
178.53	0.000
178.91	193.333
179.29	833.333
179.67	-700.000
180.04	-84.615
180.42	1400.000
180.80	225.000
181.18	375.000
181.56	-87.500
181.94	500.000
182.31	575.000
182.69	0.000
183.07	-500.000
183.45	1400.000
183.83	366.667
184.20	-285.714
184.58	-100.000
184.96	-350.000
185.34	150.000
185.72	-375.000
186.09	366.667
186.47	-162.500
186.85	-125.000
187.23	-75.000
187.61	-275.000
187.98	-162.500
188.36	-200.000
188.74	-212.500
189.12	1800.000
189.49	414.286
189.87	-25.000
190.25	475.000
190.63	-64.286
191.00	-177.778
191.38	440.000
191.76	-66.667
192.14	540.000
192.51	-340.000
192.89	-666.667
193.27	0.000
193.65	-88.889
194.02	-257.143
194.40	633.333
194.78	-110.000
195.15	-600.000
195.53	-200.000
195.91	-200.000
196.29	300.000
196.66	-500.000
197.04	1700.000
197.42	-375.000
197.79	26.667
198.17	-366.667
198.55	-700.000
198.92	-1000.000
199.30	337.500
199.68	-300.000
200.05	-155.556
200.43	-211.111
200.81	-2100.000
201.18	-158.333
201.56	285.714
201.94	-60.000
202.31	22.727
202.69	-30.000
203.07	0.000
203.44	633.333
203.82	-466.667
204.19	-500.000
204.57	-175.000
204.95	-1800.000
205.32	-75.000
205.70	500.000
206.08	-1300.000
206.45	-55.556
206.83	-1000.000
207.20	-450.000
207.58	-766.667
207.96	-600.000
208.33	-62.500
208.71	-255.556
209.08	220.000
209.46	-400.000
209.84	750.000
210.21	0.000
210.59	40.000
210.96	400.000
211.34	-466.667
211.71	-433.333
212.09	125.000
212.46	800.000
212.84	-2000.000
213.22	766.667
213.59	100.000
213.97	-100.000
214.34	130.000
214.72	-130.000
215.09	-166.667
215.47	-150.000
215.84	-90.000
216.22	-190.000
216.59	-40.000
216.97	-625.000
217.34	850.000
217.72	-42.857
218.09	-250.000
218.47	-242.857
218.84	271.429
219.22	-271.429
219.59	0.000
219.97	128.571
220.34	450.000
220.72	312.500
221.09	-46.154
221.47	0.000
221.84	366.667
222.22	-300.000
222.59	1300.000
222.97	-112.500
223.34	-900.000
223.72	-600.000
224.09	-35.714
224.46	-475.000
224.84	-71.429
225.21	-171.429
225.59	-36.364
225.96	-137.500
226.34	-271.429
226.71	-155.556
227.08	-5.000
227.46	2400.000
227.83	-100.000
228.21	-150.000
228.58	300.000
228.95	-43.750
229.33	-2300.000
229.70	-380.000
230.08	-700.000
230.45	41.667
230.82	-200.000
231.20	-1400.000
231.57	-800.000
231.95	1400.000
232.32	-33.333
232.69	-77.778
233.07	-257.143
233.44	-850.000
233.81	-80.000
234.19	-44.444
234.56	-68.750
234.93	-3.125
235.31	-471.429
235.68	-135.714
236.05	-23.529
236.43	-131.818
236.80	-25.806
237.17	-33.333
237.55	-47.619
237.92	-118.182
238.29	-54.286
238.67	-23.529
239.04	-30.556
239.41	-45.161
239.79	-46.154
240.16	-16.667
240.53	-34.545
240.91	-12.821
241.28	-25.455
241.65	-16.923
242.02	-4.918
242.40	-11.475
242.77	-16.667
243.14	-35.593
243.51	-35.714
243.89	-8.861
244.26	-5.618
244.63	-5.263
245.00	-10.526
245.38	0.847
245.75	-8.850
246.12	-14.400
246.49	-3.937
246.87	-1.626
247.24	-9.322
247.61	-12.712
247.98	-7.746
248.36	-16.084
248.73	-12.025
249.10	-12.739
249.47	-1.754
249.84	2.273
250.22	-12.500
250.59	0.565
250.96	-6.806
251.33	-0.474
251.70	-2.885
252.08	-4.265
252.45	-6.161
252.82	-8.095
253.19	-3.830
253.56	-4.839
253.94	-6.751
254.31	-5.579
254.68	-5.285
255.05	-8.065
255.42	-2.381
255.79	-5.018
256.16	-4.706
256.54	-6.985
256.91	-5.303
257.28	-2.564
257.65	-0.355
258.02	0.314
258.39	-5.017
258.76	-4.730
259.14	-4.012
259.51	-0.656
259.88	-2.439
260.25	0.621
260.62	-1.929
260.99	-5.935
261.36	-1.829
261.73	1.156
262.10	-0.556
262.47	0.000
262.85	2.571
263.22	-4.871
263.59	-8.923
263.96	-3.768
264.33	-3.523
264.70	-4.696
265.07	-3.846
265.44	0.000
265.81	-1.034
266.18	-3.797
266.55	1.225
266.92	-0.756
267.29	-2.421
267.66	-2.222
268.03	-0.966
268.40	-1.643
268.77	-0.964
269.14	-3.712
269.51	-1.609
269.88	-2.294
270.25	-2.331
270.62	-0.915
270.99	-3.829
271.36	-0.699
271.73	-3.363
272.10	-1.831
272.47	-3.111
272.84	0.444
273.21	0.459
273.58	-1.978
273.95	-2.193
274.32	-2.262
274.69	1.094
275.06	0.204
275.43	-4.688
275.80	0.000
276.17	-0.837
276.54	-1.222
276.91	-0.823
277.28	0.203
277.65	-1.240
278.02	-0.418
278.39	-1.768
278.76	-4.183
279.13	-0.198
279.50	0.000
279.87	-2.748
280.23	-0.202
280.60	-1.590
280.97	-2.524
281.34	-2.128
281.71	-0.577
282.08	-3.024
282.45	-5.906
282.82	-1.938
283.19	-0.727
283.56	0.733
283.92	-0.353
284.29	-0.558
284.66	-1.079
285.03	0.357
285.40	-1.107
285.77	-0.351
286.14	0.542
286.51	-1.599
286.87	-0.544
287.24	1.365
287.61	-0.661
287.98	-2.426
288.35	-1.157
288.72	-1.698
289.08	-2.373
289.45	0.337
289.82	-1.557
290.19	0.821
290.56	-1.983
290.93	-1.113
291.29	-0.162
291.66	0.161
292.03	0.471
292.40	-0.301
292.77	-1.242
293.13	0.000
293.50	0.594
293.87	-0.920
294.24	0.452
294.60	-2.121
294.97	-1.366
295.34	-0.593
295.71	-1.339
296.08	-4.147
296.44	-1.288
296.81	1.709
297.18	-0.986
297.55	-0.565
297.91	1.255
298.28	-0.685
298.65	-2.232
299.02	2.005
299.38	0.401
299.75	-0.136
300.12	2.436
300.48	0.512
300.85	-1.048
301.22	0.259
301.59	0.260
301.95	1.259
302.32	0.000
302.69	0.857
303.05	1.343
303.42	-1.750
303.79	-0.598
304.15	0.711
304.52	0.350
304.89	0.826
305.25	-1.465
305.62	-0.940
305.99	2.002
306.35	1.332
306.72	-0.569
307.09	1.476
307.45	0.681
307.82	0.447
308.19	0.112
308.55	0.109
308.92	0.107
309.29	0.541
309.65	1.485
310.02	1.188
310.38	0.432
310.75	2.561
311.12	2.996
311.48	1.566
311.85	1.236
312.22	2.369
312.58	3.866
312.95	1.937
313.31	2.498
313.68	4.322
314.05	5.341
314.41	2.515
314.78	1.998
315.14	3.060
315.51	3.749
315.87	4.647
316.24	4.568
316.61	5.374
316.97	5.871
317.34	5.491
317.70	4.174
318.07	6.437
318.43	5.805
318.80	7.981
319.16	6.473
319.53	6.109
319.89	6.585
320.26	7.157
320.62	7.404
320.99	8.756
321.35	6.404
321.72	7.062
322.08	8.704
322.45	7.327
322.81	9.990
323.18	10.086
323.54	10.166
323.91	11.492
324.27	11.787
324.64	12.888
325.00	13.438
325.37	14.389
325.73	16.273
326.10	14.260
326.46	16.375
326.83	15.660
327.19	16.931
327.56	18.825
327.92	18.267
328.29	18.961
328.65	18.273
329.01	18.286
329.38	20.339
329.74	21.703
330.11	22.121
330.47	21.708
330.84	21.448
331.20	22.744
331.56	21.513
331.93	22.380
332.29	23.470
332.66	23.178
333.02	22.534
333.38	23.297
333.75	23.598
334.11	23.911
334.48	24.184
334.84	24.759
335.20	24.202
335.57	25.000
335.93	26.141
336.29	24.801
336.66	23.436
337.02	25.766
337.38	24.599
337.75	24.759
338.11	25.671
338.47	25.000
338.84	25.953
339.20	25.132
339.56	25.758
339.93	26.808
340.29	24.092
340.65	24.563
341.02	25.211
341.38	25.274
341.74	24.471
342.11	25.341
342.47	25.236
342.83	23.678
343.20	25.448
343.56	23.347
343.92	25.125
344.28	26.577
344.65	25.000
345.01	25.126
345.37	26.661
345.73	24.304
346.10	23.712
346.46	24.695
346.82	24.860
347.19	25.801
347.55	25.040
347.91	25.906
348.27	25.776
348.63	24.798
349.00	25.457
349.36	24.590
349.72	26.035
350.08	25.020
350.45	25.059
350.81	25.318
351.17	25.563
351.53	24.264
351.89	26.192
352.26	25.349
352.62	26.190
352.98	25.079
353.34	24.700
353.70	24.170
354.07	26.121
354.43	26.561
354.79	25.357
355.15	25.799
355.51	24.375
355.87	24.032
356.24	25.338
356.60	26.591
356.96	26.944
357.32	25.891
357.68	25.211
358.04	25.558
358.40	26.450
358.77	26.352
359.13	26.090
359.49	26.077
359.85	25.305
360.21	26.027
360.57	26.431
360.93	26.000
361.29	27.280
361.66	24.695
362.02	25.592
362.38	26.339
362.74	26.960
363.10	26.399
363.46	27.137
363.82	26.676
364.18	26.556
364.54	27.377
364.90	27.184
365.26	27.175
365.62	27.655
365.98	28.023
366.35	26.901
366.71	26.920
367.07	28.017
367.43	27.728
367.79	27.285
368.15	26.743
368.51	27.972
368.87	27.610
369.23	27.789
369.59	27.222
369.95	26.779
370.31	27.567
370.67	25.380
371.03	27.332
371.39	27.086
371.75	28.255
372.11	27.762
372.47	27.549
372.83	28.025
373.19	28.714
373.55	28.290
373.91	28.450
374.27	27.995
374.63	27.122
374.99	28.581
375.35	27.860
375.71	28.899
376.07	28.953
376.42	27.417
376.78	28.627
377.14	29.492
377.50	29.207
377.86	28.088
378.22	28.769
378.58	29.030
378.94	28.545
379.30	28.580
379.66	29.933
380.02	28.105
380.38	28.640
380.74	29.250
381.09	29.057
381.45	29.833
381.81	29.401
382.17	29.449
382.53	29.119
382.89	29.426
383.25	30.163
383.61	29.068
383.97	30.251
384.32	29.287
384.68	30.048
385.04	29.891
385.40	30.006
385.76	30.732
386.12	29.794
386.48	31.374
386.83	29.939
387.19	30.663
387.55	29.982
387.91	30.350
388.27	29.976
388.62	30.829
388.98	30.588
389.34	30.539
389.70	30.633
390.06	30.889
390.42	31.987
390.77	30.473
391.13	31.677
391.49	31.878
391.85	30.611
392.20	30.279
392.56	30.238
392.92	31.147
393.28	31.171
393.64	31.329
393.99	31.015
394.35	31.813
394.71	30.574
395.07	31.952
395.42	30.036
395.78	31.113
396.14	32.025
396.50	31.560
396.85	31.277
397.21	31.774
397.57	31.185
397.92	32.553
398.28	32.722
398.64	32.897
399.00	31.910
399.35	32.356
399.71	33.159
400.07	32.060
400.42	32.725
400.78	31.902
401.14	32.874
401.49	31.840
401.85	32.642
402.21	32.539
402.57	31.978
402.92	32.914
403.28	33.211
403.63	31.336
403.99	32.567
404.35	32.488
404.70	32.885
405.06	33.160
405.42	32.841
405.77	32.127
406.13	34.015
406.49	33.853
406.84	33.113
407.20	33.274
407.55	33.186
407.91	32.189
408.27	34.007
408.62	32.892
408.98	32.747
409.34	33.882
409.69	32.892
410.05	33.354
410.40	33.599
410.76	33.847
411.11	32.980
411.47	33.760
411.83	33.924
412.18	33.663
412.54	33.191
412.89	32.989
413.25	32.999
413.60	33.536
413.96	34.011
414.31	33.578
414.67	33.270
415.03	33.894
415.38	34.938
415.74	33.892
416.09	33.696
416.45	33.862
416.80	34.200
417.16	32.625
417.51	35.259
417.87	34.887
418.22	35.335
418.58	34.981
418.93	35.009
419.29	34.567
419.64	34.359
420.00	35.966
420.35	35.009
420.71	35.054
421.06	36.391
421.42	34.895
421.77	35.846
422.12	36.150
422.48	35.061
422.83	35.080
423.19	35.189
423.54	35.735
423.90	34.876
424.25	35.124
424.61	36.550
424.96	36.396
425.31	35.718
425.67	36.619
426.02	36.489
426.38	37.326
426.73	37.931
427.09	36.520
427.44	37.045
427.79	36.802
428.15	37.223
428.50	38.182
428.85	36.990
429.21	36.691
429.56	37.760
429.92	37.675
430.27	37.338
430.62	38.036
430.98	37.428
431.33	38.047
431.68	38.713
432.04	39.340
432.39	39.316
432.74	37.770
433.10	38.042
433.45	37.939
433.80	38.018
434.16	38.689
434.51	39.123
434.86	38.957
435.22	38.363
435.57	39.474
435.92	39.156
436.28	39.169
436.63	38.496
436.98	38.603
437.34	39.102
437.69	39.148
438.04	39.875
438.39	39.531
438.75	38.708
439.10	39.423
439.45	38.865
439.81	39.819
440.16	39.637
440.51	40.176
440.86	39.040
441.22	39.856
441.57	40.158
441.92	41.023
442.27	41.017
442.63	39.753
442.98	41.309
443.33	40.747
443.68	40.438
444.03	40.324
444.39	40.822
444.74	43.062
445.09	40.625
445.44	41.137
445.79	41.815
446.15	41.895
446.50	40.229
446.85	40.790
447.20	40.603
447.55	41.547
447.91	41.550
448.26	41.620
448.61	41.596
448.96	42.745
449.31	41.488
449.66	42.702
450.02	41.607
450.37	41.159
450.72	40.395
451.07	42.426
451.42	41.760
451.77	42.490
452.12	42.372
452.47	42.569
452.83	41.817
453.18	42.568
453.53	42.786
453.88	44.079
454.23	41.778
454.58	42.449
454.93	42.003
455.28	43.531
455.63	43.305
455.98	43.795
456.34	41.360
456.69	42.902
457.04	42.717
457.39	42.165
457.74	43.296
458.09	42.807
458.44	43.360
458.79	42.377
459.14	43.925
459.49	42.866
459.84	43.170
460.19	43.317
460.54	42.892
460.89	42.993
461.24	43.048
461.59	43.845
461.94	43.794
462.29	43.597
462.64	44.335
462.99	44.177
463.34	42.741
463.69	43.257
464.04	41.301
464.39	43.369
464.74	42.908
465.09	43.536
465.44	43.711
465.79	43.429
466.14	43.959
466.49	43.063
466.84	42.917
467.19	42.706
467.54	42.911
467.89	43.342
468.24	43.112
468.59	42.473
468.94	43.666
469.29	42.820
469.64	43.464
469.99	44.632
470.34	43.554
470.68	43.895
471.03	44.184
471.38	43.611
471.73	44.406
472.08	43.641
472.43	43.694
472.78	43.467
473.13	42.942
473.48	44.033
473.83	43.424
474.17	43.694
474.52	44.246
474.87	43.590
475.22	41.829
475.57	43.444
475.92	43.898
476.27	43.714
476.61	44.000
476.96	43.712
477.31	43.811
477.66	44.328
478.01	44.571
478.36	43.216
478.70	44.367
479.05	43.862
479.40	43.938
479.75	42.864
480.10	43.750
480.45	42.988
480.79	44.176
481.14	44.205
481.49	43.659
481.84	42.718
482.19	43.033
482.53	43.608
482.88	42.857
483.23	43.333
483.58	43.478
483.92	44.004
484.27	42.136
484.62	43.326
484.97	42.323
485.31	41.856
485.66	40.211
486.01	40.496
486.36	42.284
486.70	43.016
487.05	43.274
487.40	42.842
487.75	42.139
488.09	41.909
488.44	42.050
488.79	42.483
489.13	42.221
489.48	43.434
489.83	42.533
490.17	42.926
490.52	44.384
490.87	43.603
491.22	43.111
491.56	42.963
491.91	44.370
492.26	43.538
492.60	43.245
492.95	43.503
493.30	42.973
493.64	43.912
493.99	43.021
494.34	44.286
494.68	43.165
495.03	42.878
495.37	43.265
495.72	43.173
496.07	43.407
496.41	44.187
496.76	43.699
497.11	43.335
497.45	43.918
497.80	44.622
498.14	42.633
498.49	43.646
498.84	42.184
499.18	43.421
499.53	44.423
499.87	43.388
500.22	43.382
500.56	44.322
500.91	43.054
501.26	42.989
501.60	43.187
501.95	43.043
502.29	42.230
502.64	43.659
502.98	43.603
503.33	42.340
503.67	42.002
504.02	42.926
504.36	43.284
504.71	43.313
505.06	42.886
505.40	43.263
505.75	42.785
506.09	42.619
506.44	44.160
506.78	43.001
507.13	43.563
507.47	43.453
507.82	43.056
508.16	43.731
508.51	42.607
508.85	42.236
509.19	42.072
509.54	43.446
509.88	42.979
510.23	43.344
510.57	42.698
510.92	44.576
511.26	42.850
511.61	43.521
511.95	43.373
512.30	42.826
512.64	42.627
512.98	42.574
513.33	43.108
513.67	41.932
514.02	42.562
514.36	42.438
514.70	43.520
515.05	43.339
515.39	42.503
515.74	42.699
516.08	42.017
516.42	42.606
516.77	43.847
517.11	43.478
517.46	44.079
517.80	44.103
518.14	42.935
518.49	43.096
518.83	42.018
519.17	43.043
519.52	42.047
519.86	42.533
520.20	43.276
520.55	41.415
520.89	42.142
521.23	42.125
521.58	42.947
521.92	43.889
522.26	42.857
522.61	42.395
522.95	42.884
523.29	43.197
523.64	43.785
523.98	42.775
524.32	42.489
524.66	42.360
525.01	43.096
525.35	43.299
525.69	43.201
526.04	42.950
526.38	43.094
526.72	41.699
527.06	43.945
527.41	41.452
527.75	41.716
528.09	41.827
528.43	41.639
528.78	41.771
529.12	43.150
529.46	41.495
529.80	40.865
530.15	42.885
530.49	42.044
530.83	41.912
531.17	41.010
531.51	41.661
531.86	40.948
532.20	40.891
532.54	41.110
532.88	41.502
533.22	41.711
533.57	40.209
533.91	39.825
534.25	40.729
534.59	40.287
534.93	39.764
535.27	41.284
535.62	40.665
535.96	40.207
536.30	40.183
536.64	40.505
536.98	41.455
537.32	40.359
537.66	39.851
538.01	39.519
538.35	40.811
538.69	39.104
539.03	39.336
539.37	40.186
539.71	39.293
540.05	38.725
540.39	41.343
540.73	39.668
541.07	38.934
541.42	39.230
541.76	38.804
542.10	40.311
542.44	38.574
542.78	40.027
543.12	39.443
543.46	38.356
543.80	38.261
544.14	38.617
544.48	39.173
544.82	39.175
545.16	38.162
545.50	37.349
545.84	38.108
546.18	39.182
546.52	38.834
546.86	39.031
547.20	38.256
547.54	37.879
547.88	38.421
548.22	36.959
548.56	36.807
548.90	38.612
549.24	37.772
549.58	38.603
549.92	37.739
550.26	38.439
550.60	37.198
550.94	39.051
551.28	37.472
551.62	37.888
551.96	38.350
552.30	36.725
552.64	37.016
552.98	38.332
553.32	37.229
553.66	37.419
554.00	38.380
554.34	36.751
554.68	37.208
555.02	37.627
555.36	36.377
555.69	36.891
556.03	37.263
556.37	37.055
556.71	36.578
557.05	37.546
557.39	37.491
557.73	37.345
558.07	36.850
558.41	37.023
558.75	37.338
559.08	36.109
559.42	37.289
559.76	37.807
560.10	38.031
560.44	36.416
560.78	36.813
561.12	35.611
561.45	37.123
561.79	35.958
562.13	36.045
562.47	35.294
562.81	35.219
563.15	35.759
563.48	36.213
563.82	36.376
564.16	34.415
564.50	35.753
564.84	35.516
565.17	34.682
565.51	35.332
565.85	36.782
566.19	35.573
566.52	34.247
566.86	35.145
567.20	36.017
567.54	35.204
567.88	34.115
568.21	35.123
568.55	34.517
568.89	33.250
569.23	33.364
569.56	32.745
569.90	32.455
570.24	32.507
570.57	32.091
570.91	31.622
571.25	31.809
571.59	32.095
571.92	31.518
572.26	31.636
572.60	31.461
572.93	31.310
573.27	30.884
573.61	30.370
573.95	31.054
574.28	30.451
574.62	31.164
574.96	30.833
575.29	30.361
575.63	30.422
575.97	29.935
576.30	30.310
576.64	30.601
576.98	29.983
577.31	29.607
577.65	30.552
577.98	30.247
578.32	29.867
578.66	30.334
578.99	30.117
579.33	29.565
579.67	29.166
580.00	29.340
580.34	29.305
580.67	29.493
581.01	28.976
581.35	29.623
581.68	29.122
582.02	29.576
582.35	29.046
582.69	29.604
583.02	29.996
583.36	29.695
583.70	29.493
584.03	29.445
584.37	29.689
584.70	29.104
585.04	28.861
585.37	28.496
585.71	29.342
586.04	29.281
586.38	28.843
586.72	29.961
587.05	29.199
587.39	29.746
587.72	29.015
588.06	29.298
588.39	28.852
588.73	29.179
589.06	29.795
589.40	29.955
589.73	29.816
590.07	29.461
590.40	29.557
590.73	30.188
591.07	29.631
591.40	30.373
591.74	29.713
592.07	29.955
592.41	29.512
592.74	29.669
593.08	29.488
593.41	28.914
593.75	28.816
594.08	29.583
594.41	29.649
594.75	29.709
595.08	29.023
595.42	29.227
595.75	29.217
596.09	29.336
596.42	29.746
596.75	28.935
597.09	29.475
597.42	28.983
597.75	29.717
598.09	29.282
598.42	28.856
598.76	28.488
599.09	28.532
599.42	27.720
599.76	28.728
600.09	28.397
600.42	28.181
600.76	29.266
601.09	28.181
601.42	28.334
601.76	28.894
602.09	27.771
602.42	28.683
602.76	27.669
603.09	28.871
603.42	28.122
603.76	28.440
604.09	28.234
604.42	27.977
604.76	28.696
605.09	28.165
605.42	29.122
605.75	27.943
606.09	27.937
606.42	27.566
606.75	28.081
607.09	28.187
607.42	27.289
607.75	27.770
608.08	29.146
608.42	27.578
608.75	27.196
609.08	28.008
609.41	27.454
609.75	27.938
610.08	27.549
610.41	27.807
610.74	27.901
611.07	28.499
611.41	26.626
611.74	28.946
612.07	28.357
612.40	27.878
612.73	28.002
613.07	28.288
613.40	28.736
613.73	27.357
614.06	27.018
614.39	28.241
614.72	27.989
615.06	28.098
615.39	27.781
615.72	27.268
616.05	27.112
616.38	27.684
616.71	27.688
617.05	28.166
617.38	27.802
617.71	26.904
618.04	28.447
618.37	27.233
618.70	28.162
619.03	28.504
619.36	29.316
619.69	28.212
620.03	28.375
620.36	27.286
620.69	28.500
621.02	29.300
621.35	28.387
621.68	28.443
622.01	28.964
622.34	28.261
622.67	27.266
623.00	28.233
623.33	28.134
623.66	27.622
623.99	28.120
624.32	27.530
624.65	26.932
624.99	27.259
625.32	27.171
625.65	26.807
625.98	27.934
626.31	28.956
626.64	26.695
626.97	27.997
627.30	28.511
627.63	27.547
627.96	28.198
628.29	28.676
628.62	27.507
628.95	28.051
629.28	27.444
629.61	28.263
629.94	28.922
630.26	28.926
630.59	30.151
630.92	28.228
631.25	28.226
631.58	29.206
631.91	28.085
632.24	27.222
632.57	27.889
632.90	29.195
633.23	27.804
633.56	27.018
633.89	27.712
634.22	28.335
634.55	28.005
634.88	28.537
635.20	28.714
635.53	29.008
635.86	27.204
636.19	27.228
636.52	28.076
636.85	26.594
637.18	27.625
637.51	27.757
637.83	27.963
638.16	29.079
638.49	27.448
638.82	27.027
639.15	27.237
639.48	26.459
639.81	27.386
640.13	30.270
640.46	26.638
640.79	26.471
641.12	28.491
641.45	27.403
641.77	28.293
642.10	27.492
642.43	27.769
642.76	26.457
643.09	28.095
643.41	28.889
643.74	28.140
644.07	27.457
644.40	26.742
644.73	28.383
645.05	25.710
645.38	27.649
645.71	28.007
646.04	29.748
646.36	27.051
646.69	28.201
647.02	27.437
647.35	29.603
647.67	26.460
648.00	27.768
648.33	27.656
648.66	24.194
648.98	27.229
649.31	27.846
649.64	28.125
649.96	26.217
650.29	25.738
650.62	28.399
650.94	25.295
651.27	26.690
651.60	26.298
651.92	27.740
652.25	25.209
652.58	25.383
652.90	25.040
653.23	25.484
653.56	26.589
653.88	26.066
654.21	27.349
654.54	28.073
654.86	25.201
655.19	25.358
655.52	22.751
655.84	21.440
656.17	23.741
656.49	32.055
656.82	33.513
657.15	25.353
657.47	18.740
657.80	14.196
658.13	16.196
658.45	21.407
658.78	21.219
659.10	21.220
659.43	20.300
659.75	21.125
660.08	21.510
660.41	20.453
660.73	21.232
661.06	25.652
661.38	26.250
661.71	25.430
662.03	27.621
662.36	27.932
662.68	25.527
663.01	26.327
663.33	25.850
663.66	28.541
663.98	23.884
664.31	23.937
664.63	28.761
664.96	27.766
665.28	24.295
665.61	25.370
665.93	26.337
666.26	24.696
666.58	24.116
666.91	26.058
667.23	27.193
667.56	23.810
667.88	29.412
668.21	23.733
668.53	21.262
668.86	23.788
669.18	29.224
669.50	24.766
669.83	24.818
670.15	26.906
670.48	22.430
670.80	23.462
671.13	22.573
671.45	22.748
671.77	24.625
672.10	27.219
672.42	25.830
672.75	22.545
673.07	22.703
673.39	22.222
673.72	25.000
674.04	23.779
674.37	25.361
674.69	25.615
675.01	21.915
675.34	22.777
675.66	26.350
675.98	23.128
676.31	24.208
676.63	23.678
676.95	26.549
677.28	22.506
677.60	26.923
677.92	23.568
678.25	24.070
678.57	26.337
678.89	22.851
679.22	23.270
679.54	21.893
679.86	23.000
680.18	22.814
680.51	21.043
680.83	24.571
681.15	23.507
681.48	25.355
681.80	22.379
682.12	21.529
682.44	21.218
682.77	20.563
683.09	22.851
683.41	22.788
683.73	20.548
684.06	23.871
684.38	22.385
684.70	23.663
685.02	24.016
685.34	21.442
685.67	21.780
685.99	21.550
686.31	22.262
686.63	22.695
686.96	19.963
687.28	19.653
687.60	23.437
687.92	16.926
688.24	22.047
688.56	21.242
688.89	20.940
689.21	21.882
689.53	21.379
689.85	22.940
690.17	21.300
690.49	21.940
690.82	17.590
691.14	21.698
691.46	23.282
691.78	20.925
692.10	22.034
692.42	18.889
692.74	24.249
693.06	20.899
693.39	20.805
693.71	20.767
694.03	22.894
694.35	19.865
694.67	21.513
694.99	18.414
695.31	22.449
695.63	22.449
695.95	24.069
696.27	25.436
696.59	24.332
696.91	19.944
697.23	23.958
697.56	20.673
697.88	19.369
698.20	19.272
698.52	19.283
698.84	21.359
699.16	20.476
699.48	20.000
699.80	21.805
700.12	19.395
700.44	16.760
700.76	20.700
701.08	20.349
701.40	17.221
701.72	18.827
702.04	16.987
702.36	18.072
702.68	20.060
703.00	21.159
703.32	15.473
703.64	20.294
703.96	21.802
704.28	17.751
704.60	15.823
704.91	19.048
705.23	21.036
705.55	21.959
705.87	20.819
706.19	16.667
706.51	19.444
706.83	19.344
707.15	22.611
707.47	21.212
707.79	19.330
708.11	14.758
708.43	20.200
708.74	20.519
709.06	17.827
709.38	14.080
709.70	15.938
710.02	23.313
710.34	16.502
710.66	14.921
710.98	14.826
711.29	20.000
711.61	16.294
711.93	17.049
712.25	20.598
712.57	16.376
712.89	17.626
713.20	22.337
713.52	17.164
713.84	15.658
714.16	19.672
714.48	16.190
714.80	16.000
715.11	18.156
715.43	23.193
715.75	19.003
716.07	17.049
716.39	20.067
716.70	19.164
717.02	16.667
717.34	20.992
717.66	21.577
717.97	17.623
718.29	15.546
718.61	24.603
718.93	18.996
719.24	13.971
719.56	20.377
719.88	16.364
720.20	14.607
720.51	21.053
720.83	17.269
721.15	19.672
721.46	14.118
721.78	18.391
722.10	18.800
722.42	11.157
722.73	17.530
723.05	20.482
723.37	18.431
723.68	17.409
724.00	20.732
724.32	22.222
724.63	14.523
724.95	21.901
725.27	19.298
725.58	14.224
725.90	13.492
726.22	23.985
726.53	13.308
726.85	13.333
727.16	14.662
727.48	15.769
727.80	15.574
728.11	12.605
728.43	14.876
728.74	17.969
729.06	17.803
729.38	14.008
729.69	10.236
730.01	15.354
730.32	10.757
730.64	15.018
730.96	18.657
731.27	15.357
731.59	17.685
731.90	17.485
732.22	12.577
732.53	20.530
732.85	13.087
733.16	19.203
733.48	16.028
733.80	12.100
734.11	13.448
734.43	12.585
734.74	16.617
735.06	17.555
735.37	12.538
735.69	11.290
736.00	15.152
736.32	15.232
736.63	11.034
736.95	12.681
737.26	17.550
737.58	12.590
737.89	18.996
738.21	12.030
738.52	15.000
738.83	14.844
739.15	16.239
739.46	12.903
739.78	15.035
740.09	15.385
740.41	12.587
740.72	13.869
741.04	9.921
741.35	9.957
741.66	12.500
741.98	12.381
742.29	18.779
742.61	14.439
742.92	17.290
743.23	17.105
743.55	20.270
743.86	19.111
744.18	11.429
744.49	16.749
744.80	15.736
745.12	17.010
745.43	13.568
745.74	17.961
746.06	14.634
746.37	20.705
746.68	17.910
747.00	6.283
747.31	12.500
747.62	14.286
747.94	10.480
748.25	18.140
748.56	10.000
748.88	9.783
749.19	17.371
749.50	20.098
749.82	14.667
750.13	17.621
750.44	10.976
750.75	16.800
751.07	14.286
751.38	12.915
751.69	12.595
752.01	10.000
752.32	12.840
752.63	13.077
752.94	10.317
753.26	13.043
753.57	15.625
753.88	11.638
754.19	13.693
754.51	14.453
754.82	15.415
755.13	11.111
755.44	12.397
755.75	15.226
756.07	8.434
756.38	11.719
756.69	12.996
757.00	13.937
757.31	17.114
757.63	15.888
757.94	12.139
758.25	9.593
758.56	16.712
758.87	13.352
759.18	10.000
759.50	15.658
759.81	7.299
760.12	7.770
760.43	11.327
760.74	16.250
761.05	14.045
761.36	14.371
761.67	9.763
761.99	10.000
762.30	10.870
762.61	13.962
762.92	10.314
763.23	15.166
763.54	11.111
763.85	15.612
764.16	13.061
764.47	17.797
764.78	11.985
765.10	8.273
765.41	13.548
765.72	13.522
766.03	9.187
766.34	15.789
766.65	8.907
766.96	8.500
767.27	6.250
767.58	15.116
767.89	12.258
768.20	11.656
768.51	16.940
768.82	6.486
769.13	14.000
769.44	10.965
769.75	10.823
770.06	12.844
770.37	12.676
770.68	11.979
770.99	11.386
771.30	9.223
771.61	10.185
771.92	12.121
772.23	10.280
772.54	7.979
772.85	7.101
773.16	6.098
773.47	10.843
773.78	10.440
774.09	11.333
774.39	16.049
774.70	5.369
775.01	7.971
775.32	10.448
775.63	0.000
775.94	14.286
776.25	10.714
776.56	6.557
776.87	15.044
777.18	15.044
777.48	-7.273
777.79	0.870
778.10	0.917
778.41	9.322
778.72	8.264
779.03	2.985
779.34	13.534
779.65	7.843
779.95	9.420
780.26	4.082
780.57	-5.172
780.88	4.630
781.19	-9.091
781.50	-2.400
781.80	5.882
782.11	13.462
782.42	9.639
782.73	-7.299
783.04	15.541
783.34	13.636
783.65	6.202
783.96	4.878
784.27	2.564
784.57	7.317
784.88	12.195
785.19	17.544
785.50	-8.247
785.81	-0.952
786.11	-8.824
786.42	2.727
786.73	5.405
787.04	2.970
787.34	6.667
787.65	4.762
787.96	0.000
788.26	11.712
788.57	20.968
788.88	1.562
789.19	3.419
789.49	5.042
789.80	-0.855
790.11	8.850
790.41	2.020
790.72	17.925
791.03	-4.167
791.33	-10.526
791.64	-1.075
791.95	-4.000
792.25	-15.714
792.56	-6.098
792.87	14.286
793.17	-9.211
793.48	-16.216
793.79	-8.451
794.09	-6.329
794.40	6.383
794.70	0.935
795.01	-7.018
795.32	-6.364
795.62	-0.893
795.93	-1.031
796.23	2.198
796.54	10.526
796.85	4.110
797.15	-8.333
797.46	-1.370
797.76	15.493
798.07	12.500
798.37	-1.471
798.68	-1.429
798.99	8.571
799.29	6.579
799.60	-11.667
799.90	-18.056
800.21	-12.500
800.51	1.587
800.82	-8.197
801.12	-7.018
801.43	-18.310
801.73	-13.559
802.04	-8.197
802.34	-7.273
802.65	-5.769
802.95	-7.407
803.26	-37.500
803.56	15.385
803.87	-47.368
804.17	-12.903
804.48	9.231
804.78	-10.256
805.09	-11.628
805.39	-34.375
805.70	-24.528
806.00	-5.263
806.30	-2.703
806.61	-5.882
806.91	3.704
807.22	-5.333
807.52	-4.478
807.83	-8.065
808.13	-1.587
808.43	-14.545
808.74	-3.030
809.04	-15.094
809.35	9.589
809.65	10.526
809.95	11.765
810.26	3.922
810.56	-22.000
810.86	-16.327
811.17	-48.571
811.47	-28.846
811.77	-22.581
812.08	-34.211
812.38	-19.048
812.69	-36.957
812.99	-12.903
813.29	-4.762
813.59	-81.481
813.90	6.383
814.20	-27.907
814.50	-14.583
814.81	-25.000
815.11	-31.707
815.41	-30.000
815.72	-14.286
816.02	-50.000
816.32	-2.564
816.62	-5.405
816.93	-73.529
817.23	-10.870
817.53	-5.882
817.84	-26.471
818.14	-37.500
818.44	-51.724
818.74	-41.935
819.04	-77.778
819.35	-33.333
819.65	-64.000
819.95	-6.667
820.25	-52.000
820.56	-10.526
820.86	-12.500
821.16	-6.383
821.46	6.897
821.76	-35.897
822.07	-7.500
822.37	-13.953
822.67	-10.000
822.97	-48.649
823.27	-10.811
823.57	-4.000
823.88	-8.108
824.18	-76.190
824.48	-30.769
824.78	-115.385
825.08	-21.739
825.38	-33.333
825.69	-8.333
825.99	-135.000
826.29	-21.622
826.59	-47.059
826.89	-12.000
827.19	-31.429
827.49	-23.684
827.79	-53.125
828.09	-16.667
828.39	-26.087
828.70	-48.276
829.00	-3.448
829.30	2.778
829.60	6.250
829.90	-77.778
830.20	-34.615
830.50	-95.238
830.80	-64.286
831.10	-43.590
831.40	-76.190
831.70	-20.588
832.00	4.167
832.30	-78.947
832.60	-81.250
832.90	-41.667
833.20	-129.412
833.50	-106.667
833.80	-80.000
834.10	-35.000
834.40	-25.000
834.70	-27.778
835.00	-42.308
835.30	-79.167
835.60	-17.241
835.90	-77.778
836.20	-209.091
836.50	-158.333
836.80	-2.857
837.10	17.143
837.40	-76.471
837.70	-200.000
838.00	-45.833
838.30	-31.250
838.60	-33.333
838.90	-60.000
839.19	-30.435
839.49	-17.391
839.79	-127.778
840.09	-43.478
840.39	-4.545
840.69	-37.500
840.99	-31.579
841.29	-12.500
841.59	-92.857
841.88	-166.667
842.18	-50.000
842.48	-64.706
842.78	-37.931
843.08	0.000
843.38	-153.846
843.68	-100.000
843.97	-153.846
844.27	-154.545
844.57	-120.000
844.87	-28.000
845.17	-320.000
845.47	-171.429
845.76	-166.667
846.06	0.000
846.36	-475.000
846.66	-180.000
846.96	-31.579
847.25	-50.000
847.55	-166.667
847.85	-26.667
848.15	-170.000
848.44	19.231
848.74	-47.368
849.04	566.667
849.34	-77.778
849.63	-94.737
849.93	0.000
850.23	-65.000
850.53	-42.857
850.82	-32.000
851.12	-78.947
851.42	-800.000
851.71	-64.286
852.01	-83.333
852.31	-76.471
852.61	-46.667
852.90	-52.381
853.20	-366.667
853.50	-22.222
853.79	-68.421
854.09	-46.667
854.39	-57.143
854.68	-47.826
854.98	-225.000
855.28	-10.345
855.57	-81.250
855.87	-95.000
856.17	-146.667
856.46	-31.034
856.76	-46.667
857.05	-58.824
857.35	-184.615
857.65	-81.818
857.94	-37.037
858.24	-142.857
858.53	-100.000
858.83	-116.667
859.13	-211.111
859.42	14.286
859.72	-300.000
860.01	-600.000
860.31	-162.500
860.60	-420.000
860.90	-177.778
861.20	-112.500
861.49	-228.571
861.79	-52.941
862.08	-550.000
862.38	-166.667
862.67	-7.692
862.97	-41.176
863.26	-10.000
863.56	-70.588
863.85	633.333
864.15	-230.000
864.44	-92.308
864.74	-20.000
865.03	-262.500
865.33	-433.333
865.62	-111.765
865.92	-550.000
866.21	-164.286
866.51	-141.667
866.80	-1200.000
867.10	-400.000
867.39	-70.588
867.69	-4.348
867.98	-200.000
868.27	-240.000
868.57	-150.000
868.86	-236.364
869.16	-17.647
869.45	-266.667
869.75	-314.286
870.04	900.000
870.33	-91.667
870.63	-260.000
870.92	-111.111
871.22	-25.000
871.51	-109.091
871.80	-75.000
872.10	-140.000
>>>>>End Processed Spectral Data<<<<<
