SpectraSuite Data File
++++++++++++++++++++++++++++++++++++
Date: Sat May 16 11:07:01 PDT 2015
User: schluterlab
Dark Spectrum Present: Yes
Reference Spectrum Present: Yes
Number of Sampled Component Spectra: 1
Spectrometers: USB2E3373
Integration Time (usec): 3000 (USB2E3373)
Spectra Averaged: 3 (USB2E3373)
Boxcar Smoothing: 0 (USB2E3373)
Correct for Electrical Dark: No (USB2E3373)
Strobe/Lamp Enabled: No (USB2E3373)
Correct for Detector Non-linearity: No (USB2E3373)
Correct for Stray Light: No (USB2E3373)
Number of Pixels in Processed Spectrum: 2048
>>>>>Begin Processed Spectral Data<<<<<
178.53	0.000
178.91	6.667
179.29	-100.000
179.67	100.000
180.04	69.231
180.42	-900.000
180.80	-175.000
181.18	-0.000
181.56	62.500
181.94	-400.000
182.31	200.000
182.69	92.308
183.07	33.333
183.45	700.000
183.83	366.667
184.20	-71.429
184.58	-62.500
184.96	-100.000
185.34	50.000
185.72	-75.000
186.09	-133.333
186.47	-200.000
186.85	0.000
187.23	100.000
187.61	200.000
187.98	-87.500
188.36	100.000
188.74	12.500
189.12	-100.000
189.49	200.000
189.87	41.667
190.25	100.000
190.63	92.857
191.00	-88.889
191.38	-0.000
191.76	26.667
192.14	100.000
192.51	100.000
192.89	0.000
193.27	0.000
193.65	122.222
194.02	-57.143
194.40	-33.333
194.78	-10.000
195.15	-200.000
195.53	-18.182
195.91	-100.000
196.29	-220.000
196.66	-166.667
197.04	-0.000
197.42	0.000
197.79	140.000
198.17	466.667
198.55	150.000
198.92	100.000
199.30	62.500
199.68	0.000
200.05	155.556
200.43	-11.111
200.81	100.000
201.18	8.333
201.56	-100.000
201.94	-13.333
202.31	118.182
202.69	-10.000
203.07	120.000
203.44	33.333
203.82	-100.000
204.19	-300.000
204.57	200.000
204.95	700.000
205.32	6.250
205.70	-200.000
206.08	0.000
206.45	33.333
206.83	0.000
207.20	550.000
207.58	-400.000
207.96	100.000
208.33	25.000
208.71	66.667
209.08	140.000
209.46	57.143
209.84	-0.000
210.21	0.000
210.59	125.000
210.96	-100.000
211.34	-83.333
211.71	33.333
212.09	50.000
212.46	650.000
212.84	-700.000
213.22	66.667
213.59	83.333
213.97	66.667
214.34	30.000
214.72	60.000
215.09	-166.667
215.47	83.333
215.84	-30.000
216.22	40.000
216.59	100.000
216.97	75.000
217.34	150.000
217.72	14.286
218.09	-16.667
218.47	-14.286
218.84	85.714
219.22	-42.857
219.59	0.000
219.97	-85.714
220.34	250.000
220.72	12.500
221.09	0.000
221.47	0.000
221.84	33.333
222.22	200.000
222.59	-500.000
222.97	-37.500
223.34	-200.000
223.72	-100.000
224.09	135.714
224.46	200.000
224.84	28.571
225.21	-71.429
225.59	127.273
225.96	62.500
226.34	185.714
226.71	33.333
227.08	55.000
227.46	700.000
227.83	14.286
228.21	0.000
228.58	150.000
228.95	12.500
229.33	-300.000
229.70	160.000
230.08	-350.000
230.45	41.667
230.82	150.000
231.20	600.000
231.57	100.000
231.95	-200.000
232.32	61.905
232.69	55.556
233.07	28.571
233.44	-100.000
233.81	46.667
234.19	122.222
234.56	37.500
234.93	78.125
235.31	-100.000
235.68	-35.714
236.05	52.941
236.43	36.364
236.80	51.613
237.17	50.000
237.55	-23.810
237.92	36.364
238.29	17.143
238.67	64.706
239.04	47.222
239.41	32.258
239.79	12.821
240.16	57.143
240.53	36.364
240.91	64.103
241.28	50.909
241.65	47.692
242.02	54.098
242.40	52.459
242.77	54.545
243.14	35.593
243.51	34.286
243.89	54.430
244.26	48.315
244.63	50.526
245.00	32.632
245.38	38.983
245.75	49.558
246.12	36.000
246.49	45.669
246.87	34.146
247.24	40.678
247.61	54.237
247.98	38.732
248.36	35.664
248.73	47.468
249.10	39.490
249.47	43.275
249.84	42.614
250.22	35.119
250.59	40.113
250.96	50.785
251.33	43.602
251.70	42.788
252.08	45.972
252.45	44.550
252.82	44.762
253.19	50.638
253.56	39.113
253.94	42.194
254.31	46.781
254.68	47.561
255.05	46.774
255.42	45.635
255.79	40.860
256.16	45.882
256.54	45.221
256.91	42.424
257.28	41.392
257.65	39.007
258.02	47.799
258.39	41.137
258.76	44.257
259.14	45.370
259.51	44.590
259.88	41.463
260.25	49.689
260.62	40.836
260.99	39.466
261.36	41.463
261.73	44.220
262.10	45.833
262.47	40.456
262.85	45.143
263.22	39.542
263.59	43.692
263.96	41.739
264.33	42.818
264.70	45.580
265.07	44.505
265.44	41.085
265.81	41.602
266.18	41.266
266.55	43.137
266.92	45.592
267.29	46.973
267.66	43.704
268.03	45.169
268.40	42.958
268.77	43.133
269.14	44.548
269.51	43.908
269.88	40.138
270.25	41.259
270.62	43.249
270.99	43.919
271.36	42.657
271.73	42.377
272.10	42.334
272.47	42.000
272.84	46.889
273.21	41.284
273.58	43.297
273.95	41.886
274.32	40.271
274.69	43.326
275.06	44.581
275.43	41.964
275.80	45.621
276.17	41.423
276.54	41.548
276.91	42.387
277.28	43.408
277.65	42.355
278.02	42.589
278.39	42.436
278.76	43.625
279.13	39.723
279.50	44.533
279.87	41.860
280.23	43.927
280.60	39.960
280.97	40.971
281.34	41.393
281.71	40.385
282.08	42.540
282.45	41.344
282.82	40.698
283.19	42.000
283.56	41.026
283.92	41.696
284.29	40.335
284.66	38.849
285.03	38.859
285.40	40.221
285.77	39.123
286.14	39.170
286.51	38.366
286.87	41.379
287.24	38.737
287.61	37.521
287.98	38.302
288.35	38.512
288.72	36.163
289.08	35.593
289.45	38.215
289.82	37.370
290.19	39.409
290.56	34.876
290.93	34.658
291.29	36.629
291.66	36.554
292.03	35.479
292.40	35.542
292.77	34.938
293.13	38.699
293.50	35.364
293.87	35.429
294.24	32.428
294.60	30.909
294.97	35.660
295.34	33.185
295.71	32.440
296.08	33.487
296.44	32.904
296.81	34.046
297.18	32.817
297.55	35.028
297.91	34.868
298.28	30.685
298.65	30.962
299.02	32.487
299.38	30.749
299.75	30.163
300.12	30.513
300.48	32.353
300.85	31.717
301.22	30.401
301.59	30.689
301.95	32.368
302.32	30.639
302.69	28.397
303.05	30.647
303.42	28.500
303.79	28.828
304.15	29.976
304.52	29.055
304.89	28.689
305.25	29.548
305.62	28.790
305.99	29.446
306.35	28.968
306.72	28.588
307.09	28.717
307.45	28.604
307.82	27.151
308.19	30.201
308.55	28.431
308.92	26.208
309.29	28.432
309.65	27.784
310.02	28.726
310.38	26.486
310.75	27.459
311.12	27.686
311.48	28.497
311.85	26.777
312.22	26.777
312.58	26.653
312.95	25.994
313.31	27.273
313.68	27.236
314.05	27.596
314.41	25.855
314.78	25.674
315.14	26.160
315.51	26.950
315.87	27.493
316.24	25.753
316.61	27.735
316.97	27.960
317.34	26.301
317.70	25.974
318.07	26.679
318.43	25.749
318.80	27.418
319.16	25.516
319.53	25.188
319.89	25.118
320.26	26.176
320.62	25.385
320.99	26.269
321.35	24.729
321.72	25.691
322.08	27.102
322.45	24.059
322.81	25.648
323.18	24.880
323.54	25.508
323.91	25.765
324.27	25.856
324.64	25.594
325.00	25.567
325.37	25.158
325.73	25.022
326.10	24.004
326.46	25.744
326.83	25.277
327.19	24.854
327.56	25.980
327.92	24.384
328.29	25.801
328.65	23.273
329.01	24.117
329.38	24.799
329.74	24.176
330.11	24.297
330.47	24.705
330.84	24.931
331.20	24.278
331.56	24.066
331.93	23.979
332.29	24.292
332.66	23.354
333.02	24.253
333.38	25.269
333.75	24.399
334.11	23.111
334.48	24.095
334.84	25.372
335.20	23.759
335.57	23.736
335.93	25.067
336.29	22.764
336.66	23.084
337.02	23.694
337.38	23.173
337.75	24.056
338.11	23.256
338.47	23.932
338.84	23.049
339.20	23.286
339.56	23.440
339.93	23.633
340.29	23.295
340.65	23.339
341.02	23.609
341.38	23.336
341.74	22.777
342.11	22.184
342.47	23.176
342.83	22.670
343.20	23.057
343.56	22.204
343.92	22.538
344.28	23.297
344.65	21.947
345.01	23.109
345.37	23.007
345.73	21.931
346.10	22.567
346.46	22.096
346.82	21.492
347.19	22.432
347.55	22.311
347.91	22.047
348.27	22.196
348.63	23.183
349.00	22.275
349.36	21.702
349.72	23.010
350.08	22.534
350.45	21.828
350.81	22.691
351.17	22.428
351.53	20.286
351.89	22.312
352.26	22.558
352.62	22.427
352.98	21.677
353.34	21.902
353.70	21.004
354.07	22.895
354.43	22.451
354.79	22.425
355.15	21.326
355.51	21.641
355.87	21.344
356.24	22.319
356.60	21.676
356.96	21.863
357.32	21.932
357.68	21.226
358.04	21.247
358.40	21.423
358.77	21.638
359.13	22.265
359.49	21.013
359.85	21.723
360.21	22.146
360.57	22.063
360.93	22.222
361.29	22.347
361.66	20.579
362.02	20.784
362.38	21.643
362.74	21.758
363.10	20.803
363.46	22.436
363.82	21.137
364.18	21.708
364.54	21.372
364.90	20.894
365.26	20.542
365.62	22.096
365.98	21.337
366.35	20.493
366.71	20.296
367.07	21.383
367.43	22.169
367.79	21.856
368.15	20.057
368.51	21.259
368.87	21.566
369.23	22.105
369.59	21.111
369.95	21.353
370.31	21.660
370.67	20.680
371.03	20.991
371.39	19.731
371.75	21.030
372.11	21.162
372.47	20.897
372.83	21.627
373.19	20.500
373.55	21.605
373.91	21.337
374.27	21.150
374.63	20.428
374.99	21.419
375.35	20.592
375.71	22.080
376.07	20.671
376.42	18.874
376.78	21.438
377.14	21.085
377.50	21.277
377.86	20.351
378.22	21.294
378.58	20.630
378.94	20.715
379.30	20.353
379.66	20.340
380.02	20.559
380.38	19.396
380.74	20.692
381.09	20.680
381.45	20.943
381.81	20.206
382.17	20.301
382.53	19.878
382.89	21.591
383.25	20.771
383.61	19.870
383.97	21.066
384.32	20.463
384.68	20.073
385.04	19.686
385.40	19.781
385.76	21.220
386.12	20.362
386.48	21.225
386.83	20.982
387.19	21.219
387.55	20.957
387.91	20.273
388.27	19.361
388.62	21.575
388.98	19.261
389.34	20.073
389.70	20.706
390.06	19.204
390.42	20.641
390.77	20.063
391.13	21.118
391.49	19.588
391.85	20.387
392.20	20.024
392.56	20.525
392.92	20.137
393.28	20.666
393.64	19.784
393.99	19.508
394.35	20.620
394.71	20.815
395.07	20.465
395.42	19.130
395.78	19.736
396.14	21.121
396.50	20.550
396.85	20.111
397.21	19.684
397.57	20.243
397.92	20.199
398.28	20.111
398.64	19.988
399.00	20.787
399.35	20.800
399.71	20.848
400.07	20.119
400.42	20.803
400.78	19.559
401.14	19.940
401.49	19.752
401.85	20.500
402.21	19.905
402.57	19.782
402.92	20.705
403.28	21.630
403.63	19.832
403.99	20.323
404.35	19.807
404.70	20.129
405.06	20.934
405.42	20.111
405.77	19.966
406.13	20.386
406.49	20.132
406.84	20.216
407.20	20.612
407.55	20.709
407.91	19.624
408.27	20.159
408.62	19.844
408.98	20.497
409.34	19.196
409.69	19.534
410.05	19.891
410.40	20.785
410.76	20.628
411.11	19.514
411.47	19.885
411.83	20.538
412.18	20.235
412.54	19.402
412.89	19.988
413.25	18.949
413.60	18.894
413.96	19.224
414.31	19.572
414.67	19.619
415.03	20.116
415.38	19.779
415.74	20.619
416.09	19.565
416.45	19.246
416.80	19.571
417.16	19.269
417.51	20.880
417.87	19.935
418.22	20.544
418.58	20.347
418.93	20.172
419.29	20.201
419.64	19.535
420.00	20.595
420.35	19.692
420.71	19.148
421.06	19.172
421.42	18.560
421.77	20.491
422.12	20.313
422.48	20.363
422.83	20.046
423.19	19.710
423.54	20.115
423.90	19.838
424.25	19.287
424.61	20.265
424.96	19.895
425.31	20.067
425.67	19.713
426.02	19.048
426.38	20.508
426.73	20.164
427.09	19.975
427.44	19.886
427.79	19.244
428.15	20.048
428.50	20.352
428.85	19.964
429.21	19.148
429.56	19.583
429.92	19.389
430.27	19.890
430.62	20.428
430.98	19.446
431.33	19.477
431.68	20.483
432.04	20.145
432.39	19.715
432.74	20.024
433.10	20.203
433.45	19.171
433.80	19.541
434.16	20.527
434.51	19.781
434.86	20.094
435.22	19.822
435.57	19.951
435.92	20.164
436.28	20.237
436.63	19.785
436.98	19.530
437.34	19.551
437.69	19.020
438.04	19.626
438.39	19.916
438.75	19.150
439.10	19.489
439.45	19.071
439.81	20.000
440.16	19.818
440.51	20.706
440.86	19.375
441.22	18.408
441.57	19.211
441.92	20.000
442.27	19.372
442.63	20.494
442.98	19.074
443.33	19.110
443.68	19.750
444.03	20.088
444.39	19.383
444.74	19.438
445.09	20.504
445.44	20.203
445.79	19.888
446.15	20.099
446.50	18.726
446.85	19.754
447.20	19.816
447.55	20.276
447.91	20.606
448.26	20.056
448.61	20.091
448.96	21.064
449.31	19.560
449.66	19.576
450.02	18.837
450.37	19.188
450.72	19.322
451.07	20.302
451.42	18.340
451.77	19.090
452.12	19.547
452.47	19.710
452.83	19.394
453.18	19.861
453.53	19.092
453.88	19.856
454.23	19.166
454.58	20.261
454.93	20.718
455.28	19.439
455.63	19.779
455.98	20.181
456.34	18.234
456.69	20.263
457.04	20.713
457.39	18.900
457.74	19.669
458.09	19.548
458.44	19.804
458.79	19.114
459.14	19.338
459.49	20.545
459.84	19.674
460.19	20.227
460.54	19.601
460.89	19.283
461.24	19.369
461.59	19.578
461.94	19.733
462.29	19.059
462.64	20.026
462.99	20.147
463.34	19.109
463.69	19.656
464.04	19.508
464.39	19.415
464.74	20.095
465.09	19.363
465.44	19.233
465.79	19.741
466.14	20.081
466.49	19.574
466.84	19.808
467.19	19.451
467.54	18.861
467.89	19.605
468.24	19.181
468.59	19.550
468.94	18.971
469.29	19.038
469.64	19.609
469.99	19.649
470.34	19.906
470.68	19.549
471.03	19.546
471.38	18.889
471.73	18.951
472.08	19.746
472.43	18.082
472.78	19.267
473.13	18.091
473.48	19.974
473.83	19.231
474.17	19.045
474.52	19.757
474.87	19.464
475.22	19.174
475.57	19.167
475.92	19.006
476.27	19.314
476.61	18.873
476.96	19.061
477.31	19.214
477.66	19.369
478.01	18.909
478.36	18.701
478.70	19.167
479.05	19.145
479.40	19.275
479.75	19.113
480.10	19.891
480.45	18.714
480.79	19.743
481.14	19.870
481.49	19.700
481.84	19.417
482.19	19.918
482.53	19.934
482.88	18.462
483.23	18.451
483.58	19.935
483.92	19.111
484.27	18.919
484.62	19.741
484.97	19.486
485.31	19.648
485.66	20.495
486.01	19.871
486.36	20.361
486.70	19.967
487.05	19.776
487.40	19.818
487.75	19.708
488.09	18.746
488.44	18.978
488.79	18.889
489.13	18.828
489.48	19.372
489.83	19.476
490.17	19.025
490.52	18.886
490.87	19.030
491.22	18.356
491.56	18.287
491.91	18.177
492.26	18.585
492.60	18.554
492.95	18.991
493.30	18.437
493.64	18.524
493.99	19.407
494.34	19.190
494.68	19.335
495.03	18.547
495.37	18.732
495.72	19.008
496.07	19.474
496.41	19.407
496.76	18.676
497.11	19.407
497.45	19.253
497.80	18.809
498.14	18.762
498.49	19.136
498.84	18.592
499.18	18.811
499.53	18.266
499.87	17.954
500.22	18.873
500.56	19.260
500.91	19.163
501.26	19.893
501.60	18.584
501.95	19.903
502.29	18.706
502.64	18.859
502.98	18.448
503.33	19.314
503.67	18.151
504.02	18.590
504.36	19.216
504.71	18.338
505.06	19.071
505.40	19.012
505.75	18.343
506.09	19.060
506.44	19.198
506.78	18.816
507.13	17.920
507.47	18.884
507.82	19.050
508.16	18.808
508.51	18.753
508.85	18.530
509.19	17.949
509.54	18.975
509.88	19.628
510.23	18.501
510.57	18.677
510.92	18.690
511.26	18.235
511.61	17.549
511.95	18.050
512.30	19.186
512.64	18.086
512.98	19.582
513.33	18.232
513.67	18.146
514.02	17.897
514.36	19.058
514.70	18.449
515.05	18.353
515.39	17.705
515.74	19.255
516.08	17.810
516.42	18.357
516.77	18.775
517.11	18.192
517.46	18.421
517.80	17.870
518.14	17.754
518.49	18.530
518.83	17.270
519.17	19.065
519.52	17.814
519.86	18.519
520.20	17.787
520.55	18.031
520.89	18.096
521.23	18.803
521.58	17.743
521.92	18.556
522.26	18.159
522.61	18.124
522.95	17.932
523.29	18.056
523.64	17.989
523.98	18.078
524.32	18.353
524.66	17.081
525.01	17.662
525.35	17.977
525.69	17.437
526.04	18.081
526.38	18.205
526.72	17.178
527.06	17.187
527.41	17.492
527.75	17.954
528.09	18.332
528.43	17.770
528.78	17.839
529.12	19.014
529.46	17.977
529.80	18.141
530.15	17.772
530.49	18.758
530.83	19.319
531.17	16.768
531.51	16.745
531.86	17.182
532.20	17.679
532.54	19.184
532.88	17.589
533.22	17.914
533.57	19.125
533.91	17.728
534.25	18.416
534.59	17.989
534.93	17.922
535.27	18.313
535.62	17.903
535.96	17.582
536.30	17.212
536.64	18.459
536.98	18.573
537.32	17.968
537.66	17.583
538.01	18.213
538.35	17.973
538.69	18.382
539.03	18.009
539.37	17.964
539.71	18.546
540.05	17.820
540.39	18.490
540.73	18.936
541.07	18.033
541.42	17.556
541.76	17.542
542.10	18.501
542.44	18.454
542.78	17.978
543.12	18.126
543.46	17.945
543.80	16.856
544.14	16.991
544.48	18.176
544.82	17.524
545.16	18.511
545.50	16.958
545.84	16.898
546.18	18.100
546.52	18.065
546.86	17.806
547.20	17.370
547.54	17.631
547.88	17.784
548.22	17.169
548.56	17.568
548.90	19.003
549.24	17.870
549.58	18.278
549.92	17.527
550.26	18.569
550.60	17.425
550.94	16.934
551.28	17.457
551.62	16.913
551.96	17.438
552.30	18.606
552.64	17.452
552.98	18.220
553.32	16.955
553.66	18.097
554.00	17.129
554.34	16.029
554.68	17.032
555.02	17.800
555.36	17.469
555.69	17.837
556.03	17.123
556.37	17.923
556.71	17.895
557.05	18.034
557.39	17.595
557.73	18.818
558.07	17.106
558.41	17.053
558.75	17.338
559.08	14.942
559.42	17.841
559.76	17.638
560.10	17.599
560.44	18.786
560.78	17.606
561.12	17.391
561.45	18.973
561.79	18.467
562.13	18.163
562.47	17.087
562.81	17.610
563.15	17.705
563.48	18.452
563.82	17.782
564.16	17.850
564.50	18.145
564.84	17.923
565.17	17.042
565.51	18.970
565.85	18.391
566.19	17.523
566.52	18.200
566.86	17.636
567.20	18.947
567.54	18.960
567.88	17.923
568.21	18.289
568.55	18.399
568.89	17.942
569.23	19.389
569.56	18.621
569.90	19.119
570.24	18.790
570.57	18.840
570.91	19.075
571.25	19.131
571.59	19.357
571.92	19.167
572.26	19.173
572.60	19.485
572.93	18.675
573.27	18.872
573.61	19.358
573.95	19.159
574.28	18.954
574.62	19.471
574.96	18.943
575.29	19.080
575.63	19.140
575.97	18.662
576.30	19.403
576.64	19.269
576.98	18.985
577.31	19.190
577.65	19.146
577.98	19.618
578.32	19.133
578.66	19.301
578.99	19.441
579.33	19.015
579.67	19.021
580.00	19.072
580.34	19.178
580.67	19.122
581.01	19.264
581.35	19.377
581.68	19.370
582.02	19.479
582.35	19.471
582.69	19.581
583.02	19.363
583.36	19.471
583.70	19.432
584.03	19.181
584.37	18.674
584.70	18.900
585.04	19.443
585.37	18.974
585.71	19.424
586.04	19.048
586.38	18.979
586.72	19.081
587.05	19.541
587.39	18.957
587.72	19.113
588.06	19.285
588.39	19.111
588.73	18.648
589.06	18.702
589.40	18.997
589.73	19.051
590.07	18.572
590.40	18.708
590.73	18.792
591.07	18.770
591.40	18.414
591.74	18.375
592.07	18.964
592.41	18.938
592.74	19.293
593.08	19.156
593.41	19.112
593.75	18.595
594.08	19.231
594.41	19.113
594.75	19.064
595.08	19.248
595.42	19.328
595.75	19.184
596.09	18.549
596.42	18.576
596.75	18.586
597.09	19.323
597.42	18.725
597.75	18.822
598.09	18.482
598.42	18.029
598.76	18.272
599.09	18.903
599.42	18.916
599.76	18.573
600.09	18.359
600.42	19.142
600.76	18.832
601.09	18.420
601.42	18.560
601.76	18.614
602.09	18.364
602.42	18.560
602.76	18.072
603.09	19.113
603.42	18.453
603.76	19.465
604.09	19.143
604.42	18.068
604.76	18.622
605.09	18.716
605.42	18.883
605.75	18.542
606.09	19.012
606.42	18.643
606.75	18.205
607.09	19.541
607.42	18.574
607.75	19.117
608.08	19.024
608.42	19.016
608.75	17.617
609.08	18.022
609.41	18.186
609.75	17.796
610.08	19.167
610.41	18.313
610.74	18.617
611.07	18.154
611.41	18.608
611.74	18.972
612.07	18.904
612.40	18.230
612.73	18.148
613.07	17.722
613.40	18.664
613.73	18.856
614.06	18.561
614.39	18.828
614.72	17.933
615.06	17.826
615.39	17.906
615.72	18.577
616.05	17.835
616.38	18.166
616.71	17.958
617.05	18.335
617.38	18.885
617.71	17.813
618.04	18.261
618.37	18.553
618.70	17.862
619.03	17.332
619.36	19.168
619.69	18.090
620.03	18.388
620.36	18.143
620.69	17.803
621.02	17.352
621.35	16.694
621.68	17.213
622.01	17.233
622.34	18.789
622.67	17.187
623.00	17.904
623.33	19.104
623.66	17.282
623.99	17.669
624.32	17.411
624.65	17.734
624.99	17.102
625.32	16.692
625.65	18.648
625.98	16.197
626.31	18.515
626.64	17.908
626.97	17.123
627.30	17.362
627.63	16.926
627.96	17.058
628.29	16.544
628.62	14.995
628.95	17.421
629.28	15.414
629.61	16.192
629.94	17.297
630.26	17.893
630.59	17.286
630.92	16.116
631.25	17.137
631.58	16.614
631.91	14.787
632.24	17.222
632.57	16.556
632.90	18.161
633.23	16.355
633.56	16.374
633.89	16.156
634.22	15.939
634.55	15.385
634.88	15.961
635.20	15.231
635.53	15.776
635.86	15.617
636.19	15.263
636.52	16.368
636.85	15.644
637.18	15.375
637.51	17.100
637.83	16.911
638.16	17.763
638.49	15.724
638.82	15.959
639.15	17.639
639.48	15.953
639.81	17.842
640.13	16.216
640.46	16.952
640.79	17.087
641.12	16.502
641.45	15.495
641.77	17.964
642.10	14.502
642.43	15.326
642.76	14.331
643.09	14.286
643.41	16.032
643.74	16.693
644.07	16.537
644.40	15.073
644.73	14.851
645.05	15.526
645.38	14.404
645.71	15.808
646.04	16.975
646.36	14.136
646.69	15.571
647.02	17.329
647.35	13.177
647.67	16.606
648.00	16.169
648.33	17.201
648.66	14.194
648.98	14.490
649.31	15.538
649.64	16.563
649.96	15.542
650.29	14.590
650.62	14.630
650.94	14.840
651.27	15.598
651.60	16.263
651.92	15.753
652.25	14.691
652.58	13.799
652.90	16.051
653.23	17.097
653.56	15.217
653.88	14.918
654.21	16.443
654.54	17.276
654.86	17.014
655.19	17.049
655.52	18.594
655.84	19.978
656.17	22.661
656.49	30.479
656.82	30.765
657.15	22.633
657.47	16.591
657.80	12.886
658.13	14.402
658.45	18.974
658.78	18.095
659.10	17.833
659.43	17.299
659.75	16.758
660.08	16.354
660.41	16.362
660.73	14.081
661.06	16.812
661.38	16.250
661.71	14.340
662.03	16.532
662.36	15.991
662.68	14.135
663.01	15.074
663.33	16.100
663.66	13.734
663.98	10.938
664.31	13.870
664.63	15.929
664.96	14.100
665.28	14.317
665.61	13.742
665.93	15.432
666.26	14.170
666.58	15.177
666.91	13.586
667.23	14.693
667.56	14.966
667.88	18.778
668.21	14.977
668.53	15.187
668.86	16.859
669.18	14.384
669.50	11.449
669.83	13.139
670.15	15.471
670.48	16.121
670.80	12.301
671.13	14.673
671.45	14.414
671.77	16.274
672.10	16.371
672.42	15.498
672.75	16.364
673.07	15.676
673.39	14.936
673.72	15.748
674.04	11.890
674.37	12.577
674.69	17.623
675.01	12.340
675.34	15.401
675.66	15.983
675.98	15.639
676.31	13.575
676.63	16.552
676.95	15.265
677.28	13.921
677.60	16.742
677.92	16.300
678.25	18.381
678.57	16.667
678.89	15.933
679.22	16.562
679.54	17.554
679.86	16.000
680.18	18.061
680.51	14.711
680.83	13.905
681.15	15.800
681.48	18.458
681.80	14.919
682.12	14.889
682.44	15.128
682.77	13.203
683.09	17.820
683.41	16.372
683.73	15.068
684.06	16.129
684.38	14.435
684.70	16.255
685.02	14.764
685.34	15.984
685.67	16.098
685.99	13.611
686.31	17.594
686.63	17.021
686.96	15.896
687.28	15.029
687.60	15.234
687.92	13.813
688.24	17.913
688.56	16.633
688.89	17.308
689.21	16.849
689.53	16.092
689.85	16.927
690.17	14.574
690.49	15.935
690.82	14.940
691.14	14.858
691.46	15.965
691.78	16.520
692.10	17.797
692.42	14.222
692.74	14.592
693.06	15.730
693.39	19.016
693.71	15.124
694.03	16.199
694.35	15.124
694.67	14.657
694.99	13.043
695.31	17.092
695.63	16.582
695.95	15.136
696.27	17.207
696.59	18.717
696.91	15.730
697.23	16.146
697.56	12.500
697.88	15.766
698.20	14.989
698.52	12.108
698.84	14.806
699.16	14.286
699.48	12.750
699.80	15.038
700.12	16.121
700.44	14.804
700.76	12.828
701.08	14.244
701.40	12.991
701.72	17.284
702.04	16.026
702.36	14.759
702.68	12.575
703.00	13.333
703.32	12.607
703.64	17.059
703.96	16.860
704.28	16.272
704.60	13.924
704.91	10.476
705.23	16.181
705.55	15.541
705.87	16.382
706.19	12.500
706.51	12.153
706.83	20.328
707.15	17.834
707.47	18.733
707.79	15.722
708.11	15.776
708.43	17.955
708.74	15.584
709.06	13.928
709.38	14.943
709.70	11.250
710.02	18.405
710.34	12.541
710.66	17.143
710.98	14.511
711.29	15.161
711.61	15.335
711.93	13.770
712.25	17.276
712.57	17.073
712.89	14.029
713.20	16.151
713.52	11.567
713.84	15.302
714.16	18.361
714.48	16.508
714.80	18.769
715.11	15.562
715.43	19.578
715.75	17.445
716.07	15.410
716.39	15.385
716.70	17.422
717.02	13.704
717.34	18.702
717.66	16.598
717.97	16.393
718.29	14.706
718.61	16.667
718.93	17.204
719.24	11.029
719.56	12.075
719.88	14.909
720.20	17.228
720.51	18.797
720.83	13.655
721.15	15.984
721.46	18.824
721.78	16.858
722.10	16.400
722.42	11.983
722.73	17.131
723.05	15.261
723.37	19.608
723.68	13.765
724.00	19.512
724.32	13.580
724.63	13.693
724.95	19.421
725.27	14.474
725.58	12.069
725.90	13.889
726.22	22.509
726.53	15.970
726.85	13.725
727.16	16.917
727.48	17.692
727.80	13.934
728.11	17.647
728.43	15.702
728.74	21.484
729.06	16.667
729.38	13.230
729.69	15.748
730.01	13.780
730.32	15.936
730.64	15.018
730.96	16.418
731.27	12.143
731.59	19.293
731.90	18.712
732.22	15.951
732.53	19.868
732.85	18.792
733.16	16.667
733.48	18.815
733.80	13.523
734.11	18.621
734.43	16.667
734.74	16.617
735.06	16.301
735.37	14.679
735.69	12.581
736.00	18.519
736.32	16.225
736.63	10.690
736.95	16.667
737.26	19.868
737.58	16.187
737.89	20.789
738.21	11.654
738.52	20.000
738.83	19.531
739.15	17.094
739.46	21.371
739.78	19.231
740.09	17.483
740.41	18.881
740.72	19.343
741.04	15.079
741.35	17.316
741.66	17.593
741.98	15.238
742.29	22.066
742.61	20.321
742.92	20.561
743.23	15.789
743.55	20.270
743.86	22.222
744.18	10.476
744.49	23.153
744.80	20.305
745.12	15.464
745.43	22.613
745.74	20.388
746.06	16.098
746.37	16.300
746.68	24.876
747.00	15.183
747.31	10.577
747.62	13.825
747.94	19.651
748.25	20.000
748.56	21.429
748.88	19.565
749.19	17.840
749.50	23.039
749.82	19.556
750.13	19.824
750.44	17.886
750.75	19.600
751.07	19.643
751.38	17.712
751.69	16.031
752.01	19.231
752.32	14.397
752.63	16.154
752.94	13.492
753.26	20.000
753.57	20.536
753.88	19.828
754.19	12.863
754.51	16.016
754.82	15.810
755.13	15.226
755.44	21.074
755.75	18.930
756.07	10.442
756.38	17.578
756.69	21.661
757.00	15.331
757.31	19.128
757.63	21.807
757.94	17.919
758.25	15.116
758.56	20.216
758.87	15.625
759.18	12.000
759.50	18.861
759.81	16.788
760.12	17.230
760.43	22.330
760.74	20.312
761.05	17.978
761.36	20.659
761.67	15.680
761.99	17.742
762.30	17.754
762.61	18.113
762.92	20.628
763.23	18.009
763.54	16.889
763.85	21.097
764.16	22.857
764.47	16.949
764.78	19.850
765.10	23.741
765.41	14.839
765.72	16.667
766.03	13.428
766.34	17.293
766.65	17.409
766.96	15.000
767.27	17.187
767.58	8.721
767.89	19.355
768.20	16.564
768.51	10.383
768.82	17.838
769.13	15.500
769.44	18.860
769.75	17.749
770.06	21.101
770.37	11.737
770.68	21.875
770.99	19.307
771.30	11.650
771.61	14.815
771.92	20.779
772.23	18.692
772.54	14.894
772.85	13.018
773.16	21.341
773.47	21.084
773.78	22.527
774.09	15.333
774.39	12.963
774.70	16.107
775.01	16.667
775.32	14.179
775.63	10.744
775.94	14.286
776.25	17.857
776.56	23.770
776.87	20.354
777.18	15.929
777.48	7.273
777.79	13.913
778.10	10.092
778.41	9.322
778.72	20.661
779.03	14.179
779.34	17.293
779.65	17.647
779.95	26.812
780.26	18.367
780.57	4.310
780.88	25.926
781.19	5.051
781.50	8.800
781.80	16.340
782.11	16.667
782.42	24.699
782.73	20.438
783.04	18.243
783.34	10.606
783.65	17.829
783.96	18.699
784.27	15.385
784.57	13.821
784.88	4.878
785.19	22.807
785.50	7.216
785.81	8.571
786.11	14.706
786.42	8.182
786.73	14.414
787.04	28.713
787.34	20.000
787.65	20.000
787.96	15.686
788.26	18.919
788.57	20.968
788.88	14.063
789.19	7.692
789.49	5.042
789.80	15.385
790.11	22.124
790.41	15.152
790.72	18.868
791.03	0.000
791.33	5.263
791.64	23.656
791.95	10.667
792.25	20.000
792.56	6.098
792.87	20.408
793.17	15.789
793.48	5.405
793.79	9.859
794.09	16.456
794.40	19.149
794.70	13.084
795.01	17.544
795.32	22.727
795.62	13.393
795.93	13.402
796.23	17.582
796.54	20.000
796.85	20.548
797.15	5.556
797.46	5.479
797.76	21.127
798.07	21.250
798.37	11.765
798.68	21.429
798.99	12.857
799.29	15.789
799.60	15.000
799.90	18.056
800.21	15.625
800.51	17.460
800.82	22.951
801.12	26.316
801.43	14.085
801.73	-6.780
802.04	40.984
802.34	-5.455
802.65	28.846
802.95	29.630
803.26	-17.500
803.56	21.154
803.87	5.263
804.17	3.226
804.48	24.615
804.78	-17.949
805.09	34.884
805.39	-15.625
805.70	9.434
806.00	40.351
806.30	41.892
806.61	8.824
806.91	25.926
807.22	14.667
807.52	22.388
807.83	19.355
808.13	3.175
808.43	29.091
808.74	13.636
809.04	18.868
809.35	31.507
809.65	19.298
809.95	19.118
810.26	35.294
810.56	2.000
810.86	0.000
811.17	0.000
811.47	25.000
811.77	-3.226
812.08	-15.789
812.38	14.286
812.69	0.000
812.99	3.226
813.29	2.381
813.59	-40.741
813.90	2.128
814.20	23.256
814.50	4.167
814.81	28.333
815.11	21.951
815.41	10.000
815.72	34.286
816.02	-25.000
816.32	20.513
816.62	-2.703
816.93	-17.647
817.23	26.087
817.53	5.882
817.84	32.353
818.14	-9.375
818.44	-10.345
818.74	19.355
819.04	25.926
819.35	6.667
819.65	-8.000
819.95	13.333
820.25	-12.000
820.56	15.789
820.86	-15.000
821.16	-4.255
821.46	24.138
821.76	-7.692
822.07	10.000
822.37	11.628
822.67	0.000
822.97	13.514
823.27	18.919
823.57	12.000
823.88	8.108
824.18	-28.571
824.48	34.615
824.78	-69.231
825.08	21.739
825.38	0.000
825.69	-20.833
825.99	-30.000
826.29	-8.108
826.59	11.765
826.89	72.000
827.19	14.286
827.49	26.316
827.79	6.250
828.09	-20.000
828.39	-8.696
828.70	17.241
829.00	20.690
829.30	33.333
829.60	62.500
829.90	-11.111
830.20	7.692
830.50	-4.762
830.80	-7.143
831.10	15.385
831.40	-14.286
831.70	-11.765
832.00	25.000
832.30	15.789
832.60	37.500
832.90	-50.000
833.20	-64.706
833.50	33.333
833.80	53.333
834.10	5.000
834.40	58.333
834.70	22.222
835.00	80.769
835.30	-4.167
835.60	24.138
835.90	44.444
836.20	-127.273
836.50	25.000
836.80	14.286
837.10	28.571
837.40	-17.647
837.70	72.727
838.00	62.500
838.30	-12.500
838.60	28.571
838.90	45.000
839.19	8.696
839.49	21.739
839.79	-44.444
840.09	17.391
840.39	22.727
840.69	6.250
840.99	36.842
841.29	37.500
841.59	-21.429
841.88	-16.667
842.18	37.500
842.48	-70.588
842.78	41.379
843.08	71.429
843.38	-7.692
843.68	55.556
843.97	76.923
844.27	-81.818
844.57	-100.000
844.87	68.000
845.17	0.000
845.47	28.571
845.76	0.000
846.06	0.000
846.36	-175.000
846.66	0.000
846.96	15.789
847.25	8.333
847.55	58.333
847.85	13.333
848.15	-10.000
848.44	69.231
848.74	47.368
849.04	-0.000
849.34	33.333
849.63	-21.053
849.93	0.000
850.23	20.000
850.53	-4.762
850.82	28.000
851.12	94.737
851.42	-100.000
851.71	-64.286
852.01	-25.000
852.31	23.529
852.61	60.000
852.90	-4.762
853.20	16.667
853.50	55.556
853.79	0.000
854.09	-40.000
854.39	25.000
854.68	34.783
854.98	-116.667
855.28	37.931
855.57	-43.750
855.87	0.000
856.17	-53.333
856.46	48.276
856.76	-20.000
857.05	0.000
857.35	-15.385
857.65	54.545
857.94	14.815
858.24	-28.571
858.53	-42.857
858.83	-41.667
859.13	-166.667
859.42	47.619
859.72	-25.000
860.01	-266.667
860.31	12.500
860.60	-100.000
860.90	0.000
861.20	37.500
861.49	-71.429
861.79	5.882
862.08	-150.000
862.38	-50.000
862.67	100.000
862.97	-5.882
863.26	95.000
863.56	47.059
863.85	33.333
864.15	-100.000
864.44	-15.385
864.74	40.000
865.03	-100.000
865.33	-50.000
865.62	47.059
865.92	-125.000
866.21	-57.143
866.51	-16.667
866.80	400.000
867.10	333.333
867.39	29.412
867.69	34.783
867.98	-42.857
868.27	-160.000
868.57	-18.750
868.86	-118.182
869.16	111.765
869.45	-50.000
869.75	42.857
870.04	-500.000
870.33	-25.000
870.63	80.000
870.92	77.778
871.22	-50.000
871.51	0.000
871.80	116.667
872.10	60.000
>>>>>End Processed Spectral Data<<<<<
