SpectraSuite Data File
++++++++++++++++++++++++++++++++++++
Date: Sat May 16 11:22:08 PDT 2015
User: schluterlab
Dark Spectrum Present: Yes
Reference Spectrum Present: Yes
Number of Sampled Component Spectra: 1
Spectrometers: USB2E3373
Integration Time (usec): 3000 (USB2E3373)
Spectra Averaged: 3 (USB2E3373)
Boxcar Smoothing: 0 (USB2E3373)
Correct for Electrical Dark: No (USB2E3373)
Strobe/Lamp Enabled: No (USB2E3373)
Correct for Detector Non-linearity: No (USB2E3373)
Correct for Stray Light: No (USB2E3373)
Number of Pixels in Processed Spectrum: 2048
>>>>>Begin Processed Spectral Data<<<<<
178.53	0.000
178.91	113.333
179.29	266.667
179.67	-1400.000
180.04	-61.538
180.42	800.000
180.80	375.000
181.18	725.000
181.56	-175.000
181.94	700.000
182.31	700.000
182.69	-23.077
183.07	-400.000
183.45	1550.000
183.83	233.333
184.20	-242.857
184.58	-250.000
184.96	-175.000
185.34	137.500
185.72	-625.000
186.09	316.667
186.47	-62.500
186.85	-137.500
187.23	-25.000
187.61	-100.000
187.98	-362.500
188.36	-137.500
188.74	-112.500
189.12	1600.000
189.49	285.714
189.87	-133.333
190.25	300.000
190.63	7.143
191.00	-233.333
191.38	640.000
191.76	26.667
192.14	500.000
192.51	-260.000
192.89	-833.333
193.27	0.000
193.65	-44.444
194.02	-185.714
194.40	666.667
194.78	-90.000
195.15	-700.000
195.53	-72.727
195.91	-383.333
196.29	240.000
196.66	-766.667
197.04	1500.000
197.42	-150.000
197.79	26.667
198.17	-33.333
198.55	-250.000
198.92	-1100.000
199.30	162.500
199.68	-750.000
200.05	-166.667
200.43	-211.111
200.81	-1100.000
201.18	-100.000
201.56	85.714
201.94	-66.667
202.31	9.091
202.69	-40.000
203.07	-120.000
203.44	566.667
203.82	-250.000
204.19	-475.000
204.57	25.000
204.95	-900.000
205.32	-25.000
205.70	1200.000
206.08	-1900.000
206.45	-11.111
206.83	-700.000
207.20	200.000
207.58	-633.333
207.96	-300.000
208.33	-175.000
208.71	-188.889
209.08	210.000
209.46	-200.000
209.84	550.000
210.21	0.000
210.59	40.000
210.96	600.000
211.34	-250.000
211.71	-266.667
212.09	525.000
212.46	1100.000
212.84	-2700.000
213.22	900.000
213.59	66.667
213.97	-22.222
214.34	160.000
214.72	-90.000
215.09	-366.667
215.47	-116.667
215.84	-30.000
216.22	-30.000
216.59	-60.000
216.97	-475.000
217.34	850.000
217.72	-128.571
218.09	-350.000
218.47	-228.571
218.84	114.286
219.22	14.286
219.59	0.000
219.97	242.857
220.34	325.000
220.72	312.500
221.09	-15.385
221.47	0.000
221.84	333.333
222.22	-400.000
222.59	1000.000
222.97	-75.000
223.34	-650.000
223.72	-500.000
224.09	-35.714
224.46	-400.000
224.84	-78.571
225.21	-400.000
225.59	-127.273
225.96	-212.500
226.34	-57.143
226.71	-144.444
227.08	-45.000
227.46	1600.000
227.83	-242.857
228.21	-175.000
228.58	150.000
228.95	-75.000
229.33	-1500.000
229.70	-300.000
230.08	-500.000
230.45	0.000
230.82	-200.000
231.20	-1400.000
231.57	-300.000
231.95	1800.000
232.32	-33.333
232.69	-188.889
233.07	-228.571
233.44	-550.000
233.81	-113.333
234.19	-100.000
234.56	-37.500
234.93	-21.875
235.31	-271.429
235.68	-128.571
236.05	-76.471
236.43	-118.182
236.80	-12.903
237.17	-20.833
237.55	-61.905
237.92	-109.091
238.29	-25.714
238.67	8.824
239.04	-22.222
239.41	-64.516
239.79	-46.154
240.16	-11.905
240.53	-34.545
240.91	-5.128
241.28	-12.727
241.65	-12.308
242.02	-11.475
242.40	-19.672
242.77	-7.576
243.14	-15.254
243.51	-28.571
243.89	-16.456
244.26	-16.854
244.63	-12.632
245.00	-13.684
245.38	-0.847
245.75	-7.965
246.12	-5.600
246.49	-4.724
246.87	-11.382
247.24	-21.186
247.61	-20.339
247.98	-4.225
248.36	-16.783
248.73	0.000
249.10	-12.739
249.47	-3.509
249.84	-2.273
250.22	-7.738
250.59	-3.955
250.96	-10.995
251.33	0.948
251.70	-2.885
252.08	-2.844
252.45	-9.005
252.82	-6.667
253.19	-3.830
253.56	-6.452
253.94	-7.173
254.31	-3.004
254.68	-2.033
255.05	-4.839
255.42	-2.381
255.79	-2.867
256.16	-6.667
256.54	-4.779
256.91	-4.167
257.28	-5.495
257.65	-3.191
258.02	3.774
258.39	-4.013
258.76	-5.068
259.14	-4.630
259.51	-1.639
259.88	-2.744
260.25	0.932
260.62	-5.145
260.99	-2.967
261.36	-1.220
261.73	-2.312
262.10	-3.333
262.47	-2.849
262.85	2.000
263.22	-3.152
263.59	-3.077
263.96	-1.449
264.33	-1.084
264.70	-1.657
265.07	-2.198
265.44	-2.584
265.81	-3.359
266.18	-5.063
266.55	-1.225
266.92	-3.023
267.29	-1.211
267.66	-2.963
268.03	-1.691
268.40	0.939
268.77	-0.964
269.14	-0.928
269.51	-0.460
269.88	-5.046
270.25	-3.497
270.62	-3.890
270.99	-1.577
271.36	-1.865
271.73	-1.570
272.10	-2.746
272.47	-3.111
272.84	1.111
273.21	-1.606
273.58	-1.319
273.95	-2.632
274.32	-1.810
274.69	-1.313
275.06	-0.204
275.43	-3.125
275.80	1.629
276.17	-1.046
276.54	1.426
276.91	-2.675
277.28	-3.043
277.65	-0.826
278.02	-0.835
278.39	-1.768
278.76	-2.988
279.13	-0.198
279.50	-0.596
279.87	-1.903
280.23	0.000
280.60	-2.584
280.97	-0.388
281.34	-2.708
281.71	-0.192
282.08	-1.613
282.45	-4.684
282.82	-0.388
283.19	-1.455
283.56	-0.733
283.92	0.177
284.29	-0.558
284.66	0.000
285.03	-0.535
285.40	0.369
285.77	0.526
286.14	-1.264
286.51	-1.599
286.87	-0.363
287.24	-1.536
287.61	0.496
287.98	-1.560
288.35	-0.826
288.72	-1.698
289.08	-3.898
289.45	-0.673
289.82	-3.114
290.19	0.000
290.56	-2.645
290.93	-1.113
291.29	-2.431
291.66	-0.483
292.03	-0.157
292.40	-0.452
292.77	-1.708
293.13	-0.650
293.50	-0.446
293.87	0.920
294.24	-1.207
294.60	-3.182
294.97	-0.303
295.34	-1.778
295.71	-0.893
296.08	-2.304
296.44	-1.288
296.81	-0.427
297.18	-1.831
297.55	0.989
297.91	0.558
298.28	-0.137
298.65	-0.558
299.02	0.802
299.38	-1.337
299.75	-2.310
300.12	-0.385
300.48	-0.256
300.85	-0.393
301.22	0.129
301.59	1.300
301.95	0.126
302.32	-2.477
302.69	0.490
303.05	-0.855
303.42	-1.500
303.79	-1.196
304.15	-0.118
304.52	-0.583
304.89	-0.590
305.25	-1.221
305.62	-0.353
305.99	0.589
306.35	0.000
306.72	-0.911
307.09	1.249
307.45	0.114
307.82	-0.670
308.19	-0.112
308.55	0.109
308.92	0.322
309.29	0.216
309.65	0.530
310.02	0.648
310.38	-0.757
310.75	0.102
311.12	0.723
311.48	0.835
311.85	0.824
312.22	0.412
312.58	2.442
312.95	0.815
313.31	1.399
313.68	1.407
314.05	1.583
314.41	0.905
314.78	0.300
315.14	2.468
315.51	2.128
315.87	2.517
316.24	1.166
316.61	1.727
316.97	2.090
317.34	2.216
317.70	1.206
318.07	3.825
318.43	2.528
318.80	4.695
319.16	2.627
319.53	3.102
319.89	2.540
320.26	3.235
320.62	2.981
320.99	4.179
321.35	2.857
321.72	2.764
322.08	4.451
322.45	2.871
322.81	4.995
323.18	4.419
323.54	4.251
323.91	6.209
324.27	5.608
324.64	5.393
325.00	6.195
325.37	7.240
325.73	7.787
326.10	6.643
326.46	6.743
326.83	9.021
327.19	7.756
327.56	7.836
327.92	8.836
328.29	9.697
328.65	8.273
329.01	10.071
329.38	9.188
329.74	11.447
330.11	10.970
330.47	11.717
330.84	12.832
331.20	11.372
331.56	12.215
331.93	13.588
332.29	13.607
332.66	13.257
333.02	13.303
333.38	14.516
333.75	14.693
334.11	13.689
334.48	14.916
334.84	15.748
335.20	15.337
335.57	14.531
335.93	17.278
336.29	14.969
336.66	15.595
337.02	16.847
337.38	16.132
337.75	17.208
338.11	16.726
338.47	16.637
338.84	16.788
339.20	15.466
339.56	17.112
339.93	16.490
340.29	16.475
340.65	16.346
341.02	17.116
341.38	17.186
341.74	17.782
342.11	16.468
342.47	16.567
342.83	16.121
343.20	16.652
343.56	15.592
343.92	17.446
344.28	18.082
344.65	16.254
345.01	17.815
345.37	17.857
345.73	16.530
346.10	15.781
346.46	16.409
346.82	17.241
347.19	17.256
347.55	16.212
347.91	16.693
348.27	16.150
348.63	17.367
349.00	16.627
349.36	16.003
349.72	18.949
350.08	17.322
350.45	16.233
350.81	17.436
351.17	16.238
351.53	16.070
351.89	17.462
352.26	16.822
352.62	17.665
352.98	17.168
353.34	17.186
353.70	17.297
354.07	17.152
354.43	17.154
354.79	16.957
355.15	16.773
355.51	16.562
355.87	16.522
356.24	16.521
356.60	17.647
356.96	17.321
357.32	16.548
357.68	16.475
358.04	17.167
358.40	17.015
358.77	17.002
359.13	17.215
359.49	16.931
359.85	16.387
360.21	17.504
360.57	17.545
360.93	17.926
361.29	17.190
361.66	16.845
362.02	17.234
362.38	18.195
362.74	18.022
363.10	16.643
363.46	18.732
363.82	17.638
364.18	17.945
364.54	18.656
364.90	17.191
365.26	17.332
365.62	17.676
365.98	17.852
366.35	17.535
366.71	16.913
367.07	17.855
367.43	18.668
367.79	17.595
368.15	16.785
368.51	18.881
368.87	18.613
369.23	17.895
369.59	17.986
369.95	18.675
370.31	19.409
370.67	18.004
371.03	18.878
371.39	18.388
371.75	19.957
372.11	18.508
372.47	18.077
372.83	18.498
373.19	18.214
373.55	18.719
373.91	18.492
374.27	18.549
374.63	18.841
374.99	18.985
375.35	18.775
375.71	19.379
376.07	18.754
376.42	17.748
376.78	19.477
377.14	18.712
377.50	18.698
377.86	19.051
378.22	19.410
378.58	18.901
378.94	19.482
379.30	19.317
379.66	19.672
380.02	19.311
380.38	19.517
380.74	19.461
381.09	19.566
381.45	20.227
381.81	19.419
382.17	19.987
382.53	19.149
382.89	19.557
383.25	20.048
383.61	19.870
383.97	20.269
384.32	20.401
384.68	20.617
385.04	20.229
385.40	20.207
385.76	20.671
386.12	20.300
386.48	20.792
386.83	20.491
387.19	20.263
387.55	20.048
387.91	20.391
388.27	19.180
388.62	20.313
388.98	19.927
389.34	19.829
389.70	20.280
390.06	19.515
390.42	20.321
390.77	20.000
391.13	20.621
391.49	20.774
391.85	20.449
392.20	20.085
392.56	20.586
392.92	19.852
393.28	20.149
393.64	20.746
393.99	20.985
394.35	21.229
394.71	20.074
395.07	21.030
395.42	19.547
395.78	20.490
396.14	20.997
396.50	20.000
396.85	20.605
397.21	20.535
397.57	20.729
397.92	20.492
398.28	20.444
398.64	21.178
399.00	20.955
399.35	20.631
399.71	21.719
400.07	20.119
400.42	21.350
400.78	19.618
401.14	20.539
401.49	19.988
401.85	19.951
402.21	19.547
402.57	20.328
402.92	20.957
403.28	19.914
403.63	19.892
403.99	21.193
404.35	20.229
404.70	20.304
405.06	20.473
405.42	20.049
405.77	18.722
406.13	19.534
406.49	20.911
406.84	20.216
407.20	20.318
407.55	20.013
407.91	19.689
408.27	20.221
408.62	21.106
408.98	20.133
409.34	20.414
409.69	20.605
410.05	20.497
410.40	20.478
410.76	19.739
411.11	21.010
411.47	19.949
411.83	20.416
412.18	19.802
412.54	19.524
412.89	20.778
413.25	18.890
413.60	19.927
413.96	19.470
414.31	20.428
414.67	19.429
415.03	19.793
415.38	20.169
415.74	21.070
416.09	21.292
416.45	20.304
416.80	21.586
417.16	20.199
417.51	22.127
417.87	20.324
418.22	20.733
418.58	22.272
418.93	20.969
419.29	20.954
419.64	20.729
420.00	21.324
420.35	21.526
420.71	21.789
421.06	20.888
421.42	21.897
421.77	21.943
422.12	22.384
422.48	22.181
422.83	21.811
423.19	21.771
423.54	21.902
423.90	22.556
424.25	22.342
424.61	22.678
424.96	22.411
425.31	22.862
425.67	22.579
426.02	21.859
426.38	23.291
426.73	23.378
427.09	23.162
427.44	23.409
427.79	22.616
428.15	23.639
428.50	24.633
428.85	23.921
429.21	23.796
429.56	23.333
429.92	23.798
430.27	23.878
430.62	24.033
430.98	24.360
431.33	23.693
431.68	24.933
432.04	24.678
432.39	24.843
432.74	24.101
433.10	24.873
433.45	24.237
433.80	24.636
434.16	25.900
434.51	25.425
434.86	25.835
435.22	25.835
435.57	24.847
435.92	25.264
436.28	26.350
436.63	26.173
436.98	25.830
437.34	26.580
437.69	26.313
438.04	25.922
438.39	26.715
438.75	26.251
439.10	26.152
439.45	26.252
439.81	26.446
440.16	26.349
440.51	26.588
440.86	27.010
441.22	26.755
441.57	27.263
441.92	27.673
442.27	27.597
442.63	27.468
442.98	26.411
443.33	26.908
443.68	26.785
444.03	28.143
444.39	27.460
444.74	27.588
445.09	27.412
445.44	27.349
445.79	28.659
446.15	27.985
446.50	27.872
446.85	27.655
447.20	27.477
447.55	28.785
447.91	29.197
448.26	28.547
448.61	28.183
448.96	29.188
449.31	28.636
449.66	29.307
450.02	28.975
450.37	28.406
450.72	28.983
451.07	29.290
451.42	28.748
451.77	29.084
452.12	30.036
452.47	30.164
452.83	29.470
453.18	30.044
453.53	29.789
453.88	30.801
454.23	27.872
454.58	30.081
454.93	30.730
455.28	29.509
455.63	30.590
455.98	29.458
456.34	28.399
456.69	30.582
457.04	30.055
457.39	29.725
457.74	31.305
458.09	30.626
458.44	31.293
458.79	29.260
459.14	29.720
459.49	30.965
459.84	31.254
460.19	30.967
460.54	30.369
460.89	30.998
461.24	30.419
461.59	29.836
461.94	29.917
462.29	30.375
462.64	30.698
462.99	31.191
463.34	30.858
463.69	31.107
464.04	30.580
464.39	30.227
464.74	30.851
465.09	30.487
465.44	31.303
465.79	31.246
466.14	31.300
466.49	31.606
466.84	31.032
467.19	31.421
467.54	30.823
467.89	31.443
468.24	31.176
468.59	31.355
468.94	32.026
469.29	30.929
469.64	31.739
469.99	32.140
470.34	31.663
470.68	32.849
471.03	31.246
471.38	31.250
471.73	32.727
472.08	31.191
472.43	30.888
472.78	32.667
473.13	31.146
473.48	31.334
473.83	32.382
474.17	32.229
474.52	33.887
474.87	32.110
475.22	31.209
475.57	32.056
475.92	32.397
476.27	31.486
476.61	31.493
476.96	31.694
477.31	33.369
477.66	32.540
478.01	32.091
478.36	31.221
478.70	32.461
479.05	32.125
479.40	32.073
479.75	32.161
480.10	32.639
480.45	31.770
480.79	32.823
481.14	33.216
481.49	33.059
481.84	33.148
482.19	32.206
482.53	32.860
482.88	32.795
483.23	32.207
483.58	33.580
483.92	33.540
484.27	32.344
484.62	31.965
484.97	32.112
485.31	31.424
485.66	31.110
486.01	31.140
486.36	31.835
486.70	32.888
487.05	32.474
487.40	32.372
487.75	32.426
488.09	31.717
488.44	31.867
488.79	31.411
489.13	31.875
489.48	32.871
489.83	32.620
490.17	32.651
490.52	33.197
490.87	33.903
491.22	32.882
491.56	33.148
491.91	33.302
492.26	32.264
492.60	32.493
492.95	33.317
493.30	32.158
493.64	32.722
493.99	32.983
494.34	33.476
494.68	33.755
495.03	33.031
495.37	33.727
495.72	33.890
496.07	33.177
496.41	33.534
496.76	32.511
497.11	33.914
497.45	34.243
497.80	32.666
498.14	33.743
498.49	33.752
498.84	32.670
499.18	34.211
499.53	33.268
499.87	33.398
500.22	33.137
500.56	33.717
500.91	32.808
501.26	34.546
501.60	33.510
501.95	34.010
502.29	33.160
502.64	34.135
502.98	33.876
503.33	32.989
503.67	33.669
504.02	32.690
504.36	33.725
504.71	33.840
505.06	33.400
505.40	33.583
505.75	33.130
506.09	34.479
506.44	33.333
506.78	34.772
507.13	33.059
507.47	33.959
507.82	34.435
508.16	34.922
508.51	33.797
508.85	33.903
509.19	34.642
509.54	35.254
509.88	34.309
510.23	34.644
510.57	34.021
510.92	35.553
511.26	33.971
511.61	32.991
511.95	33.890
512.30	34.524
512.64	33.166
512.98	34.873
513.33	34.651
513.67	34.059
514.02	33.110
514.36	34.017
514.70	34.861
515.05	34.305
515.39	34.775
515.74	35.311
516.08	34.582
516.42	34.901
516.77	34.893
517.11	34.668
517.46	35.825
517.80	35.138
518.14	34.722
518.49	34.907
518.83	35.549
519.17	34.932
519.52	35.223
519.86	34.827
520.20	35.330
520.55	34.031
520.89	35.066
521.23	35.165
521.58	34.357
521.92	35.212
522.26	35.429
522.61	33.904
522.95	34.142
523.29	34.859
523.64	34.041
523.98	34.182
524.32	33.564
524.66	34.286
525.01	34.232
525.35	34.923
525.69	34.743
526.04	35.052
526.38	34.182
526.72	33.716
527.06	34.245
527.41	33.531
527.75	33.201
528.09	35.275
528.43	35.016
528.78	34.611
529.12	36.108
529.46	34.729
529.80	33.764
530.15	34.900
530.49	34.541
530.83	35.232
531.17	34.747
531.51	33.958
531.86	34.826
532.20	33.941
532.54	34.693
532.88	34.453
533.22	34.158
533.57	34.269
533.91	34.020
534.25	34.129
534.59	34.291
534.93	32.483
535.27	33.795
535.62	34.143
535.96	33.937
536.30	32.395
536.64	33.732
536.98	35.169
537.32	33.379
537.66	33.537
538.01	33.471
538.35	34.189
538.69	33.623
539.03	33.175
539.37	33.533
539.71	33.556
540.05	33.859
540.39	34.418
540.73	35.522
541.07	34.085
541.42	32.816
541.76	33.488
542.10	34.166
542.44	33.111
542.78	34.057
543.12	33.876
543.46	32.740
543.80	32.709
544.14	32.774
544.48	33.268
544.82	33.965
545.16	34.474
545.50	33.580
545.84	34.006
546.18	33.773
546.52	34.068
546.86	34.188
547.20	34.810
547.54	32.094
547.88	33.311
548.22	32.700
548.56	32.866
548.90	32.480
549.24	33.287
549.58	32.816
549.92	33.286
550.26	35.116
550.60	32.717
550.94	33.577
551.28	33.559
551.62	33.161
551.96	34.805
552.30	32.544
552.64	33.638
552.98	33.777
553.32	33.045
553.66	33.886
554.00	33.191
554.34	33.213
554.68	33.406
555.02	31.838
555.36	33.357
555.69	32.665
556.03	32.702
556.37	34.282
556.71	33.787
557.05	32.964
557.39	32.442
557.73	33.260
558.07	34.665
558.41	32.536
558.75	33.460
559.08	31.829
559.42	33.461
559.76	34.356
560.10	33.184
560.44	33.671
560.78	32.846
561.12	33.057
561.45	33.014
561.79	32.683
562.13	33.240
562.47	33.193
562.81	33.168
563.15	32.960
563.48	33.379
563.82	32.387
564.16	32.725
564.50	33.401
564.84	32.275
565.17	33.355
565.51	32.399
565.85	34.212
566.19	34.124
566.52	32.681
566.86	34.134
567.20	32.990
567.54	33.727
567.88	32.049
568.21	32.271
568.55	31.654
568.89	31.859
569.23	32.115
569.56	30.811
569.90	31.511
570.24	31.154
570.57	31.424
570.91	30.976
571.25	30.869
571.59	31.283
571.92	30.387
572.26	31.096
572.60	31.275
572.93	30.691
573.27	30.183
573.61	30.399
573.95	30.814
574.28	29.933
574.62	30.656
574.96	29.761
575.29	29.827
575.63	30.502
575.97	29.720
576.30	30.337
576.64	30.183
576.98	29.933
577.31	30.441
577.65	29.881
577.98	30.019
578.32	30.078
578.66	29.892
578.99	30.356
579.33	30.269
579.67	29.952
580.00	30.084
580.34	30.235
580.67	30.081
581.01	29.753
581.35	30.128
581.68	29.866
582.02	31.045
582.35	30.142
582.69	30.811
583.02	30.393
583.36	30.052
583.70	29.980
584.03	30.199
584.37	30.176
584.70	29.976
585.04	29.696
585.37	29.833
585.71	30.213
586.04	30.902
586.38	29.885
586.72	30.693
587.05	30.813
587.39	30.074
587.72	30.369
588.06	30.619
588.39	30.447
588.73	30.416
589.06	31.234
589.40	30.814
589.73	30.772
590.07	31.063
590.40	31.513
590.73	31.188
591.07	31.148
591.40	31.846
591.74	30.843
592.07	31.486
592.41	31.507
592.74	31.360
593.08	30.862
593.41	30.888
593.75	30.135
594.08	31.344
594.41	31.645
594.75	30.804
595.08	31.805
595.42	31.250
595.75	31.202
596.09	31.083
596.42	31.506
596.75	31.048
597.09	31.612
597.42	30.642
597.75	31.178
598.09	31.767
598.42	30.977
598.76	30.606
599.09	30.742
599.42	30.988
599.76	31.144
600.09	31.260
600.42	30.725
600.76	31.563
601.09	30.460
601.42	30.352
601.76	30.802
602.09	31.166
602.42	30.494
602.76	30.162
603.09	30.685
603.42	30.902
603.76	32.230
604.09	31.358
604.42	32.015
604.76	31.269
605.09	30.696
605.42	31.339
605.75	30.315
606.09	31.258
606.42	30.624
606.75	31.258
607.09	31.319
607.42	30.678
607.75	31.700
608.08	30.863
608.42	31.599
608.75	31.402
609.08	30.833
609.41	30.643
609.75	31.399
610.08	31.373
610.41	32.048
610.74	32.157
611.07	31.288
611.41	31.417
611.74	31.774
612.07	32.331
612.40	31.663
612.73	30.372
613.07	30.875
613.40	32.786
613.73	32.098
614.06	31.082
614.39	31.736
614.72	31.061
615.06	30.326
615.39	30.819
615.72	31.776
616.05	31.143
616.38	32.211
616.71	31.471
617.05	32.268
617.38	32.322
617.71	31.695
618.04	31.553
618.37	31.887
618.70	31.877
619.03	32.498
619.36	31.783
619.69	32.663
620.03	30.716
620.36	31.716
620.69	31.228
621.02	32.040
621.35	31.694
621.68	32.623
622.01	31.877
622.34	32.764
622.67	33.047
623.00	32.288
623.33	32.985
623.66	31.315
623.99	32.782
624.32	30.357
624.65	32.009
624.99	31.591
625.32	32.635
625.65	31.857
625.98	32.160
626.31	34.095
626.64	32.469
626.97	32.449
627.30	32.085
627.63	30.656
627.96	32.811
628.29	32.445
628.62	32.378
628.95	32.185
629.28	31.203
629.61	32.090
629.94	32.703
630.26	32.704
630.59	33.769
630.92	31.932
631.25	33.065
631.58	31.111
631.91	31.596
632.24	34.111
632.57	34.556
632.90	33.218
633.23	32.593
633.56	32.632
633.89	34.552
634.22	33.176
634.55	33.293
634.88	32.769
635.20	31.586
635.53	32.188
635.86	32.620
636.19	33.333
636.52	32.736
636.85	33.213
637.18	30.875
637.51	35.688
637.83	32.889
638.16	32.632
638.49	34.621
638.82	32.304
639.15	32.815
639.48	33.333
639.81	34.716
640.13	32.162
640.46	33.618
640.79	33.473
641.12	33.145
641.45	31.564
641.77	34.281
642.10	33.535
642.43	32.018
642.76	32.913
643.09	33.333
643.41	33.651
643.74	35.771
644.07	33.697
644.40	32.739
644.73	33.498
645.05	31.886
645.38	35.430
645.71	34.021
646.04	35.294
646.36	35.428
646.69	33.564
647.02	33.574
647.35	34.657
647.67	31.752
648.00	34.095
648.33	35.076
648.66	31.452
648.98	31.847
649.31	32.000
649.64	32.500
649.96	31.397
650.29	32.295
650.62	34.768
650.94	31.535
651.27	32.582
651.60	32.180
651.92	34.075
652.25	32.220
652.58	31.516
652.90	33.226
653.23	34.839
653.56	32.609
653.88	30.492
654.21	33.893
654.54	35.382
654.86	31.621
655.19	31.662
655.52	31.822
655.84	29.307
656.17	32.291
656.49	43.930
656.82	45.129
657.15	34.103
657.47	24.869
657.80	19.068
658.13	21.532
658.45	29.083
658.78	28.358
659.10	28.493
659.43	27.924
659.75	28.167
660.08	28.750
660.41	27.684
660.73	29.153
661.06	33.333
661.38	33.393
661.71	30.975
662.03	32.460
662.36	31.343
662.68	29.958
663.01	35.032
663.33	32.200
663.66	32.833
663.98	30.134
664.31	30.425
664.63	35.841
664.96	31.236
665.28	31.453
665.61	32.558
665.93	34.979
666.26	35.020
666.58	32.017
666.91	32.962
667.23	33.114
667.56	33.787
667.88	33.258
668.21	34.332
668.53	32.944
668.86	34.180
669.18	34.247
669.50	31.776
669.83	32.360
670.15	29.372
670.48	32.710
670.80	29.613
671.13	29.120
671.45	30.856
671.77	32.762
672.10	34.122
672.42	31.550
672.75	29.818
673.07	30.090
673.39	32.240
673.72	33.661
674.04	30.361
674.37	31.959
674.69	29.508
675.01	30.638
675.34	31.670
675.66	32.613
675.98	31.057
676.31	31.222
676.63	34.483
676.95	30.752
677.28	28.538
677.60	31.900
677.92	34.141
678.25	31.729
678.57	32.716
678.89	29.979
679.22	32.285
679.54	33.136
679.86	29.600
680.18	32.700
680.51	31.099
680.83	33.333
681.15	32.370
681.48	31.643
681.80	29.637
682.12	32.998
682.44	28.487
682.77	27.273
683.09	29.140
683.41	29.425
683.73	30.137
684.06	30.968
684.38	33.473
684.70	29.630
685.02	31.693
685.34	31.969
685.67	29.167
685.99	27.599
686.31	32.316
686.63	31.915
686.96	29.945
687.28	30.058
687.60	30.469
687.92	28.016
688.24	31.102
688.56	28.657
688.89	29.915
689.21	29.978
689.53	31.954
689.85	30.512
690.17	29.596
690.49	30.716
690.82	30.120
691.14	29.481
691.46	27.938
691.78	27.533
692.10	31.356
692.42	29.556
692.74	32.403
693.06	29.663
693.39	29.306
693.71	30.248
694.03	29.158
694.35	26.862
694.67	30.969
694.99	28.900
695.31	29.847
695.63	30.357
695.95	29.529
696.27	29.925
696.59	30.481
696.91	30.337
697.23	28.385
697.56	28.365
697.88	27.027
698.20	28.051
698.52	24.439
698.84	31.311
699.16	30.714
699.48	27.000
699.80	30.075
700.12	30.227
700.44	27.654
700.76	29.446
701.08	31.686
701.40	27.492
701.72	33.642
702.04	27.885
702.36	33.735
702.68	29.042
703.00	28.986
703.32	28.080
703.64	26.176
703.96	29.651
704.28	25.444
704.60	24.051
704.91	25.079
705.23	28.479
705.55	25.676
705.87	29.693
706.19	26.736
706.51	28.472
706.83	29.180
707.15	28.344
707.47	31.405
707.79	30.670
708.11	25.445
708.43	31.920
708.74	24.935
709.06	28.134
709.38	28.161
709.70	30.000
710.02	32.515
710.34	26.403
710.66	30.476
710.98	24.921
711.29	27.097
711.61	29.393
711.93	30.820
712.25	31.229
712.57	26.829
712.89	29.856
713.20	31.959
713.52	26.866
713.84	26.690
714.16	30.492
714.48	30.476
714.80	25.231
715.11	29.683
715.43	28.916
715.75	25.545
716.07	26.885
716.39	26.087
716.70	28.571
717.02	26.667
717.34	27.481
717.66	32.365
717.97	26.639
718.29	31.513
718.61	31.349
718.93	26.165
719.24	24.265
719.56	23.396
719.88	29.818
720.20	26.592
720.51	31.203
720.83	29.719
721.15	25.000
721.46	25.882
721.78	24.904
722.10	24.400
722.42	24.380
722.73	28.287
723.05	28.112
723.37	25.490
723.68	28.745
724.00	28.049
724.32	29.218
724.63	23.237
724.95	33.058
725.27	26.316
725.58	32.328
725.90	23.016
726.22	27.675
726.53	29.278
726.85	20.784
727.16	26.316
727.48	25.385
727.80	23.361
728.11	24.370
728.43	23.554
728.74	25.000
729.06	26.894
729.38	26.848
729.69	24.409
730.01	28.740
730.32	21.514
730.64	26.007
730.96	29.851
731.27	23.571
731.59	27.331
731.90	22.699
732.22	24.540
732.53	30.795
732.85	22.819
733.16	26.449
733.48	24.739
733.80	24.555
734.11	23.448
734.43	22.789
734.74	27.003
735.06	24.765
735.37	25.382
735.69	24.194
736.00	25.589
736.32	24.503
736.63	23.448
736.95	25.725
737.26	26.821
737.58	25.180
737.89	31.541
738.21	23.684
738.52	27.308
738.83	27.734
739.15	29.487
739.46	24.597
739.78	23.776
740.09	24.476
740.41	24.126
740.72	28.832
741.04	21.429
741.35	22.511
741.66	28.704
741.98	23.333
742.29	24.883
742.61	25.668
742.92	28.972
743.23	21.930
743.55	27.477
743.86	27.556
744.18	24.286
744.49	27.586
744.80	26.904
745.12	27.835
745.43	29.146
745.74	21.845
746.06	24.390
746.37	29.956
746.68	24.876
747.00	25.131
747.31	18.750
747.62	24.885
747.94	25.764
748.25	26.977
748.56	24.286
748.88	18.478
749.19	25.352
749.50	27.451
749.82	28.444
750.13	29.515
750.44	25.203
750.75	25.600
751.07	26.786
751.38	26.199
751.69	24.046
752.01	25.000
752.32	21.012
752.63	23.846
752.94	25.000
753.26	28.696
753.57	20.982
753.88	27.155
754.19	20.747
754.51	24.609
754.82	24.901
755.13	28.395
755.44	25.207
755.75	26.749
756.07	16.867
756.38	24.609
756.69	27.076
757.00	22.300
757.31	25.839
757.63	25.545
757.94	21.098
758.25	25.291
758.56	27.763
758.87	23.864
759.18	18.000
759.50	24.911
759.81	17.153
760.12	20.608
760.43	27.508
760.74	26.875
761.05	24.719
761.36	25.150
761.67	23.669
761.99	22.258
762.30	22.101
762.61	20.377
762.92	24.215
763.23	19.905
763.54	21.778
763.85	26.582
764.16	22.857
764.47	25.424
764.78	25.468
765.10	32.374
765.41	19.355
765.72	25.472
766.03	21.201
766.34	22.932
766.65	19.838
766.96	20.000
767.27	22.396
767.58	23.256
767.89	25.161
768.20	26.380
768.51	15.847
768.82	20.541
769.13	20.000
769.44	19.298
769.75	23.377
770.06	28.440
770.37	20.188
770.68	28.646
770.99	27.228
771.30	18.447
771.61	19.907
771.92	20.346
772.23	28.972
772.54	19.681
772.85	17.751
773.16	23.780
773.47	30.723
773.78	28.022
774.09	21.333
774.39	24.074
774.70	22.819
775.01	16.667
775.32	17.910
775.63	8.264
775.94	29.323
776.25	21.429
776.56	21.311
776.87	24.779
777.18	18.584
777.48	19.091
777.79	16.522
778.10	25.688
778.41	15.254
778.72	21.488
779.03	23.881
779.34	19.549
779.65	20.261
779.95	17.391
780.26	12.245
780.57	11.207
780.88	18.519
781.19	5.051
781.50	20.000
781.80	19.608
782.11	16.026
782.42	22.892
782.73	8.029
783.04	18.243
783.34	24.242
783.65	21.705
783.96	20.325
784.27	14.530
784.57	20.325
784.88	4.065
785.19	21.930
785.50	8.247
785.81	16.190
786.11	7.843
786.42	16.364
786.73	11.712
787.04	16.832
787.34	22.857
787.65	12.381
787.96	13.725
788.26	22.523
788.57	22.581
788.88	25.000
789.19	16.239
789.49	17.647
789.80	10.256
790.11	18.584
790.41	10.101
790.72	21.698
791.03	6.944
791.33	14.474
791.64	13.978
791.95	5.333
792.25	4.286
792.56	9.756
792.87	19.388
793.17	0.000
793.48	5.405
793.79	-7.042
794.09	12.658
794.40	22.340
794.70	6.542
795.01	11.404
795.32	10.909
795.62	17.857
795.93	2.062
796.23	-2.198
796.54	9.474
796.85	8.219
797.15	5.556
797.46	-6.849
797.76	15.493
798.07	13.750
798.37	0.000
798.68	8.571
798.99	2.857
799.29	19.737
799.60	-1.667
799.90	-6.944
800.21	-10.938
800.51	3.175
800.82	-9.836
801.12	-1.754
801.43	15.493
801.73	-3.390
802.04	9.836
802.34	0.000
802.65	3.846
802.95	5.556
803.26	-10.000
803.56	-3.846
803.87	-31.579
804.17	1.613
804.48	3.077
804.78	-20.513
805.09	4.651
805.39	-43.750
805.70	-3.774
806.00	21.053
806.30	6.757
806.61	23.529
806.91	3.704
807.22	14.667
807.52	22.388
807.83	11.290
808.13	3.175
808.43	0.000
808.74	12.121
809.04	3.774
809.35	21.918
809.65	8.772
809.95	22.059
810.26	1.961
810.56	-18.000
810.86	-12.245
811.17	-11.429
811.47	0.000
811.77	-22.581
812.08	-44.737
812.38	19.048
812.69	-26.087
812.99	-3.226
813.29	-9.524
813.59	-22.222
813.90	-4.255
814.20	-41.860
814.50	4.167
814.81	-3.333
815.11	-9.756
815.41	-13.333
815.72	20.000
816.02	-16.667
816.32	12.821
816.62	-2.703
816.93	-23.529
817.23	-8.696
817.53	-2.941
817.84	11.765
818.14	-46.875
818.44	6.897
818.74	-54.839
819.04	-18.519
819.35	-33.333
819.65	-40.000
819.95	-3.333
820.25	-44.000
820.56	-18.421
820.86	-12.500
821.16	-4.255
821.46	3.448
821.76	-15.385
822.07	-17.500
822.37	-23.256
822.67	-33.333
822.97	-29.730
823.27	13.514
823.57	64.000
823.88	10.811
824.18	-57.143
824.48	-42.308
824.78	-176.923
825.08	-47.826
825.38	8.333
825.69	-29.167
825.99	-75.000
826.29	-40.541
826.59	-47.059
826.89	16.000
827.19	-25.714
827.49	21.053
827.79	-12.500
828.09	-23.333
828.39	-30.435
828.70	-34.483
829.00	-6.897
829.30	2.778
829.60	28.125
829.90	-22.222
830.20	-76.923
830.50	-71.429
830.80	-42.857
831.10	-2.564
831.40	-66.667
831.70	-14.706
832.00	-12.500
832.30	-52.632
832.60	-112.500
832.90	-50.000
833.20	-105.882
833.50	-93.333
833.80	-66.667
834.10	-35.000
834.40	-54.167
834.70	16.667
835.00	-15.385
835.30	-41.667
835.60	-27.586
835.90	-38.889
836.20	-109.091
836.50	-100.000
836.80	-8.571
837.10	48.571
837.40	-82.353
837.70	-118.182
838.00	33.333
838.30	-62.500
838.60	-28.571
838.90	-30.000
839.19	-17.391
839.49	-47.826
839.79	-55.556
840.09	-78.261
840.39	-45.455
840.69	-112.500
840.99	-47.368
841.29	-68.750
841.59	-50.000
841.88	-55.556
842.18	-79.167
842.48	-70.588
842.78	6.897
843.08	14.286
843.38	-38.462
843.68	-188.889
843.97	-76.923
844.27	-118.182
844.57	-280.000
844.87	0.000
845.17	-300.000
845.47	-42.857
845.76	-100.000
846.06	0.000
846.36	-325.000
846.66	-20.000
846.96	-31.579
847.25	-54.167
847.55	-150.000
847.85	-80.000
848.15	-190.000
848.44	3.846
848.74	57.895
849.04	666.667
849.34	-133.333
849.63	-68.421
849.93	0.000
850.23	-75.000
850.53	9.524
850.82	-12.000
851.12	-47.368
851.42	-800.000
851.71	-28.571
852.01	-125.000
852.31	-123.529
852.61	-33.333
852.90	-71.429
853.20	-300.000
853.50	-5.556
853.79	-57.895
854.09	-120.000
854.39	-46.429
854.68	-56.522
854.98	-150.000
855.28	3.448
855.57	-87.500
855.87	0.000
856.17	-86.667
856.46	-27.586
856.76	-53.333
857.05	-82.353
857.35	-100.000
857.65	-154.545
857.94	-11.111
858.24	-142.857
858.53	-92.857
858.83	-150.000
859.13	-133.333
859.42	0.000
859.72	-37.500
860.01	-433.333
860.31	-162.500
860.60	-260.000
860.90	-111.111
861.20	-87.500
861.49	-200.000
861.79	-11.765
862.08	-700.000
862.38	-116.667
862.67	-76.923
862.97	-41.176
863.26	5.000
863.56	-17.647
863.85	466.667
864.15	-190.000
864.44	-138.462
864.74	-45.000
865.03	-250.000
865.33	-266.667
865.62	-64.706
865.92	-500.000
866.21	-92.857
866.51	-33.333
866.80	-1100.000
867.10	-166.667
867.39	-29.412
867.69	-17.391
867.98	-14.286
868.27	-360.000
868.57	-106.250
868.86	-190.909
869.16	0.000
869.45	-283.333
869.75	-214.286
870.04	1500.000
870.33	-83.333
870.63	-280.000
870.92	-111.111
871.22	-125.000
871.51	-136.364
871.80	-50.000
872.10	-60.000
>>>>>End Processed Spectral Data<<<<<
