SpectraSuite Data File
++++++++++++++++++++++++++++++++++++
Date: Sat May 16 11:23:12 PDT 2015
User: schluterlab
Dark Spectrum Present: Yes
Reference Spectrum Present: Yes
Number of Sampled Component Spectra: 1
Spectrometers: USB2E3373
Integration Time (usec): 3000 (USB2E3373)
Spectra Averaged: 3 (USB2E3373)
Boxcar Smoothing: 0 (USB2E3373)
Correct for Electrical Dark: No (USB2E3373)
Strobe/Lamp Enabled: No (USB2E3373)
Correct for Detector Non-linearity: No (USB2E3373)
Correct for Stray Light: No (USB2E3373)
Number of Pixels in Processed Spectrum: 2048
>>>>>Begin Processed Spectral Data<<<<<
178.53	0.000
178.91	153.333
179.29	533.333
179.67	-600.000
180.04	-100.000
180.42	-0.000
180.80	150.000
181.18	175.000
181.56	-162.500
181.94	1500.000
182.31	200.000
182.69	7.692
183.07	-700.000
183.45	1350.000
183.83	500.000
184.20	-85.714
184.58	-162.500
184.96	-275.000
185.34	193.750
185.72	-575.000
186.09	166.667
186.47	-112.500
186.85	-200.000
187.23	-187.500
187.61	-150.000
187.98	-137.500
188.36	-37.500
188.74	-200.000
189.12	1500.000
189.49	285.714
189.87	-116.667
190.25	400.000
190.63	-28.571
191.00	-77.778
191.38	200.000
191.76	-13.333
192.14	620.000
192.51	-280.000
192.89	-466.667
193.27	0.000
193.65	-144.444
194.02	-314.286
194.40	600.000
194.78	-120.000
195.15	-1300.000
195.53	-109.091
195.91	-233.333
196.29	400.000
196.66	-433.333
197.04	1700.000
197.42	150.000
197.79	-26.667
198.17	-33.333
198.55	-350.000
198.92	-700.000
199.30	275.000
199.68	0.000
200.05	-111.111
200.43	-77.778
200.81	-1000.000
201.18	-83.333
201.56	300.000
201.94	-6.667
202.31	9.091
202.69	-90.000
203.07	-80.000
203.44	500.000
203.82	-283.333
204.19	-450.000
204.57	-275.000
204.95	-1500.000
205.32	-18.750
205.70	1200.000
206.08	-2300.000
206.45	-66.667
206.83	-850.000
207.20	-100.000
207.58	-533.333
207.96	-600.000
208.33	-75.000
208.71	-133.333
209.08	120.000
209.46	-228.571
209.84	700.000
210.21	0.000
210.59	-10.000
210.96	700.000
211.34	-250.000
211.71	33.333
212.09	575.000
212.46	1250.000
212.84	-1900.000
213.22	633.333
213.59	16.667
213.97	-111.111
214.34	110.000
214.72	-200.000
215.09	-166.667
215.47	-66.667
215.84	-70.000
216.22	40.000
216.59	6.667
216.97	-575.000
217.34	850.000
217.72	-171.429
218.09	-350.000
218.47	-185.714
218.84	214.286
219.22	42.857
219.59	0.000
219.97	100.000
220.34	400.000
220.72	200.000
221.09	-23.077
221.47	0.000
221.84	333.333
222.22	-900.000
222.59	1000.000
222.97	-225.000
223.34	-1050.000
223.72	-566.667
224.09	-85.714
224.46	-200.000
224.84	-64.286
225.21	-285.714
225.59	-27.273
225.96	-100.000
226.34	-157.143
226.71	-133.333
227.08	-20.000
227.46	1400.000
227.83	-185.714
228.21	-212.500
228.58	650.000
228.95	-18.750
229.33	-2300.000
229.70	-340.000
230.08	-1000.000
230.45	-75.000
230.82	-116.667
231.20	-900.000
231.57	-650.000
231.95	2100.000
232.32	4.762
232.69	-122.222
233.07	-200.000
233.44	-1100.000
233.81	-193.333
234.19	-188.889
234.56	-68.750
234.93	6.250
235.31	-328.571
235.68	-150.000
236.05	-100.000
236.43	-81.818
236.80	-3.226
237.17	-16.667
237.55	-28.571
237.92	-68.182
238.29	-37.143
238.67	-20.588
239.04	-2.778
239.41	-19.355
239.79	-56.410
240.16	-35.714
240.53	-34.545
240.91	-10.256
241.28	-25.455
241.65	9.231
242.02	-1.639
242.40	-32.787
242.77	-21.212
243.14	-23.729
243.51	-32.857
243.89	-17.722
244.26	-15.730
244.63	-10.526
245.00	-13.684
245.38	-6.780
245.75	-6.195
246.12	-3.200
246.49	-11.024
246.87	-7.317
247.24	-24.576
247.61	-11.864
247.98	-14.085
248.36	-21.678
248.73	-5.063
249.10	-10.828
249.47	-5.848
249.84	2.273
250.22	-16.667
250.59	-6.215
250.96	-7.853
251.33	-2.844
251.70	0.481
252.08	-10.427
252.45	-5.213
252.82	-9.048
253.19	-5.106
253.56	-4.435
253.94	-5.063
254.31	-5.579
254.68	-4.878
255.05	-8.871
255.42	-0.794
255.79	-9.677
256.16	-1.961
256.54	-2.206
256.91	-7.955
257.28	-8.059
257.65	-6.028
258.02	2.516
258.39	-3.344
258.76	-7.095
259.14	-3.395
259.51	-0.984
259.88	-1.524
260.25	-0.311
260.62	-5.788
260.99	-5.045
261.36	-2.134
261.73	-1.734
262.10	-1.111
262.47	-3.989
262.85	0.857
263.22	-2.865
263.59	-4.308
263.96	-2.899
264.33	-1.626
264.70	-0.276
265.07	-1.923
265.44	-3.876
265.81	-3.101
266.18	-2.532
266.55	-3.676
266.92	-0.756
267.29	-3.390
267.66	-2.963
268.03	0.725
268.40	-1.174
268.77	-2.651
269.14	-2.784
269.51	0.000
269.88	-1.835
270.25	-4.196
270.62	-3.432
270.99	-3.604
271.36	-3.963
271.73	-3.812
272.10	-3.432
272.47	-3.333
272.84	-0.667
273.21	-2.064
273.58	-0.440
273.95	-2.412
274.32	-1.131
274.69	-1.094
275.06	-0.818
275.43	-4.241
275.80	-1.833
276.17	-0.209
276.54	0.611
276.91	-1.646
277.28	-0.811
277.65	-2.066
278.02	-0.626
278.39	-2.161
278.76	0.797
279.13	-1.186
279.50	-1.988
279.87	-4.228
280.23	0.202
280.60	-1.590
280.97	-1.748
281.34	-3.095
281.71	-0.962
282.08	-0.806
282.45	-2.240
282.82	-1.163
283.19	-2.364
283.56	-0.366
283.92	-1.413
284.29	-3.903
284.66	-1.619
285.03	0.000
285.40	-2.768
285.77	-0.351
286.14	-1.625
286.51	-2.487
286.87	-1.270
287.24	1.024
287.61	-0.992
287.98	-3.120
288.35	-2.149
288.72	-1.868
289.08	-2.373
289.45	-2.357
289.82	-4.325
290.19	-0.985
290.56	-2.149
290.93	-2.862
291.29	-3.079
291.66	-1.288
292.03	1.256
292.40	-1.355
292.77	-1.863
293.13	-0.650
293.50	-1.040
293.87	-1.534
294.24	-1.659
294.60	-1.970
294.97	0.303
295.34	-2.667
295.71	0.595
296.08	-2.304
296.44	-1.860
296.81	0.142
297.18	-0.282
297.55	-0.424
297.91	0.837
298.28	-1.781
298.65	-0.418
299.02	-0.401
299.38	-1.337
299.75	-1.766
300.12	-0.256
300.48	0.639
300.85	-0.917
301.22	-1.035
301.59	0.260
301.95	0.504
302.32	-0.652
302.69	0.245
303.05	-0.366
303.42	-1.375
303.79	-0.239
304.15	0.118
304.52	0.000
304.89	-0.118
305.25	-1.587
305.62	-0.353
305.99	1.060
306.35	0.333
306.72	-0.797
307.09	0.454
307.45	-0.454
307.82	0.000
308.19	-0.224
308.55	-0.327
308.92	-1.933
309.29	0.649
309.65	0.636
310.02	-0.540
310.38	-0.757
310.75	0.512
311.12	1.653
311.48	0.626
311.85	1.236
312.22	1.030
312.58	1.119
312.95	-0.102
313.31	0.100
313.68	1.206
314.05	2.374
314.41	-0.402
314.78	0.000
315.14	1.283
315.51	0.608
315.87	0.968
316.24	1.361
316.61	2.207
316.97	1.393
317.34	2.119
317.70	0.835
318.07	2.892
318.43	1.966
318.80	2.817
319.16	1.220
319.53	1.410
319.89	2.164
320.26	2.549
320.62	1.731
320.99	2.189
321.35	1.970
321.72	1.945
322.08	4.649
322.45	2.673
322.81	4.131
323.18	2.402
323.54	3.789
323.91	3.151
324.27	4.373
324.64	3.748
325.00	4.712
325.37	5.430
325.73	5.337
326.10	4.252
326.46	5.429
326.83	5.617
327.19	6.422
327.56	6.729
327.92	6.712
328.29	6.667
328.65	6.364
329.01	7.332
329.38	6.066
329.74	8.974
330.11	7.434
330.47	8.265
330.84	8.891
331.20	7.762
331.56	8.113
331.93	8.792
332.29	9.315
332.66	8.516
333.02	8.688
333.38	9.319
333.75	9.528
334.11	9.244
334.48	9.709
334.84	11.199
335.20	9.840
335.57	10.650
335.93	11.638
336.29	10.186
336.66	10.661
337.02	11.892
337.38	10.784
337.75	11.150
338.11	9.392
338.47	12.100
338.84	10.073
339.20	10.896
339.56	11.765
339.93	11.640
340.29	10.983
340.65	10.402
341.02	10.287
341.38	11.289
341.74	10.330
342.11	11.177
342.47	10.987
342.83	11.671
343.20	11.187
343.56	10.286
343.92	11.519
344.28	11.690
344.65	11.056
345.01	10.840
345.37	11.462
345.73	10.720
346.10	10.384
346.46	9.586
346.82	11.067
347.19	10.929
347.55	10.112
347.91	11.339
348.27	9.228
348.63	11.955
349.00	11.774
349.36	9.368
349.72	12.022
350.08	11.468
350.45	10.638
350.81	11.067
351.17	10.289
351.53	10.660
351.89	10.267
352.26	11.163
352.62	12.135
352.98	11.630
353.34	11.910
353.70	10.965
354.07	11.330
354.43	11.542
354.79	11.569
355.15	11.022
355.51	11.094
355.87	10.198
356.24	10.405
356.60	12.168
356.96	10.778
357.32	10.768
357.68	11.418
358.04	11.162
358.40	10.982
358.77	10.819
359.13	12.242
359.49	11.111
359.85	10.899
360.21	11.339
360.57	12.651
360.93	11.926
361.29	11.883
361.66	10.595
362.02	10.725
362.38	11.665
362.74	12.601
363.10	11.334
363.46	12.322
363.82	12.172
364.18	10.781
364.54	12.795
364.90	11.670
365.26	11.912
365.62	12.473
365.98	12.020
366.35	11.972
366.71	11.557
367.07	12.068
367.43	13.040
367.79	11.340
368.15	11.807
368.51	12.517
368.87	12.637
369.23	12.140
369.59	11.875
369.95	13.108
370.31	12.729
370.67	11.858
371.03	12.609
371.39	12.235
371.75	12.732
372.11	12.482
372.47	12.798
372.83	12.935
373.19	12.286
373.55	13.230
373.91	12.589
374.27	12.457
374.63	13.112
374.99	12.865
375.35	13.055
375.71	14.382
376.07	12.868
376.42	13.113
376.78	13.007
377.14	12.678
377.50	13.088
377.86	12.484
378.22	13.254
378.58	14.083
378.94	12.700
379.30	13.467
379.66	13.600
380.02	13.012
380.38	13.656
380.74	13.247
381.09	14.470
381.45	13.723
381.81	13.975
382.17	13.847
382.53	13.617
382.89	14.234
383.25	14.750
383.61	13.797
383.97	13.840
384.32	13.392
384.68	15.236
385.04	13.949
385.40	14.486
385.76	15.305
386.12	14.428
386.48	15.285
386.83	14.110
387.19	14.644
387.55	13.931
387.91	14.760
388.27	14.415
388.62	14.784
388.98	13.749
389.34	14.565
389.70	14.190
390.06	15.040
390.42	14.615
390.77	14.385
391.13	15.031
391.49	14.972
391.85	15.461
392.20	13.956
392.56	14.722
392.92	14.204
393.28	15.327
393.64	14.973
393.99	15.692
394.35	15.024
394.71	14.762
395.07	15.191
395.42	14.958
395.78	15.085
396.14	15.888
396.50	15.596
396.85	15.299
397.21	15.067
397.57	15.015
397.92	15.222
398.28	14.944
398.64	14.813
399.00	15.562
399.35	14.374
399.71	15.041
400.07	15.343
400.42	14.781
400.78	14.550
401.14	14.012
401.49	14.682
401.85	14.704
402.21	14.482
402.57	14.927
402.92	14.349
403.28	15.135
403.63	13.721
403.99	15.724
404.35	15.036
404.70	14.102
405.06	14.764
405.42	14.453
405.77	14.310
406.13	14.991
406.49	15.099
406.84	14.997
407.20	15.194
407.55	14.566
407.91	14.184
408.27	14.461
408.62	14.191
408.98	15.100
409.34	14.808
409.69	14.304
410.05	14.736
410.40	14.163
410.76	13.871
411.11	15.212
411.47	14.514
411.83	13.814
412.18	13.800
412.54	14.216
412.89	14.945
413.25	14.168
413.60	13.609
413.96	13.617
414.31	13.578
414.67	14.540
415.03	15.459
415.38	14.964
415.74	15.077
416.09	14.066
416.45	14.153
416.80	14.824
417.16	14.419
417.51	14.905
417.87	14.175
418.22	14.033
418.58	14.185
418.93	15.635
419.29	14.492
419.64	14.070
420.00	15.917
420.35	14.843
420.71	14.946
421.06	14.675
421.42	13.759
421.77	14.908
422.12	15.557
422.48	14.751
422.83	15.091
423.19	15.813
423.54	14.755
423.90	15.211
424.25	14.593
424.61	15.862
424.96	15.857
425.31	14.925
425.67	15.415
426.02	15.146
426.38	15.124
426.73	16.365
427.09	15.625
427.44	15.682
427.79	14.942
428.15	15.679
428.50	16.129
428.85	16.607
429.21	15.883
429.56	15.677
429.92	16.032
430.27	16.500
430.62	16.196
430.98	16.989
431.33	16.115
431.68	16.568
432.04	17.124
432.39	17.037
432.74	16.667
433.10	15.982
433.45	16.120
433.80	16.573
434.16	16.443
434.51	15.945
434.86	17.633
435.22	16.815
435.57	16.463
435.92	16.413
436.28	16.558
436.63	15.998
436.98	16.037
437.34	17.425
437.69	16.511
438.04	16.619
438.39	17.208
438.75	16.764
439.10	16.768
439.45	16.113
439.81	16.265
440.16	17.604
440.51	17.588
440.86	17.351
441.22	16.086
441.57	16.474
441.92	17.084
442.27	16.667
442.63	17.114
442.98	15.858
443.33	17.188
443.68	17.457
444.03	17.878
444.39	17.376
444.74	17.181
445.09	17.160
445.44	18.064
445.79	16.471
446.15	17.525
446.50	16.930
446.85	17.547
447.20	17.824
447.55	17.790
447.91	18.360
448.26	16.536
448.61	17.091
448.96	17.647
449.31	16.967
449.66	17.916
450.02	17.119
450.37	17.391
450.72	17.627
451.07	16.845
451.42	17.286
451.77	17.714
452.12	17.640
452.47	17.695
452.83	17.181
453.18	18.090
453.53	17.600
453.88	17.823
454.23	17.231
454.58	18.397
454.93	18.010
455.28	17.336
455.63	17.936
455.98	18.675
456.34	16.963
456.69	18.261
457.04	17.824
457.39	16.507
457.74	17.129
458.09	18.561
458.44	18.995
458.79	17.881
459.14	18.026
459.49	18.472
459.84	18.156
460.19	18.377
460.54	17.241
460.89	17.713
461.24	17.851
461.59	18.581
461.94	18.205
462.29	19.178
462.64	18.182
462.99	19.277
463.34	18.974
463.69	18.702
464.04	16.872
464.39	17.742
464.74	18.322
465.09	17.438
465.44	18.049
465.79	18.049
466.14	18.930
466.49	18.077
466.84	18.607
467.19	18.766
467.54	17.532
467.89	18.866
468.24	18.112
468.59	18.676
468.94	18.328
469.29	17.739
469.64	18.329
469.99	19.176
470.34	18.303
470.68	19.331
471.03	18.169
471.38	17.361
471.73	18.392
472.08	18.809
472.43	18.597
472.78	18.533
473.13	17.628
473.48	17.932
473.83	18.548
474.17	18.726
474.52	19.821
474.87	18.590
475.22	18.643
475.57	17.556
475.92	19.384
476.27	18.057
476.61	18.986
476.96	18.222
477.31	19.483
477.66	18.594
478.01	18.963
478.36	18.963
478.70	18.900
479.05	18.551
479.40	18.394
479.75	18.400
480.10	18.502
480.45	18.230
480.79	19.250
481.14	19.318
481.49	18.780
481.84	19.140
482.19	19.461
482.53	19.508
482.88	18.700
483.23	19.014
483.58	18.640
483.92	18.490
484.27	18.254
484.62	18.834
484.97	18.355
485.31	18.080
485.66	17.973
486.01	17.831
486.36	18.400
486.70	18.796
487.05	18.536
487.40	18.456
487.75	18.669
488.09	18.221
488.44	19.317
488.79	18.677
489.13	18.866
489.48	18.964
489.83	19.913
490.17	18.851
490.52	19.565
490.87	18.753
491.22	18.916
491.56	18.796
491.91	19.036
492.26	18.868
492.60	18.411
492.95	18.896
493.30	19.009
493.64	19.182
493.99	19.216
494.34	18.857
494.68	19.944
495.03	19.216
495.37	19.125
495.72	18.959
496.07	18.864
496.41	19.176
496.76	19.315
497.11	19.124
497.45	19.492
497.80	19.510
498.14	19.794
498.49	19.538
498.84	19.417
499.18	19.444
499.53	19.727
499.87	18.822
500.22	20.049
500.56	19.960
500.91	18.916
501.26	19.651
501.60	18.633
501.95	19.614
502.29	19.603
502.64	19.472
502.98	19.214
503.33	19.690
503.67	19.061
504.02	18.976
504.36	19.951
504.71	18.642
505.06	18.722
505.40	20.010
505.75	19.207
506.09	19.363
506.44	19.699
506.78	19.819
507.13	19.310
507.47	19.353
507.82	19.773
508.16	19.482
508.51	19.165
508.85	19.772
509.19	19.205
509.54	19.820
509.88	20.106
510.23	20.021
510.57	19.206
510.92	20.677
511.26	19.724
511.61	19.384
511.95	19.450
512.30	20.176
512.64	19.310
512.98	19.857
513.33	20.648
513.67	20.715
514.02	19.911
514.36	20.665
514.70	20.260
515.05	19.611
515.39	19.319
515.74	20.593
516.08	19.020
516.42	20.057
516.77	19.469
517.11	20.309
517.46	19.976
517.80	20.217
518.14	20.048
518.49	20.681
518.83	19.763
519.17	20.130
519.52	19.375
519.86	20.311
520.20	20.293
520.55	19.262
520.89	19.912
521.23	19.597
521.58	19.749
521.92	20.329
522.26	20.000
522.61	19.899
522.95	20.676
523.29	20.188
523.64	19.738
523.98	19.860
524.32	20.050
524.66	18.758
525.01	19.653
525.35	20.168
525.69	19.779
526.04	20.039
526.38	20.242
526.72	19.796
527.06	20.638
527.41	19.736
527.75	19.736
528.09	20.913
528.43	20.000
528.78	20.666
529.12	21.511
529.46	20.747
529.80	19.496
530.15	20.026
530.49	21.022
530.83	20.760
531.17	20.000
531.51	19.223
531.86	20.013
532.20	20.040
532.54	20.856
532.88	20.422
533.22	20.655
533.57	19.713
533.91	19.476
534.25	20.490
534.59	18.863
534.93	18.793
535.27	20.327
535.62	20.780
535.96	19.522
536.30	19.110
536.64	20.717
536.98	19.633
537.32	19.972
537.66	20.367
538.01	20.000
538.35	20.473
538.69	20.521
539.03	19.634
539.37	19.760
539.71	19.280
540.05	20.219
540.39	19.875
540.73	20.940
541.07	20.628
541.42	18.839
541.76	19.269
542.10	20.527
542.44	19.787
542.78	20.217
543.12	20.299
543.46	19.178
543.80	19.398
544.14	20.215
544.48	21.194
544.82	19.689
545.16	20.590
545.50	20.121
545.84	20.654
546.18	20.666
546.52	19.986
546.86	21.296
547.20	19.269
547.54	19.421
547.88	20.106
548.22	19.594
548.56	19.706
548.90	19.474
549.24	19.411
549.58	19.972
549.92	20.424
550.26	20.882
550.60	20.199
550.94	20.146
551.28	20.467
551.62	19.941
551.96	20.622
552.30	20.767
552.64	20.127
552.98	21.093
553.32	20.418
553.66	20.115
554.00	20.611
554.34	19.567
554.68	19.956
555.02	21.563
555.36	21.352
555.69	19.269
556.03	19.789
556.37	20.199
556.71	20.616
557.05	20.547
557.39	20.193
557.73	20.131
558.07	20.950
558.41	20.194
558.75	21.445
559.08	20.156
559.42	21.440
559.76	21.242
560.10	21.402
560.44	21.171
560.78	20.529
561.12	20.842
561.45	20.753
561.79	21.115
562.13	21.318
562.47	20.518
562.81	19.943
563.15	20.224
563.48	20.871
563.82	20.419
564.16	20.081
564.50	20.766
564.84	20.569
565.17	20.358
565.51	20.078
565.85	20.892
566.19	20.158
566.52	20.026
566.86	20.733
567.20	20.823
567.54	21.028
567.88	19.877
568.21	20.134
568.55	19.671
568.89	19.533
569.23	19.435
569.56	19.588
569.90	20.024
570.24	19.992
570.57	18.981
570.91	18.871
571.25	19.488
571.59	19.263
571.92	18.869
572.26	19.263
572.60	18.802
572.93	19.201
573.27	18.841
573.61	18.239
573.95	19.345
574.28	17.892
574.62	19.293
574.96	18.420
575.29	18.699
575.63	18.768
575.97	18.581
576.30	18.854
576.64	18.877
576.98	18.587
577.31	18.617
577.65	18.542
577.98	18.622
578.32	18.354
578.66	18.461
578.99	18.772
579.33	18.915
579.67	18.615
580.00	18.651
580.34	18.689
580.67	18.877
581.01	18.487
581.35	18.809
581.68	18.015
582.02	18.506
582.35	18.451
582.69	18.897
583.02	18.921
583.36	18.565
583.70	18.612
584.03	19.343
584.37	19.350
584.70	18.636
585.04	19.342
585.37	18.735
585.71	18.989
586.04	19.301
586.38	18.979
586.72	19.166
587.05	18.918
587.39	19.339
587.72	19.087
588.06	18.597
588.39	19.453
588.73	19.403
589.06	19.118
589.40	20.027
589.73	19.228
590.07	18.937
590.40	19.262
590.73	19.312
591.07	19.672
591.40	20.147
591.74	19.288
592.07	19.234
592.41	20.170
592.74	19.946
593.08	19.773
593.41	18.553
593.75	18.958
594.08	19.518
594.41	20.074
594.75	19.743
595.08	19.060
595.42	19.436
595.75	19.478
596.09	19.402
596.42	19.845
596.75	19.793
597.09	20.837
597.42	19.249
597.75	19.309
598.09	19.521
598.42	19.487
598.76	18.937
599.09	19.495
599.42	18.877
599.76	19.706
600.09	20.076
600.42	19.787
600.76	19.849
601.09	19.332
601.42	19.311
601.76	19.626
602.09	19.182
602.42	19.506
602.76	19.152
603.09	19.476
603.42	19.903
603.76	19.665
604.09	19.864
604.42	19.442
604.76	19.494
605.09	19.213
605.42	20.080
605.75	18.931
606.09	19.303
606.42	18.726
606.75	19.193
607.09	19.541
607.42	19.454
607.75	19.823
608.08	19.837
608.42	20.151
608.75	19.346
609.08	20.458
609.41	20.080
609.75	19.356
610.08	19.510
610.41	20.193
610.74	20.696
611.07	20.690
611.41	19.516
611.74	20.308
612.07	20.354
612.40	19.936
612.73	19.602
613.07	20.253
613.40	20.471
613.73	20.109
614.06	20.044
614.39	20.519
614.72	19.497
615.06	19.783
615.39	19.208
615.72	19.663
616.05	19.602
616.38	20.081
616.71	19.760
617.05	21.110
617.38	20.372
617.71	19.595
618.04	20.497
618.37	20.377
618.70	20.665
619.03	20.785
619.36	21.353
619.69	20.388
620.03	20.523
620.36	20.886
620.69	20.603
621.02	20.624
621.35	20.403
621.68	20.738
622.01	20.712
622.34	22.205
622.67	20.547
623.00	21.041
623.33	20.746
623.66	20.606
623.99	20.977
624.32	21.205
624.65	20.162
624.99	20.687
625.32	20.060
625.65	20.668
625.98	20.188
626.31	22.512
626.64	21.590
626.97	21.490
627.30	21.277
627.63	20.294
627.96	21.323
628.29	20.772
628.62	22.445
628.95	21.654
629.28	21.617
629.61	20.707
629.94	21.928
630.26	20.179
630.59	21.206
630.92	21.622
631.25	21.069
631.58	22.116
631.91	20.532
632.24	22.222
632.57	21.444
632.90	21.379
633.23	22.079
633.56	21.871
633.89	22.877
634.22	22.314
634.55	21.514
634.88	19.468
635.20	20.599
635.53	22.519
635.86	21.285
636.19	21.123
636.52	22.939
636.85	21.420
637.18	21.500
637.51	23.420
637.83	23.036
638.16	22.632
638.49	20.138
638.82	20.849
639.15	21.271
639.48	20.623
639.81	22.960
640.13	23.108
640.46	22.792
640.79	21.849
641.12	23.554
641.45	21.090
641.77	20.958
642.10	23.867
642.43	22.155
642.76	22.520
643.09	20.000
643.41	24.762
643.74	23.688
644.07	22.465
644.40	22.528
644.73	23.762
645.05	20.868
645.38	21.358
645.71	25.430
646.04	24.370
646.36	21.640
646.69	25.087
647.02	24.368
647.35	23.285
647.67	22.080
648.00	23.023
648.33	24.115
648.66	22.419
648.98	22.134
649.31	24.615
649.64	25.313
649.96	24.019
650.29	21.803
650.62	23.064
650.94	21.585
651.27	21.837
651.60	22.145
651.92	21.747
652.25	21.703
652.58	18.739
652.90	22.151
653.23	21.613
653.56	21.572
653.88	20.164
654.21	22.819
654.54	23.256
654.86	22.311
655.19	21.490
655.52	20.484
655.84	18.611
656.17	19.988
656.49	27.235
656.82	27.898
657.15	21.393
657.47	16.009
657.80	12.141
658.13	13.776
658.45	18.295
658.78	18.637
659.10	19.103
659.43	19.137
659.75	19.670
660.08	20.052
660.41	18.700
660.73	21.562
661.06	22.464
661.38	25.000
661.71	22.753
662.03	25.806
662.36	21.535
662.68	22.574
663.01	23.142
663.33	21.769
663.66	21.459
663.98	21.652
664.31	23.043
664.63	26.327
664.96	21.475
665.28	23.210
665.61	21.142
665.93	23.251
666.26	24.899
666.58	22.869
666.91	20.935
667.23	24.123
667.56	21.995
667.88	24.887
668.21	21.889
668.53	21.262
668.86	20.554
669.18	23.059
669.50	17.056
669.83	21.168
670.15	23.991
670.48	19.393
670.80	23.690
671.13	21.670
671.45	19.144
671.77	20.557
672.10	23.077
672.42	20.849
672.75	20.909
673.07	20.721
673.39	22.040
673.72	21.260
674.04	21.868
674.37	22.887
674.69	23.975
675.01	20.851
675.34	21.909
675.66	23.110
675.98	22.467
676.31	25.113
676.63	22.299
676.95	20.575
677.28	21.346
677.60	22.851
677.92	22.247
678.25	21.444
678.57	23.457
678.89	20.545
679.22	24.948
679.54	24.458
679.86	18.800
680.18	23.384
680.51	21.043
680.83	21.333
681.15	22.158
681.48	22.515
681.80	19.960
682.12	22.736
682.44	23.379
682.77	20.563
683.09	22.642
683.41	25.885
683.73	17.123
684.06	22.366
684.38	21.757
684.70	20.782
685.02	21.260
685.34	23.587
685.67	21.780
685.99	18.526
686.31	22.442
686.63	19.149
686.96	21.627
687.28	19.461
687.60	21.484
687.92	21.595
688.24	20.472
688.56	21.042
688.89	18.162
689.21	21.882
689.53	21.379
689.85	22.940
690.17	19.955
690.49	18.245
690.82	20.964
691.14	22.170
691.46	25.942
691.78	23.128
692.10	19.703
692.42	18.000
692.74	21.674
693.06	21.573
693.39	21.029
693.71	20.316
694.03	23.110
694.35	18.962
694.67	20.804
694.99	19.437
695.31	20.663
695.63	20.663
695.95	21.340
696.27	19.950
696.59	20.321
696.91	20.787
697.23	21.354
697.56	20.673
697.88	19.144
698.20	20.771
698.52	18.386
698.84	21.602
699.16	21.429
699.48	17.000
699.80	22.807
700.12	24.433
700.44	18.715
700.76	18.950
701.08	17.151
701.40	18.429
701.72	19.136
702.04	19.872
702.36	22.289
702.68	16.766
703.00	21.739
703.32	18.052
703.64	22.647
703.96	17.151
704.28	21.893
704.60	20.253
704.91	20.635
705.23	23.625
705.55	20.270
705.87	19.795
706.19	16.667
706.51	22.917
706.83	20.328
707.15	19.427
707.47	19.835
707.79	20.619
708.11	15.776
708.43	21.446
708.74	17.922
709.06	19.499
709.38	17.816
709.70	21.875
710.02	25.153
710.34	18.812
710.66	16.508
710.98	19.558
711.29	21.290
711.61	16.294
711.93	17.049
712.25	23.256
712.57	21.603
712.89	21.942
713.20	25.773
713.52	12.313
713.84	21.352
714.16	18.033
714.48	19.683
714.80	18.769
715.11	20.749
715.43	20.482
715.75	22.118
716.07	16.066
716.39	20.067
716.70	21.254
717.02	17.778
717.34	19.084
717.66	23.651
717.97	13.115
718.29	20.588
718.61	24.603
718.93	19.713
719.24	18.750
719.56	16.981
719.88	19.273
720.20	18.727
720.51	21.805
720.83	14.859
721.15	19.262
721.46	18.431
721.78	14.176
722.10	24.000
722.42	17.355
722.73	19.522
723.05	19.679
723.37	18.824
723.68	17.004
724.00	23.577
724.32	18.930
724.63	20.747
724.95	21.901
725.27	20.614
725.58	18.534
725.90	15.079
726.22	19.188
726.53	17.490
726.85	12.941
727.16	18.421
727.48	17.308
727.80	19.262
728.11	17.647
728.43	20.248
728.74	21.484
729.06	18.561
729.38	18.288
729.69	15.354
730.01	17.717
730.32	15.936
730.64	22.344
730.96	17.164
731.27	19.643
731.59	16.399
731.90	17.178
732.22	17.178
732.53	20.861
732.85	18.121
733.16	20.652
733.48	15.679
733.80	12.811
734.11	18.276
734.43	19.048
734.74	18.101
735.06	16.301
735.37	17.737
735.69	16.774
736.00	17.172
736.32	19.536
736.63	14.483
736.95	14.493
737.26	20.861
737.58	19.784
737.89	17.204
738.21	16.541
738.52	16.923
738.83	16.406
739.15	14.957
739.46	20.968
739.78	16.783
740.09	14.685
740.41	20.629
740.72	22.263
741.04	14.286
741.35	16.450
741.66	19.444
741.98	13.810
742.29	22.535
742.61	18.717
742.92	18.692
743.23	17.105
743.55	19.820
743.86	22.667
744.18	12.381
744.49	27.586
744.80	18.782
745.12	28.351
745.43	16.080
745.74	16.990
746.06	10.244
746.37	21.145
746.68	19.403
747.00	20.419
747.31	14.904
747.62	16.590
747.94	18.341
748.25	18.140
748.56	15.238
748.88	17.935
749.19	18.779
749.50	20.588
749.82	15.111
750.13	21.586
750.44	17.886
750.75	16.000
751.07	18.214
751.38	16.236
751.69	14.122
752.01	17.308
752.32	17.899
752.63	16.154
752.94	15.079
753.26	16.522
753.57	14.732
753.88	15.517
754.19	15.353
754.51	18.359
754.82	21.739
755.13	11.523
755.44	15.289
755.75	20.576
756.07	14.458
756.38	13.672
756.69	16.606
757.00	14.634
757.31	16.443
757.63	17.134
757.94	14.162
758.25	15.698
758.56	21.024
758.87	14.489
759.18	12.667
759.50	21.352
759.81	12.409
760.12	16.892
760.43	20.388
760.74	17.500
761.05	19.663
761.36	15.569
761.67	16.864
761.99	14.516
762.30	17.754
762.61	16.226
762.92	19.283
763.23	16.114
763.54	16.000
763.85	20.675
764.16	17.143
764.47	20.763
764.78	16.479
765.10	19.424
765.41	18.065
765.72	19.497
766.03	10.247
766.34	16.917
766.65	17.814
766.96	15.500
767.27	13.021
767.58	20.349
767.89	14.194
768.20	18.405
768.51	9.290
768.82	12.973
769.13	12.500
769.44	12.719
769.75	16.883
770.06	18.807
770.37	16.432
770.68	17.187
770.99	19.802
771.30	13.107
771.61	14.352
771.92	15.584
772.23	21.495
772.54	15.426
772.85	14.201
773.16	17.683
773.47	21.084
773.78	23.077
774.09	16.667
774.39	17.284
774.70	12.081
775.01	8.696
775.32	7.463
775.63	5.785
775.94	18.797
776.25	17.143
776.56	18.852
776.87	18.584
777.18	13.274
777.48	9.091
777.79	10.435
778.10	5.505
778.41	8.475
778.72	11.570
779.03	7.463
779.34	15.038
779.65	15.033
779.95	13.768
780.26	12.925
780.57	1.724
780.88	7.407
781.19	-2.020
781.50	4.000
781.80	13.725
782.11	13.462
782.42	23.494
782.73	4.380
783.04	12.838
783.34	11.364
783.65	12.403
783.96	8.130
784.27	11.111
784.57	5.691
784.88	8.130
785.19	6.140
785.50	5.155
785.81	13.333
786.11	5.882
786.42	0.000
786.73	9.009
787.04	12.871
787.34	12.381
787.65	5.714
787.96	6.863
788.26	6.306
788.57	15.323
788.88	6.250
789.19	7.692
789.49	7.563
789.80	11.111
790.11	8.850
790.41	8.081
790.72	9.434
791.03	-8.333
791.33	3.947
791.64	8.602
791.95	-1.333
792.25	1.429
792.56	4.878
792.87	13.265
793.17	-5.263
793.48	-2.703
793.79	8.451
794.09	16.456
794.40	2.128
794.70	14.019
795.01	-5.263
795.32	2.727
795.62	11.607
795.93	0.000
796.23	-5.495
796.54	14.737
796.85	2.740
797.15	-2.778
797.46	4.110
797.76	12.676
798.07	16.250
798.37	1.471
798.68	8.571
798.99	-1.429
799.29	11.842
799.60	-5.000
799.90	4.167
800.21	-1.563
800.51	-3.175
800.82	1.639
801.12	12.281
801.43	5.634
801.73	-20.339
802.04	11.475
802.34	5.455
802.65	3.846
802.95	3.704
803.26	-20.000
803.56	1.923
803.87	-10.526
804.17	-9.677
804.48	13.846
804.78	-35.897
805.09	-4.651
805.39	-12.500
805.70	-22.642
806.00	38.596
806.30	12.162
806.61	19.118
806.91	7.407
807.22	-5.333
807.52	-7.463
807.83	11.290
808.13	-9.524
808.43	-12.727
808.74	9.091
809.04	7.547
809.35	1.370
809.65	26.316
809.95	19.118
810.26	-3.922
810.56	-2.000
810.86	12.245
811.17	-25.714
811.47	0.000
811.77	-9.677
812.08	-36.842
812.38	14.286
812.69	-15.217
812.99	-9.677
813.29	4.762
813.59	-51.852
813.90	-36.170
814.20	-18.605
814.50	-12.500
814.81	-6.667
815.11	7.317
815.41	-33.333
815.72	-5.714
816.02	-16.667
816.32	10.256
816.62	-5.405
816.93	-26.471
817.23	10.870
817.53	-5.882
817.84	-8.824
818.14	-50.000
818.44	-41.379
818.74	-29.032
819.04	-14.815
819.35	-56.667
819.65	-64.000
819.95	-30.000
820.25	-32.000
820.56	-21.053
820.86	-10.000
821.16	-2.128
821.46	15.517
821.76	-15.385
822.07	-30.000
822.37	-13.953
822.67	3.333
822.97	-18.919
823.27	-18.919
823.57	-20.000
823.88	-5.405
824.18	-71.429
824.48	-7.692
824.78	-161.538
825.08	-43.478
825.38	-54.167
825.69	-8.333
825.99	-55.000
826.29	-45.946
826.59	-23.529
826.89	-8.000
827.19	-22.857
827.49	5.263
827.79	-18.750
828.09	-10.000
828.39	0.000
828.70	-31.034
829.00	-6.897
829.30	-38.889
829.60	43.750
829.90	-5.556
830.20	3.846
830.50	-52.381
830.80	-14.286
831.10	-5.128
831.40	-71.429
831.70	-23.529
832.00	12.500
832.30	15.789
832.60	-118.750
832.90	-91.667
833.20	-94.118
833.50	-113.333
833.80	-66.667
834.10	-40.000
834.40	-37.500
834.70	-38.889
835.00	-23.077
835.30	12.500
835.60	0.000
835.90	-122.222
836.20	-72.727
836.50	-100.000
836.80	11.429
837.10	31.429
837.40	-41.176
837.70	-190.909
838.00	-54.167
838.30	-75.000
838.60	-28.571
838.90	-10.000
839.19	-52.174
839.49	-13.043
839.79	-88.889
840.09	-26.087
840.39	-68.182
840.69	31.250
840.99	-68.421
841.29	-68.750
841.59	-50.000
841.88	-122.222
842.18	-41.667
842.48	-111.765
842.78	10.345
843.08	-28.571
843.38	-84.615
843.68	-100.000
843.97	-76.923
844.27	-145.455
844.57	-220.000
844.87	0.000
845.17	-400.000
845.47	-14.286
845.76	-155.556
846.06	0.000
846.36	-375.000
846.66	-100.000
846.96	-10.526
847.25	-25.000
847.55	-50.000
847.85	0.000
848.15	-80.000
848.44	23.077
848.74	21.053
849.04	500.000
849.34	-155.556
849.63	-63.158
849.93	0.000
850.23	-95.000
850.53	-52.381
850.82	-44.000
851.12	31.579
851.42	-1000.000
851.71	35.714
852.01	-75.000
852.31	-52.941
852.61	-66.667
852.90	-47.619
853.20	-216.667
853.50	-50.000
853.79	-84.211
854.09	-40.000
854.39	-7.143
854.68	-47.826
854.98	-175.000
855.28	10.345
855.57	-37.500
855.87	-15.000
856.17	-86.667
856.46	-3.448
856.76	6.667
857.05	-41.176
857.35	-130.769
857.65	-90.909
857.94	0.000
858.24	-64.286
858.53	-28.571
858.83	-141.667
859.13	-155.556
859.42	23.810
859.72	-187.500
860.01	-500.000
860.31	-200.000
860.60	-440.000
860.90	-88.889
861.20	-275.000
861.49	-271.429
861.79	-35.294
862.08	-700.000
862.38	-133.333
862.67	-53.846
862.97	-5.882
863.26	-10.000
863.56	-100.000
863.85	-300.000
864.15	-90.000
864.44	-161.538
864.74	60.000
865.03	-175.000
865.33	-283.333
865.62	-5.882
865.92	-275.000
866.21	-128.571
866.51	-150.000
866.80	-1400.000
867.10	-200.000
867.39	-5.882
867.69	-60.870
867.98	-71.429
868.27	-200.000
868.57	-131.250
868.86	-163.636
869.16	-52.941
869.45	-116.667
869.75	-128.571
870.04	800.000
870.33	-75.000
870.63	-180.000
870.92	-66.667
871.22	50.000
871.51	-36.364
871.80	-75.000
872.10	-110.000
>>>>>End Processed Spectral Data<<<<<
