SpectraSuite Data File
++++++++++++++++++++++++++++++++++++
Date: Sat May 16 11:21:21 PDT 2015
User: schluterlab
Dark Spectrum Present: Yes
Reference Spectrum Present: Yes
Number of Sampled Component Spectra: 1
Spectrometers: USB2E3373
Integration Time (usec): 3000 (USB2E3373)
Spectra Averaged: 3 (USB2E3373)
Boxcar Smoothing: 0 (USB2E3373)
Correct for Electrical Dark: No (USB2E3373)
Strobe/Lamp Enabled: No (USB2E3373)
Correct for Detector Non-linearity: No (USB2E3373)
Correct for Stray Light: No (USB2E3373)
Number of Pixels in Processed Spectrum: 2048
>>>>>Begin Processed Spectral Data<<<<<
178.53	0.000
178.91	93.333
179.29	733.333
179.67	-800.000
180.04	-138.462
180.42	700.000
180.80	225.000
181.18	325.000
181.56	-62.500
181.94	1200.000
182.31	525.000
182.69	-61.538
183.07	-533.333
183.45	1400.000
183.83	666.667
184.20	-157.143
184.58	-62.500
184.96	-300.000
185.34	137.500
185.72	-325.000
186.09	200.000
186.47	-125.000
186.85	-37.500
187.23	-137.500
187.61	-250.000
187.98	-225.000
188.36	-50.000
188.74	-162.500
189.12	1400.000
189.49	357.143
189.87	-66.667
190.25	400.000
190.63	-57.143
191.00	-277.778
191.38	420.000
191.76	-6.667
192.14	560.000
192.51	-360.000
192.89	-400.000
193.27	0.000
193.65	-111.111
194.02	-228.571
194.40	600.000
194.78	-170.000
195.15	-1800.000
195.53	-72.727
195.91	-450.000
196.29	280.000
196.66	-900.000
197.04	2300.000
197.42	-375.000
197.79	26.667
198.17	-400.000
198.55	-50.000
198.92	-600.000
199.30	162.500
199.68	-650.000
200.05	-155.556
200.43	-266.667
200.81	-1300.000
201.18	-166.667
201.56	185.714
201.94	-60.000
202.31	13.636
202.69	20.000
203.07	0.000
203.44	933.333
203.82	-316.667
204.19	-250.000
204.57	-300.000
204.95	-1700.000
205.32	-87.500
205.70	600.000
206.08	-1100.000
206.45	-66.667
206.83	-800.000
207.20	250.000
207.58	-400.000
207.96	-500.000
208.33	-137.500
208.71	-144.444
209.08	180.000
209.46	-100.000
209.84	300.000
210.21	0.000
210.59	25.000
210.96	1200.000
211.34	-200.000
211.71	-366.667
212.09	250.000
212.46	1200.000
212.84	-2700.000
213.22	400.000
213.59	141.667
213.97	-22.222
214.34	200.000
214.72	-60.000
215.09	-266.667
215.47	-216.667
215.84	-90.000
216.22	-120.000
216.59	-13.333
216.97	-275.000
217.34	850.000
217.72	-114.286
218.09	-200.000
218.47	-228.571
218.84	157.143
219.22	-57.143
219.59	0.000
219.97	214.286
220.34	350.000
220.72	300.000
221.09	-15.385
221.47	0.000
221.84	600.000
222.22	-700.000
222.59	1300.000
222.97	-212.500
223.34	-1050.000
223.72	-500.000
224.09	-35.714
224.46	-450.000
224.84	-21.429
225.21	-200.000
225.59	-63.636
225.96	-75.000
226.34	-100.000
226.71	-122.222
227.08	-35.000
227.46	2100.000
227.83	-57.143
228.21	-162.500
228.58	650.000
228.95	-75.000
229.33	-1800.000
229.70	-160.000
230.08	-1100.000
230.45	-41.667
230.82	-50.000
231.20	-700.000
231.57	-900.000
231.95	1200.000
232.32	-38.095
232.69	-155.556
233.07	-28.571
233.44	-800.000
233.81	-40.000
234.19	-44.444
234.56	-12.500
234.93	15.625
235.31	-271.429
235.68	-57.143
236.05	17.647
236.43	-31.818
236.80	32.258
237.17	20.833
237.55	-14.286
237.92	-27.273
238.29	8.571
238.67	20.588
239.04	16.667
239.41	-25.806
239.79	-28.205
240.16	4.762
240.53	16.364
240.91	17.949
241.28	14.545
241.65	21.538
242.02	16.393
242.40	4.918
242.77	18.182
243.14	16.949
243.51	4.286
243.89	11.392
244.26	7.865
244.63	20.000
245.00	23.158
245.38	24.576
245.75	23.009
246.12	19.200
246.49	25.984
246.87	12.195
247.24	15.254
247.61	20.339
247.98	16.901
248.36	20.979
248.73	26.582
249.10	22.293
249.47	28.655
249.84	24.432
250.22	23.810
250.59	28.249
250.96	24.084
251.33	22.275
251.70	22.115
252.08	26.066
252.45	23.223
252.82	27.143
253.19	24.681
253.56	23.387
253.94	24.895
254.31	27.468
254.68	32.927
255.05	27.419
255.42	31.349
255.79	26.523
256.16	31.373
256.54	30.882
256.91	25.379
257.28	22.344
257.65	29.078
258.02	33.019
258.39	27.425
258.76	28.378
259.14	24.691
259.51	28.525
259.88	30.183
260.25	31.056
260.62	28.296
260.99	27.300
261.36	28.659
261.73	28.613
262.10	28.333
262.47	29.630
262.85	30.857
263.22	28.367
263.59	30.462
263.96	26.957
264.33	30.081
264.70	30.387
265.07	29.945
265.44	30.491
265.81	28.682
266.18	26.076
266.55	28.186
266.92	30.479
267.29	30.993
267.66	30.123
268.03	31.643
268.40	29.108
268.77	31.084
269.14	28.770
269.51	30.115
269.88	27.523
270.25	28.205
270.62	27.689
270.99	27.027
271.36	28.205
271.73	28.475
272.10	31.121
272.47	28.000
272.84	30.444
273.21	28.670
273.58	27.692
273.95	28.070
274.32	30.317
274.69	31.072
275.06	29.448
275.43	29.018
275.80	29.532
276.17	30.335
276.54	30.346
276.91	28.395
277.28	30.020
277.65	29.132
278.02	27.766
278.39	30.255
278.76	28.884
279.13	29.447
279.50	29.622
279.87	27.907
280.23	29.960
280.60	28.628
280.97	29.126
281.34	28.240
281.71	29.038
282.08	28.427
282.45	29.124
282.82	29.457
283.19	29.636
283.56	30.220
283.92	30.742
284.29	27.695
284.66	25.540
285.03	29.590
285.40	28.413
285.77	29.649
286.14	29.061
286.51	28.419
286.87	27.223
287.24	28.840
287.61	26.942
287.98	25.997
288.35	26.612
288.72	27.504
289.08	28.814
289.45	27.273
289.82	25.606
290.19	27.094
290.56	25.289
290.93	25.596
291.29	27.391
291.66	23.349
292.03	25.746
292.40	25.753
292.77	22.360
293.13	23.902
293.50	23.923
293.87	25.920
294.24	24.736
294.60	21.970
294.97	27.618
295.34	22.370
295.71	24.405
296.08	20.737
296.44	22.318
296.81	25.071
297.18	23.944
297.55	22.458
297.91	24.407
298.28	21.918
298.65	22.455
299.02	23.797
299.38	22.193
299.75	21.739
300.12	20.385
300.48	22.123
300.85	21.363
301.22	20.699
301.59	22.107
301.95	24.181
302.32	20.860
302.69	23.133
303.05	22.100
303.42	21.125
303.79	22.010
304.15	21.090
304.52	21.354
304.89	21.133
305.25	20.635
305.62	19.624
305.99	22.261
306.35	19.978
306.72	18.451
307.09	21.907
307.45	20.091
307.82	19.330
308.19	19.128
308.55	20.806
308.92	20.086
309.29	19.351
309.65	20.255
310.02	19.438
310.38	18.919
310.75	20.492
311.12	21.074
311.48	19.729
311.85	19.773
312.22	19.567
312.58	20.142
312.95	18.960
313.31	19.680
313.68	19.196
314.05	20.969
314.41	19.115
314.78	19.980
315.14	19.447
315.51	19.352
315.87	19.748
316.24	19.145
316.61	20.058
316.97	20.000
317.34	19.268
317.70	17.996
318.07	20.616
318.43	18.539
318.80	20.563
319.16	18.856
319.53	18.421
319.89	19.003
320.26	20.098
320.62	18.365
320.99	17.413
321.35	17.044
321.72	17.707
322.08	18.793
322.45	19.208
322.81	19.020
323.18	19.212
323.54	20.148
323.91	17.887
324.27	18.536
324.64	18.464
325.00	19.546
325.37	19.367
325.73	19.510
326.10	17.981
326.46	18.389
326.83	18.383
327.19	18.932
327.56	19.421
327.92	18.777
328.29	18.528
328.65	18.091
329.01	17.845
329.38	18.822
329.74	19.780
330.11	17.951
330.47	18.529
330.84	19.523
331.20	18.592
331.56	18.870
331.93	18.295
332.29	19.087
332.66	18.437
333.02	18.100
333.38	18.638
333.75	18.522
334.11	17.600
334.48	16.505
334.84	18.635
335.20	17.819
335.57	18.412
335.93	19.248
336.29	17.095
336.66	17.533
337.02	18.739
337.38	17.380
337.75	18.613
338.11	17.263
338.47	17.794
338.84	17.695
339.20	16.432
339.56	18.627
339.93	17.460
340.29	16.563
340.65	17.920
341.02	18.465
341.38	17.860
341.74	17.866
342.11	17.662
342.47	16.996
342.83	17.296
343.20	17.677
343.56	15.918
343.92	17.446
344.28	17.410
344.65	17.327
345.01	17.647
345.37	17.193
345.73	15.794
346.10	15.781
346.46	16.734
346.82	17.241
347.19	17.584
347.55	16.292
347.91	16.772
348.27	16.070
348.63	18.417
349.00	17.104
349.36	16.081
349.72	17.596
350.08	16.600
350.45	16.391
350.81	17.914
351.17	16.640
351.53	16.468
351.89	16.249
352.26	17.519
352.62	17.512
352.98	16.772
353.34	16.547
353.70	16.448
354.07	16.994
354.43	17.154
354.79	16.640
355.15	15.495
355.51	15.547
355.87	16.047
356.24	16.839
356.60	15.874
356.96	17.475
357.32	14.727
357.68	15.326
358.04	16.166
358.40	16.705
358.77	16.847
359.13	16.373
359.49	16.327
359.85	17.302
360.21	16.438
360.57	16.867
360.93	16.519
361.29	16.667
361.66	15.777
362.02	15.237
362.38	16.214
362.74	16.264
363.10	15.638
363.46	17.806
363.82	16.108
364.18	16.715
364.54	17.870
364.90	15.514
365.26	16.191
365.62	17.035
365.98	16.216
366.35	14.859
366.71	15.997
367.07	15.808
367.43	16.266
367.79	15.601
368.15	15.149
368.51	16.434
368.87	17.376
369.23	16.211
369.59	15.556
369.95	17.125
370.31	17.440
370.67	15.401
371.03	16.399
371.39	15.842
371.75	15.880
372.11	16.930
372.47	16.558
372.83	17.246
373.19	15.500
373.55	16.538
373.91	15.932
374.27	16.769
374.63	16.425
374.99	16.551
375.35	15.747
375.71	16.948
376.07	15.674
376.42	16.026
376.78	15.817
377.14	17.356
377.50	17.408
377.86	15.280
378.22	17.148
378.58	16.553
378.94	16.708
379.30	16.880
379.66	17.001
380.02	16.280
380.38	16.495
380.74	16.178
381.09	16.579
381.45	15.871
381.81	15.789
382.17	16.165
382.53	14.833
382.89	16.746
383.25	17.219
383.61	16.097
383.97	16.840
384.32	16.145
384.68	16.203
385.04	16.365
385.40	15.703
385.76	17.134
386.12	16.302
386.48	17.265
386.83	16.258
387.19	17.274
387.55	16.778
387.91	16.716
388.27	15.501
388.62	16.526
388.98	16.475
389.34	16.095
389.70	16.078
390.06	16.594
390.42	16.731
390.77	16.845
391.13	17.081
391.49	16.157
391.85	16.895
392.20	16.141
392.56	16.432
392.92	16.885
393.28	16.016
393.64	16.957
393.99	16.862
394.35	16.423
394.71	16.924
395.07	17.326
395.42	16.091
395.78	16.908
396.14	16.947
396.50	16.391
396.85	17.397
397.21	17.011
397.57	17.508
397.92	16.569
398.28	16.944
398.64	16.954
399.00	17.528
399.35	16.234
399.71	17.073
400.07	16.716
400.42	16.849
400.78	16.995
401.14	16.168
401.49	16.804
401.85	17.694
402.21	16.448
402.57	16.505
402.92	17.873
403.28	16.483
403.63	16.836
403.99	16.532
404.35	16.727
404.70	17.379
405.06	17.243
405.42	16.851
405.77	16.686
406.13	16.184
406.49	17.196
406.84	16.257
407.20	17.138
407.55	17.796
407.91	16.710
408.27	17.279
408.62	17.859
408.98	17.344
409.34	17.611
409.69	17.517
410.05	17.647
410.40	17.229
410.76	18.020
411.11	17.830
411.47	16.688
411.83	16.626
412.18	17.079
412.54	17.084
412.89	17.132
413.25	16.352
413.60	17.315
413.96	17.006
414.31	17.982
414.67	17.270
415.03	17.594
415.38	17.502
415.74	18.041
416.09	17.455
416.45	16.534
416.80	17.490
417.16	16.611
417.51	18.122
417.87	17.411
418.22	16.372
418.58	17.202
418.93	16.738
419.29	18.068
419.64	16.457
420.00	17.801
420.35	17.031
420.71	18.127
421.06	18.047
421.42	17.389
421.77	17.476
422.12	18.075
422.48	18.439
422.83	17.255
423.19	16.871
423.54	17.637
423.90	17.235
424.25	17.590
424.61	18.034
424.96	18.373
425.31	18.949
425.67	17.249
426.02	16.638
426.38	18.330
426.73	18.118
427.09	16.912
427.44	17.216
427.79	17.733
428.15	17.654
428.50	18.123
428.85	17.746
429.21	16.934
429.56	17.813
429.92	17.184
430.27	18.195
430.62	18.077
430.98	17.407
431.33	18.196
431.68	18.070
432.04	17.907
432.39	18.120
432.74	17.746
433.10	18.683
433.45	18.020
433.80	18.365
434.16	18.109
434.51	18.301
434.86	18.395
435.22	18.207
435.57	17.197
435.92	17.995
436.28	18.694
436.63	18.485
436.98	17.010
437.34	18.074
437.69	17.561
438.04	18.491
438.39	19.795
438.75	17.870
439.10	19.100
439.45	18.165
439.81	18.012
440.16	18.058
440.51	18.647
440.86	17.987
441.22	17.745
441.57	17.947
441.92	18.363
442.27	18.182
442.63	18.187
442.98	17.833
443.33	17.957
443.68	18.447
444.03	18.517
444.39	18.209
444.74	18.943
445.09	18.147
445.44	19.077
445.79	17.695
446.15	18.291
446.50	18.345
446.85	17.855
447.20	18.386
447.55	18.564
447.91	19.259
448.26	18.492
448.61	18.676
448.96	19.328
449.31	18.320
449.66	18.489
450.02	17.673
450.37	18.957
450.72	17.627
451.07	19.673
451.42	18.340
451.77	18.492
452.12	18.594
452.47	18.577
452.83	18.288
453.18	18.912
453.53	18.843
453.88	18.720
454.23	18.259
454.58	21.193
454.93	18.766
455.28	18.802
455.63	19.533
455.98	19.639
456.34	18.933
456.69	18.887
457.04	18.377
457.39	19.139
457.74	18.842
458.09	19.084
458.44	19.457
458.79	19.507
459.14	19.795
459.49	18.828
459.84	18.550
460.19	19.332
460.54	18.633
460.89	19.002
461.24	19.369
461.59	18.875
461.94	19.032
462.29	19.535
462.64	20.290
462.99	20.817
463.34	18.704
463.69	20.038
464.04	18.922
464.39	19.116
464.74	19.090
465.09	18.160
465.44	19.459
465.79	19.853
466.14	19.390
466.49	19.401
466.84	19.028
467.19	19.264
467.54	18.987
467.89	19.482
468.24	19.952
468.59	19.925
468.94	19.678
469.29	18.583
469.64	19.811
469.99	20.122
470.34	19.572
470.68	19.913
471.03	20.578
471.38	21.111
471.73	21.329
472.08	19.946
472.43	20.528
472.78	20.133
473.13	19.019
473.48	20.294
473.83	19.665
474.17	20.255
474.52	21.164
474.87	20.163
475.22	19.823
475.57	20.222
475.92	19.546
476.27	19.714
476.61	20.169
476.96	20.402
477.31	20.075
477.66	19.923
478.01	20.259
478.36	19.801
478.70	21.516
479.05	20.389
479.40	20.570
479.75	20.031
480.10	19.792
480.45	20.358
480.79	20.039
481.14	20.672
481.49	20.910
481.84	20.250
482.19	21.106
482.53	20.123
482.88	21.073
483.23	20.610
483.58	20.907
483.92	20.688
484.27	20.381
484.62	20.389
484.97	20.304
485.31	19.104
485.66	18.524
486.01	18.585
486.36	18.625
486.70	19.392
487.05	19.849
487.40	19.498
487.75	19.848
488.09	19.055
488.44	19.824
488.79	19.738
489.13	20.236
489.48	20.432
489.83	21.179
490.17	20.984
490.52	21.739
490.87	20.323
491.22	21.205
491.56	21.574
491.91	21.565
492.26	20.802
492.60	21.456
492.95	22.037
493.30	21.963
493.64	20.921
493.99	21.080
494.34	21.190
494.68	21.816
495.03	21.224
495.37	21.190
495.72	21.562
496.07	21.351
496.41	21.260
496.76	21.050
497.11	22.091
497.45	21.743
497.80	21.361
498.14	21.906
498.49	21.547
498.84	21.845
499.18	22.320
499.53	21.773
499.87	21.815
500.22	21.961
500.56	22.061
500.91	22.069
501.26	21.689
501.60	22.003
501.95	21.932
502.29	21.445
502.64	21.876
502.98	21.993
503.33	22.227
503.67	21.073
504.02	21.873
504.36	22.157
504.71	22.594
505.06	21.468
505.40	23.054
505.75	22.815
506.09	23.357
506.44	22.807
506.78	23.181
507.13	22.812
507.47	23.057
507.82	22.819
508.16	23.161
508.51	22.720
508.85	22.826
509.19	22.554
509.54	22.622
509.88	23.723
510.23	22.589
510.57	23.228
510.92	23.792
511.26	22.860
511.61	22.408
511.95	22.899
512.30	22.705
512.64	22.649
512.98	23.542
513.33	23.888
513.67	23.674
514.02	24.273
514.36	24.321
514.70	23.939
515.05	24.128
515.39	24.452
515.74	23.793
516.08	25.072
516.42	24.476
516.77	24.726
517.11	23.856
517.46	24.462
517.80	24.188
518.14	24.396
518.49	23.969
518.83	24.214
519.17	24.571
519.52	24.060
519.86	24.791
520.20	25.978
520.55	24.554
520.89	23.732
521.23	25.275
521.58	24.639
521.92	25.142
522.26	24.381
522.61	25.158
522.95	25.207
523.29	25.078
523.64	24.547
523.98	25.143
524.32	24.764
524.66	25.093
525.01	25.690
525.35	25.644
525.69	25.049
526.04	26.110
526.38	24.443
526.72	25.287
527.06	25.977
527.41	24.422
527.75	23.894
528.09	25.745
528.43	24.918
528.78	24.497
529.12	26.504
529.46	25.838
529.80	24.919
530.15	25.885
530.49	26.067
530.83	26.523
531.17	25.589
531.51	25.586
531.86	26.333
532.20	25.709
532.54	26.337
532.88	25.099
533.22	25.936
533.57	26.240
533.91	25.156
534.25	25.456
534.59	24.485
534.93	24.767
535.27	25.551
535.62	25.384
535.96	25.856
536.30	25.327
536.64	25.432
536.98	27.260
537.32	25.639
537.66	25.866
538.01	25.017
538.35	25.743
538.69	25.201
539.03	25.999
539.37	25.482
539.71	25.684
540.05	25.703
540.39	25.970
540.73	26.261
541.07	26.093
541.42	25.118
541.76	24.385
542.10	25.726
542.44	25.716
542.78	25.170
543.12	25.255
543.46	24.795
543.80	25.284
544.14	26.058
544.48	24.934
544.82	25.169
545.16	25.285
545.50	25.572
545.84	27.051
546.18	25.104
546.52	25.747
546.86	26.425
547.20	26.301
547.54	24.931
547.88	24.618
548.22	24.640
548.56	25.050
548.90	25.472
549.24	26.419
549.58	25.406
549.92	26.360
550.26	25.723
550.60	25.605
550.94	25.766
551.28	26.486
551.62	25.997
551.96	25.760
552.30	26.202
552.64	26.038
552.98	26.489
553.32	26.118
553.66	26.965
554.00	27.221
554.34	25.704
554.68	25.073
555.02	26.122
555.36	25.737
555.69	24.570
556.03	25.263
556.37	27.383
556.71	26.557
557.05	26.016
557.39	25.835
557.73	27.644
558.07	27.204
558.41	27.524
558.75	27.148
559.08	25.603
559.42	26.570
559.76	26.304
560.10	27.442
560.44	26.879
560.78	25.957
561.12	25.742
561.45	25.411
561.79	26.132
562.13	25.035
562.47	27.171
562.81	25.177
563.15	26.242
563.48	26.607
563.82	26.504
564.16	25.625
564.50	25.403
564.84	25.860
565.17	25.398
565.51	25.945
565.85	27.519
566.19	26.219
566.52	25.571
566.86	24.336
567.20	25.605
567.54	25.694
567.88	24.121
568.21	24.776
568.55	24.496
568.89	22.515
569.23	22.443
569.56	22.573
569.90	22.777
570.24	23.563
570.57	22.039
570.91	22.033
571.25	21.693
571.59	21.792
571.92	21.845
572.26	21.750
572.60	21.533
572.93	21.648
573.27	21.585
573.61	20.992
573.95	21.181
574.28	20.663
574.62	21.607
574.96	20.563
575.29	20.732
575.63	20.998
575.97	21.036
576.30	21.156
576.64	21.149
576.98	20.876
577.31	20.906
577.65	20.532
577.98	20.448
578.32	20.543
578.66	19.987
578.99	20.826
579.33	20.573
579.67	20.670
580.00	20.685
580.34	20.841
580.67	20.593
581.01	19.858
581.35	20.177
581.68	20.248
582.02	20.635
582.35	19.943
582.69	20.749
583.02	20.955
583.36	20.829
583.70	20.584
584.03	20.878
584.37	20.866
584.70	20.671
585.04	20.430
585.37	20.119
585.71	20.053
586.04	20.694
586.38	20.984
586.72	21.223
587.05	20.674
587.39	20.623
587.72	20.520
588.06	20.743
588.39	20.820
588.73	21.605
589.06	21.867
589.40	22.157
589.73	21.671
590.07	21.049
590.40	21.439
590.73	21.391
591.07	22.172
591.40	22.140
591.74	22.502
592.07	22.027
592.41	22.463
592.74	21.868
593.08	21.421
593.41	21.349
593.75	20.837
594.08	21.783
594.41	21.627
594.75	21.593
595.08	21.504
595.42	22.110
595.75	21.095
596.09	21.692
596.42	22.095
596.75	21.777
597.09	23.152
597.42	22.392
597.75	22.719
598.09	23.000
598.42	22.183
598.76	22.093
599.09	21.784
599.42	21.261
599.76	21.782
600.09	21.679
600.42	21.762
600.76	21.356
601.09	21.420
601.42	21.409
601.76	21.807
602.09	21.759
602.42	21.811
602.76	22.019
603.09	22.016
603.42	21.958
603.76	22.098
604.09	22.187
604.42	21.524
604.76	22.067
605.09	22.197
605.42	21.631
605.75	21.130
606.09	21.918
606.42	21.659
606.75	21.426
607.09	22.188
607.42	22.139
607.75	22.428
608.08	22.729
608.42	22.233
608.75	21.729
609.08	22.845
609.41	22.720
609.75	22.331
610.08	22.500
610.41	22.892
610.74	23.308
611.07	22.870
611.41	21.634
611.74	23.290
612.07	23.201
612.40	22.655
612.73	22.886
613.07	23.060
613.40	23.755
613.73	22.997
614.06	23.723
614.39	23.675
614.72	22.626
615.06	22.772
615.39	23.549
615.72	23.520
616.05	22.363
616.38	23.331
616.71	22.462
617.05	23.643
617.38	23.901
617.71	23.956
618.04	24.099
618.37	24.403
618.70	24.055
619.03	24.103
619.36	24.736
619.69	25.341
620.03	24.036
620.36	24.684
620.69	24.192
621.02	24.886
621.35	24.516
621.68	25.984
622.01	25.566
622.34	25.078
622.67	25.078
623.00	24.713
623.33	24.627
623.66	24.889
623.99	25.263
624.32	24.926
624.65	24.798
624.99	24.571
625.32	23.952
625.65	24.786
625.98	24.883
626.31	25.367
626.64	25.858
626.97	27.483
627.30	26.128
627.63	24.698
627.96	25.152
628.29	26.930
628.62	27.794
628.95	28.051
629.28	25.940
629.61	27.380
629.94	26.938
630.26	26.938
630.59	28.241
630.92	27.227
631.25	27.419
631.58	27.619
631.91	26.809
632.24	28.556
632.57	26.889
632.90	29.425
633.23	28.505
633.56	27.836
633.89	29.127
634.22	27.863
634.55	28.606
634.88	28.537
635.20	27.591
635.53	29.517
635.86	26.700
636.19	29.060
636.52	28.196
636.85	26.955
637.18	28.000
637.51	30.359
637.83	29.161
638.16	29.342
638.49	28.828
638.82	27.799
639.15	27.626
639.48	27.626
639.81	28.354
640.13	30.270
640.46	28.917
640.79	29.832
641.12	30.183
641.45	28.981
641.77	30.090
642.10	30.514
642.43	29.742
642.76	29.449
643.09	28.889
643.41	29.206
643.74	32.114
644.07	30.265
644.40	32.901
644.73	30.693
645.05	30.551
645.38	31.291
645.71	30.584
646.04	32.605
646.36	30.541
646.69	32.007
647.02	32.130
647.35	31.408
647.67	30.109
648.00	31.634
648.33	32.040
648.66	28.065
648.98	29.459
649.31	26.923
649.64	28.906
649.96	30.141
650.29	28.197
650.62	30.465
650.94	28.836
651.27	30.676
651.60	32.526
651.92	30.137
652.25	28.381
652.58	28.279
652.90	29.213
653.23	28.548
653.56	27.090
653.88	30.164
654.21	30.369
654.54	29.236
654.86	31.300
655.19	26.504
655.52	21.920
655.84	18.531
656.17	19.774
656.49	26.610
656.82	27.735
657.15	21.033
657.47	15.701
657.80	12.022
658.13	13.883
658.45	18.767
658.78	18.529
659.10	18.655
659.43	18.769
659.75	19.827
660.08	20.365
660.41	21.329
660.73	23.322
661.06	27.681
661.38	30.536
661.71	29.446
662.03	29.839
662.36	31.770
662.68	29.325
663.01	31.423
663.33	30.385
663.66	33.906
663.98	31.027
664.31	29.978
664.63	35.177
664.96	27.332
665.28	31.670
665.61	29.387
665.93	31.070
666.26	28.340
666.58	29.522
666.91	32.071
667.23	34.211
667.56	32.200
667.88	33.258
668.21	31.106
668.53	32.710
668.86	31.871
669.18	30.365
669.50	29.907
669.83	29.197
670.15	29.148
670.48	30.841
670.80	30.752
671.13	31.377
671.45	27.928
671.77	28.480
672.10	29.586
672.42	30.074
672.75	28.364
673.07	24.505
673.39	28.051
673.72	28.937
674.04	30.361
674.37	27.216
674.69	29.918
675.01	27.872
675.34	29.067
675.66	32.613
675.98	29.075
676.31	31.674
676.63	31.954
676.95	29.204
677.28	30.162
677.60	29.864
677.92	32.819
678.25	29.322
678.57	30.453
678.89	25.577
679.22	29.769
679.54	27.416
679.86	25.800
680.18	26.996
680.51	26.629
680.83	28.381
681.15	28.516
681.48	29.817
681.80	26.613
682.12	26.559
682.44	28.684
682.77	26.840
683.09	26.625
683.41	28.982
683.73	25.571
684.06	28.387
684.38	27.615
684.70	26.955
685.02	27.756
685.34	25.146
685.67	27.841
685.99	23.819
686.31	26.750
686.63	26.596
686.96	26.802
687.28	27.360
687.60	26.172
687.92	23.735
688.24	27.165
688.56	26.253
688.89	27.991
689.21	26.696
689.53	30.575
689.85	28.508
690.17	24.888
690.49	27.252
690.82	26.506
691.14	26.179
691.46	27.938
691.78	27.753
692.10	27.331
692.42	28.222
692.74	25.536
693.06	30.787
693.39	26.846
693.71	28.442
694.03	29.158
694.35	26.185
694.67	26.478
694.99	27.621
695.31	29.592
695.63	28.827
695.95	31.017
696.27	28.678
696.59	31.551
696.91	28.933
697.23	31.510
697.56	25.481
697.88	25.676
698.20	27.837
698.52	26.457
698.84	26.942
699.16	26.429
699.48	23.750
699.80	26.817
700.12	27.204
700.44	29.888
700.76	27.405
701.08	28.488
701.40	28.097
701.72	29.321
702.04	30.128
702.36	26.807
702.68	24.850
703.00	30.145
703.32	24.642
703.64	28.235
703.96	29.070
704.28	27.219
704.60	30.696
704.91	23.175
705.23	30.744
705.55	28.716
705.87	29.693
706.19	25.694
706.51	29.167
706.83	32.459
707.15	28.025
707.47	26.722
707.79	26.546
708.11	24.427
708.43	26.683
708.74	27.013
709.06	25.070
709.38	26.437
709.70	26.875
710.02	28.528
710.34	27.063
710.66	29.206
710.98	25.237
711.29	28.710
711.61	24.601
711.93	26.885
712.25	29.900
712.57	24.042
712.89	32.014
713.20	31.615
713.52	22.388
713.84	26.335
714.16	25.902
714.48	25.397
714.80	23.692
715.11	22.190
715.43	26.506
715.75	27.726
716.07	22.295
716.39	30.100
716.70	30.662
717.02	25.185
717.34	29.008
717.66	28.631
717.97	27.049
718.29	26.050
718.61	26.984
718.93	27.957
719.24	21.691
719.56	26.415
719.88	26.545
720.20	26.966
720.51	29.699
720.83	27.309
721.15	23.361
721.46	27.451
721.78	23.755
722.10	32.800
722.42	28.926
722.73	24.303
723.05	27.309
723.37	29.804
723.68	25.506
724.00	29.675
724.32	28.807
724.63	28.631
724.95	26.860
725.27	27.193
725.58	32.328
725.90	24.206
726.22	26.199
726.53	23.574
726.85	22.745
727.16	24.812
727.48	25.000
727.80	23.361
728.11	24.790
728.43	28.512
728.74	24.609
729.06	28.409
729.38	21.401
729.69	22.047
730.01	24.409
730.32	19.920
730.64	23.443
730.96	25.746
731.27	23.571
731.59	27.331
731.90	22.393
732.22	20.859
732.53	27.815
732.85	24.497
733.16	23.551
733.48	22.997
733.80	19.217
734.11	26.897
734.43	23.129
734.74	26.113
735.06	19.749
735.37	22.324
735.69	18.710
736.00	21.549
736.32	24.503
736.63	18.621
736.95	19.565
737.26	23.841
737.58	25.899
737.89	22.222
738.21	20.677
738.52	28.077
738.83	23.047
739.15	19.658
739.46	23.387
739.78	19.930
740.09	23.776
740.41	23.077
740.72	27.737
741.04	23.413
741.35	19.913
741.66	23.148
741.98	21.429
742.29	27.700
742.61	22.460
742.92	25.234
743.23	22.807
743.55	25.225
743.86	29.333
744.18	25.238
744.49	33.990
744.80	24.365
745.12	25.773
745.43	22.111
745.74	22.330
746.06	26.829
746.37	29.515
746.68	26.368
747.00	30.366
747.31	23.077
747.62	28.111
747.94	19.651
748.25	23.721
748.56	23.810
748.88	16.848
749.19	26.291
749.50	32.843
749.82	25.778
750.13	25.551
750.44	22.764
750.75	28.400
751.07	25.000
751.38	17.343
751.69	22.137
752.01	20.769
752.32	20.623
752.63	18.077
752.94	18.651
753.26	24.348
753.57	25.446
753.88	20.690
754.19	19.917
754.51	23.047
754.82	22.530
755.13	24.280
755.44	19.835
755.75	23.457
756.07	17.269
756.38	21.875
756.69	23.105
757.00	22.648
757.31	24.832
757.63	21.807
757.94	20.809
758.25	19.477
758.56	22.372
758.87	21.307
759.18	17.667
759.50	23.843
759.81	18.613
760.12	17.230
760.43	23.625
760.74	22.500
761.05	20.506
761.36	21.557
761.67	20.710
761.99	18.065
762.30	22.826
762.61	18.868
762.92	28.700
763.23	28.436
763.54	20.889
763.85	23.207
764.16	22.041
764.47	25.000
764.78	20.599
765.10	20.863
765.41	19.677
765.72	23.270
766.03	14.488
766.34	23.308
766.65	23.887
766.96	21.500
767.27	23.958
767.58	23.837
767.89	25.806
768.20	21.472
768.51	30.055
768.82	18.919
769.13	20.500
769.44	21.930
769.75	22.511
770.06	23.394
770.37	25.822
770.68	21.354
770.99	19.802
771.30	18.447
771.61	21.759
771.92	19.048
772.23	21.495
772.54	21.809
772.85	27.219
773.16	22.561
773.47	22.289
773.78	25.275
774.09	20.667
774.39	25.309
774.70	14.765
775.01	19.565
775.32	19.403
775.63	21.488
775.94	21.805
776.25	31.429
776.56	27.049
776.87	27.434
777.18	23.009
777.48	16.364
777.79	16.522
778.10	18.349
778.41	17.797
778.72	23.140
779.03	22.388
779.34	24.812
779.65	19.608
779.95	20.290
780.26	13.605
780.57	20.690
780.88	20.370
781.19	6.061
781.50	8.800
781.80	13.725
782.11	18.590
782.42	18.675
782.73	3.650
783.04	25.676
783.34	12.121
783.65	22.481
783.96	18.699
784.27	23.077
784.57	8.943
784.88	11.382
785.19	17.544
785.50	10.309
785.81	23.810
786.11	16.667
786.42	11.818
786.73	22.523
787.04	36.634
787.34	19.048
787.65	16.190
787.96	7.843
788.26	13.514
788.57	18.548
788.88	17.969
789.19	11.111
789.49	11.765
789.80	9.402
790.11	18.584
790.41	25.253
790.72	30.189
791.03	12.500
791.33	11.842
791.64	21.505
791.95	10.667
792.25	12.857
792.56	12.195
792.87	26.531
793.17	11.842
793.48	4.054
793.79	-2.817
794.09	7.595
794.40	22.340
794.70	10.280
795.01	7.018
795.32	9.091
795.62	13.393
795.93	13.402
796.23	8.791
796.54	18.947
796.85	4.110
797.15	6.944
797.46	16.438
797.76	18.310
798.07	25.000
798.37	25.000
798.68	21.429
798.99	17.143
799.29	14.474
799.60	21.667
799.90	-1.389
800.21	17.187
800.51	15.873
800.82	11.475
801.12	3.509
801.43	8.451
801.73	11.864
802.04	16.393
802.34	-1.818
802.65	3.846
802.95	16.667
803.26	-12.500
803.56	17.308
803.87	-26.316
804.17	24.194
804.48	27.692
804.78	0.000
805.09	2.326
805.39	3.125
805.70	-3.774
806.00	17.544
806.30	25.676
806.61	17.647
806.91	8.642
807.22	21.333
807.52	7.463
807.83	24.194
808.13	12.698
808.43	-7.273
808.74	19.697
809.04	18.868
809.35	16.438
809.65	12.281
809.95	14.706
810.26	11.765
810.56	-22.000
810.86	8.163
811.17	8.571
811.47	13.462
811.77	16.129
812.08	-44.737
812.38	7.143
812.69	0.000
812.99	-12.903
813.29	-9.524
813.59	-48.148
813.90	-4.255
814.20	-18.605
814.50	6.250
814.81	3.333
815.11	-14.634
815.41	10.000
815.72	-2.857
816.02	-5.556
816.32	15.385
816.62	-10.811
816.93	-41.176
817.23	23.913
817.53	5.882
817.84	5.882
818.14	-34.375
818.44	-17.241
818.74	-25.806
819.04	-14.815
819.35	-20.000
819.65	-28.000
819.95	-3.333
820.25	-40.000
820.56	7.895
820.86	-17.500
821.16	4.255
821.46	5.172
821.76	-10.256
822.07	-12.500
822.37	-2.326
822.67	-43.333
822.97	-5.405
823.27	18.919
823.57	8.000
823.88	-21.622
824.18	-33.333
824.48	-3.846
824.78	-153.846
825.08	-60.870
825.38	-12.500
825.69	-70.833
825.99	-20.000
826.29	-16.216
826.59	-5.882
826.89	0.000
827.19	-5.714
827.49	5.263
827.79	-18.750
828.09	-10.000
828.39	17.391
828.70	-34.483
829.00	-48.276
829.30	11.111
829.60	18.750
829.90	-16.667
830.20	-15.385
830.50	-52.381
830.80	-28.571
831.10	-2.564
831.40	-19.048
831.70	-20.588
832.00	12.500
832.30	10.526
832.60	18.750
832.90	-58.333
833.20	-70.588
833.50	-60.000
833.80	-80.000
834.10	20.000
834.40	12.500
834.70	-11.111
835.00	0.000
835.30	-25.000
835.60	-17.241
835.90	-44.444
836.20	-118.182
836.50	-166.667
836.80	14.286
837.10	42.857
837.40	-82.353
837.70	-45.455
838.00	-12.500
838.30	-81.250
838.60	4.762
838.90	-30.000
839.19	-65.217
839.49	39.130
839.79	-55.556
840.09	-17.391
840.39	-31.818
840.69	-43.750
840.99	-42.105
841.29	-87.500
841.59	-57.143
841.88	-22.222
842.18	8.333
842.48	-76.471
842.78	10.345
843.08	21.429
843.38	-61.538
843.68	-77.778
843.97	-130.769
844.27	-145.455
844.57	-260.000
844.87	16.000
845.17	-300.000
845.47	-57.143
845.76	-177.778
846.06	0.000
846.36	-275.000
846.66	-170.000
846.96	-63.158
847.25	-62.500
847.55	-50.000
847.85	-20.000
848.15	-70.000
848.44	-3.846
848.74	15.789
849.04	700.000
849.34	-11.111
849.63	-31.579
849.93	0.000
850.23	-50.000
850.53	-38.095
850.82	16.000
851.12	-36.842
851.42	-800.000
851.71	7.143
852.01	-91.667
852.31	-5.882
852.61	-53.333
852.90	-19.048
853.20	-216.667
853.50	-5.556
853.79	0.000
854.09	-53.333
854.39	-35.714
854.68	-52.174
854.98	-208.333
855.28	-6.897
855.57	-100.000
855.87	-55.000
856.17	-60.000
856.46	-6.897
856.76	-73.333
857.05	-58.824
857.35	-138.462
857.65	-27.273
857.94	-7.407
858.24	-85.714
858.53	-14.286
858.83	-58.333
859.13	-133.333
859.42	23.810
859.72	87.500
860.01	-400.000
860.31	-112.500
860.60	-400.000
860.90	-222.222
861.20	-250.000
861.49	-100.000
861.79	35.294
862.08	-750.000
862.38	-166.667
862.67	-53.846
862.97	-17.647
863.26	-10.000
863.56	-11.765
863.85	566.667
864.15	-80.000
864.44	-76.923
864.74	25.000
865.03	-287.500
865.33	-216.667
865.62	-70.588
865.92	-650.000
866.21	-142.857
866.51	-91.667
866.80	-100.000
867.10	-366.667
867.39	-41.176
867.69	43.478
867.98	-100.000
868.27	-220.000
868.57	-100.000
868.86	-90.909
869.16	-82.353
869.45	-366.667
869.75	-300.000
870.04	2200.000
870.33	-108.333
870.63	-100.000
870.92	-122.222
871.22	-141.667
871.51	-90.909
871.80	-66.667
872.10	-60.000
>>>>>End Processed Spectral Data<<<<<
