SpectraSuite Data File
++++++++++++++++++++++++++++++++++++
Date: Sat May 16 11:17:44 PDT 2015
User: schluterlab
Dark Spectrum Present: Yes
Reference Spectrum Present: Yes
Number of Sampled Component Spectra: 1
Spectrometers: USB2E3373
Integration Time (usec): 3000 (USB2E3373)
Spectra Averaged: 3 (USB2E3373)
Boxcar Smoothing: 0 (USB2E3373)
Correct for Electrical Dark: No (USB2E3373)
Strobe/Lamp Enabled: No (USB2E3373)
Correct for Detector Non-linearity: No (USB2E3373)
Correct for Stray Light: No (USB2E3373)
Number of Pixels in Processed Spectrum: 2048
>>>>>Begin Processed Spectral Data<<<<<
178.53	0.000
178.91	86.667
179.29	400.000
179.67	-1400.000
180.04	-23.077
180.42	1400.000
180.80	250.000
181.18	600.000
181.56	-37.500
181.94	400.000
182.31	325.000
182.69	-61.538
183.07	-566.667
183.45	900.000
183.83	300.000
184.20	-171.429
184.58	-100.000
184.96	-300.000
185.34	106.250
185.72	-200.000
186.09	216.667
186.47	-62.500
186.85	-137.500
187.23	-25.000
187.61	25.000
187.98	-200.000
188.36	-125.000
188.74	-212.500
189.12	600.000
189.49	185.714
189.87	16.667
190.25	150.000
190.63	-21.429
191.00	-188.889
191.38	360.000
191.76	40.000
192.14	380.000
192.51	-200.000
192.89	-533.333
193.27	0.000
193.65	0.000
194.02	-285.714
194.40	333.333
194.78	-60.000
195.15	-1400.000
195.53	-154.545
195.91	-183.333
196.29	280.000
196.66	-300.000
197.04	1000.000
197.42	-225.000
197.79	0.000
198.17	-133.333
198.55	-750.000
198.92	-800.000
199.30	75.000
199.68	-300.000
200.05	-33.333
200.43	-266.667
200.81	-900.000
201.18	-133.333
201.56	200.000
201.94	26.667
202.31	31.818
202.69	-20.000
203.07	-10.000
203.44	233.333
203.82	-150.000
204.19	-425.000
204.57	-75.000
204.95	700.000
205.32	0.000
205.70	1100.000
206.08	-2200.000
206.45	5.556
206.83	-650.000
207.20	0.000
207.58	-800.000
207.96	-233.333
208.33	-175.000
208.71	-88.889
209.08	150.000
209.46	-271.429
209.84	1000.000
210.21	0.000
210.59	40.000
210.96	700.000
211.34	-150.000
211.71	-333.333
212.09	150.000
212.46	950.000
212.84	-3200.000
213.22	566.667
213.59	108.333
213.97	-11.111
214.34	140.000
214.72	-20.000
215.09	-266.667
215.47	-166.667
215.84	-70.000
216.22	-20.000
216.59	-46.667
216.97	-250.000
217.34	900.000
217.72	-200.000
218.09	-116.667
218.47	-142.857
218.84	114.286
219.22	-100.000
219.59	0.000
219.97	285.714
220.34	675.000
220.72	100.000
221.09	-53.846
221.47	0.000
221.84	233.333
222.22	-600.000
222.59	700.000
222.97	-212.500
223.34	-750.000
223.72	-300.000
224.09	7.143
224.46	-150.000
224.84	-50.000
225.21	-114.286
225.59	-72.727
225.96	-137.500
226.34	-142.857
226.71	-144.444
227.08	5.000
227.46	1800.000
227.83	-185.714
228.21	-112.500
228.58	100.000
228.95	-12.500
229.33	-700.000
229.70	-280.000
230.08	-700.000
230.45	-66.667
230.82	-166.667
231.20	-800.000
231.57	-350.000
231.95	700.000
232.32	23.810
232.69	-55.556
233.07	-142.857
233.44	-650.000
233.81	-73.333
234.19	-133.333
234.56	-56.250
234.93	-6.250
235.31	-185.714
235.68	-71.429
236.05	-35.294
236.43	-68.182
236.80	-12.903
237.17	-25.000
237.55	-52.381
237.92	-45.455
238.29	-37.143
238.67	-5.882
239.04	5.556
239.41	-48.387
239.79	-30.769
240.16	-33.333
240.53	-1.818
240.91	-23.077
241.28	10.909
241.65	1.538
242.02	-13.115
242.40	-24.590
242.77	4.545
243.14	-22.034
243.51	-4.286
243.89	0.000
244.26	-12.360
244.63	-7.368
245.00	0.000
245.38	1.695
245.75	3.540
246.12	1.600
246.49	-2.362
246.87	-11.382
247.24	-11.864
247.61	-6.780
247.98	-2.113
248.36	-4.895
248.73	-5.063
249.10	-4.459
249.47	3.509
249.84	-0.568
250.22	-14.286
250.59	1.130
250.96	-1.047
251.33	3.791
251.70	2.404
252.08	-1.896
252.45	-2.370
252.82	-5.238
253.19	2.128
253.56	-0.806
253.94	-2.954
254.31	-3.004
254.68	-1.220
255.05	0.000
255.42	3.175
255.79	-1.792
256.16	-0.784
256.54	1.103
256.91	0.000
257.28	-2.564
257.65	-3.191
258.02	8.176
258.39	-2.676
258.76	-2.703
259.14	-4.321
259.51	3.607
259.88	3.049
260.25	-0.932
260.62	0.000
260.99	0.000
261.36	2.439
261.73	0.289
262.10	2.222
262.47	-1.709
262.85	3.143
263.22	-3.438
263.59	-3.385
263.96	-0.580
264.33	1.626
264.70	0.000
265.07	0.275
265.44	0.258
265.81	0.258
266.18	-0.759
266.55	-0.735
266.92	2.267
267.29	0.484
267.66	-1.481
268.03	0.966
268.40	2.817
268.77	-0.723
269.14	0.000
269.51	3.448
269.88	-2.523
270.25	-0.466
270.62	-1.373
270.99	-1.351
271.36	-1.632
271.73	0.673
272.10	-0.458
272.47	-1.556
272.84	1.111
273.21	-1.376
273.58	2.637
273.95	-0.439
274.32	0.452
274.69	0.875
275.06	2.658
275.43	-2.455
275.80	2.240
276.17	0.628
276.54	3.462
276.91	-1.440
277.28	2.637
277.65	-3.719
278.02	0.835
278.39	1.179
278.76	1.195
279.13	2.174
279.50	0.398
279.87	1.268
280.23	0.202
280.60	-1.590
280.97	-1.359
281.34	-0.387
281.71	0.577
282.08	1.411
282.45	-0.204
282.82	-0.194
283.19	0.182
283.56	2.198
283.92	2.473
284.29	1.301
284.66	0.719
285.03	1.961
285.40	1.845
285.77	0.526
286.14	1.444
286.51	-0.355
286.87	1.270
287.24	1.706
287.61	0.661
287.98	1.213
288.35	0.165
288.72	0.340
289.08	0.000
289.45	0.505
289.82	-0.173
290.19	2.956
290.56	-1.322
290.93	2.226
291.29	0.486
291.66	0.805
292.03	1.884
292.40	2.259
292.77	2.019
293.13	0.976
293.50	3.120
293.87	2.454
294.24	2.564
294.60	-0.455
294.97	1.517
295.34	1.333
295.71	2.083
296.08	0.461
296.44	0.858
296.81	1.852
297.18	1.690
297.55	1.977
297.91	3.766
298.28	0.685
298.65	2.092
299.02	3.342
299.38	2.005
299.75	2.310
300.12	2.564
300.48	0.639
300.85	1.442
301.22	1.811
301.59	3.511
301.95	3.778
302.32	0.913
302.69	4.162
303.05	3.785
303.42	1.000
303.79	2.871
304.15	3.081
304.52	3.384
304.89	3.424
305.25	1.221
305.62	1.645
305.99	3.769
306.35	2.775
306.72	2.620
307.09	4.654
307.45	3.405
307.82	3.240
308.19	2.685
308.55	3.050
308.92	2.900
309.29	3.568
309.65	3.606
310.02	2.808
310.38	2.595
310.75	4.713
311.12	4.442
311.48	4.802
311.85	3.296
312.22	5.561
312.58	3.967
312.95	3.772
313.31	4.795
313.68	4.925
314.05	5.143
314.41	3.521
314.78	3.097
315.14	4.047
315.51	4.762
315.87	6.196
316.24	7.289
316.61	5.662
316.97	5.572
317.34	4.624
317.70	5.380
318.07	7.090
318.43	5.524
318.80	7.230
319.16	4.690
319.53	5.545
319.89	6.209
320.26	6.765
320.62	6.058
320.99	7.363
321.35	6.798
321.72	6.653
322.08	7.715
322.45	6.634
322.81	7.493
323.18	7.109
323.54	8.133
323.91	8.619
324.27	8.080
324.64	8.227
325.00	9.599
325.37	8.235
325.73	10.849
326.10	7.263
326.46	10.858
326.83	9.957
327.19	10.759
327.56	11.158
327.92	10.790
328.29	12.208
328.65	11.273
329.01	12.544
329.38	12.667
329.74	14.469
330.11	14.234
330.47	13.170
330.84	14.115
331.20	13.448
331.56	14.129
331.93	14.032
332.29	13.973
332.66	15.628
333.02	15.837
333.38	15.054
333.75	15.672
334.11	16.000
334.48	15.446
334.84	17.673
335.20	17.110
335.57	15.433
335.93	17.099
336.29	16.475
336.66	16.564
337.02	16.126
337.38	15.954
337.75	17.296
338.11	17.889
338.47	16.904
338.84	17.695
339.20	16.344
339.56	18.806
339.93	17.108
340.29	17.272
340.65	17.920
341.02	18.128
341.38	17.270
341.74	17.866
342.11	17.406
342.47	17.339
342.83	17.296
343.20	17.336
343.56	16.245
343.92	18.197
344.28	19.008
344.65	16.997
345.01	17.227
345.37	18.439
345.73	17.676
346.10	16.680
346.46	17.222
346.82	18.204
347.19	17.338
347.55	16.693
347.91	18.504
348.27	16.627
348.63	18.821
349.00	18.218
349.36	16.784
349.72	18.471
350.08	17.241
350.45	18.203
350.81	19.347
351.17	18.569
351.53	17.661
351.89	18.432
352.26	17.907
352.62	18.817
352.98	19.066
353.34	19.584
353.70	16.448
354.07	19.197
354.43	17.708
354.79	17.829
355.15	17.812
355.51	18.594
355.87	17.628
356.24	18.983
356.60	19.259
356.96	18.784
357.32	19.240
357.68	18.314
358.04	19.092
358.40	18.175
358.77	18.856
359.13	17.904
359.49	18.745
359.85	18.979
360.21	19.559
360.57	18.524
360.93	19.926
361.29	19.731
361.66	18.293
362.02	20.192
362.38	19.956
362.74	19.121
363.10	18.651
363.46	20.442
363.82	19.388
364.18	19.826
364.54	20.944
364.90	19.706
365.26	20.328
365.62	20.741
365.98	20.697
366.35	20.915
366.71	19.732
367.07	20.183
367.43	20.796
367.79	19.794
368.15	20.555
368.51	21.049
368.87	21.566
369.23	20.281
369.59	20.486
369.95	21.142
370.31	21.589
370.67	20.680
371.03	21.283
371.39	21.358
371.75	21.602
372.11	21.879
372.47	21.547
372.83	21.140
373.19	22.929
373.55	22.449
373.91	21.835
374.27	21.081
374.63	22.360
374.99	22.670
375.35	22.813
375.71	23.700
376.07	22.930
376.42	22.649
376.78	23.595
377.14	22.780
377.50	23.275
377.86	22.497
378.22	23.744
378.58	23.904
378.94	23.551
379.30	23.827
379.66	23.679
380.02	23.173
380.38	24.773
380.74	23.681
381.09	24.077
381.45	25.119
381.81	24.259
382.17	25.564
382.53	24.498
382.89	24.821
383.25	25.406
383.61	25.531
383.97	25.352
384.32	26.158
384.68	26.300
385.04	26.329
385.40	27.024
385.76	26.463
386.12	27.171
386.48	27.104
386.83	26.994
387.19	26.838
387.55	27.256
387.91	27.860
388.27	27.262
388.62	26.923
388.98	28.468
389.34	26.989
389.70	28.806
390.06	27.843
390.42	28.910
390.77	28.076
391.13	28.447
391.49	29.008
391.85	28.242
392.20	28.155
392.56	28.100
392.92	28.865
393.28	28.588
393.64	30.066
393.99	29.292
394.35	29.380
394.71	29.277
395.07	29.692
395.42	28.546
395.78	29.415
396.14	29.408
396.50	29.602
396.85	30.105
397.21	29.891
397.57	28.815
397.92	28.923
398.28	30.000
398.64	30.934
399.00	31.292
399.35	29.538
399.71	29.965
400.07	30.090
400.42	30.231
400.78	30.113
401.14	30.479
401.49	29.835
401.85	30.750
402.21	29.797
402.57	30.825
402.92	30.082
403.28	30.086
403.63	29.539
403.99	30.578
404.35	29.287
404.70	29.842
405.06	29.527
405.42	29.274
405.77	29.355
406.13	29.983
406.49	30.557
406.84	29.694
407.20	31.095
407.55	30.716
407.91	30.376
408.27	29.963
408.62	30.968
408.98	30.746
409.34	30.774
409.69	29.994
410.05	29.412
410.40	30.349
410.76	30.765
411.11	32.357
411.47	30.435
411.83	30.257
412.18	30.198
412.54	29.957
412.89	31.470
413.25	29.693
413.60	31.227
413.96	30.561
414.31	30.703
414.67	29.968
415.03	30.595
415.38	30.319
415.74	30.992
416.09	30.051
416.45	30.225
416.80	31.339
417.16	30.233
417.51	30.926
417.87	30.291
418.22	29.899
418.58	31.515
418.93	31.882
419.29	31.054
419.64	31.219
420.00	31.835
420.35	31.224
420.71	32.113
421.06	31.775
421.42	31.148
421.77	31.100
422.12	32.009
422.48	30.999
422.83	31.435
423.19	31.403
423.54	30.720
423.90	31.348
424.25	31.561
424.61	32.388
424.96	32.709
425.31	31.805
425.67	31.748
426.02	30.924
426.38	31.821
426.73	32.554
427.09	32.169
427.44	31.364
427.79	31.047
428.15	31.837
428.50	32.023
428.85	31.715
429.21	30.825
429.56	31.510
429.92	32.064
430.27	31.954
430.62	32.288
430.98	32.305
431.33	32.391
431.68	33.137
432.04	31.953
432.39	32.479
432.74	32.134
433.10	31.626
433.45	31.261
433.80	32.195
434.16	32.294
434.51	32.384
434.86	33.861
435.22	31.904
435.57	31.824
435.92	32.532
436.28	31.810
436.63	31.374
436.98	31.329
437.34	32.369
437.69	31.739
438.04	31.934
438.39	32.551
438.75	32.130
439.10	32.815
439.45	31.986
439.81	33.072
440.16	31.459
440.51	32.118
440.86	32.215
441.22	32.172
441.57	32.316
441.92	32.941
442.27	31.926
442.63	33.315
442.98	32.506
443.33	33.443
443.68	32.725
444.03	32.760
444.39	33.578
444.74	33.205
445.09	32.621
445.44	33.934
445.79	33.197
446.15	33.625
446.50	32.716
446.85	32.170
447.20	32.329
447.55	32.099
447.91	33.240
448.26	32.626
448.61	32.767
448.96	33.445
449.31	32.638
449.66	32.914
450.02	34.183
450.37	33.507
450.72	32.768
451.07	34.129
451.42	32.652
451.77	34.291
452.12	33.731
452.47	34.383
452.83	34.071
453.18	33.713
453.53	33.085
453.88	34.151
454.23	33.011
454.58	33.064
454.93	33.501
455.28	33.779
455.63	33.415
455.98	34.880
456.34	33.100
456.69	34.146
457.04	33.251
457.39	33.134
457.74	35.145
458.09	32.947
458.44	33.891
458.79	33.969
459.14	34.341
459.49	33.393
459.84	34.120
460.19	34.487
460.54	34.059
460.89	34.753
461.24	34.244
461.59	33.118
461.94	34.118
462.29	34.247
462.64	34.783
462.99	35.007
463.34	34.166
463.69	34.288
464.04	34.036
464.39	33.811
464.74	33.924
465.09	33.975
465.44	32.995
465.79	34.405
466.14	35.213
466.49	34.485
466.84	35.114
467.19	34.601
467.54	33.544
467.89	34.217
468.24	34.323
468.59	34.478
468.94	34.791
469.29	33.528
469.64	34.299
469.99	34.909
470.34	34.870
470.68	36.192
471.03	35.306
471.38	34.514
471.73	36.573
472.08	35.475
472.43	35.135
472.78	34.733
473.13	33.797
473.48	34.716
473.83	34.181
474.17	34.522
474.52	35.550
474.87	35.606
475.22	34.749
475.57	34.778
475.92	35.529
476.27	35.143
476.61	35.155
476.96	34.377
477.31	34.876
477.66	36.580
478.01	35.170
478.36	34.573
478.70	35.985
479.05	36.236
479.40	35.907
479.75	36.340
480.10	35.813
480.45	33.994
480.79	34.847
481.14	36.076
481.49	35.382
481.84	34.304
482.19	35.039
482.53	36.411
482.88	35.026
483.23	35.211
483.58	35.939
483.92	36.025
484.27	34.869
484.62	35.292
484.97	35.230
485.31	34.240
485.66	34.342
486.01	34.228
486.36	35.220
486.70	35.271
487.05	35.052
487.40	35.337
487.75	34.896
488.09	34.836
488.44	35.284
488.79	34.560
489.13	34.690
489.48	36.460
489.83	36.419
490.17	35.612
490.52	36.458
490.87	35.612
491.22	35.778
491.56	35.648
491.91	36.260
492.26	35.896
492.60	36.061
492.95	35.364
493.30	35.827
493.64	35.073
493.99	35.946
494.34	37.238
494.68	37.500
495.03	36.042
495.37	36.037
495.72	37.181
496.07	36.321
496.41	37.286
496.76	36.986
497.11	35.516
497.45	36.686
497.80	36.168
498.14	35.953
498.49	36.765
498.84	36.359
499.18	36.988
499.53	37.604
499.87	35.859
500.22	36.912
500.56	37.369
500.91	36.946
501.26	37.409
501.60	36.399
501.95	37.295
502.29	36.750
502.64	37.529
502.98	36.272
503.33	36.607
503.67	36.638
504.02	36.842
504.36	37.304
504.71	37.690
505.06	36.795
505.40	37.375
505.75	36.585
506.09	37.310
506.44	36.341
506.78	38.083
507.13	37.384
507.47	37.402
507.82	36.913
508.16	37.513
508.51	37.455
508.85	37.836
509.19	36.996
509.54	38.002
509.88	37.819
510.23	38.155
510.57	38.466
510.92	38.722
511.26	37.533
511.61	37.797
511.95	37.662
512.30	36.833
512.64	38.453
512.98	39.219
513.33	38.331
513.67	38.470
514.02	37.472
514.36	38.172
514.70	38.653
515.05	37.850
515.39	38.120
515.74	40.489
516.08	39.597
516.42	39.207
516.77	38.590
517.11	39.016
517.46	40.371
517.80	39.531
518.14	39.191
518.49	39.151
518.83	39.525
519.17	39.609
519.52	39.503
519.86	39.427
520.20	40.098
520.55	39.815
520.89	40.451
521.23	40.476
521.58	40.251
521.92	39.899
522.26	39.302
522.61	40.114
522.95	39.247
523.29	41.066
523.64	39.101
523.98	39.338
524.32	40.541
524.66	39.317
525.01	41.040
525.35	40.206
525.69	40.468
526.04	40.927
526.38	40.675
526.72	39.847
527.06	39.648
527.41	40.462
527.75	40.000
528.09	41.496
528.43	40.066
528.78	39.887
529.12	42.190
529.46	41.302
529.80	41.188
530.15	41.082
530.49	41.656
530.83	42.567
531.17	40.404
531.51	42.398
531.86	41.804
532.20	41.026
532.54	40.508
532.88	42.161
533.22	41.711
533.57	42.232
533.91	40.200
534.25	40.792
534.59	40.849
534.93	40.137
535.27	41.032
535.62	41.688
535.96	41.758
536.30	41.361
536.64	42.430
536.98	42.514
537.32	42.294
537.66	41.208
538.01	41.100
538.35	41.486
538.69	40.842
539.03	40.894
539.37	41.251
539.71	41.361
540.05	40.439
540.39	43.352
540.73	42.433
541.07	42.418
541.42	40.851
541.76	40.664
542.10	41.661
542.44	40.906
542.78	41.927
543.12	41.887
543.46	41.027
543.80	42.007
544.14	41.303
544.48	42.323
544.82	41.475
545.16	41.583
545.50	41.117
545.84	42.350
546.18	41.886
546.52	42.319
546.86	41.595
547.20	42.194
547.54	40.978
547.88	42.867
548.22	40.695
548.56	41.683
548.90	42.385
549.24	41.696
549.58	40.720
549.92	42.049
550.26	40.896
550.60	40.896
550.94	41.533
551.28	42.438
551.62	41.211
551.96	42.258
552.30	40.976
552.64	42.716
552.98	42.677
553.32	42.569
553.66	43.259
554.00	42.715
554.34	41.516
554.68	41.447
555.02	42.547
555.36	42.919
555.69	41.117
556.03	41.614
556.37	42.674
556.71	43.307
557.05	43.089
557.39	41.054
557.73	43.253
558.07	42.653
558.41	42.109
558.75	41.597
559.08	41.089
559.42	42.420
559.76	42.945
560.10	43.475
560.44	41.908
560.78	42.658
561.12	41.753
561.45	41.849
561.79	42.091
562.13	41.515
562.47	42.157
562.81	40.948
563.15	42.197
563.48	41.672
563.82	43.070
564.16	41.244
564.50	41.734
564.84	41.733
565.17	41.777
565.51	41.199
565.85	43.002
566.19	42.227
566.52	41.683
566.86	40.898
567.20	42.554
567.54	42.528
567.88	40.983
568.21	41.555
568.55	41.304
568.89	40.905
569.23	39.287
569.56	40.227
569.90	40.834
570.24	40.586
570.57	39.297
570.91	39.442
571.25	39.170
571.59	39.650
571.92	39.167
572.26	39.125
572.60	39.342
572.93	39.176
573.27	38.445
573.61	38.658
573.95	38.824
574.28	38.581
574.62	39.044
574.96	38.260
575.29	38.516
575.63	39.076
575.97	38.727
576.30	38.312
576.64	39.086
576.98	38.343
577.31	38.570
577.65	39.052
577.98	38.302
578.32	39.087
578.66	38.647
578.99	38.333
579.33	38.332
579.67	39.006
580.00	38.616
580.34	38.748
580.67	38.759
581.01	37.523
581.35	38.776
581.68	38.454
582.02	39.049
582.35	38.281
582.69	39.183
583.02	39.589
583.36	38.727
583.70	38.735
584.03	39.251
584.37	39.675
584.70	38.567
585.04	38.937
585.37	38.282
585.71	38.195
586.04	39.083
586.38	38.974
586.72	38.867
587.05	39.366
587.39	38.459
587.72	38.917
588.06	38.157
588.39	39.020
588.73	38.865
589.06	38.267
589.40	40.467
589.73	39.235
590.07	39.257
590.40	39.225
590.73	39.464
591.07	39.221
591.40	39.948
591.74	39.531
592.07	39.865
592.41	39.278
592.74	39.585
593.08	39.272
593.41	38.651
593.75	37.718
594.08	39.684
594.41	39.630
594.75	39.222
595.08	38.985
595.42	39.053
595.75	38.773
596.09	38.844
596.42	39.975
596.75	39.414
597.09	39.715
597.42	39.066
597.75	40.035
598.09	39.991
598.42	38.710
598.76	39.037
599.09	38.713
599.42	39.446
599.76	38.769
600.09	39.656
600.42	40.182
600.76	39.096
601.09	39.233
601.42	38.939
601.76	39.136
602.09	38.978
602.42	38.765
602.76	38.554
603.09	39.960
603.42	40.250
603.76	39.569
604.09	38.887
604.42	39.051
604.76	38.814
605.09	39.557
605.42	39.273
605.75	38.508
606.09	39.311
606.42	38.835
606.75	39.459
607.09	39.524
607.42	40.053
607.75	39.073
608.08	40.307
608.42	39.972
608.75	39.299
609.08	40.039
609.41	40.060
609.75	39.347
610.08	39.902
610.41	39.614
610.74	40.039
611.07	40.974
611.41	38.074
611.74	39.897
612.07	41.085
612.40	40.352
612.73	38.826
613.07	39.626
613.40	40.394
613.73	39.728
614.06	39.154
614.39	40.812
614.72	39.553
615.06	40.054
615.39	39.555
615.72	39.761
616.05	38.763
616.38	40.453
616.71	39.880
617.05	40.712
617.38	40.557
617.71	39.435
618.04	40.373
618.37	40.000
618.70	40.548
619.03	40.420
619.36	41.438
619.69	41.637
620.03	39.669
620.36	40.295
620.69	41.493
621.02	40.563
621.35	41.048
621.68	41.557
622.01	41.100
622.34	40.528
622.67	40.469
623.00	40.933
623.33	41.269
623.66	40.030
623.99	39.474
624.32	39.360
624.65	41.280
624.99	40.254
625.32	41.317
625.65	41.103
625.98	40.219
626.31	41.272
626.64	41.255
626.97	40.839
627.30	40.681
627.63	40.501
627.96	40.209
628.29	41.728
628.62	41.834
628.95	41.535
629.28	40.789
629.61	41.413
629.94	41.021
630.26	42.247
630.59	42.211
630.92	41.241
631.25	42.944
631.58	40.847
631.91	40.000
632.24	43.556
632.57	41.667
632.90	43.908
633.23	42.290
633.56	42.339
633.89	42.099
634.22	40.260
634.55	43.510
634.88	39.420
635.20	41.573
635.53	42.112
635.86	43.199
636.19	42.002
636.52	40.741
636.85	40.433
637.18	40.250
637.51	42.131
637.83	44.208
638.16	41.711
638.49	42.621
638.82	41.828
639.15	42.412
639.48	42.023
639.81	43.154
640.13	42.162
640.46	42.308
640.79	43.838
641.12	42.172
641.45	44.189
641.77	44.910
642.10	43.807
642.43	43.096
642.76	43.937
643.09	42.698
643.41	43.175
643.74	45.310
644.07	41.966
644.40	43.922
644.73	43.729
645.05	40.234
645.38	44.868
645.71	46.907
646.04	42.017
646.36	43.805
646.69	42.388
647.02	42.419
647.35	44.043
647.67	43.431
648.00	45.518
648.33	44.857
648.66	40.645
648.98	42.675
649.31	42.462
649.64	43.906
649.96	42.700
650.29	40.820
650.62	44.923
650.94	43.676
651.27	43.847
651.60	45.675
651.92	43.151
652.25	40.902
652.58	42.078
652.90	41.573
653.23	42.742
653.56	41.304
653.88	40.492
654.21	41.946
654.54	41.196
654.86	42.376
655.19	41.834
655.52	39.909
655.84	37.015
656.17	39.805
656.49	53.690
656.82	55.367
657.15	41.784
657.47	31.076
657.80	23.906
658.13	27.187
658.45	36.288
658.78	36.168
659.10	36.164
659.43	35.028
659.75	35.917
660.08	38.021
660.41	36.596
660.73	39.604
661.06	40.580
661.38	42.321
661.71	41.491
662.03	46.573
662.36	44.563
662.68	41.772
663.01	44.586
663.33	45.351
663.66	41.631
663.98	42.411
664.31	42.506
664.63	43.363
664.96	41.649
665.28	41.649
665.61	39.746
665.93	43.004
666.26	40.081
666.58	42.412
666.91	44.543
667.23	42.544
667.56	40.363
667.88	43.891
668.21	44.009
668.53	42.056
668.86	41.570
669.18	44.292
669.50	41.589
669.83	42.336
670.15	42.152
670.48	40.654
670.80	39.408
671.13	41.309
671.45	40.766
671.77	41.328
672.10	39.250
672.42	41.144
672.75	41.273
673.07	38.739
673.39	41.166
673.72	40.748
674.04	41.189
674.37	40.825
674.69	44.057
675.01	39.149
675.34	43.601
675.66	45.356
675.98	43.172
676.31	42.534
676.63	43.448
676.95	39.823
677.28	44.084
677.60	42.760
677.92	42.070
678.25	44.420
678.57	39.300
678.89	40.252
679.22	42.348
679.54	41.617
679.86	39.000
680.18	39.544
680.51	38.734
680.83	40.000
681.15	40.655
681.48	43.408
681.80	39.919
682.12	40.040
682.44	41.650
682.77	40.909
683.09	40.671
683.41	42.478
683.73	39.954
684.06	40.430
684.38	41.841
684.70	38.066
685.02	39.567
685.34	41.520
685.67	38.258
685.99	39.319
686.31	39.856
686.63	39.007
686.96	39.187
687.28	39.306
687.60	40.430
687.92	36.576
688.24	39.961
688.56	38.477
688.89	37.393
689.21	40.481
689.53	38.621
689.85	39.866
690.17	40.135
690.49	39.723
690.82	39.759
691.14	39.151
691.46	39.246
691.78	38.546
692.10	39.195
692.42	37.556
692.74	37.339
693.06	41.348
693.39	38.926
693.71	39.052
694.03	39.957
694.35	37.246
694.67	40.426
694.99	37.340
695.31	37.500
695.63	38.776
695.95	42.680
696.27	42.394
696.59	41.711
696.91	42.416
697.23	40.625
697.56	36.779
697.88	40.541
698.20	36.188
698.52	36.771
698.84	36.408
699.16	36.190
699.48	39.000
699.80	37.594
700.12	38.287
700.44	37.430
700.76	37.901
701.08	39.244
701.40	35.347
701.72	41.667
702.04	39.423
702.36	38.554
702.68	39.222
703.00	37.681
703.32	34.097
703.64	40.000
703.96	40.116
704.28	41.124
704.60	37.975
704.91	39.048
705.23	40.777
705.55	39.865
705.87	38.908
706.19	36.111
706.51	36.806
706.83	38.361
707.15	38.535
707.47	39.945
707.79	36.598
708.11	34.860
708.43	41.895
708.74	33.247
709.06	38.162
709.38	38.218
709.70	41.562
710.02	40.184
710.34	39.934
710.66	37.778
710.98	35.331
711.29	36.129
711.61	37.061
711.93	36.066
712.25	42.857
712.57	37.979
712.89	39.209
713.20	39.863
713.52	35.821
713.84	40.214
714.16	37.377
714.48	37.778
714.80	37.846
715.11	38.617
715.43	39.458
715.75	40.187
716.07	35.082
716.39	34.448
716.70	38.328
717.02	38.889
717.34	39.695
717.66	41.079
717.97	39.754
718.29	40.756
718.61	39.683
718.93	40.143
719.24	36.765
719.56	31.321
719.88	38.909
720.20	34.082
720.51	37.970
720.83	38.153
721.15	37.295
721.46	41.176
721.78	35.632
722.10	35.200
722.42	37.603
722.73	34.263
723.05	35.743
723.37	38.039
723.68	34.008
724.00	34.959
724.32	39.918
724.63	33.610
724.95	35.537
725.27	35.965
725.58	41.379
725.90	33.730
726.22	36.162
726.53	38.783
726.85	33.333
727.16	35.338
727.48	37.308
727.80	31.148
728.11	36.134
728.43	35.537
728.74	38.281
729.06	42.803
729.38	31.907
729.69	30.315
730.01	37.402
730.32	38.247
730.64	39.194
730.96	37.687
731.27	30.714
731.59	36.656
731.90	37.117
732.22	33.742
732.53	41.060
732.85	30.872
733.16	34.058
733.48	35.192
733.80	34.875
734.11	35.862
734.43	36.395
734.74	34.125
735.06	34.796
735.37	37.615
735.69	30.645
736.00	31.650
736.32	34.768
736.63	30.690
736.95	36.232
737.26	32.119
737.58	36.331
737.89	40.143
738.21	36.090
738.52	33.077
738.83	38.672
739.15	32.479
739.46	34.677
739.78	30.420
740.09	30.420
740.41	36.014
740.72	35.766
741.04	33.730
741.35	35.498
741.66	30.556
741.98	29.524
742.29	32.864
742.61	31.551
742.92	40.187
743.23	28.947
743.55	35.135
743.86	39.111
744.18	33.810
744.49	36.946
744.80	38.579
745.12	42.784
745.43	37.688
745.74	32.039
746.06	35.610
746.37	35.683
746.68	34.826
747.00	37.173
747.31	36.058
747.62	31.336
747.94	31.878
748.25	34.419
748.56	35.714
748.88	34.239
749.19	37.559
749.50	42.647
749.82	37.778
750.13	40.088
750.44	37.398
750.75	35.200
751.07	35.357
751.38	32.103
751.69	32.824
752.01	32.308
752.32	32.296
752.63	29.231
752.94	30.952
753.26	36.087
753.57	36.607
753.88	35.345
754.19	35.685
754.51	34.375
754.82	28.854
755.13	32.510
755.44	29.752
755.75	32.099
756.07	30.924
756.38	33.594
756.69	36.823
757.00	27.875
757.31	35.906
757.63	37.383
757.94	31.792
758.25	30.233
758.56	35.580
758.87	33.807
759.18	31.000
759.50	31.673
759.81	29.197
760.12	29.730
760.43	35.599
760.74	35.938
761.05	34.270
761.36	31.737
761.67	32.840
761.99	30.968
762.30	35.507
762.61	35.094
762.92	38.117
763.23	28.910
763.54	32.889
763.85	32.911
764.16	33.061
764.47	35.593
764.78	31.461
765.10	38.129
765.41	29.677
765.72	35.220
766.03	25.442
766.34	28.947
766.65	32.794
766.96	27.000
767.27	33.854
767.58	37.209
767.89	29.677
768.20	35.583
768.51	33.333
768.82	32.432
769.13	31.000
769.44	33.772
769.75	30.736
770.06	35.780
770.37	30.047
770.68	34.375
770.99	31.188
771.30	35.922
771.61	26.852
771.92	27.273
772.23	30.841
772.54	30.851
772.85	34.911
773.16	35.366
773.47	34.940
773.78	36.264
774.09	37.333
774.39	30.864
774.70	30.201
775.01	39.130
775.32	28.358
775.63	31.405
775.94	29.323
776.25	27.857
776.56	31.967
776.87	33.628
777.18	39.823
777.48	20.000
777.79	21.739
778.10	27.523
778.41	34.746
778.72	29.752
779.03	36.567
779.34	34.586
779.65	32.680
779.95	31.159
780.26	32.653
780.57	25.000
780.88	22.222
781.19	23.232
781.50	23.200
781.80	28.758
782.11	31.410
782.42	30.723
782.73	22.628
783.04	33.108
783.34	28.788
783.65	25.581
783.96	29.268
784.27	26.496
784.57	28.455
784.88	26.829
785.19	38.596
785.50	13.402
785.81	15.238
786.11	28.431
786.42	28.182
786.73	39.640
787.04	31.683
787.34	24.762
787.65	25.714
787.96	20.588
788.26	44.144
788.57	32.258
788.88	18.750
789.19	25.641
789.49	31.933
789.80	24.786
790.11	27.434
790.41	21.212
790.72	28.302
791.03	12.500
791.33	15.789
791.64	27.957
791.95	18.667
792.25	28.571
792.56	23.171
792.87	25.510
793.17	31.579
793.48	10.811
793.79	23.944
794.09	26.582
794.40	30.851
794.70	22.430
795.01	10.526
795.32	16.364
795.62	26.786
795.93	25.773
796.23	8.791
796.54	24.211
796.85	15.068
797.15	19.444
797.46	15.068
797.76	25.352
798.07	25.000
798.37	20.588
798.68	22.857
798.99	25.714
799.29	43.421
799.60	21.667
799.90	4.167
800.21	12.500
800.51	23.810
800.82	22.951
801.12	17.544
801.43	1.408
801.73	1.695
802.04	24.590
802.34	21.818
802.65	1.923
802.95	37.037
803.26	10.000
803.56	21.154
803.87	7.895
804.17	29.032
804.48	30.769
804.78	12.821
805.09	6.977
805.39	12.500
805.70	11.321
806.00	29.825
806.30	20.270
806.61	26.471
806.91	25.926
807.22	20.000
807.52	19.403
807.83	19.355
808.13	28.571
808.43	12.727
808.74	16.667
809.04	26.415
809.35	15.068
809.65	24.561
809.95	25.000
810.26	33.333
810.56	8.000
810.86	34.694
811.17	11.429
811.47	9.615
811.77	9.677
812.08	-10.526
812.38	-2.381
812.69	0.000
812.99	-9.677
813.29	11.905
813.59	-7.407
813.90	-4.255
814.20	-4.651
814.50	8.333
814.81	6.667
815.11	21.951
815.41	3.333
815.72	37.143
816.02	13.889
816.32	12.821
816.62	29.730
816.93	17.647
817.23	15.217
817.53	-5.882
817.84	2.941
818.14	-6.250
818.44	20.690
818.74	3.226
819.04	0.000
819.35	23.333
819.65	8.000
819.95	3.333
820.25	12.000
820.56	7.895
820.86	17.500
821.16	2.128
821.46	27.586
821.76	5.128
822.07	-15.000
822.37	9.302
822.67	-16.667
822.97	-13.514
823.27	27.027
823.57	24.000
823.88	16.216
824.18	-38.095
824.48	-3.846
824.78	-46.154
825.08	52.174
825.38	25.000
825.69	37.500
825.99	-45.000
826.29	16.216
826.59	29.412
826.89	4.000
827.19	-14.286
827.49	47.368
827.79	0.000
828.09	0.000
828.39	-4.348
828.70	-3.448
829.00	31.034
829.30	25.000
829.60	43.750
829.90	16.667
830.20	23.077
830.50	-4.762
830.80	-28.571
831.10	48.718
831.40	-33.333
831.70	11.765
832.00	-25.000
832.30	-36.842
832.60	-37.500
832.90	-50.000
833.20	-58.824
833.50	-60.000
833.80	40.000
834.10	0.000
834.40	-12.500
834.70	-5.556
835.00	7.692
835.30	-20.833
835.60	10.345
835.90	-16.667
836.20	-181.818
836.50	-16.667
836.80	-2.857
837.10	37.143
837.40	5.882
837.70	-136.364
838.00	25.000
838.30	18.750
838.60	14.286
838.90	55.000
839.19	-26.087
839.49	-13.043
839.79	-16.667
840.09	-34.783
840.39	59.091
840.69	-68.750
840.99	36.842
841.29	-56.250
841.59	-7.143
841.88	33.333
842.18	12.500
842.48	-52.941
842.78	27.586
843.08	-21.429
843.38	38.462
843.68	-177.778
843.97	-30.769
844.27	-18.182
844.57	-220.000
844.87	8.000
845.17	-60.000
845.47	-21.429
845.76	-33.333
846.06	0.000
846.36	-350.000
846.66	-120.000
846.96	0.000
847.25	-50.000
847.55	-75.000
847.85	-40.000
848.15	-160.000
848.44	30.769
848.74	0.000
849.04	500.000
849.34	-44.444
849.63	-26.316
849.93	0.000
850.23	-60.000
850.53	-28.571
850.82	-40.000
851.12	5.263
851.42	-500.000
851.71	7.143
852.01	41.667
852.31	-35.294
852.61	-33.333
852.90	-38.095
853.20	-266.667
853.50	-11.111
853.79	-31.579
854.09	-6.667
854.39	21.429
854.68	8.696
854.98	-141.667
855.28	34.483
855.57	-56.250
855.87	5.000
856.17	-26.667
856.46	0.000
856.76	-66.667
857.05	-17.647
857.35	-100.000
857.65	-27.273
857.94	-14.815
858.24	-78.571
858.53	-42.857
858.83	-33.333
859.13	-100.000
859.42	47.619
859.72	-200.000
860.01	-400.000
860.31	-75.000
860.60	-140.000
860.90	-100.000
861.20	-112.500
861.49	-42.857
861.79	-5.882
862.08	-1050.000
862.38	-50.000
862.67	38.462
862.97	64.706
863.26	45.000
863.56	-41.176
863.85	200.000
864.15	10.000
864.44	-30.769
864.74	-25.000
865.03	-187.500
865.33	-150.000
865.62	-47.059
865.92	-575.000
866.21	-71.429
866.51	-75.000
866.80	-400.000
867.10	-233.333
867.39	76.471
867.69	26.087
867.98	-57.143
868.27	-240.000
868.57	-87.500
868.86	-63.636
869.16	41.176
869.45	-50.000
869.75	-100.000
870.04	300.000
870.33	-25.000
870.63	-120.000
870.92	-44.444
871.22	0.000
871.51	-90.909
871.80	-16.667
872.10	-70.000
>>>>>End Processed Spectral Data<<<<<
