SpectraSuite Data File
++++++++++++++++++++++++++++++++++++
Date: Sat May 16 11:27:10 PDT 2015
User: schluterlab
Dark Spectrum Present: Yes
Reference Spectrum Present: Yes
Number of Sampled Component Spectra: 1
Spectrometers: USB2E3373
Integration Time (usec): 3000 (USB2E3373)
Spectra Averaged: 3 (USB2E3373)
Boxcar Smoothing: 0 (USB2E3373)
Correct for Electrical Dark: No (USB2E3373)
Strobe/Lamp Enabled: No (USB2E3373)
Correct for Detector Non-linearity: No (USB2E3373)
Correct for Stray Light: No (USB2E3373)
Number of Pixels in Processed Spectrum: 2048
>>>>>Begin Processed Spectral Data<<<<<
178.53	0.000
178.91	66.667
179.29	533.333
179.67	-700.000
180.04	-15.385
180.42	800.000
180.80	300.000
181.18	300.000
181.56	-100.000
181.94	1100.000
182.31	425.000
182.69	-61.538
183.07	-566.667
183.45	1500.000
183.83	700.000
184.20	-157.143
184.58	-137.500
184.96	-200.000
185.34	125.000
185.72	-425.000
186.09	150.000
186.47	-112.500
186.85	-212.500
187.23	-187.500
187.61	-200.000
187.98	-287.500
188.36	-137.500
188.74	-112.500
189.12	1000.000
189.49	285.714
189.87	-66.667
190.25	150.000
190.63	-57.143
191.00	-144.444
191.38	440.000
191.76	-20.000
192.14	600.000
192.51	-240.000
192.89	-433.333
193.27	0.000
193.65	-200.000
194.02	14.286
194.40	533.333
194.78	0.000
195.15	-500.000
195.53	72.727
195.91	-433.333
196.29	240.000
196.66	-466.667
197.04	1900.000
197.42	-100.000
197.79	33.333
198.17	-66.667
198.55	-600.000
198.92	-1200.000
199.30	112.500
199.68	-900.000
200.05	-44.444
200.43	-188.889
200.81	-1700.000
201.18	-91.667
201.56	214.286
201.94	-60.000
202.31	-9.091
202.69	50.000
203.07	-10.000
203.44	366.667
203.82	-333.333
204.19	-325.000
204.57	-200.000
204.95	-500.000
205.32	6.250
205.70	900.000
206.08	-1900.000
206.45	-11.111
206.83	-1050.000
207.20	-50.000
207.58	-500.000
207.96	-533.333
208.33	-62.500
208.71	-55.556
209.08	230.000
209.46	-14.286
209.84	400.000
210.21	0.000
210.59	65.000
210.96	500.000
211.34	-150.000
211.71	-500.000
212.09	475.000
212.46	850.000
212.84	-1600.000
213.22	500.000
213.59	16.667
213.97	0.000
214.34	110.000
214.72	-190.000
215.09	-33.333
215.47	-266.667
215.84	40.000
216.22	30.000
216.59	40.000
216.97	-125.000
217.34	900.000
217.72	-142.857
218.09	-300.000
218.47	-242.857
218.84	271.429
219.22	-85.714
219.59	0.000
219.97	157.143
220.34	500.000
220.72	212.500
221.09	-15.385
221.47	0.000
221.84	300.000
222.22	-300.000
222.59	1100.000
222.97	-50.000
223.34	-500.000
223.72	-533.333
224.09	-7.143
224.46	-225.000
224.84	-57.143
225.21	-228.571
225.59	-136.364
225.96	12.500
226.34	28.571
226.71	-22.222
227.08	35.000
227.46	1200.000
227.83	-100.000
228.21	-212.500
228.58	200.000
228.95	-6.250
229.33	-1600.000
229.70	-100.000
230.08	-900.000
230.45	-58.333
230.82	-216.667
231.20	-900.000
231.57	-950.000
231.95	1400.000
232.32	14.286
232.69	-66.667
233.07	-300.000
233.44	-450.000
233.81	-26.667
234.19	-122.222
234.56	-18.750
234.93	31.250
235.31	-271.429
235.68	-50.000
236.05	-11.765
236.43	-95.455
236.80	0.000
237.17	41.667
237.55	-14.286
237.92	-77.273
238.29	0.000
238.67	32.353
239.04	38.889
239.41	-35.484
239.79	-7.692
240.16	16.667
240.53	-16.364
240.91	25.641
241.28	18.182
241.65	32.308
242.02	34.426
242.40	22.951
242.77	16.667
243.14	23.729
243.51	5.714
243.89	27.848
244.26	15.730
244.63	25.263
245.00	25.263
245.38	18.644
245.75	26.549
246.12	18.400
246.49	30.709
246.87	20.325
247.24	17.797
247.61	26.271
247.98	20.423
248.36	13.986
248.73	20.886
249.10	18.471
249.47	26.901
249.84	23.295
250.22	18.452
250.59	24.294
250.96	24.607
251.33	26.066
251.70	26.442
252.08	22.749
252.45	19.905
252.82	22.857
253.19	26.383
253.56	27.016
253.94	25.738
254.31	21.888
254.68	29.268
255.05	23.387
255.42	25.000
255.79	23.656
256.16	28.627
256.54	26.103
256.91	22.348
257.28	26.374
257.65	27.660
258.02	26.101
258.39	24.749
258.76	24.324
259.14	24.691
259.51	22.951
259.88	25.305
260.25	25.776
260.62	24.437
260.99	23.739
261.36	23.780
261.73	28.613
262.10	28.056
262.47	27.066
262.85	31.143
263.22	24.355
263.59	24.615
263.96	22.899
264.33	26.287
264.70	23.481
265.07	25.000
265.44	22.997
265.81	21.189
266.18	23.038
266.55	21.569
266.92	29.723
267.29	23.971
267.66	25.432
268.03	27.536
268.40	26.056
268.77	23.855
269.14	24.130
269.51	22.299
269.88	24.083
270.25	25.641
270.62	21.281
270.99	24.324
271.36	23.776
271.73	22.646
272.10	24.714
272.47	21.333
272.84	22.667
273.21	27.064
273.58	24.176
273.95	23.904
274.32	25.792
274.69	26.915
275.06	24.949
275.43	22.098
275.80	27.088
276.17	25.314
276.54	24.644
276.91	22.222
277.28	25.355
277.65	24.793
278.02	24.426
278.39	25.344
278.76	22.709
279.13	23.320
279.50	24.453
279.87	23.044
280.23	24.899
280.60	24.652
280.97	21.942
281.34	22.050
281.71	23.269
282.08	25.000
282.45	19.756
282.82	25.000
283.19	22.545
283.56	26.190
283.92	23.498
284.29	22.677
284.66	22.662
285.03	24.599
285.40	26.384
285.77	25.439
286.14	24.368
286.51	21.492
286.87	26.134
287.24	24.573
287.61	25.289
287.98	23.050
288.35	22.479
288.72	21.392
289.08	21.525
289.45	24.579
289.82	21.972
290.19	24.795
290.56	21.157
290.93	21.463
291.29	21.232
291.66	21.739
292.03	23.391
292.40	22.289
292.77	23.137
293.13	22.927
293.50	23.328
293.87	22.086
294.24	21.418
294.60	20.606
294.97	21.700
295.34	22.074
295.71	21.875
296.08	20.430
296.44	21.173
296.81	22.650
297.18	20.423
297.55	21.893
297.91	23.570
298.28	20.137
298.65	20.363
299.02	22.326
299.38	20.588
299.75	21.060
300.12	22.051
300.48	21.483
300.85	20.970
301.22	23.157
301.59	22.107
301.95	23.678
302.32	22.164
302.69	23.011
303.05	20.513
303.42	21.625
303.79	22.847
304.15	20.972
304.52	23.337
304.89	22.550
305.25	21.490
305.62	22.327
305.99	24.028
306.35	23.529
306.72	23.690
307.09	24.064
307.45	23.383
307.82	22.682
308.19	23.826
308.55	23.856
308.92	21.805
309.29	24.108
309.65	25.451
310.02	24.622
310.38	23.459
310.75	26.434
311.12	26.136
311.48	24.739
311.85	25.850
312.22	25.953
312.58	26.450
312.95	26.096
313.31	26.973
313.68	28.744
314.05	28.684
314.41	27.968
314.78	27.772
315.14	29.023
315.51	29.179
315.87	29.042
316.24	30.904
316.61	30.422
316.97	31.144
317.34	29.769
317.70	28.664
318.07	31.623
318.43	31.461
318.80	33.427
319.16	31.426
319.53	32.895
319.89	31.326
320.26	33.627
320.62	33.173
320.99	33.731
321.35	32.512
321.72	34.084
322.08	37.191
322.45	37.822
322.81	37.848
323.18	38.232
323.54	37.708
323.91	39.481
324.27	39.924
324.64	41.225
325.00	41.361
325.37	44.615
325.73	45.407
326.10	43.490
326.46	44.921
326.83	47.404
327.19	48.207
327.56	50.426
327.92	51.742
328.29	51.775
328.65	52.818
329.01	52.562
329.38	52.542
329.74	57.784
330.11	54.941
330.47	56.040
330.84	58.478
331.20	58.213
331.56	58.888
331.93	58.171
332.29	61.096
332.66	58.736
333.02	59.095
333.38	61.649
333.75	61.799
334.11	62.489
334.48	60.547
334.84	62.555
335.20	64.007
335.57	62.996
335.93	65.085
336.29	61.382
336.66	63.084
337.02	65.946
337.38	62.478
337.75	65.233
338.11	64.758
338.47	65.302
338.84	65.064
339.20	63.620
339.56	65.954
339.93	63.316
340.29	66.519
340.65	66.434
341.02	65.936
341.38	63.269
341.74	65.792
342.11	66.041
342.47	66.266
342.83	66.667
343.20	66.610
343.56	64.327
343.92	64.942
344.28	66.274
344.65	65.594
345.01	65.546
345.37	68.106
345.73	65.957
346.10	65.822
346.46	65.800
346.82	66.800
347.19	67.543
347.55	65.490
347.91	66.772
348.27	65.792
348.63	66.882
349.00	67.940
349.36	64.559
349.72	67.277
350.08	67.121
350.45	65.879
350.81	68.073
351.17	66.881
351.53	67.144
351.89	66.936
352.26	66.512
352.62	66.283
352.98	66.930
353.34	67.466
353.70	66.100
354.07	67.585
354.43	67.589
354.79	68.225
355.15	66.534
355.51	67.109
355.87	70.040
356.24	67.276
356.60	70.024
356.96	68.129
357.32	68.646
357.68	67.050
358.04	66.590
358.40	69.451
358.77	67.774
359.13	67.406
359.49	68.481
359.85	68.598
360.21	68.950
360.57	69.428
360.93	69.630
361.29	70.478
361.66	68.216
362.02	68.935
362.38	68.966
362.74	71.282
363.10	70.086
363.46	69.302
363.82	70.845
364.18	68.741
364.54	71.122
364.90	70.650
365.26	69.757
365.62	70.563
365.98	72.688
366.35	69.648
366.71	69.767
367.07	72.406
367.43	70.556
367.79	71.065
368.15	70.413
368.51	71.259
368.87	72.253
369.23	70.456
369.59	71.319
369.95	71.106
370.31	72.152
370.67	71.728
371.03	71.501
371.39	72.914
371.75	73.319
372.11	74.462
372.47	73.753
372.83	74.409
373.19	73.643
373.55	72.273
373.91	74.609
374.27	73.032
374.63	73.361
374.99	73.713
375.35	73.284
375.71	74.004
376.07	75.086
376.42	73.841
376.78	76.078
377.14	76.068
377.50	76.402
377.86	74.382
378.22	76.382
378.58	75.849
378.94	75.339
379.30	76.051
379.66	75.349
380.02	76.708
380.38	76.918
380.74	74.971
381.09	75.513
381.45	75.835
381.81	76.951
382.17	75.815
382.53	75.805
382.89	74.581
383.25	76.520
383.61	76.238
383.97	77.404
384.32	77.660
384.68	77.872
385.04	76.872
385.40	77.480
385.76	78.841
386.12	78.326
386.48	78.342
386.83	77.362
387.19	79.857
387.55	78.437
387.91	77.771
388.27	77.684
388.62	77.704
388.98	78.558
389.34	77.417
389.70	80.024
390.06	78.993
390.42	80.577
390.77	79.117
391.13	80.932
391.49	80.162
391.85	79.551
392.20	78.580
392.56	78.253
392.92	78.779
393.28	79.736
393.64	80.878
393.99	80.554
394.35	80.657
394.71	80.296
395.07	81.795
395.42	80.751
395.78	79.258
396.14	81.745
396.50	81.223
396.85	80.938
397.21	81.045
397.57	81.094
397.92	80.738
398.28	80.722
398.64	80.904
399.00	82.079
399.35	81.285
399.71	82.753
400.07	82.746
400.42	80.718
400.78	82.051
401.14	81.437
401.49	81.958
401.85	82.977
402.21	83.194
402.57	81.675
402.92	84.204
403.28	80.515
403.63	80.467
403.99	82.411
404.35	82.790
404.70	82.387
405.06	81.776
405.42	81.734
405.77	82.353
406.13	82.907
406.49	84.122
406.84	83.083
407.20	83.746
407.55	84.041
407.91	81.671
408.27	83.272
408.62	83.343
408.98	83.202
409.34	82.633
409.69	82.168
410.05	83.020
410.40	82.894
410.76	84.232
411.11	85.162
411.47	82.481
411.83	84.780
412.18	84.901
412.54	83.221
412.89	84.265
413.25	83.235
413.60	84.994
413.96	82.563
414.31	83.609
414.67	83.429
415.03	84.411
415.38	84.320
415.74	84.472
416.09	84.079
416.45	84.061
416.80	85.176
417.16	84.718
417.51	86.146
417.87	85.566
418.22	86.599
418.58	84.018
418.93	86.450
419.29	85.383
419.64	85.490
420.00	86.574
420.35	87.286
420.71	86.074
421.06	85.562
421.42	85.948
421.77	86.488
422.12	86.066
422.48	86.104
422.83	85.478
423.19	88.140
423.54	87.089
423.90	86.755
424.25	86.256
424.61	89.445
424.96	89.643
425.31	87.479
425.67	88.252
426.02	87.550
426.38	90.321
426.73	89.538
427.09	90.012
427.44	89.034
427.79	88.488
428.15	88.570
428.50	89.677
428.85	89.868
429.21	89.541
429.56	89.740
429.92	89.880
430.27	89.781
430.62	91.275
430.98	88.291
431.33	89.808
431.68	91.206
432.04	91.718
432.39	92.821
432.74	90.827
433.10	90.884
433.45	90.040
433.80	90.873
434.16	90.005
434.51	92.603
434.86	93.322
435.22	90.590
435.57	92.289
435.92	92.614
436.28	93.353
436.63	92.821
436.98	90.263
437.34	92.144
437.69	92.707
438.04	92.626
438.39	92.720
438.75	92.782
439.10	92.060
439.45	93.965
439.81	93.193
440.16	93.015
440.51	93.059
440.86	93.811
441.22	92.206
441.57	93.368
441.92	92.839
442.27	94.372
442.63	92.811
442.98	92.043
443.33	94.673
443.68	93.799
444.03	94.499
444.39	94.714
444.74	94.934
445.09	93.860
445.44	94.710
445.79	94.595
446.15	94.797
446.50	94.937
446.85	93.689
447.20	92.799
447.55	92.928
447.91	95.508
448.26	94.302
448.61	95.529
448.96	95.742
449.31	95.660
449.66	94.619
450.02	93.186
450.37	95.536
450.72	94.859
451.07	98.303
451.42	95.725
451.77	96.050
452.12	96.484
452.47	94.899
452.83	95.923
453.18	97.723
453.53	95.896
453.88	98.505
454.23	95.466
454.58	97.700
454.93	97.670
455.28	96.813
455.63	96.683
455.98	99.217
456.34	96.442
456.69	96.685
457.04	97.173
457.39	97.548
457.74	96.751
458.09	97.390
458.44	97.517
458.79	96.469
459.14	97.319
459.49	98.105
459.84	97.246
460.19	96.778
460.54	97.520
460.89	97.085
461.24	97.632
461.59	97.421
461.94	99.300
462.29	98.690
462.64	98.682
462.99	99.398
463.34	96.759
463.69	98.919
464.04	96.778
464.39	96.296
464.74	97.577
465.09	95.610
465.44	97.688
465.79	95.713
466.14	97.468
466.49	98.100
466.84	97.179
467.19	98.878
467.54	96.899
467.89	99.014
468.24	97.684
468.59	98.438
468.94	101.543
469.29	98.506
469.64	99.528
469.99	99.257
470.34	100.267
470.68	100.799
471.03	99.518
471.38	100.000
471.73	101.888
472.08	99.130
472.43	100.193
472.78	98.133
473.13	98.807
473.48	100.000
473.83	101.241
474.17	100.446
474.52	102.110
474.87	98.485
475.22	99.528
475.57	99.111
475.92	99.946
476.27	99.086
476.61	99.437
476.96	99.944
477.31	100.377
477.66	100.055
478.01	98.217
478.36	97.800
478.70	102.616
479.05	100.433
479.40	100.674
479.75	99.185
480.10	100.099
480.45	98.694
480.79	101.431
481.14	101.204
481.49	101.355
481.84	100.693
482.19	98.949
482.53	101.705
482.88	99.620
483.23	99.296
483.58	102.359
483.92	101.433
484.27	99.025
484.62	99.568
484.97	98.051
485.31	96.192
485.66	91.564
486.01	91.893
486.36	94.532
486.70	97.740
487.05	96.522
487.40	96.848
487.75	96.182
488.09	97.900
488.44	98.241
488.79	98.585
489.13	99.353
489.48	100.122
489.83	101.310
490.17	101.045
490.52	102.310
490.87	101.986
491.22	101.915
491.56	101.944
491.91	102.195
492.26	101.557
492.60	102.046
492.95	101.285
493.30	100.619
493.64	102.210
493.99	102.390
494.34	102.000
494.68	102.341
495.03	101.530
495.37	103.540
495.72	101.965
496.07	103.238
496.41	102.872
496.76	103.059
497.11	102.544
497.45	103.927
497.80	102.701
498.14	102.898
498.49	104.771
498.84	102.087
499.18	103.314
499.53	103.604
499.87	104.151
500.22	104.167
500.56	103.952
500.91	103.842
501.26	101.844
501.60	102.504
501.95	104.831
502.29	101.417
502.64	102.970
502.98	103.115
503.33	102.585
503.67	103.688
504.02	102.897
504.36	104.363
504.71	104.711
505.06	102.846
505.40	105.040
505.75	103.913
506.09	105.966
506.44	103.810
506.78	104.215
507.13	104.789
507.47	104.851
507.82	104.698
508.16	106.218
508.51	103.709
508.85	104.555
509.19	104.919
509.54	106.078
509.88	106.064
510.23	105.503
510.57	105.503
510.92	106.445
511.26	104.678
511.61	105.886
511.95	104.526
512.30	106.652
512.64	106.511
512.98	105.501
513.33	104.009
513.67	106.812
514.02	106.096
514.36	104.211
514.70	105.716
515.05	106.804
515.39	105.940
515.74	107.970
516.08	107.666
516.42	105.269
516.77	108.723
517.11	106.407
517.46	109.809
517.80	110.168
518.14	109.239
518.49	107.531
518.83	107.478
519.17	105.980
519.52	105.032
519.86	108.841
520.20	109.597
520.55	108.308
520.89	109.017
521.23	107.021
521.58	109.781
521.92	109.563
522.26	108.635
522.61	109.062
522.95	109.317
523.29	108.339
523.64	107.995
523.98	110.121
524.32	109.051
524.66	108.012
525.01	108.992
525.35	109.923
525.69	109.889
526.04	110.117
526.38	109.102
526.72	106.066
527.06	110.547
527.41	110.231
527.75	109.307
528.09	110.523
528.43	110.689
528.78	108.291
529.12	109.155
529.46	108.247
529.80	108.328
530.15	108.693
530.49	108.991
530.83	108.055
531.17	110.168
531.51	108.104
531.86	107.768
532.20	109.447
532.54	110.094
532.88	109.289
533.22	107.286
533.57	108.877
533.91	107.116
534.25	108.485
534.59	107.121
534.93	106.845
535.27	107.300
535.62	108.760
535.96	107.886
536.30	107.461
536.64	107.636
536.98	112.571
537.32	109.122
537.66	107.671
538.01	109.278
538.35	108.243
538.69	106.952
539.03	108.666
539.37	108.317
539.71	107.272
540.05	109.253
540.39	110.111
540.73	109.675
541.07	109.221
541.42	107.495
541.76	106.246
542.10	109.386
542.44	106.662
542.78	106.174
543.12	108.826
543.46	107.534
543.80	106.957
544.14	107.455
544.48	108.465
544.82	107.172
545.16	107.512
545.50	108.412
545.84	108.971
546.18	109.917
546.52	107.610
546.86	109.544
547.20	107.525
547.54	104.959
547.88	107.830
548.22	105.505
548.56	108.417
548.90	108.154
549.24	109.250
549.58	108.963
549.92	107.138
550.26	109.538
550.60	106.615
550.94	109.343
551.28	109.707
551.62	108.272
551.96	107.598
552.30	106.620
552.64	107.389
552.98	107.849
553.32	108.153
553.66	108.363
554.00	108.671
554.34	108.231
554.68	107.164
555.02	107.959
555.36	107.692
555.69	106.948
556.03	108.000
556.37	106.828
556.71	107.874
557.05	109.534
557.39	109.874
557.73	108.023
558.07	110.399
558.41	109.424
558.75	108.137
559.08	109.027
559.42	109.648
559.76	107.822
560.10	108.949
560.44	108.020
560.78	109.047
561.12	107.384
561.45	108.014
561.79	108.014
562.13	106.872
562.47	107.493
562.81	106.365
563.15	105.738
563.48	107.187
563.82	107.640
564.16	106.423
564.50	106.384
564.84	107.077
565.17	105.902
565.51	105.411
565.85	107.776
566.19	106.061
566.52	106.393
566.86	105.436
567.20	103.087
567.54	106.025
567.88	102.959
568.21	103.803
568.55	103.181
568.89	100.696
569.23	99.075
569.56	96.721
569.90	98.702
570.24	99.098
570.57	95.360
570.91	95.308
571.25	96.206
571.59	96.097
571.92	93.720
572.26	94.008
572.60	94.663
572.93	92.196
573.27	93.445
573.61	92.372
573.95	92.975
574.28	92.491
574.62	91.993
574.96	91.476
575.29	91.743
575.63	92.116
575.97	92.503
576.30	91.313
576.64	92.141
576.98	90.943
577.31	91.108
577.65	91.456
577.98	89.952
578.32	90.486
578.66	90.626
578.99	91.426
579.33	91.510
579.67	92.062
580.00	90.898
580.34	91.805
580.67	91.591
581.01	89.717
581.35	90.280
581.68	89.351
582.02	89.719
582.35	90.746
582.69	91.125
583.02	91.932
583.36	91.134
583.70	92.729
584.03	93.508
584.37	92.801
584.70	92.149
585.04	90.937
585.37	89.594
585.71	91.147
586.04	92.123
586.38	92.275
586.72	91.573
587.05	93.005
587.39	92.734
587.72	92.275
588.06	92.627
588.39	92.766
588.73	92.245
589.06	93.223
589.40	95.053
589.73	93.839
590.07	94.538
590.40	93.727
590.73	96.481
591.07	95.369
591.40	96.967
591.74	96.612
592.07	96.081
592.41	97.028
592.74	93.812
593.08	94.439
593.41	92.730
593.75	92.681
594.08	96.585
594.41	95.490
594.75	94.526
595.08	95.677
595.42	93.967
595.75	94.634
596.09	95.770
596.42	97.136
596.75	95.990
597.09	97.507
597.42	96.377
597.75	96.457
598.09	96.927
598.42	95.669
598.76	93.522
599.09	94.396
599.42	94.271
599.76	94.337
600.09	94.618
600.42	94.075
600.76	94.539
601.09	94.417
601.42	94.579
601.76	94.042
602.09	95.215
602.42	95.062
602.76	95.430
603.09	95.645
603.42	93.916
603.76	95.134
604.09	95.835
604.42	95.420
604.76	94.941
605.09	94.937
605.42	95.745
605.75	95.688
606.09	93.441
606.42	93.590
606.75	93.860
607.09	95.412
607.42	94.762
607.75	95.408
608.08	95.572
608.42	97.304
608.75	94.860
609.08	96.249
609.41	98.057
609.75	95.563
610.08	96.765
610.41	96.964
610.74	96.663
611.07	97.160
611.41	96.319
611.74	96.658
612.07	98.980
612.40	98.454
612.73	95.692
613.07	96.808
613.40	99.945
613.73	96.567
614.06	96.046
614.39	99.775
614.72	97.263
615.06	95.924
615.39	95.008
615.72	97.121
616.05	96.356
616.38	99.071
616.71	98.859
617.05	98.914
617.38	100.619
617.71	99.939
618.04	100.807
618.37	101.447
618.70	101.825
619.03	100.339
619.36	100.916
619.69	102.441
620.03	98.623
620.36	101.125
620.69	102.297
621.02	102.511
621.35	103.710
621.68	104.836
622.01	104.693
622.34	102.640
622.67	102.344
623.00	102.984
623.33	101.567
623.66	101.625
623.99	102.331
624.32	101.711
624.65	101.177
624.99	102.913
625.32	102.096
625.65	102.409
625.98	102.660
626.31	103.915
626.64	104.519
626.97	106.507
627.30	105.617
627.63	103.627
627.96	107.137
628.29	108.548
628.62	106.877
628.95	109.646
629.28	106.673
629.61	110.206
629.94	106.616
630.26	111.431
630.59	108.844
630.92	108.509
631.25	109.173
631.58	109.947
631.91	108.511
632.24	111.667
632.57	111.889
632.90	114.368
633.23	112.383
633.56	111.579
633.89	112.854
634.22	112.279
634.55	114.663
634.88	112.092
635.20	115.980
635.53	115.903
635.86	114.106
636.19	109.890
636.52	107.885
636.85	111.191
637.18	112.500
637.51	112.392
637.83	119.308
638.16	115.789
638.49	118.621
638.82	111.068
639.15	113.748
639.48	111.154
639.81	115.214
640.13	111.757
640.46	118.234
640.79	114.846
641.12	114.386
641.45	116.356
641.77	121.108
642.10	113.595
642.43	112.443
642.76	117.323
643.09	117.302
643.41	119.048
643.74	119.555
644.07	115.445
644.40	117.180
644.73	116.502
645.05	118.865
645.38	121.026
645.71	123.024
646.04	121.345
646.36	122.862
646.69	117.647
647.02	122.563
647.35	122.744
647.67	122.810
648.00	121.793
648.33	119.056
648.66	116.290
648.98	116.242
649.31	116.154
649.64	118.281
649.96	114.757
650.29	113.770
650.62	122.203
650.94	116.695
651.27	120.104
651.60	118.685
651.92	117.979
652.25	114.691
652.58	115.503
652.90	113.644
653.23	115.161
653.56	113.712
653.88	115.738
654.21	114.597
654.54	117.940
654.86	112.681
655.19	109.312
655.52	100.680
655.84	85.760
656.17	89.411
656.49	100.000
656.82	100.000
657.15	100.000
657.47	99.144
657.80	54.868
658.13	63.168
658.45	85.892
658.78	87.047
659.10	86.002
659.43	87.906
659.75	89.339
660.08	89.948
660.41	91.308
660.73	102.970
661.06	105.942
661.38	116.786
661.71	117.017
662.03	123.589
662.36	119.616
662.68	121.097
663.01	123.142
663.33	125.850
663.66	125.536
663.98	123.438
664.31	128.635
664.63	126.327
664.96	121.041
665.28	118.655
665.61	116.913
665.93	119.136
666.26	116.397
666.58	117.048
666.91	118.931
667.23	116.447
667.56	122.222
667.88	126.244
668.21	122.120
668.53	125.234
668.86	124.018
669.18	121.918
669.50	120.561
669.83	126.277
670.15	116.592
670.48	123.832
670.80	119.134
671.13	114.673
671.45	118.694
671.77	117.987
672.10	115.582
672.42	110.148
672.75	113.818
673.07	106.486
673.39	112.386
673.72	114.961
674.04	123.567
674.37	114.639
674.69	118.033
675.01	116.170
675.34	116.486
675.66	115.983
675.98	115.859
676.31	121.041
676.63	121.379
676.95	115.929
677.28	120.186
677.60	121.267
677.92	116.079
678.25	117.068
678.57	113.786
678.89	111.950
679.22	116.352
679.54	110.651
679.86	115.600
680.18	113.118
680.51	109.311
680.83	112.000
681.15	109.634
681.48	117.444
681.80	113.508
682.12	111.670
682.44	107.269
682.77	115.584
683.09	112.369
683.41	113.496
683.73	115.982
684.06	112.258
684.38	113.180
684.70	114.609
685.02	108.268
685.34	109.552
685.67	110.038
685.99	109.074
686.31	109.695
686.63	106.206
686.96	104.991
687.28	105.395
687.60	110.156
687.92	106.420
688.24	108.071
688.56	106.413
688.89	106.838
689.21	111.816
689.53	113.793
689.85	112.027
690.17	116.143
690.49	112.471
690.82	116.867
691.14	109.198
691.46	108.426
691.78	110.573
692.10	110.805
692.42	110.222
692.74	105.150
693.06	110.562
693.39	109.396
693.71	111.287
694.03	108.423
694.35	103.837
694.67	107.092
694.99	110.486
695.31	115.051
695.63	111.480
695.95	109.429
696.27	111.222
696.59	114.171
696.91	117.978
697.23	116.927
697.56	114.904
697.88	106.081
698.20	102.141
698.52	103.587
698.84	110.922
699.16	105.238
699.48	108.750
699.80	108.271
700.12	107.809
700.44	113.966
700.76	117.201
701.08	114.535
701.40	113.897
701.72	115.741
702.04	119.872
702.36	112.048
702.68	114.072
703.00	109.565
703.32	110.315
703.64	115.882
703.96	113.663
704.28	114.201
704.60	114.241
704.91	113.333
705.23	118.447
705.55	111.149
705.87	115.358
706.19	113.194
706.51	116.667
706.83	117.705
707.15	115.605
707.47	109.091
707.79	106.701
708.11	99.491
708.43	104.489
708.74	102.078
709.06	105.850
709.38	108.908
709.70	110.938
710.02	113.497
710.34	110.561
710.66	107.619
710.98	111.041
711.29	110.645
711.61	109.585
711.93	110.164
712.25	110.299
712.57	105.923
712.89	114.388
713.20	106.529
713.52	111.567
713.84	114.947
714.16	104.590
714.48	108.254
714.80	105.231
715.11	101.153
715.43	106.928
715.75	109.657
716.07	105.574
716.39	111.037
716.70	109.059
717.02	111.852
717.34	109.924
717.66	118.257
717.97	112.705
718.29	112.605
718.61	109.524
718.93	111.470
719.24	108.088
719.56	107.925
719.88	110.182
720.20	107.491
720.51	107.519
720.83	115.261
721.15	117.213
721.46	113.333
721.78	106.130
722.10	114.000
722.42	112.810
722.73	107.968
723.05	112.048
723.37	105.882
723.68	101.619
724.00	108.537
724.32	107.819
724.63	105.394
724.95	114.050
725.27	107.456
725.58	110.776
725.90	107.937
726.22	107.011
726.53	105.703
726.85	105.098
727.16	102.632
727.48	103.846
727.80	109.426
728.11	109.244
728.43	105.785
728.74	103.906
729.06	101.136
729.38	106.226
729.69	100.787
730.01	101.575
730.32	104.382
730.64	99.267
730.96	109.328
731.27	105.000
731.59	98.392
731.90	100.920
732.22	94.785
732.53	104.305
732.85	95.973
733.16	105.072
733.48	96.864
733.80	103.203
734.11	100.690
734.43	103.741
734.74	95.252
735.06	93.730
735.37	99.388
735.69	94.194
736.00	93.266
736.32	100.331
736.63	96.207
736.95	101.449
737.26	93.709
737.58	101.079
737.89	99.642
738.21	103.008
738.52	100.385
738.83	103.906
739.15	113.248
739.46	108.871
739.78	91.958
740.09	96.154
740.41	95.455
740.72	97.810
741.04	100.397
741.35	103.463
741.66	104.630
741.98	100.952
742.29	113.615
742.61	117.112
742.92	106.542
743.23	100.877
743.55	98.649
743.86	101.778
744.18	100.476
744.49	103.448
744.80	109.137
745.12	118.557
745.43	106.533
745.74	106.796
746.06	100.000
746.37	99.119
746.68	105.970
747.00	108.377
747.31	101.442
747.62	101.843
747.94	97.380
748.25	108.837
748.56	103.333
748.88	111.957
749.19	100.000
749.50	106.863
749.82	102.667
750.13	109.251
750.44	106.504
750.75	103.200
751.07	96.786
751.38	94.096
751.69	95.802
752.01	96.923
752.32	100.778
752.63	98.846
752.94	102.381
753.26	104.783
753.57	110.268
753.88	108.190
754.19	100.000
754.51	99.609
754.82	99.605
755.13	96.296
755.44	98.347
755.75	102.058
756.07	102.008
756.38	95.703
756.69	97.473
757.00	88.850
757.31	93.960
757.63	92.835
757.94	86.705
758.25	91.279
758.56	94.609
758.87	88.636
759.18	97.000
759.50	95.374
759.81	92.336
760.12	95.946
760.43	94.175
760.74	94.062
761.05	88.764
761.36	91.018
761.67	89.053
761.99	90.968
762.30	96.377
762.61	90.943
762.92	100.448
763.23	105.213
763.54	97.333
763.85	95.781
764.16	90.204
764.47	97.881
764.78	91.011
765.10	95.683
765.41	89.032
765.72	89.937
766.03	85.512
766.34	96.617
766.65	91.093
766.96	96.000
767.27	99.479
767.58	104.070
767.89	107.742
768.20	101.840
768.51	93.443
768.82	93.514
769.13	94.500
769.44	95.614
769.75	90.909
770.06	96.789
770.37	92.488
770.68	92.708
770.99	93.069
771.30	92.718
771.61	90.741
771.92	83.550
772.23	88.318
772.54	91.489
772.85	93.491
773.16	97.561
773.47	104.217
773.78	89.011
774.09	104.667
774.39	96.296
774.70	87.248
775.01	89.855
775.32	92.537
775.63	98.347
775.94	97.744
776.25	88.571
776.56	97.541
776.87	108.850
777.18	97.345
777.48	85.455
777.79	98.261
778.10	97.248
778.41	82.203
778.72	103.306
779.03	94.030
779.34	90.977
779.65	90.850
779.95	101.449
780.26	87.075
780.57	100.862
780.88	102.778
781.19	90.909
781.50	92.800
781.80	92.157
782.11	97.436
782.42	83.735
782.73	91.241
783.04	87.838
783.34	96.212
783.65	89.922
783.96	102.439
784.27	94.872
784.57	88.618
784.88	87.805
785.19	96.491
785.50	85.567
785.81	89.524
786.11	74.510
786.42	97.273
786.73	86.486
787.04	100.000
787.34	85.714
787.65	84.762
787.96	107.843
788.26	97.297
788.57	87.903
788.88	69.531
789.19	82.906
789.49	71.429
789.80	89.744
790.11	97.345
790.41	82.828
790.72	79.245
791.03	90.278
791.33	98.684
791.64	87.097
791.95	94.667
792.25	100.000
792.56	96.341
792.87	82.653
793.17	77.632
793.48	77.027
793.79	101.408
794.09	79.747
794.40	97.872
794.70	88.785
795.01	77.193
795.32	80.000
795.62	79.464
795.93	85.567
796.23	89.011
796.54	88.421
796.85	94.521
797.15	69.444
797.46	90.411
797.76	83.099
798.07	85.000
798.37	100.000
798.68	95.714
798.99	80.000
799.29	82.895
799.60	93.333
799.90	80.556
800.21	70.313
800.51	65.079
800.82	93.443
801.12	78.947
801.43	77.465
801.73	54.237
802.04	95.082
802.34	83.636
802.65	78.846
802.95	100.000
803.26	80.000
803.56	88.462
803.87	100.000
804.17	72.581
804.48	83.077
804.78	76.923
805.09	90.698
805.39	128.125
805.70	50.943
806.00	103.509
806.30	77.027
806.61	102.941
806.91	79.012
807.22	73.333
807.52	94.030
807.83	82.258
808.13	68.254
808.43	76.364
808.74	74.242
809.04	75.472
809.35	84.932
809.65	101.754
809.95	73.529
810.26	100.000
810.56	44.000
810.86	42.857
811.17	114.286
811.47	61.538
811.77	109.677
812.08	65.789
812.38	90.476
812.69	65.217
812.99	80.645
813.29	76.190
813.59	59.259
813.90	59.574
814.20	69.767
814.50	95.833
814.81	61.667
815.11	85.366
815.41	126.667
815.72	100.000
816.02	52.778
816.32	79.487
816.62	62.162
816.93	44.118
817.23	63.043
817.53	76.471
817.84	67.647
818.14	37.500
818.44	89.655
818.74	70.968
819.04	96.296
819.35	53.333
819.65	36.000
819.95	73.333
820.25	84.000
820.56	39.474
820.86	67.500
821.16	68.085
821.46	46.552
821.76	94.872
822.07	82.500
822.37	39.535
822.67	83.333
822.97	54.054
823.27	97.297
823.57	112.000
823.88	37.838
824.18	52.381
824.48	73.077
824.78	76.923
825.08	60.870
825.38	83.333
825.69	25.000
825.99	35.000
826.29	29.730
826.59	32.353
826.89	56.000
827.19	74.286
827.49	50.000
827.79	90.625
828.09	83.333
828.39	95.652
828.70	41.379
829.00	65.517
829.30	69.444
829.60	93.750
829.90	72.222
830.20	50.000
830.50	28.571
830.80	0.000
831.10	66.667
831.40	71.429
831.70	52.941
832.00	41.667
832.30	68.421
832.60	68.750
832.90	-25.000
833.20	29.412
833.50	0.000
833.80	106.667
834.10	45.000
834.40	33.333
834.70	83.333
835.00	53.846
835.30	20.833
835.60	89.655
835.90	33.333
836.20	45.455
836.50	116.667
836.80	34.286
837.10	80.000
837.40	100.000
837.70	-36.364
838.00	45.833
838.30	-6.250
838.60	57.143
838.90	35.000
839.19	34.783
839.49	82.609
839.79	-16.667
840.09	43.478
840.39	13.636
840.69	37.500
840.99	21.053
841.29	56.250
841.59	28.571
841.88	55.556
842.18	54.167
842.48	-5.882
842.78	24.138
843.08	64.286
843.38	84.615
843.68	-77.778
843.97	30.769
844.27	9.091
844.57	40.000
844.87	40.000
845.17	0.000
845.47	42.857
845.76	0.000
846.06	0.000
846.36	100.000
846.66	10.000
846.96	68.421
847.25	33.333
847.55	-8.333
847.85	80.000
848.15	-90.000
848.44	80.769
848.74	36.842
849.04	300.000
849.34	0.000
849.63	-42.105
849.93	0.000
850.23	40.000
850.53	42.857
850.82	0.000
851.12	21.053
851.42	-50.000
851.71	21.429
852.01	16.667
852.31	23.529
852.61	40.000
852.90	-71.429
853.20	0.000
853.50	44.444
853.79	-26.316
854.09	-13.333
854.39	10.714
854.68	65.217
854.98	-83.333
855.28	17.241
855.57	56.250
855.87	15.000
856.17	-20.000
856.46	27.586
856.76	-6.667
857.05	-47.059
857.35	-76.923
857.65	-27.273
857.94	37.037
858.24	-28.571
858.53	7.143
858.83	-58.333
859.13	-77.778
859.42	38.095
859.72	12.500
860.01	-466.667
860.31	-50.000
860.60	-260.000
860.90	-77.778
861.20	0.000
861.49	0.000
861.79	0.000
862.08	-400.000
862.38	-25.000
862.67	-30.769
862.97	11.765
863.26	40.000
863.56	29.412
863.85	433.333
864.15	-120.000
864.44	69.231
864.74	70.000
865.03	-87.500
865.33	-150.000
865.62	0.000
865.92	-350.000
866.21	-57.143
866.51	-25.000
866.80	-1200.000
867.10	266.667
867.39	5.882
867.69	13.043
867.98	-142.857
868.27	-220.000
868.57	-12.500
868.86	-54.545
869.16	-11.765
869.45	0.000
869.75	-114.286
870.04	1200.000
870.33	-8.333
870.63	-60.000
870.92	-77.778
871.22	75.000
871.51	-63.636
871.80	-25.000
872.10	10.000
>>>>>End Processed Spectral Data<<<<<
