SpectraSuite Data File
++++++++++++++++++++++++++++++++++++
Date: Sat May 16 11:25:44 PDT 2015
User: schluterlab
Dark Spectrum Present: Yes
Reference Spectrum Present: Yes
Number of Sampled Component Spectra: 1
Spectrometers: USB2E3373
Integration Time (usec): 3000 (USB2E3373)
Spectra Averaged: 3 (USB2E3373)
Boxcar Smoothing: 0 (USB2E3373)
Correct for Electrical Dark: No (USB2E3373)
Strobe/Lamp Enabled: No (USB2E3373)
Correct for Detector Non-linearity: No (USB2E3373)
Correct for Stray Light: No (USB2E3373)
Number of Pixels in Processed Spectrum: 2048
>>>>>Begin Processed Spectral Data<<<<<
178.53	0.000
178.91	120.000
179.29	633.333
179.67	-1800.000
180.04	-107.692
180.42	1100.000
180.80	100.000
181.18	525.000
181.56	-62.500
181.94	2100.000
182.31	350.000
182.69	-30.769
183.07	-700.000
183.45	1250.000
183.83	666.667
184.20	-185.714
184.58	-150.000
184.96	-325.000
185.34	106.250
185.72	-650.000
186.09	366.667
186.47	-187.500
186.85	-300.000
187.23	-25.000
187.61	-150.000
187.98	-250.000
188.36	-87.500
188.74	-100.000
189.12	1400.000
189.49	242.857
189.87	-116.667
190.25	275.000
190.63	35.714
191.00	-177.778
191.38	400.000
191.76	13.333
192.14	560.000
192.51	-280.000
192.89	-633.333
193.27	0.000
193.65	-44.444
194.02	-185.714
194.40	933.333
194.78	-10.000
195.15	-1900.000
195.53	-136.364
195.91	-516.667
196.29	220.000
196.66	-333.333
197.04	2200.000
197.42	125.000
197.79	33.333
198.17	-300.000
198.55	-600.000
198.92	-2100.000
199.30	87.500
199.68	-650.000
200.05	-77.778
200.43	-177.778
200.81	-800.000
201.18	-116.667
201.56	57.143
201.94	-26.667
202.31	22.727
202.69	40.000
203.07	-20.000
203.44	666.667
203.82	-233.333
204.19	-575.000
204.57	-575.000
204.95	-1300.000
205.32	-100.000
205.70	1600.000
206.08	-700.000
206.45	0.000
206.83	-900.000
207.20	-50.000
207.58	-800.000
207.96	-700.000
208.33	-162.500
208.71	-144.444
209.08	100.000
209.46	-214.286
209.84	850.000
210.21	0.000
210.59	80.000
210.96	900.000
211.34	-100.000
211.71	-266.667
212.09	525.000
212.46	700.000
212.84	-2000.000
213.22	300.000
213.59	66.667
213.97	-100.000
214.34	150.000
214.72	-150.000
215.09	-100.000
215.47	-233.333
215.84	-100.000
216.22	-40.000
216.59	-46.667
216.97	-350.000
217.34	550.000
217.72	-271.429
218.09	-150.000
218.47	-342.857
218.84	228.571
219.22	-71.429
219.59	0.000
219.97	228.571
220.34	450.000
220.72	262.500
221.09	-15.385
221.47	0.000
221.84	566.667
222.22	-650.000
222.59	2300.000
222.97	-125.000
223.34	-450.000
223.72	-633.333
224.09	-92.857
224.46	-350.000
224.84	-50.000
225.21	-228.571
225.59	9.091
225.96	-162.500
226.34	14.286
226.71	-88.889
227.08	-35.000
227.46	1500.000
227.83	-157.143
228.21	-200.000
228.58	650.000
228.95	-12.500
229.33	-2500.000
229.70	-300.000
230.08	-800.000
230.45	-58.333
230.82	-216.667
231.20	-1200.000
231.57	-900.000
231.95	600.000
232.32	-9.524
232.69	-155.556
233.07	-285.714
233.44	-950.000
233.81	-73.333
234.19	-88.889
234.56	-6.250
234.93	15.625
235.31	-28.571
235.68	-71.429
236.05	-11.765
236.43	-59.091
236.80	-19.355
237.17	-50.000
237.55	66.667
237.92	-72.727
238.29	-11.429
238.67	17.647
239.04	-13.889
239.41	16.129
239.79	-23.077
240.16	-14.286
240.53	16.364
240.91	23.077
241.28	3.636
241.65	26.154
242.02	6.557
242.40	18.033
242.77	19.697
243.14	13.559
243.51	8.571
243.89	16.456
244.26	26.966
244.63	29.474
245.00	13.684
245.38	22.881
245.75	27.434
246.12	17.600
246.49	22.835
246.87	21.138
247.24	24.576
247.61	15.254
247.98	25.352
248.36	18.182
248.73	20.253
249.10	25.478
249.47	22.807
249.84	23.864
250.22	19.048
250.59	22.034
250.96	19.372
251.33	27.488
251.70	26.442
252.08	27.488
252.45	24.645
252.82	22.381
253.19	22.553
253.56	26.613
253.94	22.785
254.31	28.326
254.68	28.862
255.05	26.210
255.42	26.984
255.79	21.864
256.16	28.235
256.54	27.206
256.91	25.379
257.28	26.007
257.65	26.596
258.02	28.616
258.39	26.421
258.76	23.649
259.14	30.556
259.51	24.918
259.88	27.744
260.25	30.745
260.62	25.723
260.99	26.409
261.36	25.305
261.73	28.613
262.10	27.778
262.47	26.211
262.85	30.857
263.22	24.928
263.59	23.692
263.96	26.667
264.33	28.455
264.70	30.110
265.07	27.473
265.44	26.357
265.81	24.031
266.18	25.823
266.55	26.471
266.92	26.196
267.29	28.087
267.66	28.889
268.03	30.435
268.40	26.291
268.77	31.325
269.14	27.378
269.51	28.046
269.88	26.835
270.25	24.709
270.62	26.545
270.99	26.351
271.36	27.506
271.73	26.906
272.10	26.087
272.47	27.778
272.84	26.667
273.21	26.147
273.58	27.473
273.95	26.316
274.32	28.054
274.69	28.665
275.06	25.971
275.43	26.563
275.80	25.866
276.17	28.452
276.54	30.754
276.91	28.189
277.28	28.398
277.65	27.893
278.02	28.810
278.39	26.523
278.76	29.283
279.13	27.668
279.50	28.231
279.87	27.696
280.23	28.543
280.60	28.032
280.97	28.544
281.34	25.919
281.71	27.692
282.08	27.218
282.45	23.625
282.82	25.775
283.19	26.727
283.56	28.388
283.92	27.562
284.29	25.465
284.66	26.619
285.03	29.234
285.40	28.782
285.77	26.842
286.14	26.895
286.51	26.643
286.87	27.042
287.24	26.109
287.61	26.446
287.98	25.477
288.35	24.132
288.72	23.430
289.08	24.576
289.45	25.589
289.82	21.280
290.19	25.944
290.56	21.653
290.93	24.324
291.29	24.797
291.66	25.443
292.03	24.804
292.40	24.247
292.77	22.981
293.13	25.203
293.50	23.774
293.87	25.307
294.24	22.624
294.60	21.515
294.97	24.431
295.34	22.074
295.71	22.321
296.08	21.045
296.44	21.745
296.81	22.365
297.18	21.549
297.55	23.588
297.91	22.176
298.28	21.370
298.65	22.455
299.02	20.856
299.38	20.588
299.75	20.652
300.12	20.641
300.48	20.332
300.85	19.921
301.22	19.276
301.59	21.456
301.95	22.040
302.32	19.687
302.69	21.787
303.05	20.391
303.42	20.000
303.79	20.813
304.15	22.038
304.52	19.603
304.89	20.897
305.25	19.292
305.62	20.329
305.99	21.673
306.35	20.200
306.72	18.679
307.09	20.658
307.45	20.999
307.82	19.888
308.19	20.917
308.55	20.915
308.92	18.797
309.29	20.216
309.65	20.467
310.02	20.518
310.38	20.432
310.75	21.619
311.12	21.591
311.48	20.877
311.85	21.421
312.22	21.627
312.58	22.686
312.95	20.591
313.31	23.177
313.68	21.910
314.05	22.354
314.41	20.926
314.78	22.178
315.14	23.198
315.51	23.506
315.87	23.233
316.24	23.907
316.61	25.144
316.97	24.876
317.34	24.663
317.70	23.562
318.07	26.959
318.43	25.187
318.80	28.075
319.16	26.360
319.53	26.786
319.89	26.905
320.26	26.863
320.62	27.308
320.99	28.060
321.35	28.867
321.72	28.557
322.08	29.970
322.45	30.495
322.81	31.508
323.18	32.085
323.54	31.885
323.91	31.511
324.27	33.175
324.64	34.095
325.00	32.461
325.37	34.751
325.73	35.696
326.10	34.632
326.46	34.326
326.83	36.085
327.19	36.030
327.56	39.012
327.92	38.658
328.29	38.528
328.65	38.364
329.01	39.223
329.38	40.946
329.74	42.399
330.11	41.976
330.47	41.962
330.84	43.355
331.20	43.773
331.56	42.479
331.93	43.517
332.29	45.662
332.66	44.688
333.02	45.249
333.38	46.147
333.75	46.394
334.11	46.222
334.48	45.896
334.84	46.544
335.20	47.163
335.57	47.022
335.93	49.150
336.29	50.310
336.66	48.370
337.02	50.090
337.38	47.504
337.75	49.517
338.11	49.911
338.47	49.288
338.84	49.456
339.20	49.561
339.56	50.089
339.93	50.176
340.29	50.576
340.65	50.000
341.02	49.157
341.38	49.537
341.74	49.958
342.11	50.853
342.47	50.730
342.83	49.874
343.20	49.872
343.56	49.061
343.92	51.586
344.28	52.313
344.65	50.413
345.01	50.504
345.37	50.914
345.73	49.264
346.10	49.387
346.46	49.391
346.82	50.441
347.19	52.177
347.55	50.080
347.91	50.315
348.27	50.756
348.63	51.373
349.00	51.154
349.36	49.258
349.72	52.229
350.08	52.686
350.45	51.537
350.81	50.876
351.17	51.206
351.53	49.483
351.89	51.981
352.26	50.155
352.62	51.997
352.98	52.611
353.34	50.759
353.70	49.344
354.07	51.062
354.43	51.621
354.79	52.060
355.15	51.278
355.51	51.172
355.87	51.700
356.24	51.628
356.60	52.861
356.96	52.656
357.32	52.336
357.68	50.881
358.04	51.886
358.40	49.884
358.77	51.623
359.13	51.033
359.49	50.265
359.85	52.668
360.21	51.446
360.57	51.807
360.93	52.148
361.29	52.392
361.66	52.210
362.02	50.666
362.38	52.531
362.74	54.139
363.10	51.004
363.46	52.635
363.82	52.697
364.18	52.026
364.54	53.252
364.90	51.922
365.26	52.425
365.62	52.602
365.98	54.339
366.35	52.394
366.71	52.925
367.07	52.858
367.43	52.642
367.79	53.058
368.15	52.703
368.51	53.497
368.87	54.602
369.23	52.561
369.59	52.847
369.95	53.770
370.31	54.641
370.67	52.711
371.03	53.426
371.39	53.041
371.75	54.578
372.11	54.735
372.47	54.302
372.83	54.172
373.19	54.714
373.55	53.624
373.91	54.410
374.27	54.073
374.63	54.313
374.99	55.007
375.35	54.845
375.71	55.368
376.07	55.099
376.42	54.040
376.78	55.294
377.14	56.339
377.50	56.415
377.86	55.917
378.22	55.779
378.58	55.775
378.94	56.042
379.30	55.210
379.66	56.466
380.02	56.387
380.38	57.221
380.74	55.862
381.09	56.180
381.45	57.100
381.81	55.777
382.17	56.140
382.53	57.264
382.89	56.818
383.25	56.231
383.61	55.778
383.97	56.950
384.32	58.260
384.68	57.316
385.04	56.582
385.40	58.125
385.76	56.646
386.12	57.027
386.48	58.416
386.83	55.951
387.19	57.980
387.55	57.723
387.91	57.913
388.27	56.634
388.62	56.851
388.98	57.177
389.34	57.405
389.70	57.795
390.06	57.676
390.42	60.256
390.77	58.360
391.13	58.882
391.49	58.765
391.85	56.297
392.20	57.221
392.56	58.277
392.92	57.159
393.28	57.922
393.64	58.208
393.99	58.523
394.35	58.516
394.71	56.763
395.07	59.322
395.42	58.582
395.78	57.511
396.14	57.695
396.50	58.777
396.85	59.778
397.21	57.473
397.57	59.331
397.92	59.660
398.28	58.722
398.64	57.525
399.00	59.157
399.35	58.906
399.71	59.582
400.07	60.119
400.42	58.212
400.78	58.676
401.14	57.964
401.49	58.608
401.85	59.304
402.21	58.164
402.57	58.617
402.92	60.478
403.28	59.375
403.63	57.879
403.99	59.602
404.35	58.273
404.70	58.689
405.06	60.035
405.42	58.856
405.77	58.767
406.13	58.206
406.49	59.617
406.84	58.848
407.20	58.893
407.55	59.595
407.91	57.902
408.27	59.620
408.62	59.170
408.98	59.248
409.34	58.196
409.69	58.538
410.05	58.763
410.40	59.044
410.76	59.277
411.11	59.102
411.47	59.271
411.83	59.291
412.18	59.468
412.54	58.267
412.89	59.417
413.25	58.560
413.60	58.445
413.96	58.534
414.31	59.083
414.67	58.540
415.03	59.250
415.38	58.946
415.74	59.021
416.09	58.504
416.45	59.590
416.80	59.233
417.16	59.535
417.51	59.291
417.87	59.482
418.22	59.418
418.58	60.398
418.93	60.699
419.29	59.536
419.64	59.108
420.00	59.478
420.35	60.142
420.71	60.804
421.06	59.112
421.42	59.192
421.77	60.022
422.12	60.269
422.48	59.647
422.83	59.624
423.19	59.744
423.54	60.288
423.90	59.746
424.25	58.993
424.61	59.349
424.96	61.088
425.31	61.096
425.67	61.261
426.02	60.700
426.38	62.008
426.73	60.374
427.09	60.723
427.44	61.080
427.79	61.453
428.15	61.580
428.50	62.346
428.85	61.990
429.21	62.313
429.56	62.083
429.92	61.573
430.27	61.266
430.62	62.278
430.98	60.638
431.33	63.020
431.68	62.788
432.04	63.962
432.39	63.134
432.74	63.010
433.10	62.352
433.45	63.212
433.80	63.382
434.16	62.547
434.51	62.849
434.86	63.972
435.22	63.029
435.57	63.219
435.92	64.127
436.28	65.104
436.63	64.274
436.98	62.600
437.34	62.965
437.69	63.536
438.04	63.415
438.39	63.237
438.75	64.668
439.10	64.131
439.45	63.428
439.81	64.157
440.16	63.203
440.51	64.647
440.86	64.546
441.22	64.069
441.57	65.105
441.92	64.757
442.27	64.123
442.63	65.075
442.98	63.826
443.33	65.349
443.68	64.617
444.03	65.472
444.39	64.905
444.74	65.253
445.09	65.899
445.44	65.504
445.79	66.497
446.15	64.513
446.50	65.052
446.85	64.956
447.20	66.701
447.55	65.635
447.91	66.536
448.26	65.196
448.61	65.139
448.96	66.443
449.31	65.896
449.66	66.285
450.02	64.654
450.37	65.681
450.72	65.932
451.07	67.756
451.42	64.126
451.77	66.607
452.12	65.614
452.47	66.058
452.83	66.570
453.18	66.856
453.53	66.791
453.88	67.524
454.23	65.357
454.58	68.490
454.93	65.050
455.28	68.133
455.63	67.936
455.98	67.651
456.34	66.518
456.69	67.980
457.04	66.441
457.39	67.763
457.74	66.864
458.09	67.981
458.44	67.956
458.79	68.217
459.14	67.199
459.49	68.620
459.84	68.016
460.19	68.496
460.54	68.966
460.89	67.825
461.24	67.517
461.59	66.471
461.94	68.491
462.29	68.434
462.64	69.829
462.99	69.210
463.34	67.725
463.69	69.338
464.04	67.252
464.39	68.459
464.74	67.494
465.09	66.867
465.44	68.472
465.79	69.600
466.14	69.620
466.49	68.164
466.84	69.808
467.19	69.327
467.54	67.785
467.89	70.345
468.24	68.468
468.59	68.645
468.94	70.482
469.29	68.226
469.64	68.801
469.99	69.750
470.34	68.270
470.68	70.930
471.03	70.337
471.38	69.792
471.73	72.657
472.08	69.880
472.43	69.048
472.78	69.400
473.13	68.655
473.48	69.815
473.83	70.968
474.17	70.573
474.52	72.123
474.87	68.823
475.22	69.617
475.57	71.333
475.92	70.086
476.27	69.714
476.61	71.155
476.96	70.095
477.31	71.905
477.66	71.057
478.01	70.719
478.36	68.937
478.70	71.757
479.05	69.389
479.40	70.207
479.75	70.031
480.10	69.742
480.45	69.487
480.79	72.458
481.14	72.554
481.49	71.878
481.84	69.533
482.19	70.534
482.53	70.739
482.88	71.334
483.23	70.892
483.58	71.184
483.92	71.667
484.27	70.802
484.62	70.799
484.97	70.343
485.31	69.024
485.66	68.753
486.01	69.890
486.36	71.255
486.70	73.110
487.05	71.053
487.40	72.302
487.75	69.652
488.09	71.217
488.44	71.685
488.79	70.463
489.13	70.863
489.48	72.716
489.83	71.659
490.17	72.834
490.52	73.188
490.87	72.194
491.22	73.190
491.56	72.176
491.91	72.137
492.26	72.783
492.60	73.597
492.95	73.156
493.30	72.463
493.64	72.496
493.99	74.426
494.34	75.048
494.68	73.783
495.03	72.897
495.37	74.582
495.72	72.888
496.07	74.284
496.41	74.433
496.76	74.384
497.11	73.999
497.45	74.473
497.80	75.788
498.14	75.786
498.49	74.686
498.84	73.447
499.18	75.049
499.53	73.600
499.87	75.048
500.22	75.294
500.56	75.338
500.91	74.975
501.26	74.381
501.60	75.205
501.95	76.618
502.29	75.531
502.64	76.049
502.98	75.851
503.33	74.530
503.67	75.718
504.02	74.457
504.36	76.422
504.71	75.431
505.06	75.087
505.40	76.048
505.75	77.591
506.09	76.643
506.44	76.742
506.78	76.468
507.13	77.446
507.47	77.673
507.82	76.665
508.16	77.047
508.51	76.249
508.85	76.915
509.19	77.342
509.54	77.590
509.88	76.489
510.23	76.677
510.57	77.249
510.92	79.914
511.26	77.087
511.61	78.672
511.95	77.532
512.30	77.790
512.64	78.909
512.98	78.823
513.33	77.869
513.67	79.174
514.02	77.629
514.36	76.787
514.70	77.136
515.05	78.502
515.39	77.047
515.74	80.396
516.08	78.271
516.42	78.244
516.77	79.780
517.11	78.089
517.46	79.665
517.80	81.348
518.14	80.556
518.49	79.857
518.83	79.169
519.17	79.396
519.52	77.501
519.86	81.243
520.20	81.907
520.55	80.000
520.89	79.712
521.23	79.243
521.58	81.944
521.92	81.254
522.26	79.492
522.61	79.404
522.95	80.153
523.29	79.812
523.64	80.262
523.98	81.540
524.32	77.876
524.66	80.373
525.01	82.081
525.35	81.186
525.69	81.588
526.04	81.266
526.38	80.840
526.72	80.524
527.06	81.380
527.41	82.046
527.75	79.736
528.09	83.190
528.43	81.574
528.78	81.156
529.12	82.907
529.46	81.765
529.80	80.955
530.15	80.489
530.49	81.307
530.83	81.925
531.17	82.357
531.51	82.184
531.86	81.303
532.20	82.456
532.54	81.952
532.88	80.962
533.22	82.487
533.57	82.441
533.91	81.024
534.25	81.018
534.59	81.137
534.93	80.647
535.27	81.750
535.62	82.481
535.96	82.418
536.30	81.937
536.64	82.138
536.98	84.251
537.32	82.999
537.66	81.534
538.01	84.330
538.35	83.919
538.69	83.222
539.03	82.871
539.37	82.701
539.71	81.454
540.05	84.236
540.39	83.310
540.73	84.451
541.07	82.582
541.42	83.592
541.76	81.130
542.10	83.525
542.44	82.811
542.78	84.600
543.12	83.435
543.46	80.753
543.80	83.211
544.14	83.210
544.48	83.071
544.82	85.183
545.16	84.842
545.50	83.917
545.84	82.545
546.18	84.119
546.52	83.499
546.86	85.470
547.20	85.162
547.54	82.507
547.88	82.283
548.22	80.734
548.56	84.302
548.90	83.895
549.24	85.214
549.58	83.698
549.92	84.311
550.26	84.610
550.60	82.859
550.94	83.504
551.28	85.854
551.62	84.417
551.96	83.792
552.30	83.275
552.64	84.729
552.98	84.443
553.32	86.508
553.66	85.797
554.00	86.212
554.34	84.043
554.68	85.234
555.02	84.660
555.36	84.328
555.69	84.885
556.03	85.895
556.37	84.637
556.71	85.970
557.05	86.475
557.39	86.043
557.73	84.318
558.07	88.772
558.41	85.565
558.75	84.791
559.08	85.058
559.42	85.605
559.76	86.120
560.10	86.130
560.44	85.260
560.78	85.456
561.12	87.509
561.45	85.205
561.79	86.341
562.13	86.325
562.47	85.994
562.81	84.441
563.15	86.774
563.48	87.077
563.82	86.613
564.16	85.666
564.50	85.887
564.84	85.384
565.17	86.074
565.51	85.137
565.85	88.979
566.19	86.495
566.52	86.497
566.86	84.703
567.20	86.320
567.54	88.009
567.88	83.529
568.21	87.360
568.55	85.048
568.89	85.139
569.23	85.655
569.56	83.733
569.90	85.877
570.24	85.043
570.57	83.058
570.91	83.067
571.25	83.885
571.59	82.485
571.92	82.560
572.26	83.164
572.60	82.687
572.93	81.976
573.27	81.250
573.61	81.359
573.95	81.958
574.28	81.486
574.62	83.147
574.96	82.328
575.29	82.419
575.63	81.497
575.97	81.257
576.30	81.529
576.64	82.663
576.98	80.941
577.31	82.527
577.65	82.353
577.98	82.105
578.32	81.541
578.66	82.268
578.99	82.231
579.33	82.567
579.67	81.968
580.00	82.589
580.34	82.828
580.67	82.324
581.01	80.804
581.35	82.222
581.68	81.813
582.02	82.945
582.35	82.304
582.69	83.276
583.02	83.400
583.36	82.459
583.70	83.205
584.03	84.079
584.37	83.951
584.70	83.452
585.04	82.709
585.37	81.909
585.71	82.898
586.04	82.700
586.38	83.293
586.72	82.751
587.05	83.772
587.39	83.775
587.72	83.143
588.06	83.879
588.39	82.882
588.73	83.042
589.06	84.527
589.40	85.057
589.73	84.738
590.07	84.195
590.40	84.502
590.73	85.526
591.07	84.057
591.40	86.915
591.74	85.752
592.07	86.486
592.41	85.096
592.74	85.127
593.08	84.415
593.41	84.408
593.75	84.438
594.08	85.442
594.41	85.656
594.75	85.164
595.08	85.940
595.42	86.452
595.75	85.263
596.09	85.759
596.42	86.702
596.75	84.950
597.09	85.886
597.42	85.072
597.75	86.404
598.09	85.901
598.42	83.252
598.76	83.887
599.09	84.649
599.42	84.583
599.76	84.975
600.09	85.878
600.42	84.656
600.76	85.800
601.09	84.087
601.42	84.962
601.76	84.735
602.09	86.994
602.42	86.502
602.76	85.667
603.09	85.887
603.42	86.624
603.76	86.797
604.09	85.863
604.42	85.012
604.76	86.524
605.09	87.251
605.42	85.328
605.75	86.805
606.09	84.682
606.42	87.474
606.75	85.788
607.09	87.340
607.42	85.035
607.75	86.578
608.08	86.941
608.42	88.316
608.75	85.047
609.08	87.092
609.41	86.099
609.75	84.252
610.08	87.304
610.41	87.614
610.74	87.911
611.07	88.083
611.41	85.830
611.74	87.506
612.07	89.420
612.40	86.567
612.73	86.430
613.07	86.736
613.40	88.560
613.73	88.174
614.06	86.107
614.39	89.628
614.72	87.598
615.06	87.011
615.39	85.241
615.72	86.855
616.05	85.975
616.38	90.250
616.71	87.508
617.05	89.324
617.38	87.988
617.71	88.636
618.04	87.950
618.37	89.686
618.70	90.482
619.03	87.745
619.36	90.557
619.69	89.304
620.03	87.879
620.36	89.241
620.69	88.873
621.02	89.954
621.35	91.774
621.68	91.967
622.01	90.453
622.34	91.071
622.67	91.406
623.00	90.819
623.33	89.254
623.66	88.774
623.99	91.654
624.32	89.286
624.65	91.096
624.99	90.590
625.32	88.024
625.65	91.064
625.98	90.141
626.31	92.904
626.64	89.540
626.97	91.353
627.30	93.191
627.63	89.724
627.96	92.950
628.29	93.199
628.62	90.831
628.95	92.323
629.28	91.541
629.61	92.149
629.94	91.210
630.26	95.229
630.59	94.774
630.92	93.393
631.25	93.649
631.58	94.074
631.91	92.447
632.24	96.000
632.57	94.556
632.90	94.138
633.23	96.028
633.56	92.281
633.89	96.226
634.22	93.506
634.55	92.909
634.88	92.261
635.20	92.634
635.53	94.275
635.86	95.970
636.19	94.261
636.52	94.743
636.85	92.419
637.18	94.750
637.51	92.937
637.83	98.136
638.16	94.868
638.49	97.931
638.82	95.624
639.15	94.682
639.48	92.737
639.81	98.617
640.13	93.919
640.46	96.439
640.79	93.417
641.12	94.217
641.45	95.839
641.77	96.407
642.10	95.619
642.43	95.751
642.76	98.425
643.09	96.032
643.41	97.460
643.74	98.728
644.07	97.348
644.40	95.786
644.73	98.350
645.05	98.497
645.38	100.166
645.71	100.172
646.04	97.647
646.36	101.222
646.69	96.713
647.02	100.000
647.35	100.722
647.67	99.635
648.00	99.297
648.33	96.459
648.66	94.516
648.98	95.701
649.31	95.077
649.64	94.219
649.96	98.116
650.29	95.574
650.62	99.828
650.94	95.784
651.27	97.747
651.60	94.118
651.92	99.658
652.25	97.496
652.58	99.489
652.90	94.382
653.23	95.645
653.56	96.154
653.88	94.918
654.21	96.477
654.54	98.339
654.86	94.222
655.19	96.848
655.52	90.174
655.84	86.252
656.17	90.978
656.49	100.000
656.82	100.000
657.15	100.000
657.47	99.152
657.80	57.402
658.13	62.944
658.45	85.364
658.78	84.812
659.10	83.736
659.43	83.282
659.75	83.950
660.08	84.115
660.41	82.615
660.73	89.219
661.06	91.159
661.38	97.500
661.71	92.734
662.03	94.153
662.36	96.588
662.68	94.937
663.01	100.849
663.33	102.494
663.66	96.137
663.98	99.330
664.31	97.315
664.63	97.788
664.96	98.265
665.28	98.915
665.61	95.137
665.93	98.354
666.26	93.927
666.58	95.634
666.91	96.214
667.23	96.711
667.56	94.785
667.88	98.643
668.21	100.922
668.53	100.467
668.86	98.614
669.18	97.260
669.50	98.598
669.83	99.027
670.15	95.516
670.48	98.598
670.80	95.672
671.13	99.774
671.45	99.550
671.77	95.717
672.10	95.069
672.42	94.096
672.75	96.909
673.07	92.973
673.39	91.985
673.72	95.866
674.04	98.301
674.37	91.959
674.69	96.311
675.01	95.106
675.34	94.577
675.66	91.361
675.98	97.137
676.31	98.190
676.63	100.000
676.95	94.248
677.28	92.807
677.60	97.964
677.92	96.696
678.25	95.842
678.57	96.296
678.89	97.694
679.22	93.501
679.54	92.505
679.86	94.200
680.18	95.437
680.51	91.620
680.83	93.143
681.15	91.908
681.48	95.132
681.80	93.548
682.12	94.366
682.44	92.338
682.77	92.208
683.09	88.470
683.41	96.018
683.73	90.411
684.06	94.194
684.38	93.933
684.70	92.593
685.02	91.929
685.34	93.177
685.67	92.045
685.99	92.439
686.31	92.101
686.63	89.362
686.96	87.800
687.28	87.861
687.60	91.602
687.92	93.385
688.24	90.157
688.56	89.980
688.89	90.812
689.21	92.560
689.53	95.172
689.85	90.646
690.17	91.256
690.49	91.686
690.82	93.494
691.14	93.396
691.46	92.018
691.78	94.934
692.10	93.008
692.42	94.000
692.74	89.485
693.06	93.258
693.39	92.394
693.71	94.808
694.03	92.009
694.35	86.907
694.67	90.071
694.99	93.095
695.31	94.643
695.63	92.602
695.95	94.789
696.27	93.017
696.59	90.909
696.91	95.506
697.23	89.323
697.56	95.433
697.88	90.766
698.20	86.724
698.52	87.220
698.84	93.689
699.16	88.810
699.48	90.250
699.80	88.221
700.12	89.924
700.44	89.665
700.76	91.837
701.08	88.081
701.40	91.541
701.72	93.519
702.04	99.359
702.36	90.663
702.68	94.611
703.00	89.855
703.32	85.100
703.64	96.176
703.96	93.023
704.28	88.462
704.60	88.924
704.91	91.746
705.23	95.146
705.55	90.203
705.87	94.881
706.19	92.014
706.51	91.319
706.83	88.197
707.15	89.490
707.47	91.736
707.79	91.237
708.11	84.733
708.43	89.277
708.74	88.052
709.06	85.237
709.38	90.230
709.70	91.562
710.02	90.491
710.34	88.779
710.66	87.619
710.98	87.697
711.29	87.742
711.61	87.220
711.93	86.230
712.25	95.017
712.57	85.017
712.89	93.885
713.20	89.691
713.52	88.806
713.84	91.815
714.16	91.475
714.48	90.794
714.80	85.846
715.11	85.879
715.43	90.361
715.75	87.539
716.07	87.541
716.39	90.301
716.70	88.502
717.02	87.407
717.34	86.641
717.66	89.627
717.97	90.984
718.29	94.958
718.61	87.302
718.93	81.004
719.24	88.235
719.56	89.434
719.88	87.273
720.20	88.764
720.51	87.218
720.83	93.173
721.15	93.852
721.46	90.588
721.78	86.590
722.10	90.000
722.42	89.669
722.73	87.649
723.05	87.952
723.37	87.451
723.68	79.352
724.00	89.837
724.32	87.243
724.63	84.647
724.95	89.256
725.27	86.404
725.58	87.500
725.90	87.698
726.22	89.299
726.53	85.171
726.85	82.745
727.16	88.346
727.48	84.231
727.80	81.148
728.11	84.454
728.43	90.909
728.74	87.109
729.06	88.258
729.38	88.327
729.69	86.614
730.01	84.252
730.32	89.641
730.64	83.883
730.96	88.433
731.27	85.714
731.59	79.743
731.90	80.061
732.22	83.742
732.53	84.768
732.85	82.215
733.16	83.696
733.48	83.275
733.80	82.562
734.11	82.414
734.43	89.456
734.74	80.119
735.06	81.505
735.37	86.239
735.69	80.323
736.00	81.145
736.32	82.450
736.63	79.310
736.95	85.507
737.26	78.146
737.58	85.252
737.89	84.946
738.21	80.451
738.52	85.385
738.83	80.078
739.15	80.769
739.46	84.677
739.78	77.273
740.09	79.021
740.41	81.469
740.72	81.022
741.04	77.381
741.35	82.684
741.66	86.111
741.98	77.143
742.29	83.568
742.61	89.305
742.92	86.916
743.23	79.825
743.55	87.838
743.86	84.000
744.18	84.286
744.49	80.788
744.80	82.741
745.12	82.990
745.43	86.432
745.74	84.951
746.06	80.488
746.37	79.295
746.68	86.070
747.00	82.723
747.31	75.962
747.62	77.419
747.94	79.476
748.25	85.116
748.56	82.857
748.88	81.522
749.19	82.160
749.50	88.235
749.82	82.222
750.13	81.057
750.44	82.520
750.75	83.200
751.07	80.000
751.38	75.277
751.69	79.389
752.01	81.154
752.32	77.043
752.63	77.692
752.94	78.968
753.26	78.696
753.57	88.393
753.88	76.293
754.19	82.988
754.51	76.562
754.82	81.818
755.13	76.955
755.44	79.339
755.75	81.481
756.07	75.100
756.38	77.734
756.69	81.588
757.00	76.307
757.31	76.510
757.63	76.636
757.94	78.035
758.25	76.453
758.56	78.706
758.87	75.852
759.18	75.000
759.50	78.648
759.81	74.818
760.12	77.365
760.43	78.641
760.74	81.562
761.05	75.000
761.36	75.749
761.67	76.923
761.99	74.839
762.30	76.449
762.61	74.340
762.92	80.717
763.23	79.621
763.54	79.556
763.85	82.700
764.16	77.551
764.47	80.085
764.78	74.157
765.10	79.496
765.41	73.871
765.72	77.358
766.03	73.145
766.34	77.820
766.65	77.733
766.96	77.500
767.27	78.125
767.58	81.395
767.89	81.935
768.20	79.141
768.51	69.945
768.82	74.595
769.13	79.500
769.44	68.860
769.75	75.758
770.06	70.183
770.37	66.197
770.68	75.000
770.99	73.267
771.30	73.786
771.61	75.000
771.92	70.563
772.23	76.636
772.54	74.468
772.85	72.781
773.16	73.171
773.47	77.108
773.78	73.626
774.09	76.000
774.39	67.284
774.70	66.443
775.01	68.841
775.32	66.418
775.63	73.554
775.94	78.947
776.25	71.429
776.56	77.869
776.87	87.611
777.18	84.956
777.48	76.364
777.79	64.348
778.10	72.477
778.41	80.508
778.72	73.554
779.03	76.119
779.34	73.684
779.65	70.588
779.95	75.362
780.26	59.864
780.57	77.586
780.88	74.074
781.19	72.727
781.50	61.600
781.80	69.281
782.11	75.000
782.42	63.253
782.73	70.803
783.04	64.189
783.34	74.242
783.65	68.992
783.96	77.236
784.27	75.214
784.57	61.789
784.88	63.415
785.19	70.175
785.50	56.701
785.81	70.476
786.11	49.020
786.42	59.091
786.73	60.360
787.04	72.277
787.34	59.048
787.65	63.810
787.96	69.608
788.26	66.667
788.57	64.516
788.88	61.719
789.19	59.829
789.49	57.143
789.80	68.376
790.11	68.142
790.41	64.646
790.72	58.491
791.03	66.667
791.33	68.421
791.64	56.989
791.95	69.333
792.25	67.143
792.56	62.195
792.87	60.204
793.17	51.316
793.48	50.000
793.79	71.831
794.09	55.696
794.40	65.957
794.70	65.421
795.01	53.509
795.32	68.182
795.62	66.071
795.93	65.979
796.23	54.945
796.54	64.211
796.85	54.795
797.15	50.000
797.46	61.644
797.76	61.972
798.07	67.500
798.37	57.353
798.68	57.143
798.99	75.714
799.29	67.105
799.60	51.667
799.90	54.167
800.21	64.063
800.51	63.492
800.82	68.852
801.12	61.404
801.43	46.479
801.73	40.678
802.04	72.131
802.34	61.818
802.65	63.462
802.95	64.815
803.26	17.500
803.56	73.077
803.87	47.368
804.17	54.839
804.48	53.846
804.78	46.154
805.09	62.791
805.39	46.875
805.70	45.283
806.00	75.439
806.30	59.459
806.61	41.176
806.91	48.148
807.22	53.333
807.52	47.761
807.83	41.935
808.13	50.794
808.43	45.455
808.74	51.515
809.04	60.377
809.35	52.055
809.65	57.895
809.95	47.059
810.26	64.706
810.56	36.000
810.86	34.694
811.17	60.000
811.47	48.077
811.77	93.548
812.08	42.105
812.38	52.381
812.69	39.130
812.99	61.290
813.29	33.333
813.59	33.333
813.90	31.915
814.20	27.907
814.50	52.083
814.81	56.667
815.11	73.171
815.41	33.333
815.72	88.571
816.02	36.111
816.32	61.538
816.62	75.676
816.93	14.706
817.23	28.261
817.53	55.882
817.84	47.059
818.14	18.750
818.44	17.241
818.74	9.677
819.04	62.963
819.35	60.000
819.65	20.000
819.95	3.333
820.25	4.000
820.56	28.947
820.86	65.000
821.16	44.681
821.46	53.448
821.76	25.641
822.07	45.000
822.37	37.209
822.67	20.000
822.97	18.919
823.27	81.081
823.57	40.000
823.88	29.730
824.18	-23.810
824.48	7.692
824.78	23.077
825.08	52.174
825.38	25.000
825.69	54.167
825.99	-25.000
826.29	2.703
826.59	8.824
826.89	96.000
827.19	34.286
827.49	60.526
827.79	15.625
828.09	43.333
828.39	56.522
828.70	44.828
829.00	31.034
829.30	27.778
829.60	40.625
829.90	33.333
830.20	0.000
830.50	-4.762
830.80	25.000
831.10	53.846
831.40	-9.524
831.70	8.824
832.00	41.667
832.30	26.316
832.60	68.750
832.90	0.000
833.20	-58.824
833.50	-13.333
833.80	-26.667
834.10	25.000
834.40	37.500
834.70	61.111
835.00	3.846
835.30	12.500
835.60	17.241
835.90	-55.556
836.20	27.273
836.50	-50.000
836.80	37.143
837.10	68.571
837.40	11.765
837.70	9.091
838.00	-12.500
838.30	-43.750
838.60	19.048
838.90	30.000
839.19	8.696
839.49	-4.348
839.79	16.667
840.09	-21.739
840.39	-22.727
840.69	-56.250
840.99	26.316
841.29	-18.750
841.59	28.571
841.88	-55.556
842.18	-37.500
842.48	23.529
842.78	41.379
843.08	-57.143
843.38	0.000
843.68	-77.778
843.97	61.538
844.27	-72.727
844.57	-180.000
844.87	56.000
845.17	-220.000
845.47	-14.286
845.76	-122.222
846.06	0.000
846.36	-275.000
846.66	-100.000
846.96	26.316
847.25	-29.167
847.55	-33.333
847.85	26.667
848.15	-40.000
848.44	61.538
848.74	21.053
849.04	366.667
849.34	55.556
849.63	-15.789
849.93	0.000
850.23	10.000
850.53	33.333
850.82	20.000
851.12	-5.263
851.42	-150.000
851.71	107.143
852.01	-25.000
852.31	58.824
852.61	-20.000
852.90	-4.762
853.20	-116.667
853.50	-33.333
853.79	-31.579
854.09	-6.667
854.39	-3.571
854.68	-4.348
854.98	-91.667
855.28	41.379
855.57	12.500
855.87	15.000
856.17	26.667
856.46	17.241
856.76	60.000
857.05	-11.765
857.35	-123.077
857.65	-72.727
857.94	11.111
858.24	7.143
858.53	-85.714
858.83	-66.667
859.13	-44.444
859.42	9.524
859.72	-125.000
860.01	-333.333
860.31	-25.000
860.60	-360.000
860.90	-133.333
861.20	-87.500
861.49	-142.857
861.79	-11.765
862.08	-450.000
862.38	-91.667
862.67	7.692
862.97	-11.765
863.26	80.000
863.56	0.000
863.85	333.333
864.15	-150.000
864.44	-69.231
864.74	25.000
865.03	-200.000
865.33	-250.000
865.62	5.882
865.92	-575.000
866.21	-42.857
866.51	-141.667
866.80	-900.000
867.10	-100.000
867.39	17.647
867.69	13.043
867.98	-128.571
868.27	-500.000
868.57	-75.000
868.86	-63.636
869.16	17.647
869.45	-83.333
869.75	-157.143
870.04	-100.000
870.33	0.000
870.63	-160.000
870.92	11.111
871.22	-33.333
871.51	0.000
871.80	-66.667
872.10	-20.000
>>>>>End Processed Spectral Data<<<<<
