SpectraSuite Data File
++++++++++++++++++++++++++++++++++++
Date: Sat May 16 11:31:01 PDT 2015
User: schluterlab
Dark Spectrum Present: Yes
Reference Spectrum Present: Yes
Number of Sampled Component Spectra: 1
Spectrometers: USB2E3373
Integration Time (usec): 3000 (USB2E3373)
Spectra Averaged: 3 (USB2E3373)
Boxcar Smoothing: 0 (USB2E3373)
Correct for Electrical Dark: No (USB2E3373)
Strobe/Lamp Enabled: No (USB2E3373)
Correct for Detector Non-linearity: No (USB2E3373)
Correct for Stray Light: No (USB2E3373)
Number of Pixels in Processed Spectrum: 2048
>>>>>Begin Processed Spectral Data<<<<<
178.53	0.000
178.91	80.000
179.29	200.000
179.67	-600.000
180.04	-61.538
180.42	700.000
180.80	400.000
181.18	375.000
181.56	-200.000
181.94	600.000
182.31	525.000
182.69	-123.077
183.07	-400.000
183.45	1000.000
183.83	366.667
184.20	-157.143
184.58	-125.000
184.96	-100.000
185.34	125.000
185.72	-375.000
186.09	266.667
186.47	-137.500
186.85	-212.500
187.23	-200.000
187.61	-200.000
187.98	-275.000
188.36	-25.000
188.74	-237.500
189.12	1600.000
189.49	228.571
189.87	-8.333
190.25	200.000
190.63	-92.857
191.00	-266.667
191.38	500.000
191.76	-46.667
192.14	480.000
192.51	-140.000
192.89	-466.667
193.27	0.000
193.65	-166.667
194.02	-157.143
194.40	733.333
194.78	-100.000
195.15	-900.000
195.53	-200.000
195.91	-366.667
196.29	240.000
196.66	-366.667
197.04	1300.000
197.42	-200.000
197.79	13.333
198.17	-800.000
198.55	-850.000
198.92	-1500.000
199.30	287.500
199.68	-200.000
200.05	-166.667
200.43	-177.778
200.81	-1700.000
201.18	-91.667
201.56	200.000
201.94	46.667
202.31	-9.091
202.69	90.000
203.07	-30.000
203.44	566.667
203.82	-350.000
204.19	-150.000
204.57	-100.000
204.95	-2000.000
205.32	-43.750
205.70	500.000
206.08	-2100.000
206.45	-94.444
206.83	-850.000
207.20	-100.000
207.58	-500.000
207.96	-533.333
208.33	-162.500
208.71	-222.222
209.08	260.000
209.46	-314.286
209.84	1050.000
210.21	0.000
210.59	50.000
210.96	1800.000
211.34	-350.000
211.71	-266.667
212.09	325.000
212.46	1100.000
212.84	-2400.000
213.22	633.333
213.59	75.000
213.97	-33.333
214.34	220.000
214.72	-190.000
215.09	-133.333
215.47	-233.333
215.84	-50.000
216.22	-110.000
216.59	0.000
216.97	-375.000
217.34	1350.000
217.72	-114.286
218.09	-350.000
218.47	-214.286
218.84	342.857
219.22	-242.857
219.59	0.000
219.97	242.857
220.34	425.000
220.72	275.000
221.09	-84.615
221.47	0.000
221.84	200.000
222.22	-350.000
222.59	1200.000
222.97	-212.500
223.34	-500.000
223.72	-500.000
224.09	-121.429
224.46	-575.000
224.84	-107.143
225.21	-271.429
225.59	-109.091
225.96	-212.500
226.34	-57.143
226.71	-77.778
227.08	-20.000
227.46	1600.000
227.83	-328.571
228.21	-237.500
228.58	1000.000
228.95	-18.750
229.33	-1400.000
229.70	-420.000
230.08	-850.000
230.45	-116.667
230.82	-200.000
231.20	-2000.000
231.57	-800.000
231.95	1200.000
232.32	0.000
232.69	-77.778
233.07	-157.143
233.44	-900.000
233.81	-60.000
234.19	-233.333
234.56	-56.250
234.93	28.125
235.31	-157.143
235.68	-64.286
236.05	-76.471
236.43	-50.000
236.80	-32.258
237.17	-37.500
237.55	-57.143
237.92	-95.455
238.29	-20.000
238.67	-5.882
239.04	2.778
239.41	-41.935
239.79	-38.462
240.16	-35.714
240.53	-30.909
240.91	-20.513
241.28	-7.273
241.65	3.077
242.02	-14.754
242.40	-29.508
242.77	-24.242
243.14	-22.034
243.51	-25.714
243.89	-12.658
244.26	-11.236
244.63	-10.526
245.00	-18.947
245.38	-2.542
245.75	-2.655
246.12	4.800
246.49	-8.661
246.87	-13.821
247.24	-17.797
247.61	-1.695
247.98	-4.930
248.36	-6.993
248.73	0.633
249.10	-1.274
249.47	1.754
249.84	-2.841
250.22	-10.714
250.59	-1.130
250.96	-6.283
251.33	0.948
251.70	1.923
252.08	-4.265
252.45	-4.265
252.82	-4.286
253.19	0.426
253.56	-0.806
253.94	-5.485
254.31	-1.288
254.68	3.252
255.05	-7.258
255.42	1.190
255.79	-1.075
256.16	0.000
256.54	2.574
256.91	0.000
257.28	-1.099
257.65	-0.709
258.02	1.887
258.39	0.000
258.76	-4.392
259.14	-1.852
259.51	0.656
259.88	-1.524
260.25	1.553
260.62	-1.929
260.99	-3.561
261.36	1.829
261.73	1.445
262.10	2.500
262.47	-1.140
262.85	2.857
263.22	-0.860
263.59	-1.846
263.96	-1.739
264.33	1.355
264.70	-1.657
265.07	0.549
265.44	-0.775
265.81	1.034
266.18	-2.278
266.55	-0.490
266.92	2.267
267.29	1.937
267.66	1.235
268.03	2.899
268.40	0.235
268.77	3.373
269.14	-1.160
269.51	1.839
269.88	-1.606
270.25	-0.233
270.62	1.373
270.99	2.252
271.36	1.865
271.73	1.570
272.10	-2.517
272.47	0.444
272.84	1.333
273.21	2.523
273.58	1.978
273.95	-0.877
274.32	0.679
274.69	1.313
275.06	0.818
275.43	0.893
275.80	2.851
276.17	-1.464
276.54	0.611
276.91	1.440
277.28	0.406
277.65	0.413
278.02	-0.835
278.39	0.000
278.76	2.988
279.13	0.791
279.50	0.596
279.87	0.846
280.23	3.036
280.60	-0.398
280.97	0.777
281.34	-0.387
281.71	2.885
282.08	0.000
282.45	-2.648
282.82	0.388
283.19	-1.091
283.56	2.015
283.92	1.767
284.29	-0.743
284.66	0.899
285.03	1.248
285.40	0.738
285.77	0.877
286.14	0.903
286.51	1.243
286.87	0.544
287.24	0.512
287.61	1.322
287.98	2.773
288.35	-0.661
288.72	0.170
289.08	-0.847
289.45	1.852
289.82	-0.519
290.19	3.284
290.56	-0.331
290.93	2.067
291.29	0.648
291.66	0.161
292.03	1.413
292.40	1.958
292.77	1.553
293.13	1.463
293.50	1.634
293.87	1.994
294.24	0.905
294.60	0.152
294.97	3.035
295.34	1.037
295.71	1.786
296.08	-0.614
296.44	1.144
296.81	0.000
297.18	0.000
297.55	4.237
297.91	3.347
298.28	1.096
298.65	0.558
299.02	4.011
299.38	1.337
299.75	2.038
300.12	2.692
300.48	3.069
300.85	1.180
301.22	2.846
301.59	3.381
301.95	4.282
302.32	1.565
302.69	3.550
303.05	3.053
303.42	2.750
303.79	1.794
304.15	2.725
304.52	4.084
304.89	2.243
305.25	1.709
305.62	3.055
305.99	2.945
306.35	3.774
306.72	0.911
307.09	3.746
307.45	3.065
307.82	3.017
308.19	3.356
308.55	3.813
308.92	2.363
309.29	3.243
309.65	3.181
310.02	4.104
310.38	2.919
310.75	4.611
311.12	5.165
311.48	4.280
311.85	4.016
312.22	4.119
312.58	6.612
312.95	3.262
313.31	5.195
313.68	5.427
314.05	5.341
314.41	4.326
314.78	4.895
315.14	5.726
315.51	5.066
315.87	5.518
316.24	6.317
316.61	6.046
316.97	6.766
317.34	6.647
317.70	7.050
318.07	8.302
318.43	5.899
318.80	9.296
319.16	6.848
319.53	7.237
319.89	7.056
320.26	7.353
320.62	7.788
320.99	8.458
321.35	7.389
321.72	7.472
322.08	8.210
322.45	7.228
322.81	8.069
323.18	10.086
323.54	9.889
323.91	10.751
324.27	9.601
324.64	9.415
325.00	11.082
325.37	11.131
325.73	12.598
326.10	9.566
326.46	11.384
326.83	11.234
327.19	12.093
327.56	12.606
327.92	13.679
328.29	12.121
328.65	11.182
329.01	12.633
329.38	12.400
329.74	13.187
330.11	14.143
330.47	12.716
330.84	14.757
331.20	13.809
331.56	13.856
331.93	14.654
332.29	14.064
332.66	13.784
333.02	13.665
333.38	14.247
333.75	15.494
334.11	15.467
334.48	13.151
334.84	15.748
335.20	13.387
335.57	15.523
335.93	16.204
336.29	15.235
336.66	14.097
337.02	16.126
337.38	14.973
337.75	13.960
338.11	15.385
338.47	15.569
338.84	13.793
339.20	15.026
339.56	16.845
339.93	15.256
340.29	14.526
340.65	15.385
341.02	15.177
341.38	15.164
341.74	15.580
342.11	14.505
342.47	15.451
342.83	16.037
343.20	15.628
343.56	14.204
343.92	15.526
344.28	16.232
344.65	15.182
345.01	14.202
345.37	15.864
345.73	14.730
346.10	13.737
346.46	14.460
346.82	14.354
347.19	14.215
347.55	15.008
347.91	15.354
348.27	14.399
348.63	16.478
349.00	16.388
349.36	13.505
349.72	15.525
350.08	14.916
350.45	14.736
350.81	15.366
351.17	13.666
351.53	14.797
351.89	15.036
352.26	15.116
352.62	16.436
352.98	15.348
353.34	15.508
353.70	14.595
354.07	15.578
354.43	15.573
354.79	15.055
355.15	14.297
355.51	15.000
355.87	14.941
356.24	14.535
356.60	15.471
356.96	15.704
357.32	14.489
357.68	14.559
358.04	15.012
358.40	14.540
358.77	14.606
359.13	15.226
359.49	15.117
359.85	15.168
360.21	15.753
360.57	15.813
360.93	15.630
361.29	15.396
361.66	15.244
362.02	14.793
362.38	15.481
362.74	15.165
363.10	15.280
363.46	16.311
363.82	15.816
364.18	15.702
364.54	17.012
364.90	15.514
365.26	15.193
365.62	16.750
365.98	16.643
366.35	16.479
366.71	15.645
367.07	15.737
367.43	17.364
367.79	16.289
368.15	15.647
368.51	16.853
368.87	16.071
369.23	16.421
369.59	17.153
369.95	16.702
370.31	18.073
370.67	16.124
371.03	16.983
371.39	15.842
371.75	16.738
372.11	17.432
372.47	16.341
372.83	17.663
373.19	17.214
373.55	18.227
373.91	17.212
374.27	17.864
374.63	17.736
374.99	17.942
375.35	17.699
375.71	18.231
376.07	17.659
376.42	17.483
376.78	18.301
377.14	17.695
377.50	19.471
377.86	18.661
378.22	18.467
378.58	18.345
378.94	17.386
379.30	19.561
379.66	18.154
380.02	18.954
380.38	19.940
380.74	18.757
381.09	19.098
381.45	19.093
381.81	19.117
382.17	19.486
382.53	19.088
382.89	19.916
383.25	19.446
383.61	21.285
383.97	20.086
384.32	20.025
384.68	20.979
385.04	20.652
385.40	20.146
385.76	20.549
386.12	20.924
386.48	21.968
386.83	20.920
387.19	21.219
387.55	21.078
387.91	21.340
388.27	21.291
388.62	21.034
388.98	20.533
389.34	21.603
389.70	20.889
390.06	20.883
390.42	21.090
390.77	21.451
391.13	21.491
391.49	22.271
391.85	22.319
392.20	22.573
392.56	21.869
392.92	21.449
393.28	22.273
393.64	22.670
393.99	22.462
394.35	23.114
394.71	22.730
395.07	22.536
395.42	22.229
395.78	22.187
396.14	23.676
396.50	23.119
396.85	23.196
397.21	22.539
397.57	23.100
397.92	22.658
398.28	23.444
398.64	23.260
399.00	23.708
399.35	23.563
399.71	24.506
400.07	24.657
400.42	23.601
400.78	23.673
401.14	23.353
401.49	23.408
401.85	23.612
402.21	24.076
402.57	23.726
402.92	24.418
403.28	23.529
403.63	23.247
403.99	24.301
404.35	24.336
404.70	24.810
405.06	24.971
405.42	23.493
405.77	24.378
406.13	23.850
406.49	24.446
406.84	23.695
407.20	25.736
407.55	24.763
407.91	24.093
408.27	25.000
408.62	24.534
408.98	24.924
409.34	24.254
409.69	24.638
410.05	24.864
410.40	25.199
410.76	25.963
411.11	24.501
411.47	23.977
411.83	25.244
412.18	25.000
412.54	24.710
412.89	25.091
413.25	24.144
413.60	25.030
413.96	24.584
414.31	25.749
414.67	25.524
415.03	24.968
415.38	25.309
415.74	25.451
416.09	25.320
416.45	25.926
416.80	25.878
417.16	25.714
417.51	26.461
417.87	25.566
418.22	26.675
418.58	25.802
418.93	25.751
419.29	26.098
419.64	25.188
420.00	26.914
420.35	26.198
420.71	26.291
421.06	26.746
421.42	25.468
421.77	25.516
422.12	25.797
422.48	26.724
422.83	26.481
423.19	27.004
423.54	26.916
423.90	26.952
424.25	26.584
424.61	27.744
424.96	27.443
425.31	26.942
425.67	26.991
426.02	26.563
426.38	27.405
426.73	27.177
427.09	26.961
427.44	27.898
427.79	26.860
428.15	27.289
428.50	27.683
428.85	27.578
429.21	27.283
429.56	28.594
429.92	27.104
430.27	28.365
430.62	28.422
430.98	27.026
431.33	27.801
431.68	27.560
432.04	28.595
432.39	28.490
432.74	28.897
433.10	28.700
433.45	28.267
433.80	29.283
434.16	28.694
434.51	28.493
434.86	29.525
435.22	28.842
435.57	28.335
435.92	29.191
436.28	28.783
436.63	29.395
436.98	28.751
437.34	29.120
437.69	29.522
438.04	28.417
438.39	29.483
438.75	28.289
439.10	28.873
439.45	29.692
439.81	30.241
440.16	29.074
440.51	29.647
440.86	29.092
441.22	29.630
441.57	29.316
441.92	29.412
442.27	29.600
442.63	30.043
442.98	29.571
443.33	29.654
443.68	30.693
444.03	29.764
444.39	29.613
444.74	30.066
445.09	30.263
445.44	30.219
445.79	30.495
446.15	30.230
446.50	30.430
446.85	29.913
447.20	29.622
447.55	30.994
447.91	30.938
448.26	28.994
448.61	29.655
448.96	31.036
449.31	29.932
449.66	30.052
450.02	30.083
450.37	30.899
450.72	30.452
451.07	30.861
451.42	30.421
451.77	29.623
452.12	31.108
452.47	30.542
452.83	30.227
453.18	31.309
453.53	31.468
453.88	31.100
454.23	30.351
454.58	31.075
454.93	30.856
455.28	30.656
455.63	31.327
455.98	31.627
456.34	30.432
456.69	32.208
457.04	31.039
457.39	31.041
457.74	31.187
458.09	30.568
458.44	32.506
458.79	30.998
459.14	32.059
459.49	31.024
459.84	30.972
460.19	32.160
460.54	30.792
460.89	31.446
461.24	31.087
461.59	30.539
461.94	31.254
462.29	32.162
462.64	32.148
462.99	32.262
463.34	31.465
463.69	32.061
464.04	30.873
464.39	30.227
464.74	30.969
465.09	30.247
465.44	30.739
465.79	31.528
466.14	31.933
466.49	32.355
466.84	31.873
467.19	31.546
467.54	31.392
467.89	32.799
468.24	31.413
468.59	31.793
468.94	30.804
469.29	31.384
469.64	32.143
469.99	32.748
470.34	31.997
470.68	32.267
471.03	32.897
471.38	32.014
471.73	33.077
472.08	32.396
472.43	31.338
472.78	32.400
473.13	32.339
473.48	32.163
473.83	32.010
474.17	31.911
474.52	32.737
474.87	32.284
475.22	31.976
475.57	31.889
475.92	31.371
476.27	31.143
476.61	32.563
476.96	31.973
477.31	32.508
477.66	32.153
478.01	33.063
478.36	31.954
478.70	32.568
479.05	32.180
479.40	31.969
479.75	31.346
480.10	31.002
480.45	30.899
480.79	32.034
481.14	32.715
481.49	32.769
481.84	31.854
482.19	32.983
482.53	32.481
482.88	32.463
483.23	31.690
483.58	32.285
483.92	33.158
484.27	31.724
484.62	32.786
484.97	32.229
485.31	30.592
485.66	30.261
486.01	31.213
486.36	31.922
486.70	32.601
487.05	31.671
487.40	31.918
487.75	31.555
488.09	31.223
488.44	32.307
488.79	31.411
489.13	31.609
489.48	32.300
489.83	32.271
490.17	31.389
490.52	32.201
490.87	31.316
491.22	31.574
491.56	32.269
491.91	32.920
492.26	32.170
492.60	32.065
492.95	32.461
493.30	32.349
493.64	31.970
493.99	32.696
494.34	32.667
494.68	32.959
495.03	32.170
495.37	31.711
495.72	32.269
496.07	33.365
496.41	33.071
496.76	31.735
497.11	32.219
497.45	32.711
497.80	32.566
498.14	32.318
498.49	32.496
498.84	31.505
499.18	32.651
499.53	32.538
499.87	31.515
500.22	32.451
500.56	32.516
500.91	32.463
501.26	32.072
501.60	31.103
501.95	32.754
502.29	32.026
502.64	32.107
502.98	32.487
503.33	31.156
503.67	31.657
504.02	31.627
504.36	32.598
504.71	31.611
505.06	31.503
505.40	32.834
505.75	32.724
506.09	32.154
506.44	32.281
506.78	31.811
507.13	31.462
507.47	32.290
507.82	32.473
508.16	32.383
508.51	31.891
508.85	32.039
509.19	32.077
509.54	31.025
509.88	32.979
510.23	32.495
510.57	33.280
510.92	33.029
511.26	32.217
511.61	32.181
511.95	32.004
512.30	32.106
512.64	32.999
512.98	33.168
513.33	31.576
513.67	31.714
514.02	32.942
514.36	32.133
514.70	32.598
515.05	31.732
515.39	32.468
515.74	33.101
516.08	32.277
516.42	31.785
516.77	31.427
517.11	32.609
517.46	33.612
517.80	33.574
518.14	31.824
518.49	32.995
518.83	32.878
519.17	32.031
519.52	31.579
519.86	33.632
520.20	32.946
520.55	33.046
520.89	32.248
521.23	33.455
521.58	31.850
521.92	32.932
522.26	32.889
522.61	32.383
522.95	32.036
523.29	33.856
523.64	33.104
523.98	32.782
524.32	32.307
524.66	32.236
525.01	32.306
525.35	33.441
525.69	32.921
526.04	33.225
526.38	33.227
526.72	32.120
527.06	31.966
527.41	32.937
527.75	31.947
528.09	32.561
528.43	31.869
528.78	31.972
529.12	32.138
529.46	32.152
529.80	32.795
530.15	32.518
530.49	32.277
530.83	33.202
531.17	31.785
531.51	32.485
531.86	32.719
532.20	32.321
532.54	32.353
532.88	31.621
533.22	32.955
533.57	32.833
533.91	32.272
534.25	31.741
534.59	32.542
534.93	31.363
535.27	32.536
535.62	32.417
535.96	32.127
536.30	30.825
536.64	32.736
536.98	32.415
537.32	32.343
537.66	32.722
538.01	32.165
538.35	33.108
538.69	31.818
539.03	31.957
539.37	31.737
539.71	31.821
540.05	31.666
540.39	32.271
540.73	31.790
541.07	32.377
541.42	30.385
541.76	30.565
542.10	33.153
542.44	32.312
542.78	31.547
543.12	31.568
543.46	30.000
543.80	31.773
544.14	30.960
544.48	31.693
544.82	32.206
545.16	31.791
545.50	30.619
545.84	32.267
546.18	31.761
546.52	31.935
546.86	32.123
547.20	32.068
547.54	30.992
547.88	31.387
548.22	30.341
548.56	31.129
548.90	30.795
549.24	32.095
549.58	30.981
549.92	32.721
550.26	32.659
550.60	30.797
550.94	31.460
551.28	32.205
551.62	31.167
551.96	32.127
552.30	31.359
552.64	30.612
552.98	31.395
553.32	30.952
553.66	32.444
554.00	30.917
554.34	31.119
554.68	31.140
555.02	32.562
555.36	31.344
555.69	31.662
556.03	31.368
556.37	31.721
556.71	31.067
557.05	31.412
557.39	32.146
557.73	31.072
558.07	32.027
558.41	32.162
558.75	31.863
559.08	31.440
559.42	31.470
559.76	32.055
560.10	32.215
560.44	31.936
560.78	30.341
561.12	32.022
561.45	31.164
561.79	31.289
562.13	31.978
562.47	31.232
562.81	30.269
563.15	31.351
563.48	31.375
563.82	31.102
564.16	31.034
564.50	30.981
564.84	31.878
565.17	30.902
565.51	32.203
565.85	33.063
566.19	32.279
566.52	30.789
566.86	30.594
567.20	31.780
567.54	30.892
567.88	30.542
568.21	30.872
568.55	30.859
568.89	31.262
569.23	30.773
569.56	30.307
569.90	30.409
570.24	30.665
570.57	29.561
570.91	29.412
571.25	29.086
571.59	30.034
571.92	29.464
572.26	29.089
572.60	28.762
572.93	29.018
573.27	28.872
573.61	28.506
573.95	29.404
574.28	28.353
574.62	28.571
574.96	28.589
575.29	28.659
575.63	28.564
575.97	28.047
576.30	28.748
576.64	28.930
576.98	28.589
577.31	28.653
577.65	28.517
577.98	28.815
578.32	28.773
578.66	28.919
578.99	28.588
579.33	28.536
579.67	28.506
580.00	28.423
580.34	28.009
580.67	28.095
581.01	27.582
581.35	28.403
581.68	27.939
582.02	28.897
582.35	28.555
582.69	29.040
583.02	28.935
583.36	28.861
583.70	28.187
584.03	29.041
584.37	28.200
584.70	28.099
585.04	29.139
585.37	28.138
585.71	28.834
586.04	29.103
586.38	29.030
586.72	28.890
587.05	28.717
587.39	28.489
587.72	29.095
588.06	28.666
588.39	28.653
588.73	29.270
589.06	28.740
589.40	28.959
589.73	28.931
590.07	29.388
590.40	29.151
590.73	29.188
591.07	28.852
591.40	28.856
591.74	28.454
592.07	29.550
592.41	28.705
592.74	29.400
593.08	28.733
593.41	29.079
593.75	29.014
594.08	29.942
594.41	29.316
594.75	29.785
595.08	29.173
595.42	29.769
595.75	28.372
596.09	29.181
596.42	29.705
596.75	29.194
597.09	29.519
597.42	30.336
597.75	29.451
598.09	29.733
598.42	29.518
598.76	29.651
599.09	29.084
599.42	28.681
599.76	29.256
600.09	29.847
600.42	29.244
600.76	29.040
601.09	28.750
601.42	28.492
601.76	29.167
602.09	29.243
602.42	28.930
602.76	28.666
603.09	29.476
603.42	29.170
603.76	29.517
604.09	29.475
604.42	29.850
604.76	28.565
605.09	29.385
605.42	30.053
605.75	28.978
606.09	28.850
606.42	28.948
606.75	29.025
607.09	28.981
607.42	28.785
607.75	29.095
608.08	29.869
608.42	29.281
608.75	29.206
609.08	30.200
609.41	30.045
609.75	28.669
610.08	29.951
610.41	30.169
610.74	30.222
611.07	30.172
611.41	28.996
611.74	30.026
612.07	30.559
612.40	29.158
612.73	30.264
613.07	29.499
613.40	30.159
613.73	29.428
614.06	30.148
614.39	30.891
614.72	29.218
615.06	29.239
615.39	30.222
615.72	29.712
616.05	29.431
616.38	30.644
616.71	29.069
617.05	29.373
617.38	31.331
617.71	29.730
618.04	30.000
618.37	29.686
618.70	31.030
619.03	30.603
619.36	30.726
619.69	30.510
620.03	30.372
620.36	30.380
620.69	31.371
621.02	31.126
621.35	30.968
621.68	31.311
622.01	30.259
622.34	30.590
622.67	31.406
623.00	31.599
623.33	31.493
623.66	30.428
623.99	31.353
624.32	29.539
624.65	31.199
624.99	30.471
625.32	30.838
625.65	31.624
625.98	29.734
626.31	31.892
626.64	30.209
626.97	31.421
627.30	32.170
627.63	31.520
627.96	31.419
628.29	31.710
628.62	32.187
628.95	31.496
629.28	30.827
629.61	31.894
629.94	31.758
630.26	31.312
630.59	32.864
630.92	32.933
631.25	31.956
631.58	30.582
631.91	30.638
632.24	32.333
632.57	33.000
632.90	33.218
633.23	33.411
633.56	31.579
633.89	31.958
634.22	31.759
634.55	32.812
634.88	32.890
635.20	31.086
635.53	32.443
635.86	32.494
636.19	31.990
636.52	31.661
636.85	32.130
637.18	31.750
637.51	31.722
637.83	31.824
638.16	31.974
638.49	32.000
638.82	31.403
639.15	33.463
639.48	31.258
639.81	34.025
640.13	32.432
640.46	33.903
640.79	32.913
641.12	32.722
641.45	34.577
641.77	32.934
642.10	30.665
642.43	34.143
642.76	32.283
643.09	33.333
643.41	35.556
643.74	35.453
644.07	34.789
644.40	34.198
644.73	34.983
645.05	32.053
645.38	32.616
645.71	34.536
646.04	32.269
646.36	33.159
646.69	33.737
647.02	33.755
647.35	34.116
647.67	33.394
648.00	32.337
648.33	34.570
648.66	31.935
648.98	34.554
649.31	33.231
649.64	34.375
649.96	34.223
650.29	31.311
650.62	33.219
650.94	32.884
651.27	32.062
651.60	33.564
651.92	33.904
652.25	32.053
652.58	32.538
652.90	31.782
653.23	33.710
653.56	29.933
653.88	31.803
654.21	33.725
654.54	36.213
654.86	32.424
655.19	32.235
655.52	30.839
655.84	29.291
656.17	32.077
656.49	43.108
656.82	44.307
657.15	33.248
657.47	24.673
657.80	18.812
658.13	21.591
658.45	28.744
658.78	28.119
659.10	27.572
659.43	26.975
659.75	27.262
660.08	27.917
660.41	26.077
660.73	28.823
661.06	31.449
661.38	34.643
661.71	31.931
662.03	33.065
662.36	36.461
662.68	32.911
663.01	36.093
663.33	31.293
663.66	32.618
663.98	31.696
664.31	33.557
664.63	36.283
664.96	34.056
665.28	33.406
665.61	33.192
665.93	33.333
666.26	34.818
666.58	35.343
666.91	34.744
667.23	35.088
667.56	35.374
667.88	35.973
668.21	35.714
668.53	34.579
668.86	35.335
669.18	32.192
669.50	35.047
669.83	32.847
670.15	34.081
670.48	33.645
670.80	34.169
671.13	32.280
671.45	30.405
671.77	31.263
672.10	33.333
672.42	32.657
672.75	32.182
673.07	31.171
673.39	32.969
673.72	35.039
674.04	34.607
674.37	32.371
674.69	34.016
675.01	34.894
675.34	33.406
675.66	33.045
675.98	33.921
676.31	34.163
676.63	33.793
676.95	33.186
677.28	35.499
677.60	34.163
677.92	33.700
678.25	33.917
678.57	36.214
678.89	31.237
679.22	32.495
679.54	36.292
679.86	30.000
680.18	33.840
680.51	31.657
680.83	33.333
681.15	34.104
681.48	37.931
681.80	33.468
682.12	33.602
682.44	35.363
682.77	30.519
683.09	34.591
683.41	35.619
683.73	30.365
684.06	30.538
684.38	32.636
684.70	34.156
685.02	32.283
685.34	31.384
685.67	32.955
685.99	32.514
686.31	35.907
686.63	32.979
686.96	33.826
687.28	32.563
687.60	33.398
687.92	31.712
688.24	32.283
688.56	32.265
688.89	28.846
689.21	36.543
689.53	36.322
689.85	33.853
690.17	30.045
690.49	34.873
690.82	33.976
691.14	33.491
691.46	31.486
691.78	34.141
692.10	34.534
692.42	33.111
692.74	33.047
693.06	33.034
693.39	33.781
693.71	32.731
694.03	32.613
694.35	33.409
694.67	29.078
694.99	29.923
695.31	33.418
695.63	32.143
695.95	33.002
696.27	34.913
696.59	33.422
696.91	35.112
697.23	35.677
697.56	32.212
697.88	31.757
698.20	30.621
698.52	30.045
698.84	33.738
699.16	35.000
699.48	29.500
699.80	32.581
700.12	31.486
700.44	33.799
700.76	31.487
701.08	37.791
701.40	30.211
701.72	33.333
702.04	29.487
702.36	37.651
702.68	31.737
703.00	33.043
703.32	29.226
703.64	37.941
703.96	31.686
704.28	35.503
704.60	32.595
704.91	36.190
705.23	34.628
705.55	33.108
705.87	36.860
706.19	30.903
706.51	34.028
706.83	35.738
707.15	36.306
707.47	36.915
707.79	31.959
708.11	29.262
708.43	34.414
708.74	30.130
709.06	25.905
709.38	30.172
709.70	29.063
710.02	36.196
710.34	34.323
710.66	31.429
710.98	31.861
711.29	31.290
711.61	31.310
711.93	32.459
712.25	34.884
712.57	30.662
712.89	34.173
713.20	37.113
713.52	33.582
713.84	31.317
714.16	34.754
714.48	33.651
714.80	28.615
715.11	35.447
715.43	33.735
715.75	34.579
716.07	30.164
716.39	35.117
716.70	34.495
717.02	34.815
717.34	35.496
717.66	35.685
717.97	33.607
718.29	37.395
718.61	36.111
718.93	32.616
719.24	28.309
719.56	31.698
719.88	35.636
720.20	29.213
720.51	34.962
720.83	33.735
721.15	38.115
721.46	29.804
721.78	28.736
722.10	34.000
722.42	35.537
722.73	36.653
723.05	33.333
723.37	34.902
723.68	27.530
724.00	34.146
724.32	38.272
724.63	30.705
724.95	39.256
725.27	32.456
725.58	31.034
725.90	32.540
726.22	35.793
726.53	37.643
726.85	29.804
727.16	32.707
727.48	33.462
727.80	27.459
728.11	33.193
728.43	28.512
728.74	36.328
729.06	33.333
729.38	31.128
729.69	31.102
730.01	33.858
730.32	30.677
730.64	35.531
730.96	32.463
731.27	31.429
731.59	27.974
731.90	31.288
732.22	31.902
732.53	37.086
732.85	29.195
733.16	31.159
733.48	30.314
733.80	33.452
734.11	35.517
734.43	31.293
734.74	37.092
735.06	34.169
735.37	27.217
735.69	30.323
736.00	30.640
736.32	29.470
736.63	25.862
736.95	30.435
737.26	34.437
737.58	28.058
737.89	37.276
738.21	31.203
738.52	31.154
738.83	35.156
739.15	31.197
739.46	34.274
739.78	30.070
740.09	33.916
740.41	34.965
740.72	33.942
741.04	31.349
741.35	31.602
741.66	35.648
741.98	29.524
742.29	35.211
742.61	34.225
742.92	32.710
743.23	26.316
743.55	29.279
743.86	32.889
744.18	28.095
744.49	35.468
744.80	31.472
745.12	39.175
745.43	32.663
745.74	29.126
746.06	31.220
746.37	38.326
746.68	33.831
747.00	38.220
747.31	34.615
747.62	33.641
747.94	30.568
748.25	37.209
748.56	30.000
748.88	29.348
749.19	29.577
749.50	37.745
749.82	35.111
750.13	33.040
750.44	36.179
750.75	30.400
751.07	35.714
751.38	28.782
751.69	28.244
752.01	30.769
752.32	26.848
752.63	29.231
752.94	32.143
753.26	33.043
753.57	35.714
753.88	34.052
754.19	31.120
754.51	31.641
754.82	30.435
755.13	34.568
755.44	35.950
755.75	35.391
756.07	32.530
756.38	31.250
756.69	36.823
757.00	30.314
757.31	30.201
757.63	35.202
757.94	27.168
758.25	32.558
758.56	36.388
758.87	30.114
759.18	29.667
759.50	34.520
759.81	29.927
760.12	28.041
760.43	33.657
760.74	31.875
761.05	34.831
761.36	35.928
761.67	31.657
761.99	28.710
762.30	31.884
762.61	27.925
762.92	34.529
763.23	27.962
763.54	28.000
763.85	36.287
764.16	31.020
764.47	36.864
764.78	28.839
765.10	31.295
765.41	29.355
765.72	33.333
766.03	29.329
766.34	33.459
766.65	25.911
766.96	28.500
767.27	30.729
767.58	29.651
767.89	34.839
768.20	34.356
768.51	34.426
768.82	28.649
769.13	31.000
769.44	31.579
769.75	35.931
770.06	31.651
770.37	29.577
770.68	34.375
770.99	29.208
771.30	30.583
771.61	31.481
771.92	27.273
772.23	31.776
772.54	32.979
772.85	35.503
773.16	26.829
773.47	41.566
773.78	35.165
774.09	32.667
774.39	28.395
774.70	34.228
775.01	33.333
775.32	23.881
775.63	24.793
775.94	34.586
776.25	33.571
776.56	27.869
776.87	32.743
777.18	34.513
777.48	25.455
777.79	23.478
778.10	32.110
778.41	26.271
778.72	34.711
779.03	33.582
779.34	28.571
779.65	30.065
779.95	33.333
780.26	32.653
780.57	26.724
780.88	27.778
781.19	29.293
781.50	33.600
781.80	23.529
782.11	32.692
782.42	28.916
782.73	30.657
783.04	24.324
783.34	31.061
783.65	30.233
783.96	31.707
784.27	29.915
784.57	22.764
784.88	20.325
785.19	26.316
785.50	11.340
785.81	24.762
786.11	28.431
786.42	20.909
786.73	27.928
787.04	30.693
787.34	24.762
787.65	12.381
787.96	23.529
788.26	24.324
788.57	40.323
788.88	26.562
789.19	24.786
789.49	26.050
789.80	19.658
790.11	27.434
790.41	22.222
790.72	35.849
791.03	8.333
791.33	22.368
791.64	19.355
791.95	22.667
792.25	20.000
792.56	24.390
792.87	21.429
793.17	27.632
793.48	9.459
793.79	21.127
794.09	21.519
794.40	23.404
794.70	19.626
795.01	17.544
795.32	24.545
795.62	28.571
795.93	22.680
796.23	17.582
796.54	30.526
796.85	19.178
797.15	12.500
797.46	31.507
797.76	36.620
798.07	16.250
798.37	17.647
798.68	25.714
798.99	15.714
799.29	34.211
799.60	23.333
799.90	20.833
800.21	29.687
800.51	19.048
800.82	16.393
801.12	1.754
801.43	21.127
801.73	16.949
802.04	24.590
802.34	25.455
802.65	11.538
802.95	11.111
803.26	10.000
803.56	28.846
803.87	7.895
804.17	40.323
804.48	15.385
804.78	2.564
805.09	9.302
805.39	6.250
805.70	16.981
806.00	38.596
806.30	35.135
806.61	16.176
806.91	27.160
807.22	36.000
807.52	13.433
807.83	0.000
808.13	-1.587
808.43	16.364
808.74	18.182
809.04	22.642
809.35	30.137
809.65	36.842
809.95	32.353
810.26	13.725
810.56	-2.000
810.86	10.204
811.17	-28.571
811.47	21.154
811.77	16.129
812.08	0.000
812.38	11.905
812.69	13.043
812.99	3.226
813.29	-2.381
813.59	-62.963
813.90	12.766
814.20	9.302
814.50	16.667
814.81	28.333
815.11	4.878
815.41	0.000
815.72	22.857
816.02	-5.556
816.32	48.718
816.62	16.216
816.93	-14.706
817.23	0.000
817.53	-14.706
817.84	23.529
818.14	-6.250
818.44	-10.345
818.74	-9.677
819.04	-51.852
819.35	6.667
819.65	8.000
819.95	-23.333
820.25	0.000
820.56	-13.158
820.86	5.000
821.16	44.681
821.46	13.793
821.76	-2.564
822.07	-17.500
822.37	13.953
822.67	-10.000
822.97	-8.108
823.27	5.405
823.57	28.000
823.88	21.622
824.18	-80.952
824.48	30.769
824.78	-92.308
825.08	-21.739
825.38	16.667
825.69	-4.167
825.99	-95.000
826.29	-24.324
826.59	-5.882
826.89	8.000
827.19	-17.143
827.49	0.000
827.79	-28.125
828.09	23.333
828.39	4.348
828.70	-62.069
829.00	0.000
829.30	-5.556
829.60	40.625
829.90	0.000
830.20	-57.692
830.50	-14.286
830.80	-17.857
831.10	-2.564
831.40	19.048
831.70	-20.588
832.00	8.333
832.30	5.263
832.60	12.500
832.90	-50.000
833.20	-100.000
833.50	-33.333
833.80	60.000
834.10	-45.000
834.40	-41.667
834.70	16.667
835.00	19.231
835.30	4.167
835.60	10.345
835.90	-55.556
836.20	-118.182
836.50	-133.333
836.80	14.286
837.10	17.143
837.40	23.529
837.70	-190.909
838.00	-20.833
838.30	-50.000
838.60	33.333
838.90	15.000
839.19	-26.087
839.49	-26.087
839.79	-50.000
840.09	-30.435
840.39	-31.818
840.69	25.000
840.99	-5.263
841.29	-68.750
841.59	-42.857
841.88	-38.889
842.18	4.167
842.48	-64.706
842.78	-10.345
843.08	28.571
843.38	-61.538
843.68	-122.222
843.97	-46.154
844.27	-72.727
844.57	-240.000
844.87	12.000
845.17	-180.000
845.47	7.143
845.76	-166.667
846.06	0.000
846.36	-350.000
846.66	-90.000
846.96	-47.368
847.25	0.000
847.55	-100.000
847.85	-13.333
848.15	-130.000
848.44	46.154
848.74	-15.789
849.04	600.000
849.34	-66.667
849.63	-78.947
849.93	0.000
850.23	-75.000
850.53	-14.286
850.82	-80.000
851.12	-31.579
851.42	-700.000
851.71	-35.714
852.01	-16.667
852.31	-58.824
852.61	-13.333
852.90	-66.667
853.20	-200.000
853.50	-22.222
853.79	-42.105
854.09	-20.000
854.39	14.286
854.68	-30.435
854.98	-191.667
855.28	-48.276
855.57	56.250
855.87	-30.000
856.17	-53.333
856.46	-13.793
856.76	-60.000
857.05	-111.765
857.35	-138.462
857.65	-27.273
857.94	-25.926
858.24	-64.286
858.53	-14.286
858.83	-58.333
859.13	-166.667
859.42	0.000
859.72	-225.000
860.01	-333.333
860.31	-75.000
860.60	-400.000
860.90	-233.333
861.20	-112.500
861.49	-214.286
861.79	23.529
862.08	-200.000
862.38	-108.333
862.67	-61.538
862.97	-23.529
863.26	5.000
863.56	-29.412
863.85	600.000
864.15	-140.000
864.44	-46.154
864.74	65.000
865.03	-212.500
865.33	-266.667
865.62	-152.941
865.92	-575.000
866.21	-128.571
866.51	-83.333
866.80	-100.000
867.10	-66.667
867.39	-35.294
867.69	-13.043
867.98	-214.286
868.27	-440.000
868.57	-37.500
868.86	-200.000
869.16	-17.647
869.45	-183.333
869.75	-271.429
870.04	1800.000
870.33	8.333
870.63	-220.000
870.92	100.000
871.22	-108.333
871.51	-118.182
871.80	-25.000
872.10	-120.000
>>>>>End Processed Spectral Data<<<<<
