SpectraSuite Data File
++++++++++++++++++++++++++++++++++++
Date: Sat May 16 11:30:52 PDT 2015
User: schluterlab
Dark Spectrum Present: Yes
Reference Spectrum Present: Yes
Number of Sampled Component Spectra: 1
Spectrometers: USB2E3373
Integration Time (usec): 3000 (USB2E3373)
Spectra Averaged: 3 (USB2E3373)
Boxcar Smoothing: 0 (USB2E3373)
Correct for Electrical Dark: No (USB2E3373)
Strobe/Lamp Enabled: No (USB2E3373)
Correct for Detector Non-linearity: No (USB2E3373)
Correct for Stray Light: No (USB2E3373)
Number of Pixels in Processed Spectrum: 2048
>>>>>Begin Processed Spectral Data<<<<<
178.53	0.000
178.91	93.333
179.29	566.667
179.67	-1500.000
180.04	-123.077
180.42	1300.000
180.80	600.000
181.18	425.000
181.56	-150.000
181.94	1300.000
182.31	400.000
182.69	-38.462
183.07	-800.000
183.45	950.000
183.83	366.667
184.20	-228.571
184.58	-162.500
184.96	-550.000
185.34	118.750
185.72	-475.000
186.09	200.000
186.47	-137.500
186.85	-162.500
187.23	-175.000
187.61	-150.000
187.98	-250.000
188.36	-162.500
188.74	-25.000
189.12	1700.000
189.49	442.857
189.87	-83.333
190.25	525.000
190.63	0.000
191.00	-277.778
191.38	120.000
191.76	-73.333
192.14	340.000
192.51	-140.000
192.89	-366.667
193.27	0.000
193.65	-55.556
194.02	-285.714
194.40	366.667
194.78	-60.000
195.15	-2200.000
195.53	-63.636
195.91	-466.667
196.29	300.000
196.66	-800.000
197.04	2200.000
197.42	-300.000
197.79	-26.667
198.17	-233.333
198.55	-400.000
198.92	-1900.000
199.30	262.500
199.68	-400.000
200.05	-200.000
200.43	-244.444
200.81	-1800.000
201.18	-83.333
201.56	85.714
201.94	-33.333
202.31	-36.364
202.69	-60.000
203.07	-100.000
203.44	500.000
203.82	-250.000
204.19	-325.000
204.57	-275.000
204.95	-2000.000
205.32	-62.500
205.70	1600.000
206.08	-800.000
206.45	-77.778
206.83	-700.000
207.20	-450.000
207.58	-700.000
207.96	-400.000
208.33	-200.000
208.71	-100.000
209.08	260.000
209.46	-157.143
209.84	650.000
210.21	0.000
210.59	30.000
210.96	1300.000
211.34	-200.000
211.71	-700.000
212.09	275.000
212.46	950.000
212.84	-3100.000
213.22	100.000
213.59	141.667
213.97	-77.778
214.34	200.000
214.72	-120.000
215.09	-300.000
215.47	-183.333
215.84	-50.000
216.22	-100.000
216.59	6.667
216.97	-200.000
217.34	950.000
217.72	-171.429
218.09	-433.333
218.47	-214.286
218.84	114.286
219.22	-128.571
219.59	0.000
219.97	257.143
220.34	450.000
220.72	225.000
221.09	-84.615
221.47	0.000
221.84	566.667
222.22	-700.000
222.59	1400.000
222.97	-337.500
223.34	-1000.000
223.72	-333.333
224.09	-135.714
224.46	-250.000
224.84	-78.571
225.21	-157.143
225.59	-109.091
225.96	-237.500
226.34	-157.143
226.71	-122.222
227.08	-20.000
227.46	1400.000
227.83	-100.000
228.21	-225.000
228.58	900.000
228.95	-37.500
229.33	-1700.000
229.70	-260.000
230.08	-1100.000
230.45	-25.000
230.82	-133.333
231.20	-300.000
231.57	-500.000
231.95	2500.000
232.32	19.048
232.69	-211.111
233.07	-214.286
233.44	-750.000
233.81	-100.000
234.19	-66.667
234.56	-12.500
234.93	-3.125
235.31	-185.714
235.68	-128.571
236.05	-105.882
236.43	-40.909
236.80	-58.065
237.17	-25.000
237.55	-14.286
237.92	-95.455
238.29	-14.286
238.67	-29.412
239.04	-30.556
239.41	-54.839
239.79	-53.846
240.16	-28.571
240.53	-32.727
240.91	-15.385
241.28	-25.455
241.65	-1.538
242.02	-14.754
242.40	-22.951
242.77	-18.182
243.14	-40.678
243.51	-25.714
243.89	-15.190
244.26	-12.360
244.63	-16.842
245.00	-2.105
245.38	-1.695
245.75	-6.195
246.12	0.800
246.49	-14.173
246.87	-12.195
247.24	-18.644
247.61	-10.169
247.98	-9.155
248.36	-15.385
248.73	-9.494
249.10	-11.465
249.47	-9.357
249.84	-7.955
250.22	-11.310
250.59	-5.085
250.96	-1.047
251.33	-1.422
251.70	-2.404
252.08	-1.422
252.45	-7.583
252.82	-6.190
253.19	-8.936
253.56	-4.032
253.94	-5.907
254.31	-5.150
254.68	-4.472
255.05	-4.839
255.42	-4.365
255.79	-6.452
256.16	-5.882
256.54	-2.574
256.91	-3.788
257.28	-3.297
257.65	-4.965
258.02	-0.943
258.39	-0.669
258.76	-7.770
259.14	-5.864
259.51	-5.574
259.88	0.000
260.25	-2.484
260.62	-5.466
260.99	-2.374
261.36	-1.220
261.73	0.289
262.10	-1.111
262.47	-4.843
262.85	-0.286
263.22	-6.017
263.59	-3.077
263.96	-1.159
264.33	-2.981
264.70	-3.591
265.07	-3.846
265.44	-2.584
265.81	-4.134
266.18	-3.291
266.55	-0.980
266.92	-1.259
267.29	-1.453
267.66	-3.951
268.03	-1.932
268.40	-0.939
268.77	-3.133
269.14	-3.016
269.51	-2.069
269.88	-6.422
270.25	-2.331
270.62	-1.373
270.99	-3.829
271.36	-3.030
271.73	-2.018
272.10	-1.602
272.47	-2.444
272.84	1.556
273.21	-2.064
273.58	-1.758
273.95	-2.412
274.32	-3.167
274.69	1.969
275.06	-1.840
275.43	-3.795
275.80	1.426
276.17	-1.046
276.54	-0.611
276.91	-0.412
277.28	-1.014
277.65	-2.273
278.02	-0.626
278.39	-0.196
278.76	-1.594
279.13	-2.964
279.50	-1.789
279.87	-1.691
280.23	-3.644
280.60	-0.596
280.97	-2.136
281.34	-2.128
281.71	-0.769
282.08	-2.218
282.45	-5.295
282.82	-1.550
283.19	-1.636
283.56	1.648
283.92	-0.707
284.29	-2.788
284.66	0.899
285.03	1.426
285.40	-0.554
285.77	-0.175
286.14	0.000
286.51	-2.131
286.87	-1.089
287.24	-0.853
287.61	-0.331
287.98	-3.293
288.35	-2.479
288.72	-0.509
289.08	-4.237
289.45	-0.673
289.82	-3.979
290.19	1.806
290.56	-2.479
290.93	-1.113
291.29	-2.107
291.66	-1.127
292.03	-0.314
292.40	-1.355
292.77	-1.863
293.13	-1.463
293.50	-0.892
293.87	-1.074
294.24	1.207
294.60	-3.788
294.97	-1.669
295.34	-1.481
295.71	-1.190
296.08	-2.611
296.44	-2.289
296.81	0.712
297.18	-1.127
297.55	-1.271
297.91	-0.139
298.28	-2.603
298.65	-2.232
299.02	0.000
299.38	-0.535
299.75	-0.408
300.12	-0.513
300.48	-0.512
300.85	-1.442
301.22	-0.259
301.59	-1.430
301.95	0.630
302.32	-2.868
302.69	-0.367
303.05	0.000
303.42	-1.125
303.79	-1.077
304.15	1.540
304.52	1.284
304.89	-0.945
305.25	-0.366
305.62	-1.175
305.99	1.296
306.35	0.444
306.72	-1.139
307.09	-0.114
307.45	0.114
307.82	-0.223
308.19	-0.224
308.55	0.218
308.92	-0.215
309.29	-0.324
309.65	-0.106
310.02	0.972
310.38	-0.541
310.75	-1.127
311.12	0.413
311.48	0.209
311.85	2.266
312.22	1.030
312.58	1.831
312.95	0.612
313.31	0.899
313.68	2.412
314.05	1.484
314.41	0.604
314.78	0.500
315.14	1.974
315.51	2.330
315.87	3.195
316.24	2.041
316.61	3.647
316.97	1.095
317.34	0.674
317.70	1.577
318.07	2.612
318.43	2.809
318.80	4.225
319.16	1.970
319.53	2.726
319.89	2.916
320.26	4.412
320.62	2.212
320.99	4.179
321.35	2.463
321.72	3.071
322.08	5.242
322.45	3.960
322.81	5.476
323.18	5.956
323.54	6.007
323.91	6.209
324.27	7.319
324.64	6.764
325.00	8.202
325.37	7.692
325.73	9.799
326.10	8.503
326.46	9.632
326.83	11.234
327.19	9.925
327.56	11.584
327.92	10.790
328.29	11.775
328.65	12.182
329.01	12.633
329.38	13.113
329.74	14.835
330.11	12.965
330.47	14.714
330.84	15.124
331.20	14.711
331.56	14.494
331.93	15.364
332.29	15.799
332.66	16.681
333.02	15.837
333.38	15.950
333.75	17.008
334.11	17.156
334.48	16.858
334.84	19.073
335.20	17.730
335.57	17.780
335.93	19.875
336.29	17.715
336.66	17.269
337.02	19.189
337.38	18.717
337.75	17.910
338.11	19.589
338.47	18.505
338.84	20.327
339.20	18.541
339.56	20.321
339.93	17.460
340.29	18.601
340.65	19.056
341.02	19.393
341.38	18.618
341.74	19.560
342.11	18.601
342.47	18.455
342.83	18.052
343.20	19.471
343.56	18.367
343.92	19.616
344.28	19.512
344.65	17.987
345.01	18.235
345.37	19.435
345.73	18.085
346.10	17.416
346.46	18.115
346.82	18.845
347.19	18.817
347.55	19.342
347.91	18.504
348.27	17.900
348.63	19.225
349.00	18.775
349.36	16.940
349.72	19.108
350.08	19.006
350.45	18.361
350.81	18.949
351.17	17.685
351.53	17.900
351.89	18.674
352.26	18.837
352.62	19.201
352.98	18.987
353.34	18.785
353.70	17.992
354.07	19.197
354.43	17.628
354.79	17.274
355.15	19.010
355.51	18.438
355.87	19.209
356.24	17.712
356.60	20.145
356.96	19.323
357.32	19.002
357.68	18.008
358.04	18.399
358.40	18.794
358.77	19.165
359.13	19.051
359.49	19.199
359.85	18.902
360.21	19.863
360.57	19.729
360.93	19.704
361.29	19.806
361.66	18.750
362.02	19.379
362.38	19.222
362.74	19.487
363.10	19.656
363.46	19.516
363.82	20.262
364.18	20.043
364.54	21.301
364.90	19.776
365.26	19.330
365.62	21.169
365.98	20.839
366.35	19.648
366.71	19.591
367.07	20.042
367.43	20.590
367.79	19.725
368.15	18.634
368.51	20.000
368.87	21.016
369.23	20.632
369.59	20.764
369.95	20.578
370.31	22.011
370.67	20.246
371.03	21.283
371.39	20.721
371.75	21.316
372.11	21.377
372.47	20.029
372.83	21.766
373.19	20.714
373.55	21.816
373.91	21.764
374.27	21.081
374.63	21.463
374.99	21.766
375.35	20.659
375.71	22.552
376.07	21.971
376.42	20.331
376.78	21.830
377.14	22.915
377.50	22.308
377.86	21.977
378.22	22.550
378.58	22.359
378.94	21.147
379.30	22.364
379.66	22.951
380.02	22.400
380.38	22.236
380.74	22.509
381.09	22.964
381.45	23.866
381.81	22.686
382.17	23.684
382.53	23.404
382.89	24.222
383.25	24.262
383.61	23.526
383.97	24.250
384.32	24.531
384.68	24.063
385.04	23.188
385.40	23.920
385.76	24.878
386.12	23.298
386.48	25.124
386.83	24.110
387.19	24.567
387.55	24.955
387.91	25.015
388.27	24.125
388.62	25.120
388.98	24.712
389.34	25.520
389.70	24.970
390.06	24.052
390.42	24.679
390.77	25.868
391.13	25.031
391.49	26.263
391.85	25.436
392.20	24.697
392.56	24.679
392.92	26.070
393.28	26.406
393.64	25.917
393.99	26.031
394.35	25.669
394.71	25.510
395.07	25.424
395.42	25.507
395.78	24.953
396.14	26.480
396.50	25.566
396.85	25.231
397.21	25.942
397.57	26.565
397.92	25.585
398.28	26.500
398.64	26.472
399.00	25.787
399.35	25.141
399.71	26.190
400.07	26.687
400.42	26.277
400.78	24.687
401.14	26.228
401.49	25.413
401.85	26.236
402.21	26.937
402.57	25.910
402.92	26.683
403.28	25.551
403.63	24.985
403.99	25.420
404.35	24.758
404.70	25.512
405.06	26.182
405.42	24.908
405.77	25.170
406.13	25.724
406.49	26.423
406.84	26.215
407.20	26.796
407.55	25.332
407.91	25.972
408.27	25.613
408.62	26.278
408.98	25.773
409.34	26.143
409.69	26.213
410.05	25.045
410.40	25.015
410.76	25.726
411.11	26.122
411.47	25.959
411.83	25.489
412.18	24.876
412.54	25.503
412.89	25.273
413.25	24.970
413.60	24.909
413.96	24.646
414.31	26.177
414.67	26.032
415.03	25.679
415.38	26.675
415.74	25.773
416.09	25.192
416.45	25.595
416.80	26.203
417.16	25.316
417.51	25.607
417.87	25.696
418.22	25.664
418.58	27.599
418.93	25.383
419.29	25.533
419.64	25.251
420.00	26.671
420.35	25.606
420.71	26.771
421.06	26.805
421.42	25.059
421.77	26.186
422.12	26.693
422.48	25.387
422.83	26.367
423.19	26.169
423.54	27.147
423.90	26.374
424.25	26.527
424.61	27.503
424.96	27.033
425.31	27.390
425.67	26.304
426.02	26.965
426.38	27.526
426.73	26.943
427.09	26.532
427.44	27.841
427.79	27.035
428.15	27.648
428.50	27.625
428.85	27.218
429.21	28.002
429.56	28.542
429.92	27.054
430.27	27.916
430.62	27.952
430.98	26.137
431.33	27.908
431.68	28.043
432.04	28.987
432.39	27.749
432.74	28.777
433.10	28.869
433.45	27.288
433.80	29.003
434.16	28.103
434.51	28.548
434.86	29.350
435.22	29.343
435.57	28.029
435.92	28.546
436.28	29.139
436.63	28.830
436.98	29.095
437.34	29.002
437.69	27.596
438.04	28.928
438.39	28.580
438.75	28.813
439.10	28.540
439.45	29.149
439.81	28.494
440.16	28.563
440.51	29.353
440.86	28.803
441.22	27.805
441.57	29.368
441.92	29.309
442.27	28.463
442.63	28.970
442.98	28.047
443.33	29.325
443.68	28.400
444.03	30.010
444.39	29.369
444.74	30.396
445.09	29.770
445.44	30.501
445.79	29.985
446.15	29.573
446.50	28.634
446.85	29.194
447.20	29.622
447.55	29.392
447.91	29.815
448.26	29.553
448.61	29.711
448.96	30.308
449.31	29.481
449.66	30.395
450.02	29.252
450.37	28.058
450.72	29.605
451.07	30.233
451.42	28.748
451.77	29.384
452.12	29.857
452.47	30.793
452.83	30.052
453.18	29.791
453.53	29.789
453.88	30.622
454.23	30.472
454.58	31.200
454.93	29.975
455.28	30.147
455.63	29.975
455.98	30.000
456.34	29.733
456.69	31.019
457.04	30.240
457.39	30.562
457.74	29.711
458.09	31.032
458.44	30.831
458.79	30.101
459.14	30.234
459.49	30.965
459.84	30.242
460.19	30.072
460.54	30.188
460.89	29.316
461.24	31.026
461.59	30.305
461.94	31.127
462.29	31.626
462.64	31.159
462.99	31.124
463.34	29.912
463.69	30.407
464.04	30.404
464.39	30.227
464.74	30.556
465.09	30.066
465.44	30.964
465.79	30.908
466.14	30.955
466.49	30.628
466.84	31.152
467.19	31.546
467.54	30.570
467.89	31.073
468.24	30.938
468.59	30.856
468.94	31.061
469.29	31.189
469.64	31.334
469.99	31.263
470.34	31.329
470.68	30.451
471.03	30.764
471.38	30.903
471.73	32.448
472.08	30.857
472.43	30.824
472.78	30.733
473.13	29.622
473.48	31.142
473.83	30.769
474.17	31.592
474.52	32.417
474.87	31.760
475.22	29.794
475.57	31.056
475.92	30.778
476.27	30.743
476.61	31.268
476.96	30.799
477.31	31.647
477.66	31.489
478.01	31.659
478.36	30.330
478.70	31.927
479.05	31.585
479.40	32.124
479.75	31.142
480.10	30.853
480.45	30.754
480.79	30.997
481.14	31.912
481.49	31.365
481.84	31.669
482.19	30.927
482.53	32.244
482.88	31.894
483.23	31.549
483.58	32.424
483.92	31.581
484.27	30.882
484.62	31.145
484.97	31.294
485.31	29.856
485.66	29.092
486.01	29.118
486.36	30.880
486.70	30.588
487.05	30.820
487.40	30.582
487.75	30.320
488.09	29.586
488.44	31.022
488.79	30.916
489.13	31.153
489.48	30.302
489.83	30.742
490.17	31.781
490.52	32.020
490.87	31.132
491.22	31.200
491.56	31.852
491.91	31.966
492.26	30.991
492.60	31.161
492.95	31.461
493.30	31.491
493.64	30.701
493.99	31.262
494.34	31.667
494.68	32.865
495.03	31.310
495.37	32.006
495.72	31.483
496.07	31.394
496.41	32.793
496.76	31.461
497.11	31.842
497.45	32.088
497.80	31.966
498.14	30.796
498.49	31.944
498.84	31.262
499.18	32.066
499.53	31.856
499.87	32.674
500.22	32.304
500.56	31.816
500.91	31.921
501.26	32.363
501.60	31.295
501.95	32.319
502.29	31.696
502.64	32.909
502.98	31.576
503.33	31.109
503.67	31.609
504.02	31.579
504.36	32.353
504.71	31.206
505.06	31.453
505.40	32.884
505.75	31.504
506.09	32.103
506.44	31.429
506.78	32.313
507.13	31.411
507.47	31.821
507.82	31.802
508.16	31.917
508.51	31.479
508.85	32.039
509.19	31.397
509.54	32.241
509.88	32.021
510.23	32.233
510.57	32.646
510.92	32.062
511.26	32.057
511.61	31.911
511.95	32.974
512.30	32.051
512.64	31.219
512.98	32.948
513.33	32.290
513.67	31.547
514.02	32.383
514.36	33.075
514.70	32.654
515.05	33.562
515.39	31.892
515.74	33.159
516.08	32.450
516.42	33.144
516.77	32.293
517.11	33.009
517.46	33.254
517.80	33.755
518.14	32.367
518.49	32.397
518.83	32.344
519.17	32.860
519.52	31.926
519.86	34.528
520.20	33.252
520.55	33.354
520.89	32.874
521.23	32.051
521.58	32.602
521.92	32.552
522.26	32.698
522.61	32.573
522.95	32.993
523.29	33.480
523.64	32.605
523.98	32.400
524.32	33.375
524.66	32.050
525.01	33.205
525.35	32.796
525.69	32.726
526.04	33.812
526.38	32.973
526.72	32.375
527.06	33.268
527.41	33.003
527.75	32.871
528.09	33.024
528.43	32.721
528.78	32.098
529.12	34.123
529.46	32.281
529.80	32.085
530.15	33.484
530.49	33.053
530.83	33.661
531.17	33.131
531.51	32.820
531.86	31.995
532.20	32.861
532.54	33.690
532.88	31.950
533.22	33.422
533.57	32.963
533.91	32.022
534.25	31.301
534.59	31.855
534.93	31.487
535.27	32.096
535.62	31.777
535.96	31.674
536.30	31.872
536.64	31.873
536.98	33.404
537.32	32.965
537.66	32.383
538.01	32.096
538.35	31.824
538.69	31.818
539.03	31.415
539.37	31.803
539.71	31.621
540.05	32.282
540.39	32.479
540.73	31.652
541.07	32.650
541.42	31.533
541.76	31.628
542.10	32.005
542.44	31.912
542.78	31.615
543.12	31.840
543.46	30.274
543.80	30.635
544.14	32.102
544.48	32.152
544.82	31.394
545.16	31.791
545.50	30.686
545.84	31.850
546.18	32.386
546.52	32.361
546.86	31.766
547.20	31.646
547.54	31.267
547.88	32.250
548.22	29.620
548.56	31.129
548.90	31.402
549.24	31.184
549.58	31.898
549.92	32.085
550.26	32.731
550.60	31.010
550.94	31.898
551.28	31.904
551.62	31.979
551.96	31.548
552.30	32.334
552.64	31.809
552.98	31.745
553.32	30.664
553.66	32.444
554.00	33.262
554.34	31.625
554.68	31.798
555.02	31.983
555.36	31.560
555.69	31.375
556.03	31.860
556.37	31.792
556.71	32.212
557.05	32.520
557.39	31.626
557.73	32.385
558.07	32.178
558.41	31.862
558.75	33.308
559.08	31.518
559.42	33.308
559.76	32.669
560.10	32.662
560.44	32.225
560.78	31.176
561.12	30.918
561.45	31.575
561.79	30.871
562.13	31.627
562.47	31.513
562.81	30.976
563.15	31.840
563.48	31.859
563.82	31.575
564.16	31.508
564.50	31.317
564.84	31.548
565.17	31.167
565.51	30.639
565.85	31.643
566.19	30.962
566.52	31.246
566.86	30.594
567.20	30.206
567.54	30.478
567.88	30.262
568.21	30.369
568.55	29.799
568.89	28.231
569.23	29.477
569.56	28.247
569.90	30.252
570.24	29.087
570.57	28.049
570.91	28.052
571.25	28.080
571.59	28.130
571.92	27.321
572.26	27.771
572.60	27.862
572.93	28.027
573.27	27.652
573.61	27.273
573.95	27.408
574.28	27.110
574.62	27.733
574.96	26.869
575.29	26.982
575.63	27.422
575.97	26.861
576.30	26.418
576.64	27.493
576.98	26.574
577.31	26.961
577.65	26.616
577.98	26.490
578.32	26.331
578.66	26.443
578.99	27.036
579.33	27.179
579.67	26.300
580.00	26.488
580.34	26.590
580.67	26.330
581.01	26.440
581.35	26.825
581.68	26.031
582.02	26.326
582.35	26.289
582.69	27.028
583.02	26.967
583.36	26.787
583.70	26.728
584.03	27.020
584.37	26.306
584.70	26.963
585.04	25.722
585.37	26.181
585.71	26.125
586.04	26.976
586.38	26.811
586.72	27.339
587.05	26.621
587.39	26.687
587.72	26.785
588.06	26.355
588.39	27.029
588.73	26.795
589.06	27.909
589.40	27.654
589.73	27.691
590.07	27.058
590.40	27.159
590.73	27.949
591.07	27.910
591.40	27.903
591.74	28.671
592.07	27.973
592.41	27.643
592.74	26.941
593.08	27.532
593.41	26.678
593.75	26.607
594.08	27.534
594.41	27.874
594.75	27.671
595.08	27.556
595.42	27.746
595.75	27.012
596.09	28.056
596.42	28.028
596.75	27.339
597.09	28.228
597.42	27.630
597.75	27.059
598.09	27.926
598.42	27.486
598.76	27.118
599.09	26.875
599.42	26.797
599.76	27.218
600.09	27.672
600.42	27.231
600.76	27.307
601.09	26.548
601.42	26.989
601.76	26.908
602.09	26.830
602.42	27.531
602.76	26.838
603.09	26.532
603.42	26.873
603.76	26.805
604.09	26.752
604.42	26.603
604.76	27.737
605.09	27.260
605.42	28.147
605.75	26.520
606.09	27.107
606.42	26.477
606.75	26.921
607.09	27.614
607.42	27.289
607.75	26.799
608.08	27.610
608.42	27.673
608.75	27.009
609.08	27.813
609.41	27.055
609.75	26.036
610.08	28.039
610.41	28.627
610.74	28.385
611.07	27.688
611.41	27.181
611.74	28.329
612.07	27.712
612.40	27.026
612.73	28.110
613.07	27.738
613.40	28.571
613.73	28.229
614.06	27.897
614.39	28.298
614.72	27.095
615.06	27.500
615.39	26.913
615.72	28.246
616.05	27.830
616.38	28.207
616.71	28.108
617.05	27.624
617.38	28.297
617.71	27.211
618.04	27.950
618.37	27.421
618.70	28.488
619.03	28.707
619.36	28.682
619.69	28.571
620.03	28.719
620.36	28.622
620.69	29.289
621.02	29.680
621.35	28.629
621.68	28.361
622.01	28.883
622.34	28.261
622.67	28.594
623.00	29.227
623.33	28.731
623.66	27.770
623.99	28.571
624.32	28.423
624.65	28.403
624.99	28.678
625.32	28.368
625.65	29.448
625.98	28.482
626.31	28.548
626.64	27.950
626.97	29.024
627.30	28.255
627.63	28.325
627.96	29.765
628.29	29.136
628.62	29.608
628.95	30.807
629.28	29.511
629.61	28.263
629.94	28.639
630.26	30.616
630.59	29.749
630.92	30.631
631.25	30.645
631.58	31.534
631.91	29.681
632.24	30.111
632.57	31.333
632.90	30.690
633.23	30.724
633.56	30.760
633.89	31.368
634.22	30.342
634.55	30.649
634.88	31.560
635.20	31.336
635.53	31.043
635.86	29.975
636.19	30.281
636.52	29.271
636.85	30.205
637.18	28.500
637.51	30.979
637.83	30.493
638.16	30.921
638.49	29.931
638.82	29.344
639.15	30.610
639.48	28.534
639.81	31.950
640.13	32.703
640.46	33.048
640.79	29.552
641.12	30.183
641.45	30.990
641.77	30.389
642.10	31.571
642.43	31.411
642.76	31.496
643.09	30.000
643.41	32.540
643.74	31.638
644.07	30.265
644.40	31.280
644.73	32.343
645.05	30.384
645.38	33.775
645.71	34.880
646.04	33.613
646.36	31.065
646.69	33.218
647.02	30.866
647.35	31.408
647.67	31.204
648.00	33.216
648.33	34.401
648.66	29.839
648.98	30.573
649.31	30.923
649.64	31.719
649.96	30.298
650.29	29.672
650.62	32.530
650.94	32.884
651.27	33.969
651.60	29.066
651.92	30.308
652.25	30.551
652.58	28.109
652.90	28.732
653.23	28.226
653.56	30.268
653.88	28.033
654.21	32.550
654.54	34.385
654.86	27.769
655.19	30.516
655.52	27.211
655.84	23.204
656.17	24.614
656.49	33.467
656.82	35.371
657.15	26.704
657.47	19.707
657.80	15.190
658.13	17.389
658.45	23.293
658.78	23.563
659.10	23.761
659.43	23.484
659.75	23.958
660.08	24.167
660.41	24.032
660.73	26.183
661.06	29.130
661.38	31.607
661.71	30.975
662.03	30.645
662.36	31.983
662.68	31.646
663.01	34.820
663.33	31.066
663.66	34.120
663.98	32.143
664.31	32.215
664.63	34.513
664.96	31.453
665.28	30.803
665.61	30.655
665.93	31.687
666.26	31.781
666.58	31.601
666.91	32.739
667.23	31.798
667.56	30.839
667.88	33.484
668.21	33.180
668.53	30.607
668.86	33.256
669.18	31.279
669.50	28.738
669.83	31.387
670.15	31.614
670.48	31.776
670.80	30.524
671.13	27.991
671.45	32.658
671.77	28.051
672.10	29.191
672.42	29.151
672.75	32.727
673.07	27.027
673.39	27.869
673.72	30.118
674.04	28.238
674.37	29.072
674.69	29.303
675.01	28.511
675.34	30.586
675.66	29.806
675.98	26.432
676.31	30.543
676.63	30.805
676.95	26.991
677.28	29.930
677.60	31.900
677.92	29.736
678.25	29.540
678.57	32.510
678.89	27.883
679.22	28.721
679.54	30.178
679.86	26.600
680.18	28.517
680.51	23.836
680.83	29.333
681.15	26.590
681.48	29.412
681.80	28.427
682.12	28.974
682.44	26.326
682.77	24.459
683.09	29.140
683.41	30.531
683.73	26.712
684.06	27.097
684.38	27.824
684.70	30.453
685.02	26.378
685.34	26.511
685.67	26.894
685.99	26.087
686.31	27.289
686.63	27.660
686.96	27.726
687.28	27.938
687.60	26.953
687.92	26.265
688.24	27.165
688.56	26.253
688.89	24.145
689.21	28.884
689.53	29.195
689.85	29.176
690.17	24.439
690.49	29.561
690.82	27.229
691.14	28.538
691.46	27.938
691.78	24.890
692.10	29.237
692.42	26.444
692.74	25.536
693.06	27.416
693.39	28.188
693.71	26.185
694.03	26.350
694.35	23.928
694.67	29.787
694.99	24.041
695.31	28.571
695.63	25.510
695.95	26.303
696.27	29.177
696.59	27.807
696.91	25.281
697.23	26.823
697.56	27.404
697.88	25.450
698.20	25.696
698.52	26.233
698.84	28.398
699.16	25.238
699.48	27.750
699.80	26.566
700.12	27.708
700.44	25.978
700.76	25.073
701.08	26.163
701.40	24.773
701.72	26.852
702.04	27.244
702.36	29.518
702.68	25.749
703.00	23.478
703.32	24.642
703.64	26.471
703.96	25.581
704.28	27.515
704.60	25.316
704.91	24.127
705.23	26.861
705.55	27.027
705.87	28.328
706.19	27.778
706.51	28.472
706.83	29.508
707.15	29.936
707.47	30.854
707.79	24.742
708.11	22.646
708.43	24.439
708.74	27.013
709.06	23.955
709.38	27.299
709.70	24.687
710.02	26.380
710.34	28.713
710.66	22.540
710.98	26.814
711.29	21.935
711.61	28.754
711.93	21.311
712.25	24.917
712.57	25.087
712.89	25.899
713.20	24.742
713.52	25.373
713.84	25.979
714.16	27.869
714.48	24.762
714.80	25.846
715.11	20.749
715.43	27.410
715.75	26.168
716.07	21.311
716.39	25.084
716.70	28.920
717.02	27.778
717.34	27.863
717.66	29.461
717.97	25.820
718.29	23.529
718.61	26.984
718.93	25.090
719.24	23.162
719.56	21.887
719.88	27.273
720.20	20.974
720.51	28.195
720.83	22.892
721.15	22.131
721.46	28.627
721.78	21.839
722.10	25.600
722.42	24.793
722.73	21.912
723.05	20.884
723.37	27.843
723.68	26.721
724.00	27.236
724.32	25.103
724.63	24.066
724.95	30.165
725.27	25.877
725.58	25.431
725.90	25.000
726.22	23.616
726.53	25.475
726.85	15.686
727.16	20.677
727.48	23.846
727.80	20.902
728.11	19.748
728.43	24.380
728.74	22.656
729.06	21.212
729.38	23.346
729.69	21.260
730.01	28.346
730.32	24.701
730.64	26.740
730.96	24.627
731.27	21.071
731.59	23.473
731.90	18.405
732.22	22.393
732.53	23.179
732.85	23.490
733.16	21.739
733.48	23.693
733.80	22.776
734.11	20.000
734.43	20.748
734.74	22.255
735.06	21.317
735.37	23.242
735.69	20.000
736.00	16.498
736.32	24.834
736.63	17.931
736.95	19.203
737.26	22.185
737.58	19.065
737.89	22.222
738.21	15.789
738.52	24.615
738.83	26.953
739.15	20.513
739.46	21.371
739.78	25.524
740.09	21.678
740.41	18.182
740.72	22.993
741.04	19.841
741.35	19.048
741.66	20.833
741.98	17.619
742.29	26.761
742.61	26.738
742.92	23.364
743.23	14.035
743.55	23.423
743.86	25.333
744.18	17.619
744.49	27.094
744.80	21.827
745.12	19.072
745.43	23.116
745.74	20.388
746.06	21.463
746.37	23.789
746.68	23.383
747.00	20.942
747.31	13.942
747.62	23.502
747.94	21.397
748.25	25.581
748.56	18.571
748.88	14.130
749.19	23.474
749.50	29.902
749.82	26.222
750.13	25.991
750.44	19.512
750.75	22.400
751.07	20.714
751.38	16.974
751.69	19.084
752.01	16.538
752.32	22.568
752.63	19.231
752.94	17.857
753.26	20.000
753.57	25.446
753.88	21.552
754.19	15.768
754.51	21.484
754.82	22.134
755.13	18.930
755.44	19.421
755.75	20.988
756.07	17.671
756.38	17.187
756.69	22.022
757.00	19.861
757.31	20.134
757.63	18.692
757.94	19.075
758.25	13.953
758.56	23.181
758.87	20.170
759.18	19.333
759.50	19.929
759.81	15.328
760.12	17.905
760.43	22.977
760.74	20.000
761.05	18.539
761.36	20.659
761.67	16.864
761.99	14.516
762.30	18.478
762.61	18.113
762.92	18.834
763.23	19.431
763.54	14.222
763.85	24.473
764.16	20.816
764.47	22.034
764.78	17.978
765.10	17.266
765.41	16.452
765.72	19.182
766.03	14.488
766.34	16.541
766.65	20.243
766.96	21.500
767.27	13.542
767.58	15.698
767.89	14.194
768.20	15.951
768.51	15.847
768.82	15.676
769.13	17.500
769.44	21.930
769.75	18.182
770.06	18.349
770.37	23.005
770.68	16.146
770.99	14.851
771.30	12.136
771.61	18.519
771.92	14.286
772.23	19.626
772.54	11.170
772.85	10.059
773.16	16.463
773.47	13.855
773.78	20.330
774.09	12.667
774.39	22.840
774.70	10.067
775.01	7.971
775.32	8.209
775.63	9.091
775.94	19.549
776.25	22.143
776.56	17.213
776.87	17.699
777.18	27.434
777.48	4.545
777.79	16.522
778.10	7.339
778.41	17.797
778.72	14.876
779.03	20.896
779.34	14.286
779.65	24.837
779.95	15.942
780.26	6.803
780.57	0.000
780.88	20.370
781.19	6.061
781.50	12.000
781.80	12.418
782.11	21.795
782.42	15.663
782.73	10.219
783.04	15.541
783.34	22.727
783.65	17.054
783.96	7.317
784.27	13.675
784.57	13.008
784.88	1.626
785.19	24.561
785.50	-8.247
785.81	14.286
786.11	14.706
786.42	12.727
786.73	9.009
787.04	19.802
787.34	20.952
787.65	5.714
787.96	16.667
788.26	7.207
788.57	13.710
788.88	16.406
789.19	6.838
789.49	17.647
789.80	12.821
790.11	17.699
790.41	6.061
790.72	16.038
791.03	6.944
791.33	15.789
791.64	11.828
791.95	12.000
792.25	1.429
792.56	10.976
792.87	13.265
793.17	10.526
793.48	-9.459
793.79	-5.634
794.09	1.266
794.40	10.638
794.70	7.477
795.01	-5.263
795.32	10.000
795.62	4.464
795.93	8.247
796.23	7.692
796.54	18.947
796.85	0.000
797.15	0.000
797.46	12.329
797.76	4.225
798.07	16.250
798.37	-1.471
798.68	21.429
798.99	1.429
799.29	15.789
799.60	5.000
799.90	-4.167
800.21	4.688
800.51	0.000
800.82	6.557
801.12	3.509
801.43	-1.408
801.73	-25.424
802.04	13.115
802.34	16.364
802.65	-3.846
802.95	-12.963
803.26	-25.000
803.56	-9.615
803.87	-10.526
804.17	16.129
804.48	1.538
804.78	-12.821
805.09	-6.977
805.39	-46.875
805.70	-11.321
806.00	1.754
806.30	-5.405
806.61	14.706
806.91	-3.704
807.22	4.000
807.52	7.463
807.83	-1.613
808.13	7.937
808.43	-14.545
808.74	-7.576
809.04	-5.660
809.35	8.219
809.65	3.509
809.95	16.176
810.26	-1.961
810.56	-6.000
810.86	-4.082
811.17	-14.286
811.47	-23.077
811.77	-29.032
812.08	-26.316
812.38	4.762
812.69	-2.174
812.99	-12.903
813.29	9.524
813.59	-66.667
813.90	-17.021
814.20	-16.279
814.50	-8.333
814.81	-3.333
815.11	-4.878
815.41	3.333
815.72	-8.571
816.02	-38.889
816.32	10.256
816.62	-18.919
816.93	-14.706
817.23	0.000
817.53	-29.412
817.84	-8.824
818.14	-37.500
818.44	-20.690
818.74	-35.484
819.04	-18.519
819.35	-33.333
819.65	-24.000
819.95	0.000
820.25	-56.000
820.56	-2.632
820.86	-10.000
821.16	-4.255
821.46	8.621
821.76	-15.385
822.07	-12.500
822.37	-20.930
822.67	-30.000
822.97	-16.216
823.27	0.000
823.57	28.000
823.88	-8.108
824.18	-28.571
824.48	-26.923
824.78	-138.462
825.08	-52.174
825.38	-8.333
825.69	-62.500
825.99	-50.000
826.29	-13.514
826.59	-5.882
826.89	20.000
827.19	-20.000
827.49	0.000
827.79	-37.500
828.09	-16.667
828.39	-8.696
828.70	-41.379
829.00	-31.034
829.30	22.222
829.60	3.125
829.90	-38.889
830.20	-65.385
830.50	-90.476
830.80	-46.429
831.10	5.128
831.40	-71.429
831.70	-23.529
832.00	-20.833
832.30	-52.632
832.60	-68.750
832.90	-75.000
833.20	-164.706
833.50	-46.667
833.80	-26.667
834.10	-75.000
834.40	-50.000
834.70	-94.444
835.00	19.231
835.30	-66.667
835.60	-6.897
835.90	-50.000
836.20	-200.000
836.50	-125.000
836.80	-25.714
837.10	40.000
837.40	-47.059
837.70	-190.909
838.00	-16.667
838.30	-100.000
838.60	-9.524
838.90	-35.000
839.19	-26.087
839.49	-34.783
839.79	-66.667
840.09	-26.087
840.39	-59.091
840.69	-68.750
840.99	-73.684
841.29	-31.250
841.59	-14.286
841.88	-122.222
842.18	-41.667
842.48	-94.118
842.78	20.690
843.08	-35.714
843.38	-92.308
843.68	-188.889
843.97	-138.462
844.27	-163.636
844.57	-340.000
844.87	4.000
845.17	-140.000
845.47	-21.429
845.76	-222.222
846.06	0.000
846.36	-300.000
846.66	-150.000
846.96	-15.789
847.25	-20.833
847.55	-100.000
847.85	-53.333
848.15	-130.000
848.44	15.385
848.74	-5.263
849.04	500.000
849.34	-55.556
849.63	-63.158
849.93	0.000
850.23	-40.000
850.53	-33.333
850.82	-4.000
851.12	-57.895
851.42	-600.000
851.71	-28.571
852.01	-75.000
852.31	-82.353
852.61	-106.667
852.90	-66.667
853.20	-383.333
853.50	-72.222
853.79	-26.316
854.09	-80.000
854.39	14.286
854.68	-26.087
854.98	-216.667
855.28	-24.138
855.57	-81.250
855.87	-30.000
856.17	-113.333
856.46	6.897
856.76	-66.667
857.05	-64.706
857.35	-169.231
857.65	-136.364
857.94	-22.222
858.24	-150.000
858.53	-42.857
858.83	-125.000
859.13	-244.444
859.42	-23.810
859.72	-125.000
860.01	-400.000
860.31	-75.000
860.60	-440.000
860.90	-233.333
861.20	-275.000
861.49	-128.571
861.79	-11.765
862.08	-950.000
862.38	-183.333
862.67	-153.846
862.97	-11.765
863.26	30.000
863.56	-5.882
863.85	566.667
864.15	-130.000
864.44	-138.462
864.74	-15.000
865.03	-62.500
865.33	-100.000
865.62	-88.235
865.92	-650.000
866.21	-107.143
866.51	-75.000
866.80	-1800.000
867.10	-633.333
867.39	-5.882
867.69	26.087
867.98	-228.571
868.27	-340.000
868.57	-50.000
868.86	-163.636
869.16	23.529
869.45	-216.667
869.75	-200.000
870.04	1300.000
870.33	-191.667
870.63	-80.000
870.92	-188.889
871.22	8.333
871.51	-27.273
871.80	-133.333
872.10	0.000
>>>>>End Processed Spectral Data<<<<<
