SpectraSuite Data File
++++++++++++++++++++++++++++++++++++
Date: Sat May 16 11:42:09 PDT 2015
User: schluterlab
Dark Spectrum Present: Yes
Reference Spectrum Present: Yes
Number of Sampled Component Spectra: 1
Spectrometers: USB2E3373
Integration Time (usec): 3000 (USB2E3373)
Spectra Averaged: 3 (USB2E3373)
Boxcar Smoothing: 0 (USB2E3373)
Correct for Electrical Dark: No (USB2E3373)
Strobe/Lamp Enabled: No (USB2E3373)
Correct for Detector Non-linearity: No (USB2E3373)
Correct for Stray Light: No (USB2E3373)
Number of Pixels in Processed Spectrum: 2048
>>>>>Begin Processed Spectral Data<<<<<
178.53	0.000
178.91	113.333
179.29	100.000
179.67	-1700.000
180.04	-61.538
180.42	800.000
180.80	300.000
181.18	575.000
181.56	-75.000
181.94	600.000
182.31	750.000
182.69	61.538
183.07	-633.333
183.45	1700.000
183.83	433.333
184.20	-271.429
184.58	-300.000
184.96	-600.000
185.34	156.250
185.72	-250.000
186.09	300.000
186.47	-162.500
186.85	-125.000
187.23	0.000
187.61	-250.000
187.98	-375.000
188.36	-187.500
188.74	-25.000
189.12	1400.000
189.49	342.857
189.87	-41.667
190.25	525.000
190.63	-92.857
191.00	-155.556
191.38	500.000
191.76	13.333
192.14	740.000
192.51	-240.000
192.89	-500.000
193.27	0.000
193.65	-166.667
194.02	-285.714
194.40	533.333
194.78	-180.000
195.15	-700.000
195.53	-172.727
195.91	-283.333
196.29	180.000
196.66	-466.667
197.04	2500.000
197.42	-225.000
197.79	-26.667
198.17	-400.000
198.55	-850.000
198.92	-1400.000
199.30	350.000
199.68	-500.000
200.05	-255.556
200.43	-188.889
200.81	-1000.000
201.18	-91.667
201.56	285.714
201.94	-126.667
202.31	-18.182
202.69	50.000
203.07	-200.000
203.44	733.333
203.82	-350.000
204.19	-425.000
204.57	-225.000
204.95	-1200.000
205.32	-6.250
205.70	1000.000
206.08	-1500.000
206.45	16.667
206.83	-1050.000
207.20	0.000
207.58	-600.000
207.96	-433.333
208.33	-150.000
208.71	-100.000
209.08	230.000
209.46	-185.714
209.84	250.000
210.21	0.000
210.59	-15.000
210.96	1200.000
211.34	-216.667
211.71	-433.333
212.09	325.000
212.46	300.000
212.84	-2900.000
213.22	333.333
213.59	116.667
213.97	-77.778
214.34	100.000
214.72	-120.000
215.09	-366.667
215.47	-116.667
215.84	-110.000
216.22	-130.000
216.59	-6.667
216.97	-375.000
217.34	1500.000
217.72	-42.857
218.09	-266.667
218.47	-228.571
218.84	242.857
219.22	-157.143
219.59	0.000
219.97	300.000
220.34	350.000
220.72	262.500
221.09	-7.692
221.47	0.000
221.84	833.333
222.22	-800.000
222.59	2200.000
222.97	-325.000
223.34	-1350.000
223.72	-400.000
224.09	-92.857
224.46	-400.000
224.84	14.286
225.21	-214.286
225.59	-136.364
225.96	-225.000
226.34	-271.429
226.71	-77.778
227.08	-40.000
227.46	1400.000
227.83	-142.857
228.21	-287.500
228.58	600.000
228.95	-6.250
229.33	-1000.000
229.70	-360.000
230.08	-500.000
230.45	-100.000
230.82	-133.333
231.20	-2500.000
231.57	-700.000
231.95	1500.000
232.32	4.762
232.69	-211.111
233.07	-357.143
233.44	-700.000
233.81	-80.000
234.19	-66.667
234.56	-56.250
234.93	6.250
235.31	-314.286
235.68	-114.286
236.05	-58.824
236.43	-77.273
236.80	-16.129
237.17	-54.167
237.55	-47.619
237.92	-59.091
238.29	-37.143
238.67	-14.706
239.04	5.556
239.41	-45.161
239.79	-23.077
240.16	-28.571
240.53	-18.182
240.91	-20.513
241.28	-10.909
241.65	7.692
242.02	0.000
242.40	-8.197
242.77	-7.576
243.14	-15.254
243.51	-18.571
243.89	-1.266
244.26	3.371
244.63	3.158
245.00	-1.053
245.38	7.627
245.75	10.619
246.12	11.200
246.49	10.236
246.87	0.813
247.24	-4.237
247.61	6.780
247.98	9.155
248.36	2.098
248.73	14.557
249.10	-0.637
249.47	6.433
249.84	7.955
250.22	-1.786
250.59	9.605
250.96	4.188
251.33	16.588
251.70	13.462
252.08	9.953
252.45	8.531
252.82	7.619
253.19	10.638
253.56	8.871
253.94	10.970
254.31	15.021
254.68	14.228
255.05	10.484
255.42	7.143
255.79	7.885
256.16	13.725
256.54	16.176
256.91	9.091
257.28	7.326
257.65	7.092
258.02	14.780
258.39	10.702
258.76	10.135
259.14	11.420
259.51	15.738
259.88	9.756
260.25	14.907
260.62	12.862
260.99	10.979
261.36	12.805
261.73	14.451
262.10	15.000
262.47	12.821
262.85	12.286
263.22	12.034
263.59	8.923
263.96	8.986
264.33	13.279
264.70	17.956
265.07	10.714
265.44	14.987
265.81	11.370
266.18	10.886
266.55	11.765
266.92	11.587
267.29	13.559
267.66	11.111
268.03	14.010
268.40	14.085
268.77	13.494
269.14	13.921
269.51	13.103
269.88	13.303
270.25	10.723
270.62	12.128
270.99	11.937
271.36	12.821
271.73	11.211
272.10	13.959
272.47	12.889
272.84	15.111
273.21	13.991
273.58	12.088
273.95	12.500
274.32	13.801
274.69	13.348
275.06	12.474
275.43	12.723
275.80	14.868
276.17	13.808
276.54	15.682
276.91	12.757
277.28	15.619
277.65	16.322
278.02	13.987
278.39	13.163
278.76	12.749
279.13	14.032
279.50	12.922
279.87	13.108
280.23	13.360
280.60	13.320
280.97	12.621
281.34	13.540
281.71	13.846
282.08	14.919
282.45	13.646
282.82	12.791
283.19	12.727
283.56	14.835
283.92	13.074
284.29	13.755
284.66	13.309
285.03	13.369
285.40	14.391
285.77	15.088
286.14	14.079
286.51	12.789
286.87	13.249
287.24	12.799
287.61	14.876
287.98	12.478
288.35	11.405
288.72	11.205
289.08	9.153
289.45	11.111
289.82	11.246
290.19	13.629
290.56	12.066
290.93	12.083
291.29	11.021
291.66	13.688
292.03	12.716
292.40	11.747
292.77	9.317
293.13	12.520
293.50	11.590
293.87	13.650
294.24	10.407
294.60	11.364
294.97	12.595
295.34	9.037
295.71	11.756
296.08	10.445
296.44	10.587
296.81	11.681
297.18	10.282
297.55	9.746
297.91	10.600
298.28	10.137
298.65	10.321
299.02	10.829
299.38	8.957
299.75	10.462
300.12	11.026
300.48	11.893
300.85	9.174
301.22	10.479
301.59	9.363
301.95	10.453
302.32	8.605
302.69	11.016
303.05	10.134
303.42	9.125
303.79	10.407
304.15	9.716
304.52	10.152
304.89	10.626
305.25	9.524
305.62	9.401
305.99	10.836
306.35	8.435
306.72	9.681
307.09	11.010
307.45	9.421
307.82	9.385
308.19	9.172
308.55	9.259
308.92	8.163
309.29	8.973
309.65	9.968
310.02	9.503
310.38	7.892
310.75	9.221
311.12	9.401
311.48	10.125
311.85	8.342
312.22	8.754
312.58	11.394
312.95	8.461
313.31	9.990
313.68	10.050
314.05	10.089
314.41	8.149
314.78	7.992
315.14	9.477
315.51	9.422
315.87	9.390
316.24	9.427
316.61	9.981
316.97	9.154
317.34	8.767
317.70	9.833
318.07	10.075
318.43	9.363
318.80	9.859
319.16	8.537
319.53	9.774
319.89	8.467
320.26	10.098
320.62	8.462
320.99	9.055
321.35	7.685
321.72	7.677
322.08	9.693
322.45	8.812
322.81	8.934
323.18	8.357
323.54	9.335
323.91	10.009
324.27	9.696
324.64	8.958
325.00	10.122
325.37	9.955
325.73	10.061
326.10	8.326
326.46	9.282
326.83	9.277
327.19	9.842
327.56	10.562
327.92	10.450
328.29	10.909
328.65	8.364
329.01	9.629
329.38	9.545
329.74	10.256
330.11	9.973
330.47	9.809
330.84	10.266
331.20	7.581
331.56	9.845
331.93	9.236
332.29	8.950
332.66	9.833
333.02	9.321
333.38	10.036
333.75	9.706
334.11	9.511
334.48	9.267
334.84	10.061
335.20	9.574
335.57	9.747
335.93	10.922
336.29	8.946
336.66	8.194
337.02	9.640
337.38	9.626
337.75	8.780
338.11	9.034
338.47	9.520
338.84	8.893
339.20	8.172
339.56	10.606
339.93	7.937
340.29	8.769
340.65	8.479
341.02	10.118
341.38	9.688
341.74	10.076
342.11	8.618
342.47	9.185
342.83	10.076
343.20	8.711
343.56	8.000
343.92	10.935
344.28	9.336
344.65	8.416
345.01	8.403
345.37	10.382
345.73	9.165
346.10	8.831
346.46	9.017
346.82	8.019
347.19	8.381
347.55	8.828
347.91	8.740
348.27	8.990
348.63	9.532
349.00	9.944
349.36	8.587
349.72	8.917
350.08	9.543
350.45	8.274
350.81	9.713
351.17	8.521
351.53	8.433
351.89	7.680
352.26	9.535
352.62	10.906
352.98	8.544
353.34	9.512
353.70	8.726
354.07	9.756
354.43	8.933
354.79	8.320
355.15	7.827
355.51	8.828
355.87	8.379
356.24	8.658
356.60	9.911
356.96	9.238
357.32	7.759
357.68	8.429
358.04	8.930
358.40	8.043
358.77	8.192
359.13	7.881
359.49	8.617
359.85	8.689
360.21	8.219
360.57	9.036
360.93	8.963
361.29	8.969
361.66	8.232
362.02	7.914
362.38	9.831
362.74	9.158
363.10	8.752
363.46	9.687
363.82	9.038
364.18	9.190
364.54	10.365
364.90	9.085
365.26	8.488
365.62	9.052
365.98	10.028
366.35	9.155
366.71	7.259
367.07	8.751
367.43	9.128
367.79	8.866
368.15	7.966
368.51	9.161
368.87	9.959
369.23	9.614
369.59	9.514
369.95	9.302
370.31	9.142
370.67	7.881
371.03	9.548
371.39	8.557
371.75	10.086
372.11	10.115
372.47	9.038
372.83	9.179
373.19	8.857
373.55	9.711
373.91	8.890
374.27	9.651
374.63	9.524
374.99	9.875
375.35	8.614
375.71	9.048
376.07	8.898
376.42	8.146
376.78	9.346
377.14	8.678
377.50	9.091
377.86	9.168
378.22	9.673
378.58	9.512
378.94	8.076
379.30	9.141
379.66	9.472
380.02	8.497
380.38	8.338
380.74	8.792
381.09	9.842
381.45	10.084
381.81	8.469
382.17	9.023
382.53	8.875
382.89	8.971
383.25	9.392
383.61	9.021
383.97	9.920
384.32	9.136
384.68	9.855
385.04	9.300
385.40	9.130
385.76	8.780
386.12	9.369
386.48	9.530
386.83	9.387
387.19	9.325
387.55	9.509
387.91	9.366
388.27	8.142
388.62	9.014
388.98	8.661
389.34	9.302
389.70	8.952
390.06	9.385
390.42	8.782
390.77	9.338
391.13	9.379
391.49	9.357
391.85	9.414
392.20	9.223
392.56	9.041
392.92	9.812
393.28	9.587
393.64	9.260
393.99	9.169
394.35	9.428
394.71	9.636
395.07	9.856
395.42	8.343
395.78	8.799
396.14	9.657
396.50	9.297
396.85	9.377
397.21	9.235
397.57	9.605
397.92	9.660
398.28	9.778
398.64	8.745
399.00	9.551
399.35	9.076
399.71	9.582
400.07	8.896
400.42	8.942
400.78	9.123
401.14	9.641
401.49	9.493
401.85	9.640
402.21	9.654
402.57	9.648
402.92	8.811
403.28	9.681
403.63	8.508
403.99	10.068
404.35	8.877
404.70	9.538
405.06	9.746
405.42	8.610
405.77	9.333
406.13	9.143
406.49	8.808
406.84	9.778
407.20	9.776
407.55	9.563
407.91	8.290
408.27	10.417
408.62	9.862
408.98	9.278
409.34	9.263
409.69	9.515
410.05	9.096
410.40	9.810
410.76	10.255
411.11	9.352
411.47	9.207
411.83	9.719
412.18	8.849
412.54	9.396
412.89	8.991
413.25	8.442
413.60	9.781
413.96	8.688
414.31	9.297
414.67	8.698
415.03	9.185
415.38	10.215
415.74	10.374
416.09	9.591
416.45	8.201
416.80	9.233
417.16	8.970
417.51	9.521
417.87	9.256
418.22	9.355
418.58	10.013
418.93	8.584
419.29	9.536
419.64	9.799
420.00	10.267
420.35	9.521
420.71	9.424
421.06	10.355
421.42	8.899
421.77	9.659
422.12	9.289
422.48	9.781
422.83	9.795
423.19	9.855
423.54	9.222
423.90	9.254
424.25	9.615
424.61	8.926
424.96	10.123
425.31	9.670
425.67	9.398
426.02	9.352
426.38	9.982
426.73	9.877
427.09	9.252
427.44	9.034
427.79	9.070
428.15	9.994
428.50	10.440
428.85	9.293
429.21	8.910
429.56	9.583
429.92	10.271
430.27	10.120
430.62	9.718
430.98	9.880
431.33	8.751
431.68	10.027
432.04	10.297
432.39	10.256
432.74	10.612
433.10	9.848
433.45	8.808
433.80	9.295
434.16	10.210
434.51	10.192
434.86	10.018
435.22	10.356
435.57	10.037
435.92	10.375
436.28	9.318
436.63	9.610
436.98	9.049
437.34	10.219
437.69	9.918
438.04	10.153
438.39	10.048
438.75	9.430
439.10	10.716
439.45	9.354
439.81	10.241
440.16	10.449
440.51	10.235
440.86	9.659
441.22	9.176
441.57	9.421
441.92	9.821
442.27	9.957
442.63	9.442
442.98	8.804
443.33	9.830
443.68	10.162
444.03	10.462
444.39	9.202
444.74	10.352
445.09	10.088
445.44	10.411
445.79	9.740
446.15	10.570
446.50	9.091
446.85	9.595
447.20	10.061
447.55	9.834
447.91	10.051
448.26	9.832
448.61	10.074
448.96	10.364
449.31	9.132
449.66	10.475
450.02	9.972
450.37	10.029
450.72	9.944
451.07	9.554
451.42	9.851
451.77	9.575
452.12	9.297
452.47	10.894
452.83	9.843
453.18	10.436
453.53	9.266
453.88	10.407
454.23	9.250
454.58	10.193
454.93	10.768
455.28	9.815
455.63	10.197
455.98	10.422
456.34	9.784
456.69	11.194
457.04	10.326
457.39	9.809
457.74	10.632
458.09	10.731
458.44	10.566
458.79	9.753
459.14	10.211
459.49	10.598
459.84	10.230
460.19	10.084
460.54	9.982
460.89	9.641
461.24	9.897
461.59	9.906
461.94	9.675
462.29	10.363
462.64	11.199
462.99	10.442
463.34	9.386
463.69	10.369
464.04	10.018
464.39	9.438
464.74	9.811
465.09	9.802
465.44	9.419
465.79	10.829
466.14	10.414
466.49	10.075
466.84	10.144
467.19	9.975
467.54	8.861
467.89	10.111
468.24	10.214
468.59	9.931
468.94	9.904
469.29	10.396
469.64	9.973
469.99	10.736
470.34	9.686
470.68	11.337
471.03	10.323
471.38	9.722
471.73	10.070
472.08	10.375
472.43	10.425
472.78	11.533
473.13	9.675
473.48	10.402
473.83	10.298
474.17	10.191
474.52	11.061
474.87	10.082
475.22	10.324
475.57	10.167
475.92	11.123
476.27	10.286
476.61	10.423
476.96	10.341
477.31	10.818
477.66	10.349
478.01	10.265
478.36	10.581
478.70	9.824
479.05	10.871
479.40	10.777
479.75	10.347
480.10	10.466
480.45	10.203
480.79	10.661
481.14	11.089
481.49	11.036
481.84	10.772
482.19	10.507
482.53	10.322
482.88	9.967
483.23	10.141
483.58	10.731
483.92	10.893
484.27	9.659
484.62	10.151
484.97	10.016
485.31	9.696
485.66	10.041
486.01	10.074
486.36	10.484
486.70	10.353
487.05	10.362
487.40	10.176
487.75	10.640
488.09	9.759
488.44	10.149
488.79	10.364
489.13	10.612
489.48	10.808
489.83	11.048
490.17	11.058
490.52	11.051
490.87	10.577
491.22	10.603
491.56	11.250
491.91	10.973
492.26	10.755
492.60	10.466
492.95	11.185
493.30	10.624
493.64	11.095
493.99	10.899
494.34	10.476
494.68	11.423
495.03	11.185
495.37	10.324
495.72	10.609
496.07	10.887
496.41	11.255
496.76	10.320
497.11	10.740
497.45	11.782
497.80	10.355
498.14	11.100
498.49	11.150
498.84	10.534
499.18	11.940
499.53	10.813
499.87	10.907
500.22	10.931
500.56	10.755
500.91	10.739
501.26	11.111
501.60	10.640
501.95	11.739
502.29	10.392
502.64	11.787
502.98	10.398
503.33	11.137
503.67	9.818
504.02	10.671
504.36	11.127
504.71	10.334
505.06	10.434
505.40	11.327
505.75	10.671
506.09	11.173
506.44	10.476
506.78	10.788
507.13	11.020
507.47	11.581
507.82	11.048
508.16	10.984
508.51	10.922
508.85	10.663
509.19	10.361
509.54	11.258
509.88	12.021
510.23	11.321
510.57	11.693
510.92	11.010
511.26	11.377
511.61	10.799
511.95	11.638
512.30	10.885
512.64	10.963
512.98	11.606
513.33	11.642
513.67	11.223
514.02	11.298
514.36	11.025
514.70	11.036
515.05	11.778
515.39	11.476
515.74	12.042
516.08	11.816
516.42	11.615
516.77	11.785
517.11	11.842
517.46	11.962
517.80	11.733
518.14	10.447
518.49	11.715
518.83	11.335
519.17	12.197
519.52	11.047
519.86	11.350
520.20	12.408
520.55	11.262
520.89	11.709
521.23	12.149
521.58	11.787
521.92	11.273
522.26	11.238
522.61	11.597
522.95	11.487
523.29	11.975
523.64	11.493
523.98	12.031
524.32	11.879
524.66	11.304
525.01	12.267
525.35	12.758
525.69	12.167
526.04	11.945
526.38	12.349
526.72	11.494
527.06	12.956
527.41	11.815
527.75	11.485
528.09	11.449
528.43	11.410
528.78	12.123
529.12	12.420
529.46	11.662
529.80	11.620
530.15	12.234
530.49	11.643
530.83	12.901
531.17	11.515
531.51	12.056
531.86	12.047
532.20	11.808
532.54	11.832
532.88	11.726
533.22	11.230
533.57	13.120
533.91	11.361
534.25	11.439
534.59	11.868
534.93	11.450
535.27	11.517
535.62	12.724
535.96	12.540
536.30	12.042
536.64	12.882
536.98	12.006
537.32	11.196
537.66	11.609
538.01	11.478
538.35	12.973
538.69	12.299
539.03	12.525
539.37	12.774
539.71	13.075
540.05	11.926
540.39	11.427
540.73	12.716
541.07	13.525
541.42	12.154
541.76	12.558
542.10	13.369
542.44	12.458
542.78	11.940
543.12	12.084
543.46	11.575
543.80	11.104
544.14	11.887
544.48	13.386
544.82	12.585
545.16	12.140
545.50	11.844
545.84	11.822
546.18	12.413
546.52	12.233
546.86	12.108
547.20	12.799
547.54	11.915
547.88	12.674
548.22	11.533
548.56	10.822
548.90	13.005
549.24	11.843
549.58	12.985
549.92	12.509
550.26	12.572
550.60	12.376
550.94	12.701
551.28	13.017
551.62	12.629
551.96	12.373
552.30	12.474
552.64	11.893
552.98	12.824
553.32	11.760
553.66	12.833
554.00	12.651
554.34	12.347
554.68	12.354
555.02	13.748
555.36	12.437
555.69	11.605
556.03	13.053
556.37	13.442
556.71	13.099
557.05	12.860
557.39	11.656
557.73	13.858
558.07	12.886
558.41	12.416
558.75	13.764
559.08	11.673
559.42	12.175
559.76	11.810
560.10	14.392
560.44	13.439
560.78	12.735
561.12	12.836
561.45	13.082
561.79	11.707
562.13	11.921
562.47	12.605
562.81	12.447
563.15	12.246
563.48	13.476
563.82	12.441
564.16	13.117
564.50	12.298
564.84	13.161
565.17	12.268
565.51	13.233
565.85	13.590
566.19	12.451
566.52	12.590
566.86	12.326
567.20	13.075
567.54	14.117
567.88	12.507
568.21	12.919
568.55	12.354
568.89	11.928
569.23	12.031
569.56	11.559
569.90	12.510
570.24	12.213
570.57	11.951
570.91	12.105
571.25	12.127
571.59	11.926
571.92	12.470
572.26	12.163
572.60	12.349
572.93	12.016
573.27	11.402
573.61	11.356
573.95	12.214
574.28	12.196
574.62	12.176
574.96	11.441
575.29	11.636
575.63	11.760
575.97	11.866
576.30	11.647
576.64	11.593
576.98	11.894
577.31	11.585
577.65	11.832
577.98	11.667
578.32	11.429
578.66	11.873
578.99	11.703
579.33	11.881
579.67	11.793
580.00	11.558
580.34	11.595
580.67	11.743
581.01	11.152
581.35	11.466
581.68	11.756
582.02	12.117
582.35	11.558
582.69	11.592
583.02	11.936
583.36	11.725
583.70	11.751
584.03	11.961
584.37	11.502
584.70	12.160
585.04	11.873
585.37	11.790
585.71	11.756
586.04	11.246
586.38	11.013
586.72	12.063
587.05	12.008
587.39	11.991
587.72	11.654
588.06	12.077
588.39	12.190
588.73	11.829
589.06	12.340
589.40	12.985
589.73	12.075
590.07	12.309
590.40	12.768
590.73	12.555
591.07	12.377
591.40	12.478
591.74	12.033
592.07	12.162
592.41	12.569
592.74	12.683
593.08	12.496
593.41	12.270
593.75	12.133
594.08	12.150
594.41	12.643
594.75	12.269
595.08	11.955
595.42	12.175
595.75	12.238
596.09	11.719
596.42	12.193
596.75	12.592
597.09	12.244
597.42	12.484
597.75	12.888
598.09	12.517
598.42	12.019
598.76	12.043
599.09	11.642
599.42	11.342
599.76	12.042
600.09	12.366
600.42	12.419
600.76	12.429
601.09	12.457
601.42	11.872
601.76	12.695
602.09	11.902
602.42	12.881
602.76	11.840
603.09	12.500
603.42	12.329
603.76	12.126
604.09	11.934
604.42	11.740
604.76	12.211
605.09	12.297
605.42	12.589
605.75	12.117
606.09	12.329
606.42	11.856
606.75	12.409
607.09	12.836
607.42	12.060
607.75	11.921
608.08	12.472
608.42	12.015
608.75	12.196
609.08	11.982
609.41	12.307
609.75	12.043
610.08	12.745
610.41	12.675
610.74	12.573
611.07	12.373
611.41	12.153
611.74	12.956
612.07	12.889
612.40	12.473
612.73	12.386
613.07	12.273
613.40	13.465
613.73	12.316
614.06	12.795
614.39	12.740
614.72	11.229
615.06	12.391
615.39	11.666
615.72	11.950
616.05	11.761
616.38	12.304
616.71	13.153
617.05	12.907
617.38	12.136
617.71	12.654
618.04	11.988
618.37	12.390
618.70	12.712
619.03	12.187
619.36	12.615
619.69	13.352
620.03	12.603
620.36	13.432
620.69	13.065
621.02	12.481
621.35	12.258
621.68	13.443
622.01	13.026
622.34	13.820
622.67	12.734
623.00	13.619
623.33	13.955
623.66	13.885
623.99	12.632
624.32	12.426
624.65	13.171
624.99	12.845
625.32	13.772
625.65	13.675
625.98	12.676
626.31	13.214
626.64	13.556
626.97	13.527
627.30	12.851
627.63	11.744
627.96	13.142
628.29	13.327
628.62	11.843
628.95	15.354
629.28	13.346
629.61	12.561
629.94	15.123
630.26	14.115
630.59	14.673
630.92	13.313
631.25	14.819
631.58	14.180
631.91	11.170
632.24	13.778
632.57	14.556
632.90	11.954
633.23	12.967
633.56	13.099
633.89	14.505
634.22	13.341
634.55	13.582
634.88	14.148
635.20	12.734
635.53	12.595
635.86	12.720
636.19	12.943
636.52	12.664
636.85	12.274
637.18	11.500
637.51	15.613
637.83	12.383
638.16	12.763
638.49	11.862
638.82	14.672
639.15	13.489
639.48	12.840
639.81	13.140
640.13	14.459
640.46	14.672
640.79	13.725
641.12	14.810
641.45	13.630
641.77	12.275
642.10	12.689
642.43	14.112
642.76	14.646
643.09	12.698
643.41	14.603
643.74	14.467
644.07	15.133
644.40	13.290
644.73	13.036
645.05	12.688
645.38	13.411
645.71	14.261
646.04	14.790
646.36	11.344
646.69	12.630
647.02	14.079
647.35	13.177
647.67	12.956
648.00	13.533
648.33	16.189
648.66	14.194
648.98	12.261
649.31	14.154
649.64	14.062
649.96	12.245
650.29	12.295
650.62	12.220
650.94	12.985
651.27	14.385
651.60	11.419
651.92	14.897
652.25	13.856
652.58	12.095
652.90	15.249
653.23	11.129
653.56	12.207
653.88	14.098
654.21	13.926
654.54	16.445
654.86	12.681
655.19	14.900
655.52	11.943
655.84	12.095
656.17	13.143
656.49	17.945
656.82	19.012
657.15	14.019
657.47	10.290
657.80	7.886
658.13	8.736
658.45	11.449
658.78	11.261
659.10	11.357
659.43	10.533
659.75	11.330
660.08	11.354
660.41	10.957
660.73	11.001
661.06	15.072
661.38	15.536
661.71	13.767
662.03	14.113
662.36	13.433
662.68	12.447
663.01	14.650
663.33	13.379
663.66	15.021
663.98	12.946
664.31	13.199
664.63	13.496
664.96	14.534
665.28	14.317
665.61	10.148
665.93	12.757
666.26	13.765
666.58	13.929
666.91	16.481
667.23	13.158
667.56	16.327
667.88	14.932
668.21	12.212
668.53	11.449
668.86	13.164
669.18	15.068
669.50	12.150
669.83	10.706
670.15	15.247
670.48	11.916
670.80	10.706
671.13	11.512
671.45	14.414
671.77	11.563
672.10	12.821
672.42	14.207
672.75	10.545
673.07	10.991
673.39	12.022
673.72	12.795
674.04	11.890
674.37	12.990
674.69	14.959
675.01	12.128
675.34	12.364
675.66	14.039
675.98	11.894
676.31	14.253
676.63	11.954
676.95	14.381
677.28	14.617
677.60	15.837
677.92	12.555
678.25	14.442
678.57	13.786
678.89	11.111
679.22	15.304
679.54	14.990
679.86	11.400
680.18	13.878
680.51	9.311
680.83	13.524
681.15	13.873
681.48	13.387
681.80	9.677
682.12	12.072
682.44	13.360
682.77	10.606
683.09	13.627
683.41	15.044
683.73	12.785
684.06	11.183
684.38	15.063
684.70	13.580
685.02	10.236
685.34	11.306
685.67	12.500
685.99	11.342
686.31	14.363
686.63	11.702
686.96	10.721
687.28	11.946
687.60	12.695
687.92	10.506
688.24	12.795
688.56	12.425
688.89	9.615
689.21	12.691
689.53	11.724
689.85	10.468
690.17	10.762
690.49	9.007
690.82	12.048
691.14	10.613
691.46	13.969
691.78	13.656
692.10	14.195
692.42	13.111
692.74	11.803
693.06	13.708
693.39	10.962
693.71	11.738
694.03	14.687
694.35	13.318
694.67	13.475
694.99	10.230
695.31	10.969
695.63	13.010
695.95	14.392
696.27	15.212
696.59	12.834
696.91	13.202
697.23	12.760
697.56	12.019
697.88	10.135
698.20	10.921
698.52	10.314
698.84	10.922
699.16	12.619
699.48	10.250
699.80	13.033
700.12	14.358
700.44	7.263
700.76	13.994
701.08	12.791
701.40	9.668
701.72	15.123
702.04	12.179
702.36	12.952
702.68	7.784
703.00	10.435
703.32	9.169
703.64	15.294
703.96	11.628
704.28	12.722
704.60	9.810
704.91	7.937
705.23	10.680
705.55	8.446
705.87	11.263
706.19	11.111
706.51	13.194
706.83	13.443
707.15	12.102
707.47	11.570
707.79	9.278
708.11	9.160
708.43	13.965
708.74	9.091
709.06	8.078
709.38	10.632
709.70	9.375
710.02	13.804
710.34	10.891
710.66	9.841
710.98	9.148
711.29	10.000
711.61	9.904
711.93	7.213
712.25	14.618
712.57	11.498
712.89	12.230
713.20	12.371
713.52	7.090
713.84	10.320
714.16	10.492
714.48	9.841
714.80	10.154
715.11	11.239
715.43	13.554
715.75	12.773
716.07	8.197
716.39	8.361
716.70	9.756
717.02	10.000
717.34	10.305
717.66	15.768
717.97	9.016
718.29	8.824
718.61	11.111
718.93	13.978
719.24	8.824
719.56	7.925
719.88	9.455
720.20	6.367
720.51	10.902
720.83	10.040
721.15	9.426
721.46	10.588
721.78	8.429
722.10	8.000
722.42	9.504
722.73	10.359
723.05	11.245
723.37	11.373
723.68	10.121
724.00	12.195
724.32	12.346
724.63	9.544
724.95	11.570
725.27	4.825
725.58	10.776
725.90	8.730
726.22	14.760
726.53	13.308
726.85	3.922
727.16	10.150
727.48	8.846
727.80	7.787
728.11	10.504
728.43	9.504
728.74	12.109
729.06	11.742
729.38	6.615
729.69	8.661
730.01	10.236
730.32	6.773
730.64	9.158
730.96	9.701
731.27	9.286
731.59	9.646
731.90	11.656
732.22	9.816
732.53	13.907
732.85	11.074
733.16	9.058
733.48	6.620
733.80	4.982
734.11	5.862
734.43	10.544
734.74	11.573
735.06	9.404
735.37	12.538
735.69	6.452
736.00	7.071
736.32	13.245
736.63	4.828
736.95	8.333
737.26	14.901
737.58	7.554
737.89	12.903
738.21	9.774
738.52	10.000
738.83	8.984
739.15	7.692
739.46	6.048
739.78	12.587
740.09	8.741
740.41	8.392
740.72	9.854
741.04	9.524
741.35	6.494
741.66	11.111
741.98	10.952
742.29	10.329
742.61	10.160
742.92	12.150
743.23	9.211
743.55	13.964
743.86	13.333
744.18	8.095
744.49	12.808
744.80	14.213
745.12	16.495
745.43	8.543
745.74	14.563
746.06	12.195
746.37	15.859
746.68	6.965
747.00	17.801
747.31	9.135
747.62	8.756
747.94	5.240
748.25	9.767
748.56	9.524
748.88	3.804
749.19	12.676
749.50	9.314
749.82	14.667
750.13	11.894
750.44	9.756
750.75	7.200
751.07	11.786
751.38	10.332
751.69	6.489
752.01	5.000
752.32	8.560
752.63	7.308
752.94	5.556
753.26	7.826
753.57	14.286
753.88	9.483
754.19	11.203
754.51	11.719
754.82	7.905
755.13	10.700
755.44	8.678
755.75	10.288
756.07	4.016
756.38	10.937
756.69	10.108
757.00	9.756
757.31	15.101
757.63	11.215
757.94	11.272
758.25	8.721
758.56	12.399
758.87	9.943
759.18	5.000
759.50	12.100
759.81	8.394
760.12	5.068
760.43	10.356
760.74	10.000
761.05	13.202
761.36	10.778
761.67	10.651
761.99	8.387
762.30	10.145
762.61	9.434
762.92	10.314
763.23	6.161
763.54	7.556
763.85	14.346
764.16	7.347
764.47	12.712
764.78	12.734
765.10	12.590
765.41	6.129
765.72	8.176
766.03	6.360
766.34	9.398
766.65	9.312
766.96	3.500
767.27	7.292
767.58	6.977
767.89	1.935
768.20	6.135
768.51	7.104
768.82	9.730
769.13	0.000
769.44	8.333
769.75	10.390
770.06	10.550
770.37	11.737
770.68	7.292
770.99	10.891
771.30	3.883
771.61	5.556
771.92	4.329
772.23	10.280
772.54	7.447
772.85	-0.592
773.16	11.585
773.47	10.241
773.78	11.538
774.09	4.667
774.39	8.025
774.70	-4.027
775.01	3.623
775.32	2.985
775.63	1.653
775.94	1.504
776.25	5.000
776.56	9.836
776.87	5.310
777.18	12.389
777.48	-3.636
777.79	11.304
778.10	-0.917
778.41	8.475
778.72	4.132
779.03	13.433
779.34	6.015
779.65	10.458
779.95	11.594
780.26	2.721
780.57	-2.586
780.88	0.926
781.19	-12.121
781.50	1.600
781.80	3.268
782.11	5.128
782.42	6.024
782.73	-3.650
783.04	8.108
783.34	-1.515
783.65	7.752
783.96	13.008
784.27	2.564
784.57	-0.813
784.88	4.878
785.19	6.140
785.50	-14.433
785.81	-0.952
786.11	-0.980
786.42	-5.455
786.73	0.000
787.04	3.960
787.34	1.905
787.65	3.810
787.96	-4.902
788.26	7.207
788.57	4.032
788.88	8.594
789.19	8.547
789.49	-1.681
789.80	0.855
790.11	2.655
790.41	5.051
790.72	6.604
791.03	-20.833
791.33	-5.263
791.64	-4.301
791.95	-8.000
792.25	-7.143
792.56	-7.317
792.87	19.388
793.17	-5.263
793.48	-8.108
793.79	0.000
794.09	-5.063
794.40	0.000
794.70	-5.607
795.01	-9.649
795.32	-5.455
795.62	2.679
795.93	-8.247
796.23	-18.681
796.54	6.316
796.85	-9.589
797.15	-15.278
797.46	-1.370
797.76	1.408
798.07	5.000
798.37	2.941
798.68	5.714
798.99	7.143
799.29	2.632
799.60	-5.000
799.90	-8.333
800.21	-17.188
800.51	-12.698
800.82	-1.639
801.12	-8.772
801.43	-9.859
801.73	-25.424
802.04	1.639
802.34	-3.636
802.65	0.000
802.95	-7.407
803.26	-30.000
803.56	19.231
803.87	-47.368
804.17	1.613
804.48	-3.077
804.78	-20.513
805.09	-23.256
805.39	-65.625
805.70	-15.094
806.00	0.000
806.30	21.622
806.61	-2.941
806.91	1.235
807.22	0.000
807.52	-7.463
807.83	-9.677
808.13	-15.873
808.43	-5.455
808.74	-9.091
809.04	-11.321
809.35	2.740
809.65	14.035
809.95	13.235
810.26	-9.804
810.56	-16.000
810.86	-6.122
811.17	-17.143
811.47	-19.231
811.77	-16.129
812.08	-65.789
812.38	4.762
812.69	-34.783
812.99	-6.452
813.29	-19.048
813.59	-81.481
813.90	-31.915
814.20	-27.907
814.50	-25.000
814.81	-3.333
815.11	-24.390
815.41	-56.667
815.72	-25.714
816.02	-11.111
816.32	0.000
816.62	10.811
816.93	-50.000
817.23	-13.043
817.53	-47.059
817.84	0.000
818.14	-68.750
818.44	-72.414
818.74	-41.935
819.04	-66.667
819.35	-40.000
819.65	-40.000
819.95	-76.667
820.25	-68.000
820.56	-18.421
820.86	-5.000
821.16	-23.404
821.46	6.897
821.76	-35.897
822.07	-37.500
822.37	-18.605
822.67	-53.333
822.97	-35.135
823.27	-18.919
823.57	-4.000
823.88	-21.622
824.18	-38.095
824.48	-46.154
824.78	-138.462
825.08	-60.870
825.38	-33.333
825.69	-37.500
825.99	-80.000
826.29	-51.351
826.59	-44.118
826.89	-44.000
827.19	-57.143
827.49	5.263
827.79	-43.750
828.09	-40.000
828.39	-82.609
828.70	-68.966
829.00	-27.586
829.30	-13.889
829.60	-6.250
829.90	-27.778
830.20	-69.231
830.50	-76.190
830.80	-46.429
831.10	0.000
831.40	-104.762
831.70	2.941
832.00	-25.000
832.30	-42.105
832.60	-50.000
832.90	-166.667
833.20	-141.176
833.50	-140.000
833.80	-120.000
834.10	-20.000
834.40	-29.167
834.70	-100.000
835.00	-11.538
835.30	-41.667
835.60	-37.931
835.90	-72.222
836.20	-145.455
836.50	-133.333
836.80	-11.429
837.10	11.429
837.40	-52.941
837.70	-272.727
838.00	-45.833
838.30	-106.250
838.60	-57.143
838.90	-30.000
839.19	-78.261
839.49	-13.043
839.79	-72.222
840.09	-65.217
840.39	-31.818
840.69	-100.000
840.99	-47.368
841.29	-162.500
841.59	-100.000
841.88	-16.667
842.18	-41.667
842.48	-152.941
842.78	3.448
843.08	-78.571
843.38	-84.615
843.68	-266.667
843.97	-107.692
844.27	-190.909
844.57	-220.000
844.87	-4.000
845.17	-180.000
845.47	-121.429
845.76	-244.444
846.06	0.000
846.36	-425.000
846.66	-220.000
846.96	-47.368
847.25	-79.167
847.55	-141.667
847.85	-60.000
848.15	-90.000
848.44	-7.692
848.74	-21.053
849.04	666.667
849.34	-122.222
849.63	-94.737
849.93	0.000
850.23	-65.000
850.53	-33.333
850.82	-28.000
851.12	-57.895
851.42	-1000.000
851.71	-21.429
852.01	-150.000
852.31	-94.118
852.61	-40.000
852.90	-61.905
853.20	-233.333
853.50	-88.889
853.79	-47.368
854.09	-113.333
854.39	-14.286
854.68	-56.522
854.98	-241.667
855.28	13.793
855.57	-62.500
855.87	-100.000
856.17	-126.667
856.46	-37.931
856.76	-100.000
857.05	-94.118
857.35	-92.308
857.65	-127.273
857.94	-51.852
858.24	-50.000
858.53	-57.143
858.83	-191.667
859.13	-200.000
859.42	-9.524
859.72	-137.500
860.01	-466.667
860.31	-175.000
860.60	-440.000
860.90	-166.667
861.20	12.500
861.49	-314.286
861.79	-41.176
862.08	-700.000
862.38	-133.333
862.67	-15.385
862.97	-64.706
863.26	-25.000
863.56	-64.706
863.85	700.000
864.15	-160.000
864.44	-100.000
864.74	-40.000
865.03	-337.500
865.33	-266.667
865.62	-41.176
865.92	-375.000
866.21	-92.857
866.51	-158.333
866.80	-1500.000
867.10	-466.667
867.39	-35.294
867.69	21.739
867.98	-200.000
868.27	-440.000
868.57	-125.000
868.86	-181.818
869.16	-41.176
869.45	-200.000
869.75	-257.143
870.04	1200.000
870.33	-83.333
870.63	-280.000
870.92	-277.778
871.22	-91.667
871.51	-163.636
871.80	-58.333
872.10	0.000
>>>>>End Processed Spectral Data<<<<<
