SpectraSuite Data File
++++++++++++++++++++++++++++++++++++
Date: Sat May 16 11:18:32 PDT 2015
User: schluterlab
Dark Spectrum Present: Yes
Reference Spectrum Present: Yes
Number of Sampled Component Spectra: 1
Spectrometers: USB2E3373
Integration Time (usec): 3000 (USB2E3373)
Spectra Averaged: 3 (USB2E3373)
Boxcar Smoothing: 0 (USB2E3373)
Correct for Electrical Dark: No (USB2E3373)
Strobe/Lamp Enabled: No (USB2E3373)
Correct for Detector Non-linearity: No (USB2E3373)
Correct for Stray Light: No (USB2E3373)
Number of Pixels in Processed Spectrum: 2048
>>>>>Begin Processed Spectral Data<<<<<
178.53	0.000
178.91	93.333
179.29	400.000
179.67	-1200.000
180.04	0.000
180.42	700.000
180.80	400.000
181.18	100.000
181.56	37.500
181.94	-0.000
182.31	500.000
182.69	-30.769
183.07	-300.000
183.45	1150.000
183.83	366.667
184.20	-171.429
184.58	-212.500
184.96	-475.000
185.34	106.250
185.72	-400.000
186.09	66.667
186.47	-200.000
186.85	0.000
187.23	-25.000
187.61	-200.000
187.98	-175.000
188.36	-75.000
188.74	-100.000
189.12	1300.000
189.49	242.857
189.87	-100.000
190.25	325.000
190.63	-50.000
191.00	-177.778
191.38	360.000
191.76	26.667
192.14	460.000
192.51	-140.000
192.89	-300.000
193.27	0.000
193.65	-111.111
194.02	-228.571
194.40	233.333
194.78	-110.000
195.15	-400.000
195.53	-81.818
195.91	-400.000
196.29	-0.000
196.66	0.000
197.04	1600.000
197.42	-550.000
197.79	20.000
198.17	-266.667
198.55	-400.000
198.92	-1000.000
199.30	125.000
199.68	-600.000
200.05	-22.222
200.43	-88.889
200.81	-1400.000
201.18	-83.333
201.56	200.000
201.94	-13.333
202.31	4.545
202.69	-40.000
203.07	50.000
203.44	733.333
203.82	-350.000
204.19	-325.000
204.57	25.000
204.95	0.000
205.32	18.750
205.70	1100.000
206.08	-1100.000
206.45	0.000
206.83	-550.000
207.20	100.000
207.58	-300.000
207.96	-33.333
208.33	-175.000
208.71	-122.222
209.08	150.000
209.46	-114.286
209.84	900.000
210.21	0.000
210.59	40.000
210.96	900.000
211.34	-166.667
211.71	-66.667
212.09	275.000
212.46	1200.000
212.84	-2000.000
213.22	700.000
213.59	150.000
213.97	-22.222
214.34	120.000
214.72	-80.000
215.09	-366.667
215.47	-50.000
215.84	-10.000
216.22	-80.000
216.59	-6.667
216.97	-275.000
217.34	400.000
217.72	-142.857
218.09	-183.333
218.47	-171.429
218.84	100.000
219.22	-157.143
219.59	0.000
219.97	185.714
220.34	450.000
220.72	287.500
221.09	-69.231
221.47	0.000
221.84	300.000
222.22	50.000
222.59	-100.000
222.97	-112.500
223.34	-450.000
223.72	-366.667
224.09	-21.429
224.46	-375.000
224.84	-21.429
225.21	-114.286
225.59	18.182
225.96	12.500
226.34	-28.571
226.71	-22.222
227.08	10.000
227.46	1200.000
227.83	-128.571
228.21	-137.500
228.58	800.000
228.95	-50.000
229.33	-1100.000
229.70	-280.000
230.08	-650.000
230.45	-16.667
230.82	-116.667
231.20	-800.000
231.57	-450.000
231.95	1200.000
232.32	71.429
232.69	-200.000
233.07	-128.571
233.44	-750.000
233.81	-86.667
234.19	77.778
234.56	-50.000
234.93	31.250
235.31	-85.714
235.68	-42.857
236.05	-23.529
236.43	-31.818
236.80	25.806
237.17	37.500
237.55	33.333
237.92	-77.273
238.29	8.571
238.67	20.588
239.04	16.667
239.41	25.806
239.79	5.128
240.16	38.095
240.53	16.364
240.91	38.462
241.28	41.818
241.65	32.308
242.02	22.951
242.40	18.033
242.77	30.303
243.14	22.034
243.51	34.286
243.89	31.646
244.26	19.101
244.63	33.684
245.00	32.632
245.38	29.661
245.75	30.973
246.12	24.000
246.49	26.772
246.87	26.016
247.24	16.949
247.61	25.424
247.98	33.803
248.36	32.168
248.73	34.810
249.10	28.662
249.47	36.257
249.84	36.364
250.22	25.595
250.59	28.249
250.96	35.079
251.33	32.701
251.70	29.808
252.08	33.649
252.45	30.806
252.82	29.048
253.19	33.617
253.56	29.032
253.94	31.646
254.31	36.910
254.68	36.992
255.05	30.242
255.42	35.714
255.79	30.824
256.16	37.255
256.54	31.618
256.91	32.955
257.28	27.839
257.65	26.950
258.02	32.075
258.39	32.441
258.76	30.068
259.14	31.790
259.51	33.770
259.88	30.793
260.25	33.540
260.62	31.833
260.99	29.080
261.36	33.841
261.73	31.503
262.10	31.667
262.47	35.043
262.85	33.429
263.22	30.946
263.59	28.308
263.96	30.145
264.33	32.520
264.70	34.530
265.07	29.945
265.44	33.850
265.81	31.008
266.18	30.380
266.55	30.147
266.92	36.776
267.29	33.656
267.66	35.062
268.03	35.749
268.40	32.629
268.77	30.843
269.14	32.483
269.51	30.575
269.88	30.963
270.25	33.566
270.62	32.723
270.99	29.955
271.36	33.100
271.73	30.269
272.10	35.698
272.47	31.111
272.84	33.111
273.21	34.174
273.58	32.747
273.95	30.263
274.32	32.579
274.69	34.136
275.06	33.538
275.43	30.134
275.80	29.939
276.17	33.473
276.54	31.976
276.91	32.099
277.28	33.063
277.65	30.372
278.02	31.733
278.39	32.220
278.76	33.068
279.13	33.992
279.50	32.207
279.87	32.558
280.23	33.198
280.60	32.604
280.97	32.233
281.34	29.400
281.71	31.154
282.08	31.653
282.45	30.957
282.82	32.946
283.19	31.091
283.56	34.615
283.92	34.452
284.29	31.970
284.66	29.496
285.03	32.799
285.40	31.365
285.77	31.228
286.14	31.769
286.51	31.083
286.87	33.575
287.24	32.253
287.61	29.091
287.98	30.156
288.35	31.240
288.72	30.390
289.08	27.797
289.45	29.966
289.82	31.315
290.19	31.034
290.56	26.777
290.93	27.027
291.29	28.363
291.66	28.824
292.03	29.827
292.40	28.765
292.77	29.037
293.13	26.829
293.50	29.123
293.87	25.767
294.24	26.848
294.60	25.152
294.97	27.618
295.34	24.889
295.71	27.381
296.08	22.734
296.44	25.322
296.81	26.781
297.18	23.662
297.55	25.706
297.91	28.033
298.28	26.027
298.65	24.268
299.02	27.406
299.38	25.802
299.75	24.049
300.12	23.590
300.48	23.529
300.85	24.771
301.22	23.157
301.59	23.537
301.95	25.315
302.32	22.947
302.69	24.113
303.05	21.368
303.42	23.250
303.79	24.163
304.15	21.919
304.52	22.754
304.89	22.432
305.25	24.054
305.62	21.034
305.99	24.617
306.35	21.088
306.72	22.096
307.09	22.815
307.45	21.566
307.82	21.117
308.19	21.924
308.55	22.113
308.92	21.482
309.29	22.162
309.65	22.481
310.02	22.786
310.38	21.297
310.75	20.594
311.12	20.868
311.48	22.651
311.85	21.318
312.22	21.730
312.58	22.075
312.95	19.980
313.31	21.379
313.68	23.417
314.05	21.068
314.41	21.529
314.78	19.880
315.14	21.323
315.51	20.466
315.87	20.716
316.24	20.894
316.61	19.962
316.97	21.891
317.34	20.617
317.70	20.965
318.07	22.668
318.43	20.693
318.80	22.066
319.16	20.638
319.53	21.992
319.89	19.849
320.26	21.275
320.62	21.154
320.99	20.796
321.35	19.015
321.72	20.573
322.08	20.376
322.45	19.307
322.81	20.557
323.18	21.230
323.54	21.811
323.91	20.297
324.27	21.008
324.64	20.110
325.00	20.419
325.37	20.905
325.73	21.085
326.10	19.752
326.46	20.753
326.83	20.426
327.19	21.351
327.56	21.721
327.92	21.071
328.29	20.087
328.65	19.182
329.01	21.201
329.38	19.893
329.74	20.788
330.11	20.580
330.47	20.708
330.84	20.532
331.20	21.119
331.56	19.781
331.93	20.249
332.29	21.096
332.66	19.491
333.02	19.457
333.38	20.430
333.75	20.125
334.11	20.800
334.48	18.447
334.84	19.685
335.20	20.922
335.57	19.675
335.93	21.486
336.29	19.752
336.66	19.736
337.02	18.649
337.38	19.786
337.75	20.193
338.11	20.572
338.47	18.149
338.84	20.780
339.20	19.772
339.56	20.856
339.93	18.871
340.29	18.601
340.65	19.843
341.02	19.393
341.38	19.714
341.74	19.052
342.11	19.283
342.47	18.369
342.83	18.724
343.20	19.898
343.56	17.796
343.92	19.032
344.28	20.185
344.65	18.317
345.01	18.739
345.37	19.269
345.73	17.921
346.10	17.334
346.46	18.684
346.82	19.487
347.19	18.570
347.55	18.459
347.91	18.189
348.27	17.582
348.63	19.871
349.00	19.173
349.36	17.330
349.72	19.427
350.08	20.128
350.45	17.258
350.81	19.188
351.17	18.328
351.53	17.900
351.89	18.513
352.26	17.907
352.62	18.894
352.98	17.405
353.34	18.305
353.70	17.529
354.07	18.804
354.43	18.814
354.79	19.255
355.15	17.332
355.51	18.125
355.87	17.708
356.24	17.712
356.60	19.742
356.96	18.476
357.32	18.369
357.68	17.625
358.04	18.245
358.40	18.561
358.77	18.624
359.13	17.827
359.49	18.141
359.85	17.149
360.21	18.189
360.57	18.675
360.93	18.963
361.29	17.788
361.66	17.988
362.02	17.456
362.38	17.975
362.74	18.388
363.10	17.288
363.46	19.160
363.82	18.222
364.18	18.596
364.54	19.442
364.90	17.890
365.26	18.117
365.62	17.605
365.98	18.137
366.35	17.535
366.71	17.618
367.07	17.925
367.43	18.463
367.79	17.938
368.15	16.999
368.51	18.671
368.87	18.887
369.23	16.702
369.59	17.431
369.95	18.393
370.31	18.003
370.67	16.920
371.03	18.805
371.39	17.044
371.75	18.240
372.11	18.077
372.47	17.715
372.83	17.803
373.19	17.214
373.55	17.523
373.91	18.706
374.27	17.180
374.63	17.046
374.99	18.428
375.35	17.900
375.71	19.244
376.07	16.701
376.42	16.689
376.78	18.301
377.14	18.034
377.50	17.215
377.86	17.425
378.22	17.965
378.58	17.418
378.94	17.386
379.30	17.550
379.66	17.911
380.02	17.706
380.38	17.402
380.74	17.351
381.09	18.395
381.45	17.840
381.81	17.120
382.17	17.419
382.53	17.751
382.89	18.122
383.25	17.580
383.61	17.453
383.97	17.636
384.32	16.834
384.68	18.742
385.04	17.210
385.40	16.859
385.76	17.195
386.12	17.552
386.48	17.389
386.83	17.423
387.19	17.334
387.55	17.505
387.91	18.376
388.27	17.793
388.62	16.707
388.98	17.141
389.34	16.952
389.70	17.966
390.06	17.775
390.42	17.885
390.77	17.161
391.13	17.888
391.49	17.342
391.85	17.269
392.20	17.172
392.56	17.838
392.92	18.140
393.28	18.140
393.64	18.220
393.99	17.908
394.35	17.457
394.71	16.924
395.07	17.891
395.42	17.282
395.78	16.719
396.14	17.757
396.50	17.187
396.85	18.322
397.21	17.132
397.57	18.419
397.92	18.267
398.28	18.389
398.64	17.847
399.00	18.596
399.35	17.644
399.71	17.886
400.07	17.373
400.42	17.336
400.78	17.710
401.14	17.784
401.49	16.804
401.85	18.060
402.21	18.296
402.57	17.718
402.92	17.810
403.28	17.953
403.63	17.256
403.99	17.775
404.35	16.908
404.70	17.730
405.06	17.589
405.42	16.913
405.77	16.968
406.13	17.320
406.49	18.155
406.84	18.056
407.20	18.198
407.55	17.543
407.91	16.645
408.27	18.076
408.62	17.980
408.98	17.829
409.34	17.794
409.69	17.580
410.05	17.283
410.40	17.290
410.76	17.842
411.11	17.768
411.47	17.583
411.83	17.971
412.18	17.265
412.54	17.999
412.89	18.287
413.25	16.647
413.60	17.436
413.96	17.560
414.31	18.349
414.67	17.206
415.03	17.594
415.38	18.347
415.74	17.461
416.09	17.903
416.45	17.130
416.80	18.856
417.16	17.874
417.51	18.450
417.87	18.058
418.22	18.142
418.58	17.458
418.93	17.229
419.29	17.629
419.64	17.714
420.00	18.226
420.35	17.327
420.71	18.307
421.06	18.047
421.42	16.979
421.77	17.811
422.12	17.627
422.48	17.798
422.83	18.166
423.19	17.984
423.54	18.386
423.90	17.872
424.25	17.477
424.61	18.637
424.96	18.432
425.31	17.943
425.67	17.937
426.02	17.728
426.38	18.451
426.73	18.586
427.09	18.321
427.44	17.614
427.79	18.023
428.15	18.731
428.50	18.886
428.85	18.705
429.21	17.709
429.56	18.281
429.92	17.936
430.27	18.046
430.62	17.921
430.98	17.669
431.33	17.823
431.68	19.249
432.04	17.795
432.39	18.462
432.74	18.525
433.10	18.177
433.45	17.386
433.80	18.533
434.16	18.807
434.51	18.575
434.86	18.219
435.22	18.040
435.57	17.625
435.92	17.702
436.28	18.279
436.63	18.315
436.98	17.297
437.34	17.720
437.69	17.620
438.04	17.640
438.39	18.351
438.75	16.589
439.10	17.990
439.45	17.924
439.81	19.036
440.16	17.944
440.51	18.647
440.86	18.219
441.22	17.966
441.57	18.737
441.92	18.210
442.27	18.561
442.63	18.509
442.98	17.664
443.33	18.396
443.68	17.978
444.03	18.468
444.39	18.160
444.74	18.778
445.09	17.654
445.44	18.908
445.79	18.052
446.15	18.018
446.50	17.365
446.85	18.676
447.20	18.182
447.55	18.619
447.91	19.034
448.26	18.492
448.61	18.506
448.96	18.599
449.31	18.602
449.66	18.775
450.02	18.006
450.37	18.667
450.72	18.192
451.07	18.730
451.42	17.534
451.77	18.911
452.12	17.998
452.47	18.325
452.83	18.637
453.18	18.975
453.53	19.030
453.88	18.840
454.23	18.138
454.58	19.018
454.93	18.451
455.28	18.101
455.63	19.103
455.98	19.157
456.34	18.361
456.69	19.387
457.04	18.808
457.39	18.780
457.74	19.197
458.09	18.910
458.44	19.861
458.79	19.339
459.14	19.395
459.49	19.242
459.84	18.943
460.19	18.437
460.54	18.512
460.89	18.554
461.24	18.519
461.59	18.640
461.94	19.542
462.29	19.357
462.64	19.236
462.99	19.679
463.34	19.176
463.69	19.975
464.04	18.161
464.39	18.220
464.74	19.563
465.09	18.701
465.44	19.571
465.79	19.515
466.14	19.735
466.49	18.538
466.84	18.187
467.19	19.888
467.54	19.620
467.89	18.557
468.24	19.121
468.59	18.738
468.94	18.971
469.29	17.934
469.64	19.677
469.99	19.311
470.34	18.504
470.68	19.404
471.03	19.821
471.38	18.264
471.73	20.000
472.08	19.210
472.43	18.790
472.78	19.333
473.13	18.224
473.48	19.528
473.83	19.293
474.17	19.490
474.52	20.524
474.87	19.464
475.22	19.233
475.57	19.444
475.92	19.006
476.27	18.914
476.61	19.155
476.96	19.452
477.31	19.645
477.66	19.369
478.01	20.151
478.36	19.225
478.70	19.541
479.05	19.632
479.40	19.637
479.75	19.521
480.10	19.196
480.45	18.859
480.79	19.891
481.14	19.769
481.49	19.990
481.84	18.770
482.19	19.735
482.53	19.176
482.88	19.127
483.23	19.484
483.58	19.889
483.92	19.589
484.27	19.229
484.62	19.266
484.97	19.797
485.31	19.104
485.66	19.028
486.01	18.658
486.36	19.111
486.70	19.043
487.05	19.217
487.40	19.257
487.75	18.473
488.09	18.376
488.44	18.775
488.79	18.182
489.13	18.714
489.48	19.535
489.83	19.170
490.17	19.896
490.52	19.746
490.87	19.215
491.22	19.664
491.56	19.259
491.91	20.468
492.26	19.717
492.60	19.315
492.95	20.324
493.30	19.390
493.64	19.370
493.99	19.646
494.34	19.857
494.68	20.037
495.03	19.455
495.37	19.617
495.72	19.794
496.07	20.648
496.41	19.685
496.76	20.411
497.11	19.878
497.45	21.121
497.80	19.360
498.14	20.039
498.49	20.040
498.84	19.660
499.18	20.029
499.53	20.263
499.87	19.884
500.22	20.098
500.56	19.960
500.91	19.606
501.26	20.621
501.60	19.451
501.95	20.483
502.29	19.273
502.64	20.792
502.98	19.262
503.33	20.207
503.67	20.259
504.02	19.459
504.36	20.049
504.71	19.807
505.06	20.270
505.40	19.960
505.75	20.528
506.09	19.919
506.44	19.950
506.78	20.622
507.13	20.288
507.47	21.022
507.82	19.618
508.16	20.207
508.51	20.659
508.85	19.720
509.19	19.833
509.54	20.190
509.88	21.064
510.23	20.231
510.57	20.688
510.92	21.321
511.26	20.574
511.61	19.924
511.95	21.282
512.30	20.451
512.64	20.423
512.98	20.847
513.33	20.813
513.67	20.826
514.02	20.526
514.36	20.886
514.70	20.317
515.05	21.041
515.39	20.934
515.74	21.640
516.08	21.383
516.42	20.227
516.77	21.202
517.11	21.053
517.46	21.531
517.80	21.179
518.14	20.531
518.49	21.458
518.83	21.306
519.17	21.137
519.52	20.127
519.86	20.908
520.20	20.782
520.55	21.723
520.89	20.100
521.23	21.184
521.58	20.940
521.92	21.596
522.26	21.841
522.61	21.166
522.95	20.613
523.29	21.317
523.64	21.112
523.98	21.006
524.32	21.433
524.66	20.000
525.01	20.938
525.35	22.101
525.69	21.145
526.04	21.084
526.38	21.961
526.72	21.392
527.06	21.419
527.41	21.584
527.75	20.594
528.09	22.369
528.43	20.984
528.78	21.482
529.12	21.639
529.46	21.392
529.80	20.013
530.15	21.507
530.49	21.475
530.83	22.135
531.17	21.616
531.51	20.630
531.86	21.461
532.20	21.795
532.54	21.658
532.88	21.871
533.22	21.390
533.57	21.345
533.91	20.599
534.25	20.553
534.59	20.237
534.93	21.033
535.27	21.712
535.62	21.483
535.96	21.138
536.30	21.139
536.64	21.116
536.98	21.610
537.32	21.700
537.66	21.656
538.01	20.893
538.35	21.622
538.69	20.989
539.03	21.395
539.37	21.823
539.71	21.681
540.05	20.151
540.39	20.845
540.73	19.765
541.07	20.902
541.42	21.337
541.76	19.934
542.10	21.472
542.44	22.318
542.78	21.031
543.12	20.978
543.46	20.411
543.80	21.070
544.14	20.484
544.48	21.063
544.82	20.433
545.16	21.328
545.50	20.256
545.84	21.627
546.18	21.637
546.52	22.262
546.86	21.510
547.20	21.519
547.54	20.455
547.88	20.239
548.22	20.708
548.56	20.775
548.90	20.822
549.24	20.603
549.58	21.242
549.92	21.201
550.26	21.821
550.60	20.839
550.94	21.095
551.28	21.445
551.62	20.827
551.96	21.780
552.30	21.463
552.64	21.745
552.98	20.743
553.32	20.418
553.66	21.990
554.00	21.677
554.34	21.372
554.68	21.637
555.02	21.274
555.36	22.070
555.69	20.559
556.03	20.982
556.37	20.484
556.71	21.331
557.05	21.138
557.39	20.713
557.73	22.174
558.07	21.628
558.41	20.643
558.75	21.065
559.08	21.479
559.42	21.210
559.76	22.009
560.10	21.029
560.44	21.893
560.78	21.503
561.12	20.911
561.45	21.575
561.79	21.812
562.13	20.617
562.47	21.078
562.81	20.792
563.15	21.274
563.48	21.078
563.82	20.081
564.16	20.554
564.50	20.766
564.84	21.362
565.17	20.889
565.51	21.186
565.85	21.366
566.19	21.805
566.52	20.548
566.86	19.975
567.20	22.337
567.54	21.677
567.88	19.989
568.21	20.078
568.55	20.520
568.89	20.229
569.23	20.361
569.56	19.588
569.90	20.024
570.24	19.842
570.57	19.402
570.91	19.993
571.25	19.780
571.59	19.232
571.92	19.792
572.26	19.203
572.60	19.268
572.93	18.922
573.27	19.390
573.61	19.013
573.95	19.532
574.28	18.824
574.62	19.471
574.96	18.470
575.29	19.004
575.63	18.928
575.97	18.662
576.30	18.279
576.64	19.452
576.98	18.413
577.31	18.903
577.65	18.989
577.98	18.580
578.32	18.417
578.66	18.528
578.99	18.868
579.33	18.764
579.67	18.793
580.00	18.204
580.34	17.931
580.67	18.460
581.01	17.984
581.35	18.452
581.68	18.034
582.02	18.304
582.35	18.716
582.69	18.978
583.02	18.767
583.36	18.518
583.70	18.561
584.03	19.127
584.37	18.430
584.70	18.239
585.04	18.684
585.37	18.305
585.71	18.408
586.04	18.693
586.38	18.284
586.72	19.025
587.05	18.777
587.39	18.547
587.72	18.981
588.06	18.680
588.39	18.884
588.73	18.890
589.06	19.469
589.40	19.340
589.73	18.803
590.07	18.718
590.40	19.225
590.73	18.113
591.07	18.648
591.40	19.107
591.74	19.592
592.07	19.099
592.41	19.448
592.74	18.870
593.08	19.396
593.41	19.112
593.75	18.562
594.08	18.728
594.41	19.593
594.75	18.837
595.08	18.759
595.42	19.509
595.75	18.376
596.09	19.131
596.42	18.576
596.75	19.017
597.09	19.546
597.42	18.333
597.75	18.733
598.09	19.250
598.42	19.178
598.76	19.435
599.09	19.179
599.42	18.685
599.76	19.592
600.09	19.656
600.42	19.445
600.76	19.473
601.09	18.648
601.42	19.074
601.76	19.237
602.09	18.569
602.42	18.971
602.76	18.197
603.09	19.194
603.42	19.299
603.76	18.907
604.09	18.502
604.42	18.776
604.76	18.971
605.09	18.942
605.42	19.902
605.75	18.542
606.09	18.804
606.42	18.517
606.75	18.592
607.09	19.585
607.42	19.102
607.75	18.808
608.08	19.837
608.42	19.395
608.75	18.598
609.08	19.045
609.41	19.532
609.75	18.528
610.08	20.245
610.41	18.892
610.74	19.246
611.07	19.523
611.41	19.213
611.74	20.823
612.07	20.247
612.40	19.403
612.73	19.655
613.07	19.263
613.40	19.540
613.73	19.401
614.06	19.220
614.39	20.293
614.72	19.050
615.06	18.370
615.39	19.479
615.72	19.120
616.05	19.216
616.38	20.604
616.71	19.099
617.05	18.938
617.38	19.319
617.71	19.472
618.04	19.503
618.37	18.365
618.70	19.231
619.03	19.567
619.36	20.296
619.69	20.890
620.03	19.490
620.36	19.128
620.69	19.383
621.02	18.798
621.35	21.048
621.68	19.836
622.01	19.417
622.34	20.575
622.67	19.375
623.00	19.357
623.33	20.149
623.66	19.276
623.99	19.549
624.32	19.420
624.65	20.456
624.99	19.642
625.32	19.686
625.65	20.047
625.98	19.797
626.31	20.065
626.64	19.916
626.97	20.805
627.30	19.915
627.63	19.516
627.96	20.017
628.29	19.853
628.62	19.389
628.95	20.374
629.28	21.053
629.61	19.333
629.94	20.699
630.26	22.068
630.59	20.704
630.92	19.520
631.25	21.270
631.58	20.106
631.91	18.723
632.24	22.222
632.57	20.000
632.90	19.310
633.23	21.262
633.56	20.351
633.89	20.637
634.22	19.008
634.55	20.433
634.88	20.193
635.20	19.476
635.53	20.229
635.86	20.781
636.19	21.245
636.52	20.550
636.85	19.615
637.18	18.875
637.51	21.809
637.83	20.373
638.16	22.500
638.49	20.966
638.82	21.493
639.15	21.530
639.48	19.196
639.81	20.609
640.13	19.865
640.46	21.368
640.79	20.588
641.12	20.733
641.45	20.516
641.77	20.659
642.10	20.242
642.43	20.941
642.76	20.945
643.09	19.365
643.41	22.381
643.74	20.191
644.07	23.245
644.40	21.718
644.73	21.617
645.05	19.533
645.38	21.358
645.71	23.711
646.04	23.193
646.36	19.895
646.69	19.896
647.02	22.202
647.35	22.022
647.67	20.803
648.00	21.090
648.33	21.922
648.66	20.161
648.98	22.611
649.31	20.769
649.64	20.781
649.96	20.879
650.29	21.803
650.62	20.826
650.94	21.417
651.27	22.184
651.60	21.799
651.92	24.658
652.25	21.035
652.58	17.717
652.90	18.459
653.23	21.290
653.56	19.565
653.88	20.820
654.21	20.805
654.54	21.096
654.86	21.348
655.19	19.914
655.52	19.728
655.84	18.595
656.17	20.134
656.49	27.192
656.82	26.888
657.15	19.870
657.47	14.391
657.80	11.217
658.13	12.407
658.45	16.598
658.78	15.361
659.10	15.367
659.43	14.360
659.75	14.634
660.08	15.677
660.41	16.728
660.73	17.162
661.06	20.145
661.38	20.000
661.71	22.180
662.03	21.371
662.36	21.748
662.68	19.198
663.01	21.656
663.33	24.036
663.66	24.034
663.98	18.750
664.31	20.358
664.63	23.894
664.96	19.523
665.28	19.523
665.61	20.930
665.93	21.811
666.26	24.291
666.58	22.245
666.91	19.599
667.23	23.246
667.56	21.542
667.88	23.303
668.21	20.737
668.53	20.794
668.86	24.018
669.18	22.146
669.50	20.561
669.83	19.951
670.15	21.525
670.48	19.393
670.80	22.096
671.13	22.348
671.45	19.595
671.77	19.486
672.10	19.329
672.42	19.188
672.75	18.182
673.07	18.378
673.39	20.583
673.72	22.047
674.04	21.231
674.37	20.412
674.69	22.746
675.01	18.936
675.34	20.824
675.66	22.246
675.98	19.383
676.31	21.719
676.63	20.690
676.95	19.469
677.28	20.418
677.60	21.267
677.92	20.925
678.25	19.256
678.57	20.988
678.89	20.335
679.22	20.545
679.54	20.907
679.86	17.400
680.18	16.730
680.51	18.250
680.83	21.333
681.15	20.424
681.48	22.312
681.80	20.363
682.12	19.517
682.44	22.004
682.77	17.749
683.09	19.287
683.41	24.115
683.73	17.123
684.06	18.495
684.38	18.619
684.70	18.519
685.02	20.472
685.34	18.908
685.67	16.856
685.99	16.068
686.31	21.724
686.63	19.681
686.96	16.821
687.28	18.690
687.60	20.898
687.92	18.482
688.24	18.110
688.56	18.838
688.89	18.590
689.21	21.225
689.53	21.149
689.85	18.040
690.17	16.143
690.49	20.323
690.82	20.000
691.14	17.925
691.46	21.064
691.78	21.806
692.10	17.585
692.42	19.333
692.74	18.240
693.06	18.876
693.39	19.911
693.71	19.187
694.03	17.063
694.35	20.316
694.67	18.676
694.99	17.903
695.31	20.408
695.63	16.327
695.95	18.610
696.27	21.945
696.59	20.321
696.91	19.663
697.23	20.573
697.56	18.510
697.88	20.045
698.20	20.557
698.52	16.368
698.84	19.903
699.16	16.667
699.48	18.000
699.80	18.546
700.12	21.411
700.44	19.274
700.76	19.534
701.08	20.349
701.40	15.106
701.72	20.988
702.04	18.910
702.36	20.482
702.68	15.269
703.00	20.580
703.32	16.905
703.64	22.059
703.96	22.093
704.28	20.414
704.60	17.405
704.91	17.460
705.23	17.152
705.55	18.581
705.87	18.430
706.19	15.278
706.51	22.917
706.83	20.984
707.15	19.427
707.47	21.212
707.79	19.330
708.11	15.013
708.43	19.202
708.74	17.922
709.06	17.827
709.38	15.230
709.70	18.125
710.02	21.472
710.34	16.172
710.66	19.365
710.98	19.558
711.29	16.774
711.61	18.850
711.93	19.344
712.25	18.605
712.57	15.679
712.89	22.302
713.20	20.962
713.52	15.299
713.84	20.641
714.16	18.689
714.48	18.095
714.80	23.077
715.11	17.291
715.43	19.880
715.75	16.511
716.07	13.115
716.39	20.401
716.70	17.770
717.02	17.407
717.34	17.176
717.66	20.747
717.97	17.623
718.29	16.807
718.61	22.222
718.93	23.297
719.24	15.441
719.56	17.358
719.88	21.818
720.20	18.352
720.51	19.549
720.83	20.080
721.15	20.492
721.46	18.039
721.78	22.222
722.10	18.800
722.42	16.116
722.73	17.928
723.05	20.482
723.37	22.353
723.68	21.862
724.00	19.919
724.32	17.695
724.63	17.012
724.95	18.595
725.27	16.667
725.58	16.810
725.90	16.667
726.22	23.247
726.53	19.772
726.85	11.765
727.16	16.165
727.48	13.846
727.80	13.525
728.11	18.067
728.43	16.529
728.74	22.656
729.06	17.045
729.38	19.844
729.69	19.685
730.01	18.504
730.32	15.936
730.64	19.048
730.96	18.284
731.27	16.071
731.59	16.399
731.90	13.804
732.22	19.325
732.53	17.881
732.85	16.107
733.16	20.652
733.48	18.815
733.80	14.235
734.11	17.586
734.43	21.429
734.74	16.617
735.06	17.555
735.37	20.795
735.69	13.548
736.00	17.845
736.32	14.901
736.63	14.828
736.95	14.130
737.26	17.550
737.58	19.065
737.89	17.563
738.21	13.910
738.52	16.538
738.83	16.406
739.15	14.957
739.46	20.968
739.78	18.531
740.09	15.734
740.41	15.035
740.72	21.898
741.04	17.857
741.35	16.017
741.66	17.130
741.98	11.429
742.29	20.188
742.61	18.717
742.92	23.364
743.23	12.281
743.55	18.468
743.86	22.222
744.18	21.429
744.49	18.227
744.80	18.782
745.12	18.041
745.43	20.603
745.74	16.505
746.06	15.122
746.37	20.264
746.68	13.930
747.00	21.990
747.31	11.538
747.62	14.286
747.94	17.467
748.25	14.419
748.56	19.524
748.88	10.326
749.19	20.188
749.50	23.529
749.82	16.889
750.13	23.348
750.44	17.886
750.75	13.200
751.07	20.357
751.38	16.974
751.69	15.649
752.01	20.385
752.32	17.510
752.63	13.846
752.94	17.857
753.26	18.261
753.57	17.411
753.88	19.828
754.19	17.427
754.51	18.359
754.82	14.625
755.13	15.638
755.44	16.116
755.75	21.399
756.07	10.040
756.38	13.281
756.69	20.217
757.00	16.725
757.31	17.450
757.63	19.315
757.94	13.873
758.25	16.279
758.56	21.833
758.87	15.625
759.18	18.667
759.50	18.861
759.81	15.693
760.12	14.865
760.43	18.123
760.74	23.437
761.05	18.539
761.36	18.263
761.67	17.456
761.99	14.839
762.30	14.855
762.61	18.491
762.92	19.283
763.23	16.114
763.54	13.333
763.85	14.346
764.16	17.551
764.47	19.068
764.78	17.228
765.10	17.626
765.41	15.806
765.72	17.296
766.03	9.894
766.34	18.421
766.65	16.194
766.96	8.000
767.27	11.458
767.58	9.302
767.89	9.032
768.20	19.632
768.51	18.033
768.82	19.459
769.13	13.000
769.44	16.667
769.75	16.883
770.06	16.972
770.37	16.901
770.68	13.021
770.99	14.356
771.30	18.447
771.61	14.352
771.92	12.121
772.23	15.421
772.54	10.638
772.85	10.059
773.16	9.146
773.47	15.060
773.78	17.582
774.09	18.000
774.39	16.049
774.70	15.436
775.01	19.565
775.32	17.164
775.63	7.438
775.94	17.293
776.25	14.286
776.56	18.852
776.87	13.274
777.18	19.469
777.48	11.818
777.79	14.783
778.10	10.092
778.41	16.949
778.72	23.140
779.03	14.925
779.34	21.805
779.65	10.458
779.95	24.638
780.26	10.204
780.57	1.724
780.88	6.481
781.19	3.030
781.50	7.200
781.80	19.608
782.11	12.821
782.42	15.663
782.73	-0.730
783.04	13.514
783.34	10.606
783.65	17.054
783.96	19.512
784.27	22.222
784.57	4.065
784.88	1.626
785.19	18.421
785.50	-6.186
785.81	15.238
786.11	6.863
786.42	20.000
786.73	13.514
787.04	22.772
787.34	13.333
787.65	3.810
787.96	15.686
788.26	8.108
788.57	17.742
788.88	7.812
789.19	12.821
789.49	5.042
789.80	16.239
790.11	15.929
790.41	10.101
790.72	16.038
791.03	-5.556
791.33	14.474
791.64	11.828
791.95	4.000
792.25	-4.286
792.56	8.537
792.87	14.286
793.17	7.895
793.48	-14.865
793.79	12.676
794.09	0.000
794.40	14.894
794.70	9.346
795.01	11.404
795.32	7.273
795.62	10.714
795.93	8.247
796.23	14.286
796.54	16.842
796.85	5.479
797.15	4.167
797.46	20.548
797.76	22.535
798.07	11.250
798.37	1.471
798.68	20.000
798.99	8.571
799.29	15.789
799.60	18.333
799.90	18.056
800.21	-1.563
800.51	19.048
800.82	22.951
801.12	8.772
801.43	14.085
801.73	-5.085
802.04	22.951
802.34	3.636
802.65	1.923
802.95	16.667
803.26	-25.000
803.56	9.615
803.87	-10.526
804.17	0.000
804.48	10.769
804.78	-7.692
805.09	-4.651
805.39	-15.625
805.70	-7.547
806.00	26.316
806.30	10.811
806.61	1.471
806.91	8.642
807.22	10.667
807.52	11.940
807.83	11.290
808.13	-9.524
808.43	-9.091
808.74	7.576
809.04	5.660
809.35	12.329
809.65	22.807
809.95	13.235
810.26	19.608
810.56	-6.000
810.86	2.041
811.17	-17.143
811.47	-26.923
811.77	0.000
812.08	-28.947
812.38	26.190
812.69	-17.391
812.99	0.000
813.29	-14.286
813.59	-62.963
813.90	10.638
814.20	-11.628
814.50	4.167
814.81	10.000
815.11	0.000
815.41	-16.667
815.72	2.857
816.02	-8.333
816.32	20.513
816.62	-13.514
816.93	-29.412
817.23	6.522
817.53	29.412
817.84	0.000
818.14	-46.875
818.44	-31.034
818.74	-41.935
819.04	-3.704
819.35	10.000
819.65	4.000
819.95	-20.000
820.25	-8.000
820.56	-2.632
820.86	-10.000
821.16	10.638
821.46	6.897
821.76	-35.897
822.07	-5.000
822.37	-2.326
822.67	0.000
822.97	-21.622
823.27	2.703
823.57	28.000
823.88	-10.811
824.18	-61.905
824.48	23.077
824.78	-92.308
825.08	-26.087
825.38	25.000
825.69	-20.833
825.99	-50.000
826.29	-59.459
826.59	-14.706
826.89	-12.000
827.19	-14.286
827.49	-10.526
827.79	-28.125
828.09	-43.333
828.39	13.043
828.70	-44.828
829.00	-13.793
829.30	5.556
829.60	37.500
829.90	-16.667
830.20	-3.846
830.50	-23.810
830.80	-39.286
831.10	17.949
831.40	-52.381
831.70	-2.941
832.00	-12.500
832.30	-10.526
832.60	-31.250
832.90	-141.667
833.20	-117.647
833.50	-60.000
833.80	-73.333
834.10	-65.000
834.40	-41.667
834.70	-22.222
835.00	50.000
835.30	-8.333
835.60	-27.586
835.90	-5.556
836.20	-118.182
836.50	-58.333
836.80	-11.429
837.10	65.714
837.40	-70.588
837.70	-154.545
838.00	4.167
838.30	-12.500
838.60	-38.095
838.90	50.000
839.19	-21.739
839.49	-52.174
839.79	-72.222
840.09	-8.696
840.39	-59.091
840.69	-31.250
840.99	-10.526
841.29	6.250
841.59	-128.571
841.88	-16.667
842.18	-54.167
842.48	-82.353
842.78	3.448
843.08	-57.143
843.38	-23.077
843.68	-111.111
843.97	-92.308
844.27	-45.455
844.57	-280.000
844.87	-4.000
845.17	-180.000
845.47	-14.286
845.76	-55.556
846.06	0.000
846.36	-450.000
846.66	-130.000
846.96	-31.579
847.25	-16.667
847.55	-25.000
847.85	13.333
848.15	-50.000
848.44	34.615
848.74	10.526
849.04	566.667
849.34	-122.222
849.63	-57.895
849.93	0.000
850.23	-30.000
850.53	-14.286
850.82	4.000
851.12	-31.579
851.42	-300.000
851.71	-7.143
852.01	-33.333
852.31	35.294
852.61	20.000
852.90	-52.381
853.20	-100.000
853.50	-44.444
853.79	0.000
854.09	-20.000
854.39	-21.429
854.68	-21.739
854.98	-233.333
855.28	-10.345
855.57	0.000
855.87	-20.000
856.17	-93.333
856.46	6.897
856.76	-46.667
857.05	-52.941
857.35	-192.308
857.65	18.182
857.94	11.111
858.24	-35.714
858.53	-150.000
858.83	-66.667
859.13	-144.444
859.42	52.381
859.72	-200.000
860.01	-333.333
860.31	-25.000
860.60	-380.000
860.90	-166.667
861.20	-37.500
861.49	-157.143
861.79	-5.882
862.08	-1150.000
862.38	-33.333
862.67	-30.769
862.97	-5.882
863.26	35.000
863.56	-41.176
863.85	333.333
864.15	-90.000
864.44	38.462
864.74	-10.000
865.03	-87.500
865.33	-166.667
865.62	-41.176
865.92	-400.000
866.21	-128.571
866.51	-108.333
866.80	-400.000
867.10	-133.333
867.39	-5.882
867.69	30.435
867.98	28.571
868.27	-160.000
868.57	-106.250
868.86	-145.455
869.16	0.000
869.45	-50.000
869.75	-157.143
870.04	500.000
870.33	-50.000
870.63	-200.000
870.92	-11.111
871.22	-25.000
871.51	-9.091
871.80	-33.333
872.10	80.000
>>>>>End Processed Spectral Data<<<<<
