SpectraSuite Data File
++++++++++++++++++++++++++++++++++++
Date: Sat May 16 11:42:18 PDT 2015
User: schluterlab
Dark Spectrum Present: Yes
Reference Spectrum Present: Yes
Number of Sampled Component Spectra: 1
Spectrometers: USB2E3373
Integration Time (usec): 3000 (USB2E3373)
Spectra Averaged: 3 (USB2E3373)
Boxcar Smoothing: 0 (USB2E3373)
Correct for Electrical Dark: No (USB2E3373)
Strobe/Lamp Enabled: No (USB2E3373)
Correct for Detector Non-linearity: No (USB2E3373)
Correct for Stray Light: No (USB2E3373)
Number of Pixels in Processed Spectrum: 2048
>>>>>Begin Processed Spectral Data<<<<<
178.53	0.000
178.91	120.000
179.29	566.667
179.67	-800.000
180.04	-69.231
180.42	500.000
180.80	550.000
181.18	500.000
181.56	-162.500
181.94	-0.000
182.31	575.000
182.69	-176.923
183.07	-566.667
183.45	1800.000
183.83	866.667
184.20	-228.571
184.58	-175.000
184.96	-275.000
185.34	143.750
185.72	-250.000
186.09	250.000
186.47	-212.500
186.85	-262.500
187.23	-262.500
187.61	-225.000
187.98	-287.500
188.36	-125.000
188.74	-87.500
189.12	800.000
189.49	214.286
189.87	-25.000
190.25	600.000
190.63	-135.714
191.00	-155.556
191.38	420.000
191.76	-6.667
192.14	260.000
192.51	-460.000
192.89	-633.333
193.27	0.000
193.65	-155.556
194.02	-242.857
194.40	400.000
194.78	-30.000
195.15	-1000.000
195.53	-90.909
195.91	-600.000
196.29	80.000
196.66	-466.667
197.04	2600.000
197.42	-325.000
197.79	20.000
198.17	-400.000
198.55	-1050.000
198.92	-1000.000
199.30	125.000
199.68	-550.000
200.05	-166.667
200.43	-155.556
200.81	-1900.000
201.18	-108.333
201.56	214.286
201.94	-20.000
202.31	4.545
202.69	-100.000
203.07	-110.000
203.44	666.667
203.82	-300.000
204.19	-350.000
204.57	-175.000
204.95	-1800.000
205.32	-25.000
205.70	1600.000
206.08	-2800.000
206.45	-100.000
206.83	-900.000
207.20	-700.000
207.58	-566.667
207.96	-533.333
208.33	-275.000
208.71	-122.222
209.08	220.000
209.46	-214.286
209.84	1150.000
210.21	0.000
210.59	-25.000
210.96	300.000
211.34	-250.000
211.71	-500.000
212.09	425.000
212.46	1100.000
212.84	-2500.000
213.22	733.333
213.59	116.667
213.97	-44.444
214.34	180.000
214.72	-110.000
215.09	-400.000
215.47	-200.000
215.84	-60.000
216.22	-50.000
216.59	33.333
216.97	-675.000
217.34	1000.000
217.72	-57.143
218.09	-433.333
218.47	-214.286
218.84	200.000
219.22	-100.000
219.59	0.000
219.97	357.143
220.34	350.000
220.72	275.000
221.09	-107.692
221.47	0.000
221.84	433.333
222.22	-600.000
222.59	1500.000
222.97	-262.500
223.34	-650.000
223.72	-400.000
224.09	-71.429
224.46	-200.000
224.84	-92.857
225.21	-171.429
225.59	-18.182
225.96	-187.500
226.34	-128.571
226.71	-155.556
227.08	5.000
227.46	2600.000
227.83	-185.714
228.21	-250.000
228.58	450.000
228.95	-75.000
229.33	-1600.000
229.70	-380.000
230.08	-400.000
230.45	-25.000
230.82	-200.000
231.20	-1300.000
231.57	-1050.000
231.95	2400.000
232.32	-42.857
232.69	-77.778
233.07	-185.714
233.44	-1300.000
233.81	-160.000
234.19	-66.667
234.56	-125.000
234.93	-12.500
235.31	-300.000
235.68	-121.429
236.05	-52.941
236.43	-113.636
236.80	-22.581
237.17	-50.000
237.55	-61.905
237.92	-31.818
238.29	-17.143
238.67	20.588
239.04	-11.111
239.41	-25.806
239.79	-56.410
240.16	-40.476
240.53	-23.636
240.91	-2.564
241.28	-5.455
241.65	-10.769
242.02	-19.672
242.40	-16.393
242.77	-25.758
243.14	-18.644
243.51	-20.000
243.89	-25.316
244.26	7.865
244.63	-8.421
245.00	-5.263
245.38	5.932
245.75	7.965
246.12	-2.400
246.49	11.811
246.87	-8.943
247.24	3.390
247.61	-1.695
247.98	-6.338
248.36	-7.692
248.73	5.063
249.10	0.000
249.47	1.754
249.84	2.273
250.22	-4.167
250.59	5.085
250.96	-3.141
251.33	7.109
251.70	5.288
252.08	5.687
252.45	0.000
252.82	1.905
253.19	3.404
253.56	5.242
253.94	3.376
254.31	4.721
254.68	5.285
255.05	2.823
255.42	7.540
255.79	3.226
256.16	6.275
256.54	8.088
256.91	4.924
257.28	4.762
257.65	3.191
258.02	6.604
258.39	6.020
258.76	7.770
259.14	6.790
259.51	9.508
259.88	5.488
260.25	6.522
260.62	3.537
260.99	4.451
261.36	4.878
261.73	6.936
262.10	9.722
262.47	7.123
262.85	8.286
263.22	4.585
263.59	6.462
263.96	10.435
264.33	7.046
264.70	4.144
265.07	8.516
265.44	4.134
265.81	8.527
266.18	4.810
266.55	5.882
266.92	7.809
267.29	3.874
267.66	7.160
268.03	10.145
268.40	7.512
268.77	7.711
269.14	4.408
269.51	9.885
269.88	2.294
270.25	2.797
270.62	4.805
270.99	7.207
271.36	7.692
271.73	7.175
272.10	5.721
272.47	5.333
272.84	6.667
273.21	6.422
273.58	7.912
273.95	6.579
274.32	8.597
274.69	7.221
275.06	7.771
275.43	6.027
275.80	7.536
276.17	5.649
276.54	11.405
276.91	6.584
277.28	9.128
277.65	6.612
278.02	5.846
278.39	7.662
278.76	5.378
279.13	6.917
279.50	5.765
279.87	6.765
280.23	7.692
280.60	8.549
280.97	6.214
281.34	9.478
281.71	6.923
282.08	6.250
282.45	6.110
282.82	4.264
283.19	7.091
283.56	8.242
283.92	6.890
284.29	6.320
284.66	7.554
285.03	6.952
285.40	6.642
285.77	7.719
286.14	7.040
286.51	7.282
286.87	7.078
287.24	6.826
287.61	6.612
287.98	6.759
288.35	6.612
288.72	5.942
289.08	5.085
289.45	7.576
289.82	6.228
290.19	7.553
290.56	6.116
290.93	7.313
291.29	4.700
291.66	6.602
292.03	7.535
292.40	6.928
292.77	7.143
293.13	7.154
293.50	6.389
293.87	5.675
294.24	6.033
294.60	3.939
294.97	8.346
295.34	6.370
295.71	5.952
296.08	4.147
296.44	4.292
296.81	5.840
297.18	4.507
297.55	7.203
297.91	6.695
298.28	5.342
298.65	6.695
299.02	8.289
299.38	6.150
299.75	6.386
300.12	5.641
300.48	7.289
300.85	5.111
301.22	6.856
301.59	6.242
301.95	5.416
302.32	5.215
302.69	6.610
303.05	6.349
303.42	7.125
303.79	5.861
304.15	6.161
304.52	6.651
304.89	6.730
305.25	4.274
305.62	5.288
305.99	7.185
306.35	5.993
306.72	4.897
307.09	7.719
307.45	6.356
307.82	5.028
308.19	6.264
308.55	6.863
308.92	5.800
309.29	5.514
309.65	5.302
310.02	5.400
310.38	4.865
310.75	5.840
311.12	7.128
311.48	6.994
311.85	6.694
312.22	6.282
312.58	7.528
312.95	6.320
313.31	6.494
313.68	6.633
314.05	7.418
314.41	5.533
314.78	5.395
315.14	7.206
315.51	5.775
315.87	8.132
316.24	7.094
316.61	8.157
316.97	7.065
317.34	6.936
317.70	6.865
318.07	7.463
318.43	6.648
318.80	7.418
319.16	5.816
319.53	6.579
319.89	6.115
320.26	7.255
320.62	5.769
320.99	7.164
321.35	6.010
321.72	6.039
322.08	7.517
322.45	7.525
322.81	7.973
323.18	6.916
323.54	7.763
323.91	7.322
324.27	7.224
324.64	6.490
325.00	8.028
325.37	7.511
325.73	9.449
326.10	7.174
326.46	7.793
326.83	7.745
327.19	8.340
327.56	9.199
327.92	7.732
328.29	7.965
328.65	7.364
329.01	8.834
329.38	7.939
329.74	10.165
330.11	9.701
330.47	7.993
330.84	9.624
331.20	8.935
331.56	8.751
331.93	8.970
332.29	8.219
332.66	9.219
333.02	9.502
333.38	9.767
333.75	8.905
334.11	9.067
334.48	9.091
334.84	10.411
335.20	9.840
335.57	9.838
335.93	9.579
336.29	9.920
336.66	8.899
337.02	9.099
337.38	9.715
337.75	10.360
338.11	8.587
338.47	9.786
338.84	10.345
339.20	9.666
339.56	10.873
339.93	9.612
340.29	9.566
340.65	9.091
341.02	10.540
341.38	9.267
341.74	9.822
342.11	9.642
342.47	9.442
342.83	9.488
343.20	8.967
343.56	8.000
343.92	11.853
344.28	10.934
344.65	9.323
345.01	9.748
345.37	10.299
345.73	9.411
346.10	8.258
346.46	9.586
346.82	9.783
347.19	10.271
347.55	9.551
347.91	9.843
348.27	9.785
348.63	10.097
349.00	10.819
349.36	9.290
349.72	10.032
350.08	10.024
350.45	9.377
350.81	10.111
351.17	8.762
351.53	9.228
351.89	9.863
352.26	10.310
352.62	10.522
352.98	9.652
353.34	10.392
353.70	10.965
354.07	10.228
354.43	9.960
354.79	10.143
355.15	9.265
355.51	9.687
355.87	9.802
356.24	8.817
356.60	9.992
356.96	9.777
357.32	11.243
357.68	10.651
358.04	9.700
358.40	10.209
358.77	10.278
359.13	9.946
359.49	9.826
359.85	9.223
360.21	10.426
360.57	10.392
360.93	10.519
361.29	10.987
361.66	9.146
362.02	10.355
362.38	9.685
362.74	9.963
363.10	9.900
363.46	11.752
363.82	10.714
364.18	10.564
364.54	11.580
364.90	10.692
365.26	9.700
365.62	11.404
365.98	10.882
366.35	10.423
366.71	10.782
367.07	10.586
367.43	11.119
367.79	10.515
368.15	10.100
368.51	11.119
368.87	10.920
369.23	10.175
369.59	10.625
369.95	11.416
370.31	11.252
370.67	9.689
371.03	10.569
371.39	10.042
371.75	11.660
372.11	11.334
372.47	11.714
372.83	11.752
373.19	10.786
373.55	11.330
373.91	11.024
374.27	10.883
374.63	10.214
374.99	11.405
375.35	10.431
375.71	12.897
376.07	11.362
376.42	10.662
376.78	11.307
377.14	11.051
377.50	11.283
377.86	11.183
378.22	11.495
378.58	11.859
378.94	11.159
379.30	11.395
379.66	11.779
380.02	11.289
380.38	10.453
380.74	10.551
381.09	12.127
381.45	11.695
381.81	10.587
382.17	12.343
382.53	12.280
382.89	11.304
383.25	11.981
383.61	11.733
383.97	11.635
384.32	11.014
384.68	11.850
385.04	11.775
385.40	11.808
385.76	11.585
386.12	11.493
386.48	11.943
386.83	11.902
387.19	11.835
387.55	12.053
387.91	11.559
388.27	11.218
388.62	11.959
388.98	11.205
389.34	12.056
389.70	11.754
390.06	11.746
390.42	12.308
390.77	12.114
391.13	12.671
391.49	12.102
391.85	12.157
392.20	11.893
392.56	12.340
392.92	12.664
393.28	12.170
393.64	12.989
393.99	12.738
394.35	12.774
394.71	11.921
395.07	12.806
395.42	11.859
395.78	12.508
396.14	13.271
396.50	12.232
396.85	12.215
397.21	13.244
397.57	12.401
397.92	12.119
398.28	12.778
398.64	12.314
399.00	12.528
399.35	12.909
399.71	13.647
400.07	12.896
400.42	13.321
400.78	12.880
401.14	12.635
401.49	11.969
401.85	12.935
402.21	13.111
402.57	12.803
402.92	13.593
403.28	12.929
403.63	12.463
403.99	12.430
404.35	12.802
404.70	12.580
405.06	13.610
405.42	12.485
405.77	12.443
406.13	11.868
406.49	13.182
406.84	12.178
407.20	13.369
407.55	13.426
407.91	11.917
408.27	13.787
408.62	13.049
408.98	12.674
409.34	12.492
409.69	12.917
410.05	12.796
410.40	12.630
410.76	13.100
411.11	13.030
411.47	12.404
411.83	13.509
412.18	13.676
412.54	13.057
412.89	13.001
413.25	12.633
413.60	12.333
413.96	12.693
414.31	14.006
414.67	12.952
415.03	13.519
415.38	13.273
415.74	13.531
416.09	13.427
416.45	13.426
416.80	14.174
417.16	13.953
417.51	13.395
417.87	13.139
418.22	12.389
418.58	12.901
418.93	13.305
419.29	12.861
419.64	13.065
420.00	13.487
420.35	13.247
420.71	13.505
421.06	14.260
421.42	12.646
421.77	13.791
422.12	13.766
422.48	13.415
422.83	13.952
423.19	13.196
423.54	13.256
423.90	13.071
424.25	13.631
424.61	13.752
424.96	14.043
425.31	12.465
425.67	14.040
426.02	13.196
426.38	13.551
426.73	14.611
427.09	13.664
427.44	14.602
427.79	12.733
428.15	14.303
428.50	14.428
428.85	13.969
429.21	14.222
429.56	13.958
429.92	13.778
430.27	14.506
430.62	14.420
430.98	13.853
431.33	14.408
431.68	14.853
432.04	14.829
432.39	13.903
432.74	14.269
433.10	13.731
433.45	14.162
433.80	14.894
434.16	14.938
434.51	14.795
434.86	15.290
435.22	14.143
435.57	14.688
435.92	13.892
436.28	14.184
436.63	14.245
436.98	14.204
437.34	14.176
437.69	14.527
438.04	14.804
438.39	14.681
438.75	14.843
439.10	14.492
439.45	14.363
439.81	15.422
440.16	14.480
440.51	15.059
440.86	14.748
441.22	14.317
441.57	14.263
441.92	14.834
442.27	15.097
442.63	14.163
442.98	13.600
443.33	15.047
443.68	14.382
444.03	14.882
444.39	14.782
444.74	15.033
445.09	15.625
445.44	15.307
445.79	14.737
446.15	15.334
446.50	14.045
446.85	14.469
447.20	14.556
447.55	14.751
447.91	15.665
448.26	14.302
448.61	14.714
448.96	16.190
449.31	16.009
449.66	15.112
450.02	14.848
450.37	14.203
450.72	15.311
451.07	15.462
451.42	14.374
451.77	15.500
452.12	15.137
452.47	15.302
452.83	15.492
453.18	15.876
453.53	15.112
453.88	15.909
454.23	14.329
454.58	16.346
454.93	16.436
455.28	15.551
455.63	15.663
455.98	15.843
456.34	15.565
456.69	16.323
457.04	15.673
457.39	14.414
457.74	14.708
458.09	15.487
458.44	15.647
458.79	14.742
459.14	15.516
459.49	16.282
459.84	15.683
460.19	15.931
460.54	15.729
460.89	14.910
461.24	16.090
461.59	16.530
461.94	16.104
462.29	16.438
462.64	15.547
462.99	16.332
463.34	15.733
463.69	15.522
464.04	15.524
464.39	15.412
464.74	16.371
465.09	15.454
465.44	16.356
465.79	15.510
466.14	16.226
466.49	16.120
466.84	16.206
467.19	15.648
467.54	15.506
467.89	16.461
468.24	15.796
468.59	16.490
468.94	16.270
469.29	15.530
469.64	15.768
469.99	16.543
470.34	16.700
470.68	16.715
471.03	16.793
471.38	16.181
471.73	16.084
472.08	16.131
472.43	16.023
472.78	16.467
473.13	14.645
473.48	16.528
473.83	16.563
474.17	16.815
474.52	17.775
474.87	16.667
475.22	16.873
475.57	15.944
475.92	16.847
476.27	16.000
476.61	16.282
476.96	16.657
477.31	16.900
477.66	16.602
478.01	17.072
478.36	15.977
478.70	17.085
479.05	17.307
479.40	16.528
479.75	16.871
480.10	16.419
480.45	16.151
480.79	16.782
481.14	16.658
481.49	17.183
481.84	16.505
482.19	17.725
482.53	16.714
482.88	17.133
483.23	16.995
483.58	16.929
483.92	17.152
484.27	16.571
484.62	16.933
484.97	16.875
485.31	16.352
485.66	16.048
486.01	15.478
486.36	15.935
486.70	16.701
487.05	16.298
487.40	16.720
487.75	16.704
488.09	16.430
488.44	17.084
488.79	16.802
489.13	17.573
489.48	17.496
489.83	17.249
490.17	17.283
490.52	17.708
490.87	17.229
491.22	17.282
491.56	17.500
491.91	17.653
492.26	17.358
492.60	17.079
492.95	17.563
493.30	17.485
493.64	17.160
493.99	18.021
494.34	17.286
494.68	17.743
495.03	17.256
495.37	17.896
495.72	17.141
496.07	17.879
496.41	17.508
496.76	17.717
497.11	17.381
497.45	17.577
497.80	17.009
498.14	16.798
498.49	16.926
498.84	16.893
499.18	17.300
499.53	17.876
499.87	17.133
500.22	17.941
500.56	18.109
500.91	16.897
501.26	18.098
501.60	17.236
501.95	17.729
502.29	17.667
502.64	18.529
502.98	17.920
503.33	17.575
503.67	17.289
504.02	17.479
504.36	18.039
504.71	17.477
505.06	17.773
505.40	18.114
505.75	18.191
506.09	17.644
506.44	18.296
506.78	18.665
507.13	17.302
507.47	18.049
507.82	17.914
508.16	18.238
508.51	17.671
508.85	17.805
509.19	18.420
509.54	18.023
509.88	18.404
510.23	18.449
510.57	18.783
510.92	19.012
511.26	18.501
511.61	18.035
511.95	18.427
512.30	18.032
512.64	17.140
512.98	19.142
513.33	19.220
513.67	18.481
514.02	18.568
514.36	18.837
514.70	17.997
515.05	18.811
515.39	18.512
515.74	18.848
516.08	18.790
516.42	19.377
516.77	19.353
517.11	18.879
517.46	18.959
517.80	19.374
518.14	18.720
518.49	19.307
518.83	18.991
519.17	19.301
519.52	18.797
519.86	18.937
520.20	19.499
520.55	19.508
520.89	18.159
521.23	19.475
521.58	18.997
521.92	19.823
522.26	19.937
522.61	19.455
522.95	19.528
523.29	19.561
523.64	19.176
523.98	19.096
524.32	19.107
524.66	18.447
525.01	19.075
525.35	19.394
525.69	18.673
526.04	19.060
526.38	20.878
526.72	19.093
527.06	20.312
527.41	19.208
527.75	18.614
528.09	19.523
528.43	19.344
528.78	18.844
529.12	20.166
529.46	19.781
529.80	19.238
530.15	19.897
530.49	19.017
530.83	20.236
531.17	19.394
531.51	19.692
531.86	19.421
532.20	19.163
532.54	20.187
532.88	19.104
533.22	18.850
533.57	19.256
533.91	19.101
534.25	19.359
534.59	18.301
534.93	18.419
535.27	18.943
535.62	19.629
535.96	18.940
536.30	18.652
536.64	19.788
536.98	19.845
537.32	18.452
537.66	18.941
538.01	18.969
538.35	19.392
538.69	19.652
539.03	19.431
539.37	18.896
539.71	19.813
540.05	19.054
540.39	20.222
540.73	18.659
541.07	19.740
541.42	19.109
541.76	18.140
542.10	20.122
542.44	19.387
542.78	19.946
543.12	19.009
543.46	19.110
543.80	18.395
544.14	19.006
544.48	19.029
544.82	19.689
545.16	19.718
545.50	18.708
545.84	19.054
546.18	19.903
546.52	20.555
546.86	19.302
547.20	20.183
547.54	19.077
547.88	19.642
548.22	19.135
548.56	18.971
548.90	19.744
549.24	19.902
549.58	18.772
549.92	19.435
550.26	20.014
550.60	19.915
550.94	19.708
551.28	20.241
551.62	19.055
551.96	19.826
552.30	20.000
552.64	18.719
552.98	19.832
553.32	18.831
553.66	19.899
554.00	19.616
554.34	18.989
554.68	18.933
555.02	18.813
555.36	18.620
555.69	19.269
556.03	18.737
556.37	19.630
556.71	19.041
557.05	19.882
557.39	20.490
557.73	20.642
558.07	19.367
558.41	19.222
558.75	19.468
559.08	17.665
559.42	19.066
559.76	19.862
560.10	20.656
560.44	20.376
560.78	19.555
561.12	19.324
561.45	20.205
561.79	19.373
562.13	19.986
562.47	19.188
562.81	18.529
563.15	19.664
563.48	19.419
563.82	19.135
564.16	19.946
564.50	19.556
564.84	19.312
565.17	19.098
565.51	19.426
565.85	20.690
566.19	19.829
566.52	19.048
566.86	19.090
567.20	19.249
567.54	18.842
567.88	18.816
568.21	19.128
568.55	19.300
568.89	18.042
569.23	17.862
569.56	17.360
569.90	18.371
570.24	17.888
570.57	17.153
570.91	16.865
571.25	18.029
571.59	16.922
571.92	17.083
572.26	17.765
572.60	17.561
572.93	16.940
573.27	16.829
573.61	17.063
573.95	17.137
574.28	16.572
574.62	17.438
574.96	17.298
575.29	17.175
575.63	17.229
575.97	16.775
576.30	16.964
576.64	16.710
576.98	16.895
577.31	16.663
577.65	16.506
577.98	16.732
578.32	16.712
578.66	16.980
578.99	17.363
579.33	17.759
579.67	17.398
580.00	16.766
580.34	16.267
580.67	16.916
581.01	16.179
581.35	16.348
581.68	16.508
582.02	17.055
582.35	16.733
582.69	16.724
583.02	17.020
583.36	17.112
583.70	17.435
584.03	17.322
584.37	16.888
584.70	17.605
585.04	16.608
585.37	16.420
585.71	17.102
586.04	16.591
586.38	16.359
586.72	16.516
587.05	17.247
587.39	16.717
587.72	17.122
588.06	17.276
588.39	17.203
588.73	17.743
589.06	17.168
589.40	17.829
589.73	17.918
590.07	16.861
590.40	17.934
590.73	17.433
591.07	17.664
591.40	17.981
591.74	17.724
592.07	17.568
592.41	17.113
592.74	17.141
593.08	17.233
593.41	16.842
593.75	16.650
594.08	17.469
594.41	17.412
594.75	18.007
595.08	17.669
595.42	17.522
595.75	17.163
596.09	17.229
596.42	17.921
596.75	18.025
597.09	17.854
597.42	17.809
597.75	17.936
598.09	18.482
598.42	17.234
598.76	17.276
599.09	16.969
599.42	16.878
599.76	17.516
600.09	17.023
600.42	17.015
600.76	16.949
601.09	17.129
601.42	17.016
601.76	17.445
602.09	17.137
602.42	17.531
602.76	17.200
603.09	17.218
603.42	17.647
603.76	17.511
604.09	17.621
604.42	17.319
604.76	17.837
605.09	17.495
605.42	17.553
605.75	16.516
606.09	17.642
606.42	17.009
606.75	17.604
607.09	17.292
607.42	17.518
607.75	17.528
608.08	18.030
608.42	18.117
608.75	17.477
609.08	17.828
609.41	17.738
609.75	17.796
610.08	17.451
610.41	17.590
610.74	17.843
611.07	18.053
611.41	16.894
611.74	18.098
612.07	17.938
612.40	17.217
612.73	17.663
613.07	17.942
613.40	18.555
613.73	17.493
614.06	17.847
614.39	18.546
614.72	17.542
615.06	17.663
615.39	17.417
615.72	17.871
616.05	16.842
616.38	17.760
616.71	18.018
617.05	18.335
617.38	18.328
617.71	16.830
618.04	18.447
618.37	18.553
618.70	19.100
619.03	18.483
619.36	19.380
619.69	19.454
620.03	19.215
620.36	18.354
620.69	18.378
621.02	18.569
621.35	19.355
621.68	18.689
622.01	18.932
622.34	19.099
622.67	18.203
623.00	19.434
623.33	19.254
623.66	17.873
623.99	18.872
624.32	18.452
624.65	17.586
624.99	18.447
625.32	18.713
625.65	18.803
625.98	18.310
626.31	20.147
626.64	18.159
626.97	19.264
627.30	18.553
627.63	17.703
627.96	19.234
628.29	19.026
628.62	19.293
628.95	19.685
629.28	20.019
629.61	19.038
629.94	20.321
630.26	20.477
630.59	20.101
630.92	20.320
631.25	19.960
631.58	19.683
631.91	17.872
632.24	19.889
632.57	20.556
632.90	21.034
633.23	21.145
633.56	20.117
633.89	20.401
634.22	19.008
634.55	21.274
634.88	19.347
635.20	18.102
635.53	18.448
635.86	20.025
636.19	19.658
636.52	20.191
636.85	19.134
637.18	18.000
637.51	20.322
637.83	19.308
638.16	20.658
638.49	19.586
638.82	20.335
639.15	20.493
639.48	18.547
639.81	20.194
640.13	18.514
640.46	18.803
640.79	22.129
641.12	21.580
641.45	21.234
641.77	20.359
642.10	18.882
642.43	21.244
642.76	21.575
643.09	20.635
643.41	22.381
643.74	21.304
644.07	21.997
644.40	21.718
644.73	21.782
645.05	20.701
645.38	22.517
645.71	23.024
646.04	22.017
646.36	20.593
646.69	20.415
647.02	20.758
647.35	20.397
647.67	20.620
648.00	21.793
648.33	22.428
648.66	19.839
648.98	22.452
649.31	21.231
649.64	22.188
649.96	21.821
650.29	19.344
650.62	21.687
650.94	22.428
651.27	20.451
651.60	20.934
651.92	22.774
652.25	19.533
652.58	18.910
652.90	21.188
653.23	18.065
653.56	18.896
653.88	20.656
654.21	20.805
654.54	22.425
654.86	21.669
655.19	19.771
655.52	17.687
655.84	15.846
656.17	17.264
656.49	23.502
656.82	24.619
657.15	18.852
657.47	13.869
657.80	10.643
658.13	12.277
658.45	17.031
658.78	16.424
659.10	17.186
659.43	17.361
659.75	17.860
660.08	17.708
660.41	17.166
660.73	18.592
661.06	18.551
661.38	23.214
661.71	22.371
662.03	21.774
662.36	20.469
662.68	20.042
663.01	21.231
663.33	21.315
663.66	24.464
663.98	20.313
664.31	19.687
664.63	22.788
664.96	21.475
665.28	18.872
665.61	19.239
665.93	22.222
666.26	20.850
666.58	23.285
666.91	21.381
667.23	21.272
667.56	20.408
667.88	20.362
668.21	21.659
668.53	22.664
668.86	20.785
669.18	23.516
669.50	21.495
669.83	17.275
670.15	20.179
670.48	21.028
670.80	22.323
671.13	21.445
671.45	21.396
671.77	16.702
672.10	23.866
672.42	20.849
672.75	19.455
673.07	18.198
673.39	21.494
673.72	20.866
674.04	21.019
674.37	18.969
674.69	20.902
675.01	20.213
675.34	19.306
675.66	22.894
675.98	19.604
676.31	20.588
676.63	21.839
676.95	20.354
677.28	20.186
677.60	22.624
677.92	21.806
678.25	20.131
678.57	20.782
678.89	17.400
679.22	21.593
679.54	22.091
679.86	18.400
680.18	21.863
680.51	18.250
680.83	20.571
681.15	21.195
681.48	21.704
681.80	21.169
682.12	18.310
682.44	18.861
682.77	20.996
683.09	22.222
683.41	23.009
683.73	18.950
684.06	20.215
684.38	23.849
684.70	20.370
685.02	19.291
685.34	20.078
685.67	19.129
685.99	16.068
686.31	22.083
686.63	20.922
686.96	15.712
687.28	20.424
687.60	18.555
687.92	20.428
688.24	21.457
688.56	19.038
688.89	19.444
689.21	20.788
689.53	21.379
689.85	20.490
690.17	21.076
690.49	20.323
690.82	19.518
691.14	19.104
691.46	20.177
691.78	20.264
692.10	19.703
692.42	18.667
692.74	18.884
693.06	20.674
693.39	18.568
693.71	18.736
694.03	21.814
694.35	18.736
694.67	17.494
694.99	20.460
695.31	17.857
695.63	17.602
695.95	21.588
696.27	19.202
696.59	19.786
696.91	23.034
697.23	22.656
697.56	20.673
697.88	19.595
698.20	17.345
698.52	17.489
698.84	22.087
699.16	17.857
699.48	19.500
699.80	21.053
700.12	20.403
700.44	15.642
700.76	16.618
701.08	20.058
701.40	17.523
701.72	20.988
702.04	20.513
702.36	22.590
702.68	19.760
703.00	18.841
703.32	20.057
703.64	23.235
703.96	22.093
704.28	19.231
704.60	18.671
704.91	20.952
705.23	21.683
705.55	20.608
705.87	17.065
706.19	17.361
706.51	21.181
706.83	21.639
707.15	22.611
707.47	18.733
707.79	19.072
708.11	15.522
708.43	20.200
708.74	18.442
709.06	16.992
709.38	18.103
709.70	17.500
710.02	23.313
710.34	18.482
710.66	17.460
710.98	19.243
711.29	19.032
711.61	17.252
711.93	17.705
712.25	22.591
712.57	20.209
712.89	17.266
713.20	18.900
713.52	19.776
713.84	20.285
714.16	20.656
714.48	20.952
714.80	17.846
715.11	23.343
715.43	21.988
715.75	19.626
716.07	15.410
716.39	19.732
716.70	20.557
717.02	19.630
717.34	17.939
717.66	19.087
717.97	20.082
718.29	18.487
718.61	24.206
718.93	16.846
719.24	20.956
719.56	18.113
719.88	20.364
720.20	11.236
720.51	17.669
720.83	20.080
721.15	17.213
721.46	22.353
721.78	20.307
722.10	18.800
722.42	18.182
722.73	17.530
723.05	16.064
723.37	23.922
723.68	14.170
724.00	21.138
724.32	20.988
724.63	16.598
724.95	17.769
725.27	19.298
725.58	22.845
725.90	17.460
726.22	20.664
726.53	19.392
726.85	9.804
727.16	19.173
727.48	17.692
727.80	18.033
728.11	16.387
728.43	17.769
728.74	21.484
729.06	17.803
729.38	14.397
729.69	13.780
730.01	18.898
730.32	20.319
730.64	21.612
730.96	20.149
731.27	19.643
731.59	15.756
731.90	17.485
732.22	18.712
732.53	20.199
732.85	16.779
733.16	19.203
733.48	16.028
733.80	15.658
734.11	20.000
734.43	17.347
734.74	17.804
735.06	19.749
735.37	18.349
735.69	16.452
736.00	22.222
736.32	20.861
736.63	14.138
736.95	14.130
737.26	19.536
737.58	18.345
737.89	20.072
738.21	12.030
738.52	18.462
738.83	17.969
739.15	17.094
739.46	17.742
739.78	19.231
740.09	16.084
740.41	16.084
740.72	19.708
741.04	17.857
741.35	15.152
741.66	18.056
741.98	15.238
742.29	17.371
742.61	11.765
742.92	20.093
743.23	17.105
743.55	17.117
743.86	22.222
744.18	16.190
744.49	24.631
744.80	25.381
745.12	22.165
745.43	18.593
745.74	21.845
746.06	21.463
746.37	17.621
746.68	22.886
747.00	20.419
747.31	21.635
747.62	18.894
747.94	17.467
748.25	20.930
748.56	18.095
748.88	15.217
749.19	14.085
749.50	19.608
749.82	21.778
750.13	22.907
750.44	18.293
750.75	18.800
751.07	20.357
751.38	15.129
751.69	18.321
752.01	14.231
752.32	12.840
752.63	16.923
752.94	15.873
753.26	20.870
753.57	22.768
753.88	15.086
754.19	16.598
754.51	17.578
754.82	15.415
755.13	17.284
755.44	19.008
755.75	15.638
756.07	17.269
756.38	16.797
756.69	20.578
757.00	13.937
757.31	22.483
757.63	18.692
757.94	20.231
758.25	14.826
758.56	21.024
758.87	18.750
759.18	13.333
759.50	16.726
759.81	15.693
760.12	13.851
760.43	18.447
760.74	16.875
761.05	21.910
761.36	16.168
761.67	14.497
761.99	16.129
762.30	21.014
762.61	17.736
762.92	19.283
763.23	18.483
763.54	18.667
763.85	17.300
764.16	18.776
764.47	22.034
764.78	19.101
765.10	16.547
765.41	18.710
765.72	15.409
766.03	10.601
766.34	13.534
766.65	20.243
766.96	14.000
767.27	23.437
767.58	21.512
767.89	16.774
768.20	17.791
768.51	14.754
768.82	15.135
769.13	15.000
769.44	16.667
769.75	18.615
770.06	15.596
770.37	17.840
770.68	19.271
770.99	16.832
771.30	12.136
771.61	19.444
771.92	13.853
772.23	19.159
772.54	18.085
772.85	21.302
773.16	18.902
773.47	13.855
773.78	25.824
774.09	20.667
774.39	26.543
774.70	12.081
775.01	14.493
775.32	10.448
775.63	12.397
775.94	18.045
776.25	7.857
776.56	21.311
776.87	22.124
777.18	20.354
777.48	10.000
777.79	10.435
778.10	16.514
778.41	4.237
778.72	21.488
779.03	22.388
779.34	14.286
779.65	16.993
779.95	19.565
780.26	13.605
780.57	12.069
780.88	9.259
781.19	2.020
781.50	12.000
781.80	15.033
782.11	16.026
782.42	16.867
782.73	6.569
783.04	14.189
783.34	15.152
783.65	10.078
783.96	14.634
784.27	11.111
784.57	5.691
784.88	9.756
785.19	18.421
785.50	5.155
785.81	15.238
786.11	6.863
786.42	5.455
786.73	13.514
787.04	5.941
787.34	8.571
787.65	9.524
787.96	17.647
788.26	20.721
788.57	7.258
788.88	11.719
789.19	11.966
789.49	21.008
789.80	21.368
790.11	19.469
790.41	16.162
790.72	19.811
791.03	0.000
791.33	5.263
791.64	20.430
791.95	12.000
792.25	7.143
792.56	17.073
792.87	12.245
793.17	11.842
793.48	2.703
793.79	-8.451
794.09	13.924
794.40	17.021
794.70	12.150
795.01	-12.281
795.32	4.545
795.62	8.929
795.93	2.062
796.23	4.396
796.54	22.105
796.85	4.110
797.15	15.278
797.46	23.288
797.76	14.085
798.07	5.000
798.37	-4.412
798.68	12.857
798.99	22.857
799.29	19.737
799.60	18.333
799.90	2.778
800.21	6.250
800.51	-9.524
800.82	-1.639
801.12	-1.754
801.43	-1.408
801.73	-8.475
802.04	22.951
802.34	5.455
802.65	21.154
802.95	11.111
803.26	5.000
803.56	26.923
803.87	-5.263
804.17	17.742
804.48	10.769
804.78	-30.769
805.09	6.977
805.39	-31.250
805.70	1.887
806.00	24.561
806.30	21.622
806.61	14.706
806.91	8.642
807.22	5.333
807.52	2.985
807.83	0.000
808.13	-1.587
808.43	0.000
808.74	16.667
809.04	0.000
809.35	9.589
809.65	36.842
809.95	17.647
810.26	9.804
810.56	6.000
810.86	0.000
811.17	2.857
811.47	3.846
811.77	-9.677
812.08	-26.316
812.38	-9.524
812.69	-19.565
812.99	0.000
813.29	-7.143
813.59	-51.852
813.90	-25.532
814.20	-23.256
814.50	29.167
814.81	-6.667
815.11	-19.512
815.41	-26.667
815.72	14.286
816.02	-41.667
816.32	-12.821
816.62	-21.622
816.93	-23.529
817.23	19.565
817.53	-17.647
817.84	14.706
818.14	-9.375
818.44	-37.931
818.74	0.000
819.04	-85.185
819.35	-23.333
819.65	-24.000
819.95	-33.333
820.25	-36.000
820.56	10.526
820.86	-12.500
821.16	21.277
821.46	24.138
821.76	-28.205
822.07	-25.000
822.37	9.302
822.67	-33.333
822.97	-29.730
823.27	-8.108
823.57	-24.000
823.88	-24.324
824.18	-57.143
824.48	-3.846
824.78	-107.692
825.08	-13.043
825.38	-50.000
825.69	12.500
825.99	-75.000
826.29	-40.541
826.59	-26.471
826.89	28.000
827.19	28.571
827.49	10.526
827.79	-12.500
828.09	6.667
828.39	-8.696
828.70	-44.828
829.00	-44.828
829.30	5.556
829.60	18.750
829.90	-44.444
830.20	-65.385
830.50	-95.238
830.80	-10.714
831.10	5.128
831.40	-57.143
831.70	-8.824
832.00	-33.333
832.30	-94.737
832.60	-100.000
832.90	-133.333
833.20	-70.588
833.50	-100.000
833.80	-66.667
834.10	-45.000
834.40	-37.500
834.70	11.111
835.00	-15.385
835.30	-33.333
835.60	-37.931
835.90	-88.889
836.20	-127.273
836.50	-75.000
836.80	-22.857
837.10	2.857
837.40	-70.588
837.70	-190.909
838.00	12.500
838.30	-43.750
838.60	-42.857
838.90	-20.000
839.19	-69.565
839.49	-73.913
839.79	-27.778
840.09	-73.913
840.39	-18.182
840.69	-93.750
840.99	-31.579
841.29	-68.750
841.59	-171.429
841.88	-94.444
842.18	-29.167
842.48	-123.529
842.78	-6.897
843.08	-57.143
843.38	-38.462
843.68	-200.000
843.97	-76.923
844.27	-81.818
844.57	-220.000
844.87	44.000
845.17	-320.000
845.47	-28.571
845.76	-188.889
846.06	0.000
846.36	-325.000
846.66	-220.000
846.96	36.842
847.25	-45.833
847.55	-75.000
847.85	-113.333
848.15	-160.000
848.44	11.538
848.74	10.526
849.04	766.667
849.34	-166.667
849.63	-63.158
849.93	0.000
850.23	-75.000
850.53	42.857
850.82	-28.000
851.12	-5.263
851.42	-1000.000
851.71	-28.571
852.01	-58.333
852.31	-23.529
852.61	-60.000
852.90	-38.095
853.20	-266.667
853.50	16.667
853.79	-84.211
854.09	-106.667
854.39	25.000
854.68	0.000
854.98	-208.333
855.28	-13.793
855.57	-37.500
855.87	-70.000
856.17	-120.000
856.46	-37.931
856.76	-66.667
857.05	-47.059
857.35	-138.462
857.65	-36.364
857.94	-22.222
858.24	-57.143
858.53	-92.857
858.83	-66.667
859.13	-188.889
859.42	19.048
859.72	-212.500
860.01	-233.333
860.31	-237.500
860.60	-240.000
860.90	-255.556
861.20	-162.500
861.49	-257.143
861.79	29.412
862.08	-850.000
862.38	-83.333
862.67	-7.692
862.97	-23.529
863.26	-100.000
863.56	-47.059
863.85	600.000
864.15	-160.000
864.44	-69.231
864.74	-10.000
865.03	-200.000
865.33	-300.000
865.62	-94.118
865.92	-425.000
866.21	-114.286
866.51	-141.667
866.80	-2200.000
867.10	-800.000
867.39	-64.706
867.69	-26.087
867.98	-85.714
868.27	-240.000
868.57	-112.500
868.86	-227.273
869.16	-29.412
869.45	-250.000
869.75	-242.857
870.04	800.000
870.33	0.000
870.63	-100.000
870.92	-133.333
871.22	-116.667
871.51	-54.545
871.80	-41.667
872.10	50.000
>>>>>End Processed Spectral Data<<<<<
