SpectraSuite Data File
++++++++++++++++++++++++++++++++++++
Date: Sat May 16 11:12:00 PDT 2015
User: schluterlab
Dark Spectrum Present: Yes
Reference Spectrum Present: Yes
Number of Sampled Component Spectra: 1
Spectrometers: USB2E3373
Integration Time (usec): 3000 (USB2E3373)
Spectra Averaged: 3 (USB2E3373)
Boxcar Smoothing: 0 (USB2E3373)
Correct for Electrical Dark: No (USB2E3373)
Strobe/Lamp Enabled: No (USB2E3373)
Correct for Detector Non-linearity: No (USB2E3373)
Correct for Stray Light: No (USB2E3373)
Number of Pixels in Processed Spectrum: 2048
>>>>>Begin Processed Spectral Data<<<<<
178.53	0.000
178.91	106.667
179.29	333.333
179.67	-400.000
180.04	-30.769
180.42	-200.000
180.80	100.000
181.18	175.000
181.56	62.500
181.94	300.000
182.31	425.000
182.69	-61.538
183.07	-200.000
183.45	950.000
183.83	-133.333
184.20	-157.143
184.58	0.000
184.96	-150.000
185.34	31.250
185.72	-275.000
186.09	-0.000
186.47	-100.000
186.85	-62.500
187.23	12.500
187.61	-225.000
187.98	-237.500
188.36	12.500
188.74	-50.000
189.12	1700.000
189.49	257.143
189.87	16.667
190.25	175.000
190.63	0.000
191.00	0.000
191.38	20.000
191.76	33.333
192.14	540.000
192.51	-220.000
192.89	-300.000
193.27	0.000
193.65	-100.000
194.02	-14.286
194.40	500.000
194.78	50.000
195.15	-900.000
195.53	54.545
195.91	-166.667
196.29	180.000
196.66	-166.667
197.04	900.000
197.42	0.000
197.79	66.667
198.17	-400.000
198.55	-750.000
198.92	-1400.000
199.30	87.500
199.68	-150.000
200.05	-155.556
200.43	-77.778
200.81	-700.000
201.18	-50.000
201.56	85.714
201.94	-13.333
202.31	18.182
202.69	50.000
203.07	30.000
203.44	133.333
203.82	-183.333
204.19	-175.000
204.57	-75.000
204.95	-600.000
205.32	18.750
205.70	300.000
206.08	-700.000
206.45	11.111
206.83	-750.000
207.20	0.000
207.58	-566.667
207.96	-266.667
208.33	-87.500
208.71	0.000
209.08	120.000
209.46	-142.857
209.84	50.000
210.21	0.000
210.59	65.000
210.96	500.000
211.34	-83.333
211.71	133.333
212.09	200.000
212.46	550.000
212.84	-1000.000
213.22	333.333
213.59	41.667
213.97	11.111
214.34	120.000
214.72	-40.000
215.09	-66.667
215.47	66.667
215.84	130.000
216.22	-20.000
216.59	66.667
216.97	75.000
217.34	100.000
217.72	14.286
218.09	-66.667
218.47	-57.143
218.84	128.571
219.22	71.429
219.59	0.000
219.97	-0.000
220.34	375.000
220.72	150.000
221.09	-23.077
221.47	0.000
221.84	66.667
222.22	-300.000
222.59	-0.000
222.97	-125.000
223.34	-250.000
223.72	-100.000
224.09	-21.429
224.46	-25.000
224.84	14.286
225.21	-42.857
225.59	-45.455
225.96	-112.500
226.34	28.571
226.71	22.222
227.08	50.000
227.46	800.000
227.83	-85.714
228.21	-125.000
228.58	-300.000
228.95	18.750
229.33	-300.000
229.70	-100.000
230.08	-650.000
230.45	66.667
230.82	-16.667
231.20	-500.000
231.57	-50.000
231.95	900.000
232.32	76.190
232.69	-122.222
233.07	-57.143
233.44	-700.000
233.81	-13.333
234.19	11.111
234.56	-56.250
234.93	46.875
235.31	-185.714
235.68	-57.143
236.05	23.529
236.43	-22.727
236.80	0.000
237.17	8.333
237.55	-14.286
237.92	-22.727
238.29	-22.857
238.67	35.294
239.04	5.556
239.41	-32.258
239.79	-48.718
240.16	-9.524
240.53	0.000
240.91	-15.385
241.28	10.909
241.65	21.538
242.02	0.000
242.40	3.279
242.77	4.545
243.14	-11.864
243.51	-10.000
243.89	0.000
244.26	2.247
244.63	13.684
245.00	6.316
245.38	0.847
245.75	-0.885
246.12	10.400
246.49	2.362
246.87	6.504
247.24	2.542
247.61	-5.932
247.98	4.225
248.36	4.895
248.73	1.266
249.10	-4.459
249.47	4.094
249.84	5.682
250.22	-2.381
250.59	2.825
250.96	0.524
251.33	8.057
251.70	5.288
252.08	9.953
252.45	4.739
252.82	-1.905
253.19	0.000
253.56	4.435
253.94	1.688
254.31	6.867
254.68	6.504
255.05	3.226
255.42	7.143
255.79	-0.358
256.16	3.529
256.54	3.676
256.91	1.894
257.28	2.198
257.65	1.064
258.02	10.377
258.39	4.013
258.76	4.054
259.14	4.321
259.51	4.262
259.88	5.183
260.25	4.348
260.62	2.572
260.99	2.671
261.36	4.573
261.73	5.780
262.10	8.611
262.47	3.134
262.85	4.571
263.22	4.585
263.59	2.462
263.96	2.609
264.33	4.336
264.70	6.077
265.07	2.473
265.44	3.618
265.81	2.326
266.18	5.063
266.55	2.206
266.92	4.786
267.29	5.085
267.66	1.975
268.03	3.865
268.40	4.225
268.77	4.819
269.14	3.712
269.51	4.828
269.88	2.294
270.25	2.098
270.62	3.890
270.99	5.180
271.36	5.594
271.73	4.709
272.10	6.178
272.47	2.000
272.84	9.556
273.21	5.505
273.58	5.055
273.95	6.798
274.32	4.977
274.69	5.033
275.06	5.317
275.43	1.563
275.80	5.906
276.17	5.021
276.54	7.739
276.91	2.469
277.28	4.462
277.65	3.926
278.02	1.670
278.39	3.929
278.76	5.976
279.13	4.743
279.50	4.573
279.87	1.903
280.23	2.632
280.60	5.169
280.97	3.883
281.34	1.741
281.71	3.654
282.08	5.444
282.45	0.815
282.82	5.426
283.19	4.364
283.56	5.128
283.92	4.947
284.29	3.160
284.66	4.496
285.03	6.774
285.40	7.749
285.77	4.561
286.14	5.415
286.51	2.842
286.87	4.174
287.24	5.802
287.61	3.967
287.98	4.679
288.35	3.636
288.72	3.226
289.08	4.068
289.45	3.872
289.82	2.768
290.19	4.926
290.56	4.132
290.93	3.975
291.29	3.566
291.66	3.704
292.03	5.651
292.40	5.422
292.77	3.416
293.13	3.902
293.50	4.458
293.87	4.601
294.24	3.017
294.60	2.727
294.97	5.008
295.34	3.556
295.71	4.018
296.08	3.072
296.44	3.433
296.81	5.698
297.18	4.225
297.55	4.520
297.91	5.300
298.28	4.247
298.65	4.184
299.02	5.348
299.38	3.743
299.75	4.891
300.12	4.359
300.48	3.453
300.85	3.539
301.22	4.657
301.59	4.161
301.95	5.793
302.32	3.781
302.69	4.529
303.05	3.541
303.42	3.250
303.79	2.751
304.15	4.858
304.52	4.901
304.89	5.431
305.25	3.419
305.62	3.290
305.99	4.594
306.35	3.441
306.72	2.506
307.09	5.448
307.45	4.200
307.82	3.352
308.19	5.145
308.55	4.684
308.92	4.404
309.29	3.351
309.65	4.666
310.02	4.752
310.38	3.027
310.75	5.328
311.12	5.165
311.48	5.637
311.85	4.119
312.22	4.943
312.58	5.595
312.95	5.199
313.31	5.694
313.68	6.231
314.05	6.627
314.41	4.527
314.78	5.794
315.14	5.429
315.51	6.282
315.87	6.292
316.24	7.969
316.61	6.046
316.97	7.562
317.34	6.647
317.70	6.122
318.07	7.556
318.43	7.116
318.80	8.075
319.16	6.191
319.53	7.237
319.89	6.679
320.26	8.137
320.62	6.058
320.99	7.463
321.35	7.488
321.72	8.086
322.08	9.001
322.45	9.010
322.81	9.894
323.18	10.279
323.54	10.166
323.91	10.751
324.27	11.787
324.64	11.700
325.00	12.653
325.37	13.394
325.73	14.786
326.10	14.083
326.46	14.011
326.83	15.404
327.19	16.931
327.56	17.973
327.92	17.587
328.29	18.442
328.65	18.364
329.01	19.170
329.38	20.428
329.74	23.443
330.11	21.668
330.47	22.979
330.84	24.473
331.20	24.097
331.56	24.521
331.93	25.755
332.29	26.758
332.66	26.339
333.02	27.149
333.38	28.763
333.75	28.851
334.11	29.689
334.48	28.861
334.84	30.446
335.20	29.433
335.57	29.152
335.93	31.603
336.29	30.824
336.66	29.339
337.02	32.252
337.38	31.729
337.75	32.397
338.11	32.826
338.47	32.562
338.84	33.485
339.20	31.898
339.56	33.601
339.93	31.393
340.29	32.241
340.65	32.780
341.02	33.221
341.38	32.435
341.74	33.023
342.11	33.618
342.47	33.734
342.83	32.578
343.20	34.073
343.56	31.347
343.92	33.806
344.28	35.071
344.65	33.828
345.01	34.034
345.37	34.718
345.73	34.043
346.10	33.034
346.46	32.819
346.82	32.558
347.19	32.703
347.55	33.868
347.91	33.780
348.27	33.333
348.63	35.218
349.00	33.970
349.36	32.709
349.72	34.156
350.08	34.723
350.45	32.939
350.81	32.404
351.17	32.235
351.53	33.492
351.89	34.115
352.26	33.721
352.62	34.332
352.98	34.098
353.34	34.133
353.70	32.587
354.07	33.989
354.43	34.783
354.79	33.756
355.15	32.588
355.51	32.812
355.87	35.099
356.24	33.598
356.60	35.455
356.96	35.335
357.32	33.967
357.68	33.870
358.04	34.565
358.40	32.947
358.77	34.776
359.13	35.119
359.49	34.694
359.85	34.527
360.21	34.247
360.57	34.262
360.93	35.111
361.29	35.202
361.66	34.070
362.02	34.763
362.38	34.850
362.74	36.630
363.10	34.935
363.46	36.182
363.82	35.131
364.18	35.601
364.54	36.169
364.90	34.591
365.26	35.093
365.62	36.565
365.98	36.486
366.35	35.845
366.71	34.602
367.07	35.992
367.43	36.102
367.79	35.876
368.15	36.344
368.51	36.224
368.87	36.607
369.23	37.123
369.59	36.319
369.95	36.293
370.31	37.271
370.67	36.515
371.03	35.350
371.39	36.068
371.75	38.054
372.11	37.231
372.47	36.153
372.83	38.039
373.19	36.571
373.55	37.227
373.91	37.980
374.27	39.425
374.63	38.233
374.99	39.499
375.35	37.550
375.71	38.825
376.07	38.398
376.42	37.351
376.78	39.085
377.14	40.000
377.50	40.426
377.86	38.557
378.22	38.693
378.58	39.716
378.94	39.396
379.30	40.585
379.66	39.769
380.02	38.562
380.38	38.912
380.74	39.977
381.09	39.016
381.45	41.348
381.81	40.290
382.17	39.787
382.53	40.000
382.89	41.746
383.25	42.083
383.61	41.038
383.97	40.968
384.32	41.677
384.68	41.959
385.04	40.519
385.40	41.205
385.76	41.159
386.12	42.286
386.48	42.822
386.83	41.227
387.19	41.781
387.55	43.004
387.91	42.027
388.27	42.159
388.62	42.548
388.98	42.762
389.34	41.065
389.70	41.169
390.06	42.014
390.42	43.910
390.77	42.650
391.13	44.596
391.49	42.795
391.85	42.207
392.20	42.172
392.56	42.944
392.92	42.955
393.28	43.513
393.64	43.476
393.99	44.492
394.35	42.883
394.71	42.125
395.07	43.063
395.42	41.836
395.78	42.552
396.14	43.240
396.50	43.119
396.85	43.553
397.21	43.682
397.57	42.310
397.92	42.330
398.28	43.722
398.64	43.189
399.00	44.438
399.35	43.856
399.71	43.786
400.07	43.701
400.42	43.370
400.78	43.053
401.14	42.994
401.49	43.337
401.85	43.197
402.21	44.398
402.57	43.871
402.92	44.493
403.28	42.892
403.63	43.259
403.99	44.313
404.35	43.116
404.70	44.295
405.06	43.714
405.42	42.866
405.77	42.421
406.13	43.044
406.49	43.978
406.84	43.731
407.20	42.638
407.55	42.812
407.91	41.969
408.27	43.505
408.62	42.814
408.98	43.905
409.34	43.449
409.69	42.974
410.05	43.602
410.40	43.899
410.76	43.687
411.11	43.766
411.47	43.670
411.83	43.826
412.18	43.998
412.54	42.709
412.89	43.135
413.25	43.388
413.60	41.798
413.96	42.822
414.31	43.058
414.67	42.286
415.03	43.920
415.38	43.656
415.74	44.008
416.09	43.606
416.45	43.915
416.80	43.238
417.16	43.056
417.51	44.189
417.87	44.142
418.22	43.679
418.58	43.967
418.93	44.206
419.29	44.354
419.64	43.342
420.00	45.140
420.35	45.299
420.71	45.078
421.06	44.260
421.42	45.141
421.77	44.444
422.12	45.439
422.48	44.041
422.83	44.590
423.19	44.989
423.54	46.225
423.90	45.460
424.25	45.249
424.61	45.778
424.96	45.641
425.31	45.277
425.67	45.616
426.02	45.841
426.38	46.824
426.73	46.873
427.09	46.140
427.44	45.739
427.79	46.570
428.15	46.080
428.50	46.862
428.85	46.343
429.21	46.431
429.56	46.875
429.92	45.291
430.27	46.112
430.62	47.597
430.98	46.576
431.33	46.105
431.68	47.989
432.04	47.678
432.39	47.350
432.74	47.782
433.10	48.396
433.45	46.978
433.80	48.208
434.16	48.039
434.51	48.932
434.86	48.565
435.22	47.940
435.57	48.470
435.92	48.476
436.28	50.504
436.63	47.880
436.98	48.110
437.34	48.258
437.69	48.658
438.04	48.497
438.39	48.917
438.75	48.021
439.10	47.973
439.45	47.737
439.81	48.916
440.16	48.779
440.51	50.706
440.86	49.855
441.22	49.475
441.57	49.737
441.92	50.026
442.27	49.892
442.63	49.517
442.98	48.928
443.33	50.137
443.68	50.026
444.03	49.853
444.39	50.220
444.74	50.771
445.09	50.493
445.44	50.310
445.79	49.822
446.15	51.588
446.50	49.047
446.85	49.461
447.20	49.694
447.55	50.884
447.91	50.421
448.26	50.223
448.61	49.972
448.96	50.588
449.31	51.297
449.66	51.460
450.02	51.302
450.37	51.246
450.72	50.621
451.07	51.728
451.42	50.805
451.77	50.688
452.12	51.669
452.47	51.763
452.83	50.553
453.18	51.360
453.53	51.182
453.88	51.974
454.23	50.786
454.58	53.139
454.93	52.582
455.28	52.008
455.63	52.027
455.98	52.952
456.34	51.652
456.69	51.220
457.04	51.875
457.39	51.435
457.74	51.802
458.09	51.566
458.44	51.790
458.79	52.130
459.14	52.653
459.49	52.872
459.84	50.927
460.19	52.864
460.54	51.664
460.89	52.074
461.24	52.034
461.59	51.583
461.94	53.787
462.29	52.233
462.64	52.964
462.99	54.016
463.34	51.654
463.69	52.926
464.04	50.849
464.39	52.210
464.74	52.128
465.09	51.774
465.44	52.228
465.79	52.171
466.14	53.625
466.49	52.447
466.84	53.001
467.19	53.117
467.54	51.203
467.89	54.254
468.24	52.257
468.59	52.155
468.94	54.212
469.29	53.021
469.64	52.089
469.99	52.532
470.34	53.106
470.68	53.852
471.03	53.407
471.38	51.389
471.73	53.776
472.08	53.079
472.43	53.153
472.78	53.667
473.13	52.419
473.48	52.904
473.83	53.474
474.17	52.611
474.52	53.517
474.87	53.030
475.22	53.097
475.57	53.500
475.92	53.078
476.27	52.686
476.61	53.803
476.96	52.990
477.31	52.691
477.66	53.459
478.01	53.377
478.36	52.907
478.70	54.511
479.05	55.598
479.40	53.834
479.75	52.905
480.10	52.579
480.45	51.934
480.79	53.850
481.14	53.989
481.49	54.163
481.84	52.936
482.19	53.677
482.53	53.314
482.88	54.153
483.23	53.662
483.58	53.377
483.92	54.181
484.27	53.168
484.62	53.175
484.97	53.274
485.31	52.992
485.66	51.077
486.01	51.250
486.36	51.831
486.70	52.712
487.05	52.250
487.40	52.858
487.75	53.060
488.09	52.224
488.44	53.078
488.79	53.307
489.13	53.671
489.48	53.630
489.83	54.847
490.17	53.722
490.52	52.899
490.87	54.226
491.22	53.713
491.56	54.074
491.91	54.198
492.26	55.094
492.60	54.329
492.95	53.832
493.30	53.502
493.64	53.832
493.99	54.159
494.34	54.762
494.68	54.728
495.03	54.876
495.37	54.031
495.72	54.961
496.07	54.294
496.41	55.628
496.76	55.160
497.11	54.498
497.45	56.178
497.80	54.627
498.14	53.978
498.49	55.249
498.84	53.835
499.18	55.604
499.53	55.626
499.87	55.068
500.22	54.510
500.56	54.477
500.91	54.680
501.26	54.828
501.60	55.079
501.95	56.667
502.29	54.747
502.64	55.776
502.98	54.720
503.33	54.652
503.67	54.837
504.02	54.322
504.36	55.000
504.71	54.965
505.06	54.568
505.40	56.437
505.75	55.691
506.09	55.511
506.44	54.737
506.78	54.842
507.13	55.716
507.47	55.399
507.82	54.879
508.16	56.580
508.51	54.456
508.85	55.694
509.19	54.631
509.54	55.180
509.88	55.957
510.23	55.189
510.57	55.450
510.92	57.519
511.26	57.257
511.61	55.346
511.95	56.358
512.30	55.745
512.64	55.648
512.98	56.766
513.33	56.178
513.67	56.505
514.02	56.711
514.36	55.845
514.70	56.140
515.05	57.862
515.39	55.767
515.74	57.010
516.08	57.061
516.42	55.864
516.77	56.326
517.11	56.007
517.46	57.895
517.80	58.063
518.14	56.039
518.49	57.023
518.83	55.905
519.17	56.898
519.52	54.540
519.86	57.766
520.20	57.090
520.55	56.554
520.89	56.794
521.23	56.838
521.58	56.928
521.92	57.125
522.26	57.079
522.61	57.605
522.95	57.307
523.29	57.367
523.64	56.590
523.98	57.925
524.32	56.757
524.66	56.957
525.01	56.005
525.35	58.119
525.69	57.580
526.04	57.050
526.38	56.970
526.72	55.939
527.06	56.576
527.41	56.964
527.75	56.766
528.09	57.710
528.43	56.328
528.78	56.910
529.12	58.323
529.46	57.345
529.80	57.973
530.15	57.051
530.49	56.662
530.83	57.498
531.17	56.027
531.51	56.731
531.86	55.431
532.20	58.030
532.54	57.019
532.88	55.731
533.22	57.620
533.57	57.702
533.91	54.931
534.25	56.882
534.59	55.153
534.93	55.818
535.27	57.080
535.62	56.586
535.96	56.044
536.30	55.759
536.64	55.312
536.98	57.627
537.32	55.149
537.66	57.230
538.01	58.557
538.35	56.689
538.69	55.949
539.03	55.247
539.37	57.352
539.71	57.572
540.05	57.094
540.39	56.787
540.73	57.775
541.07	58.402
541.42	56.448
541.76	56.146
542.10	56.786
542.44	56.696
542.78	57.802
543.12	57.230
543.46	56.507
543.80	56.656
544.14	55.675
544.48	57.349
544.82	57.307
545.16	58.753
545.50	55.855
545.84	56.328
546.18	57.143
546.52	58.250
546.86	56.695
547.20	57.595
547.54	56.198
547.88	56.536
548.22	55.177
548.56	57.047
548.90	56.671
549.24	56.482
549.58	57.092
549.92	56.608
550.26	58.020
550.60	57.397
550.94	57.007
551.28	57.863
551.62	56.942
551.96	58.321
552.30	56.237
552.64	57.354
552.98	57.323
553.32	58.802
553.66	58.327
554.00	58.920
554.34	56.462
554.68	55.994
555.02	57.670
555.36	58.160
555.69	57.092
556.03	56.070
556.37	57.041
556.71	57.623
557.05	58.980
557.39	57.535
557.73	57.695
558.07	57.498
558.41	57.741
558.75	56.730
559.08	55.564
559.42	57.427
559.76	57.899
560.10	58.315
560.44	58.092
560.78	56.298
561.12	57.005
561.45	56.918
561.79	55.889
562.13	57.013
562.47	56.303
562.81	57.284
563.15	56.333
563.48	58.258
563.82	57.877
564.16	55.984
564.50	56.586
564.84	57.077
565.17	56.565
565.51	56.780
565.85	58.959
566.19	57.971
566.52	57.534
566.86	58.028
567.20	55.690
567.54	56.645
567.88	55.946
568.21	55.649
568.55	55.143
568.89	53.280
569.23	53.586
569.56	54.561
569.90	53.895
570.24	54.190
570.57	53.181
570.91	52.261
571.25	53.826
571.59	52.982
571.92	52.500
572.26	52.097
572.60	52.591
572.93	52.059
573.27	51.768
573.61	51.592
573.95	51.517
574.28	51.579
574.62	52.720
574.96	51.346
575.29	52.414
575.63	51.818
575.97	52.023
576.30	51.082
576.64	52.037
576.98	51.406
577.31	52.110
577.65	52.002
577.98	51.360
578.32	51.421
578.66	51.492
578.99	51.493
579.33	51.444
579.67	51.661
580.00	51.687
580.34	51.908
580.67	51.851
581.01	50.914
581.35	50.873
581.68	51.088
582.02	51.551
582.35	50.765
582.69	52.063
583.02	51.967
583.36	51.072
583.70	52.074
584.03	51.697
584.37	52.152
584.70	52.102
585.04	52.000
585.37	51.695
585.71	51.959
586.04	52.052
586.38	51.350
586.72	52.142
587.05	52.818
587.39	52.499
587.72	51.712
588.06	52.325
588.39	52.521
588.73	52.233
589.06	53.005
589.40	53.521
589.73	52.868
590.07	53.314
590.40	53.026
590.73	53.099
591.07	52.541
591.40	54.376
591.74	53.258
592.07	54.550
592.41	53.843
592.74	52.959
593.08	53.210
593.41	53.092
593.75	52.193
594.08	53.954
594.41	53.604
594.75	53.567
595.08	53.910
595.42	53.035
595.75	52.811
596.09	54.327
596.42	53.478
596.75	54.075
597.09	54.853
597.42	53.514
597.75	53.897
598.09	52.960
598.42	52.939
598.76	52.990
599.09	53.512
599.42	53.326
599.76	52.359
600.09	52.672
600.42	52.716
600.76	53.635
601.09	52.829
601.42	52.552
601.76	52.220
602.09	52.965
602.42	52.510
602.76	53.801
603.09	53.266
603.42	53.828
603.76	53.610
604.09	53.064
604.42	52.623
604.76	52.900
605.09	52.984
605.42	53.457
605.75	53.514
606.09	52.927
606.42	52.241
606.75	52.340
607.09	53.375
607.42	53.257
607.75	53.510
608.08	55.445
608.42	54.115
608.75	51.822
609.08	54.116
609.41	54.509
609.75	52.462
610.08	53.873
610.41	53.446
610.74	54.787
611.07	54.310
611.41	52.799
611.74	54.499
612.07	54.672
612.40	52.878
612.73	53.419
613.07	55.091
613.40	55.063
613.73	54.550
614.06	54.091
614.39	55.806
614.72	54.078
615.06	54.565
615.39	54.042
615.72	53.449
616.05	53.782
616.38	55.833
616.71	54.294
617.05	55.790
617.38	55.480
617.71	54.423
618.04	54.534
618.37	54.277
618.70	56.780
619.03	55.247
619.36	56.801
619.69	56.353
620.03	54.821
620.36	55.134
620.69	56.425
621.02	55.632
621.35	57.581
621.68	56.393
622.01	57.686
622.34	55.901
622.67	56.563
623.00	55.700
623.33	57.164
623.66	55.539
623.99	53.684
624.32	55.506
624.65	55.556
624.99	56.460
625.32	55.763
625.65	57.343
625.98	56.495
626.31	58.075
626.64	56.402
626.97	57.277
627.30	57.532
627.63	56.131
627.96	57.702
628.29	58.364
628.62	57.975
628.95	58.071
629.28	58.459
629.61	57.704
629.94	58.129
630.26	59.543
630.59	58.291
630.92	56.557
631.25	58.669
631.58	58.095
631.91	57.660
632.24	58.556
632.57	59.333
632.90	60.230
633.23	61.916
633.56	57.895
633.89	60.024
634.22	60.567
634.55	57.933
634.88	58.404
635.20	58.926
635.53	59.288
635.86	59.320
636.19	58.364
636.52	58.901
636.85	57.762
637.18	59.500
637.51	60.967
637.83	62.583
638.16	60.263
638.49	61.931
638.82	59.202
639.15	59.663
639.48	57.588
639.81	61.272
640.13	57.973
640.46	61.396
640.79	59.384
641.12	61.918
641.45	60.402
641.77	61.377
642.10	61.329
642.43	61.912
642.76	61.890
643.09	61.270
643.41	62.857
643.74	63.116
644.07	60.062
644.40	60.778
644.73	61.716
645.05	60.267
645.38	60.927
645.71	62.027
646.04	61.681
646.36	60.908
646.69	63.841
647.02	63.357
647.35	62.816
647.67	61.861
648.00	63.972
648.33	65.093
648.66	58.548
648.98	61.146
649.31	60.769
649.64	60.156
649.96	60.440
650.29	60.820
650.62	61.618
650.94	60.371
651.27	59.792
651.60	60.554
651.92	63.356
652.25	58.932
652.58	60.818
652.90	57.143
653.23	59.516
653.56	59.866
653.88	61.148
654.21	60.738
654.54	60.465
654.86	58.909
655.19	58.596
655.52	54.724
655.84	50.095
656.17	53.033
656.49	71.190
656.82	73.797
657.15	55.718
657.47	41.717
657.80	32.169
658.13	36.796
658.45	49.811
658.78	50.141
659.10	49.589
659.43	49.663
659.75	49.528
660.08	50.573
660.41	51.497
660.73	55.006
661.06	58.261
661.38	61.250
661.71	62.333
662.03	61.694
662.36	61.834
662.68	62.025
663.01	63.270
663.33	67.120
663.66	63.090
663.98	64.286
664.31	61.521
664.63	62.611
664.96	62.256
665.28	62.473
665.61	60.888
665.93	62.963
666.26	60.729
666.58	60.291
666.91	63.697
667.23	61.404
667.56	63.265
667.88	62.443
668.21	63.134
668.53	64.486
668.86	61.432
669.18	62.100
669.50	64.252
669.83	63.747
670.15	60.987
670.48	65.888
670.80	60.364
671.13	61.174
671.45	61.712
671.77	62.527
672.10	58.580
672.42	57.196
672.75	58.000
673.07	56.757
673.39	58.470
673.72	60.827
674.04	61.571
674.37	57.938
674.69	60.656
675.01	59.787
675.34	59.436
675.66	62.419
675.98	62.115
676.31	60.407
676.63	63.908
676.95	61.062
677.28	64.501
677.60	62.443
677.92	62.115
678.25	59.081
678.57	60.494
678.89	58.491
679.22	59.958
679.54	60.355
679.86	58.000
680.18	59.506
680.51	59.032
680.83	59.048
681.15	60.886
681.48	59.432
681.80	58.871
682.12	60.161
682.44	57.367
682.77	58.009
683.09	56.813
683.41	59.513
683.73	59.132
684.06	57.634
684.38	57.531
684.70	59.671
685.02	56.693
685.34	56.920
685.67	57.576
685.99	56.711
686.31	59.246
686.63	56.738
686.96	56.932
687.28	59.345
687.60	59.570
687.92	55.058
688.24	57.480
688.56	57.916
688.89	55.556
689.21	59.300
689.53	58.851
689.85	60.802
690.17	58.744
690.49	58.891
690.82	61.446
691.14	60.377
691.46	60.089
691.78	59.912
692.10	58.263
692.42	54.889
692.74	57.725
693.06	57.079
693.39	56.823
693.71	56.885
694.03	56.803
694.35	53.725
694.67	55.792
694.99	55.754
695.31	59.694
695.63	55.867
695.95	58.065
696.27	58.105
696.59	61.497
696.91	62.640
697.23	62.760
697.56	59.615
697.88	58.333
698.20	54.818
698.52	55.157
698.84	59.466
699.16	56.905
699.48	58.250
699.80	56.642
700.12	57.683
700.44	56.425
700.76	59.475
701.08	55.523
701.40	58.912
701.72	62.346
702.04	62.500
702.36	61.446
702.68	60.778
703.00	57.391
703.32	53.295
703.64	61.765
703.96	62.791
704.28	62.722
704.60	59.177
704.91	59.683
705.23	57.282
705.55	61.149
705.87	63.140
706.19	63.889
706.51	62.500
706.83	64.262
707.15	60.510
707.47	60.882
707.79	57.216
708.11	56.997
708.43	56.359
708.74	55.325
709.06	54.596
709.38	54.598
709.70	62.500
710.02	64.110
710.34	57.756
710.66	53.968
710.98	61.514
711.29	55.806
711.61	53.035
711.93	58.033
712.25	55.150
712.57	53.659
712.89	62.590
713.20	63.574
713.52	61.194
713.84	56.584
714.16	54.754
714.48	58.730
714.80	54.154
715.11	54.467
715.43	60.241
715.75	57.944
716.07	54.754
716.39	56.856
716.70	52.962
717.02	60.000
717.34	60.305
717.66	60.581
717.97	58.607
718.29	60.504
718.61	61.111
718.93	54.839
719.24	57.353
719.56	54.717
719.88	55.273
720.20	55.805
720.51	63.534
720.83	57.430
721.15	58.607
721.46	61.569
721.78	57.088
722.10	64.000
722.42	60.744
722.73	55.378
723.05	57.028
723.37	54.118
723.68	53.846
724.00	57.317
724.32	60.494
724.63	62.241
724.95	61.157
725.27	54.825
725.58	60.776
725.90	53.175
726.22	56.089
726.53	56.654
726.85	50.980
727.16	56.015
727.48	53.462
727.80	57.787
728.11	59.244
728.43	50.000
728.74	60.156
729.06	50.758
729.38	49.805
729.69	50.787
730.01	58.661
730.32	56.175
730.64	55.311
730.96	54.478
731.27	55.000
731.59	54.662
731.90	51.840
732.22	52.454
732.53	52.649
732.85	53.020
733.16	58.333
733.48	52.962
733.80	53.025
734.11	53.793
734.43	56.463
734.74	50.742
735.06	52.978
735.37	52.294
735.69	52.903
736.00	50.842
736.32	50.993
736.63	50.345
736.95	55.072
737.26	52.649
737.58	50.000
737.89	54.839
738.21	56.391
738.52	58.077
738.83	57.031
739.15	58.547
739.46	54.032
739.78	52.448
740.09	54.545
740.41	51.399
740.72	52.555
741.04	55.159
741.35	50.649
741.66	60.185
741.98	53.810
742.29	52.582
742.61	61.497
742.92	57.009
743.23	52.193
743.55	47.748
743.86	58.222
744.18	51.429
744.49	60.591
744.80	63.452
745.12	58.763
745.43	62.312
745.74	57.767
746.06	51.707
746.37	56.388
746.68	57.711
747.00	57.592
747.31	55.769
747.62	51.152
747.94	53.712
748.25	57.674
748.56	57.143
748.88	56.522
749.19	53.521
749.50	56.863
749.82	57.333
750.13	55.066
750.44	54.878
750.75	58.400
751.07	49.643
751.38	50.554
751.69	50.763
752.01	54.615
752.32	48.638
752.63	49.231
752.94	48.810
753.26	56.522
753.57	57.589
753.88	53.017
754.19	52.282
754.51	49.609
754.82	49.802
755.13	56.379
755.44	52.893
755.75	54.733
756.07	50.201
756.38	50.781
756.69	51.264
757.00	56.098
757.31	53.356
757.63	52.960
757.94	50.867
758.25	48.256
758.56	54.178
758.87	46.307
759.18	43.667
759.50	54.804
759.81	44.161
760.12	47.973
760.43	50.809
760.74	50.938
761.05	48.876
761.36	51.497
761.67	46.450
761.99	50.000
762.30	51.087
762.61	47.547
762.92	52.466
763.23	56.398
763.54	48.889
763.85	48.945
764.16	48.163
764.47	52.966
764.78	50.562
765.10	48.921
765.41	49.677
765.72	45.912
766.03	45.230
766.34	53.383
766.65	49.393
766.96	53.500
767.27	56.771
767.58	47.093
767.89	56.129
768.20	60.123
768.51	53.552
768.82	58.919
769.13	54.500
769.44	46.491
769.75	49.351
770.06	56.881
770.37	49.765
770.68	47.917
770.99	48.515
771.30	54.854
771.61	54.630
771.92	46.320
772.23	48.598
772.54	46.809
772.85	53.846
773.16	56.707
773.47	57.229
773.78	53.297
774.09	50.000
774.39	41.358
774.70	46.309
775.01	44.203
775.32	55.970
775.63	54.545
775.94	58.647
776.25	56.429
776.56	48.361
776.87	55.752
777.18	52.212
777.48	52.727
777.79	46.087
778.10	50.459
778.41	42.373
778.72	47.934
779.03	54.478
779.34	50.376
779.65	54.248
779.95	43.478
780.26	38.776
780.57	51.724
780.88	49.074
781.19	38.384
781.50	53.600
781.80	45.752
782.11	50.641
782.42	45.783
782.73	39.416
783.04	46.622
783.34	54.545
783.65	52.713
783.96	46.341
784.27	57.265
784.57	50.407
784.88	37.398
785.19	58.772
785.50	39.175
785.81	50.476
786.11	46.078
786.42	41.818
786.73	45.045
787.04	56.436
787.34	58.095
787.65	46.667
787.96	60.784
788.26	45.946
788.57	46.774
788.88	42.188
789.19	40.171
789.49	43.697
789.80	41.880
790.11	52.212
790.41	55.556
790.72	50.943
791.03	34.722
791.33	47.368
791.64	50.538
791.95	60.000
792.25	41.429
792.56	47.561
792.87	53.061
793.17	43.421
793.48	59.459
793.79	46.479
794.09	40.506
794.40	53.191
794.70	44.860
795.01	31.579
795.32	51.818
795.62	48.214
795.93	45.361
796.23	41.758
796.54	43.158
796.85	56.164
797.15	30.556
797.46	53.425
797.76	39.437
798.07	62.500
798.37	57.353
798.68	45.714
798.99	50.000
799.29	50.000
799.60	33.333
799.90	41.667
800.21	45.312
800.51	47.619
800.82	52.459
801.12	45.614
801.43	42.254
801.73	44.068
802.04	45.902
802.34	32.727
802.65	61.538
802.95	57.407
803.26	37.500
803.56	53.846
803.87	39.474
804.17	59.677
804.48	44.615
804.78	61.538
805.09	53.488
805.39	31.250
805.70	41.509
806.00	57.895
806.30	63.514
806.61	41.176
806.91	40.741
807.22	41.333
807.52	49.254
807.83	38.710
808.13	39.683
808.43	23.636
808.74	51.515
809.04	47.170
809.35	32.877
809.65	56.140
809.95	45.588
810.26	56.863
810.56	26.000
810.86	44.898
811.17	45.714
811.47	34.615
811.77	67.742
812.08	21.053
812.38	45.238
812.69	45.652
812.99	51.613
813.29	42.857
813.59	-3.704
813.90	17.021
814.20	20.930
814.50	29.167
814.81	51.667
815.11	46.341
815.41	46.667
815.72	82.857
816.02	47.222
816.32	48.718
816.62	48.649
816.93	35.294
817.23	58.696
817.53	38.235
817.84	58.824
818.14	28.125
818.44	27.586
818.74	32.258
819.04	11.111
819.35	36.667
819.65	52.000
819.95	33.333
820.25	52.000
820.56	2.632
820.86	32.500
821.16	31.915
821.46	36.207
821.76	41.026
822.07	32.500
822.37	18.605
822.67	56.667
822.97	21.622
823.27	35.135
823.57	72.000
823.88	13.514
824.18	57.143
824.48	11.538
824.78	-46.154
825.08	52.174
825.38	37.500
825.69	20.833
825.99	15.000
826.29	45.946
826.59	17.647
826.89	40.000
827.19	17.143
827.49	50.000
827.79	75.000
828.09	23.333
828.39	65.217
828.70	6.897
829.00	20.690
829.30	30.556
829.60	78.125
829.90	61.111
830.20	11.538
830.50	52.381
830.80	10.714
831.10	30.769
831.40	-9.524
831.70	35.294
832.00	54.167
832.30	31.579
832.60	-25.000
832.90	8.333
833.20	-5.882
833.50	0.000
833.80	6.667
834.10	45.000
834.40	54.167
834.70	50.000
835.00	80.769
835.30	33.333
835.60	58.621
835.90	38.889
836.20	54.545
836.50	-33.333
836.80	42.857
837.10	57.143
837.40	82.353
837.70	36.364
838.00	41.667
838.30	50.000
838.60	33.333
838.90	55.000
839.19	-26.087
839.49	4.348
839.79	-27.778
840.09	-30.435
840.39	0.000
840.69	68.750
840.99	26.316
841.29	-12.500
841.59	135.714
841.88	-50.000
842.18	20.833
842.48	0.000
842.78	31.034
843.08	-21.429
843.38	53.846
843.68	44.444
843.97	0.000
844.27	36.364
844.57	-40.000
844.87	40.000
845.17	-20.000
845.47	35.714
845.76	11.111
846.06	0.000
846.36	0.000
846.66	-120.000
846.96	26.316
847.25	4.167
847.55	-25.000
847.85	26.667
848.15	-70.000
848.44	53.846
848.74	21.053
849.04	300.000
849.34	66.667
849.63	-36.842
849.93	0.000
850.23	10.000
850.53	42.857
850.82	60.000
851.12	-5.263
851.42	150.000
851.71	0.000
852.01	-41.667
852.31	82.353
852.61	-13.333
852.90	61.905
853.20	66.667
853.50	-11.111
853.79	26.316
854.09	53.333
854.39	7.143
854.68	47.826
854.98	-191.667
855.28	62.069
855.57	-12.500
855.87	25.000
856.17	20.000
856.46	-10.345
856.76	26.667
857.05	82.353
857.35	-100.000
857.65	127.273
857.94	33.333
858.24	14.286
858.53	-35.714
858.83	50.000
859.13	33.333
859.42	61.905
859.72	-62.500
860.01	-33.333
860.31	-37.500
860.60	-160.000
860.90	-33.333
861.20	-25.000
861.49	42.857
861.79	76.471
862.08	200.000
862.38	-100.000
862.67	0.000
862.97	105.882
863.26	10.000
863.56	23.529
863.85	-0.000
864.15	-50.000
864.44	-30.769
864.74	50.000
865.03	37.500
865.33	-133.333
865.62	41.176
865.92	-275.000
866.21	-64.286
866.51	8.333
866.80	1000.000
867.10	233.333
867.39	-5.882
867.69	21.739
867.98	-14.286
868.27	-20.000
868.57	-75.000
868.86	-36.364
869.16	11.765
869.45	-50.000
869.75	-42.857
870.04	100.000
870.33	8.333
870.63	120.000
870.92	122.222
871.22	-16.667
871.51	9.091
871.80	33.333
872.10	-20.000
>>>>>End Processed Spectral Data<<<<<
