SpectraSuite Data File
++++++++++++++++++++++++++++++++++++
Date: Sat May 16 11:29:24 PDT 2015
User: schluterlab
Dark Spectrum Present: Yes
Reference Spectrum Present: Yes
Number of Sampled Component Spectra: 1
Spectrometers: USB2E3373
Integration Time (usec): 3000 (USB2E3373)
Spectra Averaged: 3 (USB2E3373)
Boxcar Smoothing: 0 (USB2E3373)
Correct for Electrical Dark: No (USB2E3373)
Strobe/Lamp Enabled: No (USB2E3373)
Correct for Detector Non-linearity: No (USB2E3373)
Correct for Stray Light: No (USB2E3373)
Number of Pixels in Processed Spectrum: 2048
>>>>>Begin Processed Spectral Data<<<<<
178.53	0.000
178.91	133.333
179.29	133.333
179.67	-500.000
180.04	-100.000
180.42	1300.000
180.80	200.000
181.18	350.000
181.56	-87.500
181.94	900.000
182.31	450.000
182.69	23.077
183.07	-500.000
183.45	1450.000
183.83	333.333
184.20	-185.714
184.58	-187.500
184.96	-150.000
185.34	143.750
185.72	-375.000
186.09	216.667
186.47	-187.500
186.85	-162.500
187.23	0.000
187.61	-150.000
187.98	-187.500
188.36	-150.000
188.74	-200.000
189.12	900.000
189.49	314.286
189.87	-58.333
190.25	575.000
190.63	-7.143
191.00	-144.444
191.38	420.000
191.76	-33.333
192.14	580.000
192.51	-500.000
192.89	-433.333
193.27	0.000
193.65	-66.667
194.02	-171.429
194.40	333.333
194.78	-200.000
195.15	-900.000
195.53	-145.455
195.91	-483.333
196.29	260.000
196.66	-933.333
197.04	2800.000
197.42	-150.000
197.79	-33.333
198.17	-400.000
198.55	-350.000
198.92	-1000.000
199.30	162.500
199.68	-550.000
200.05	-177.778
200.43	-255.556
200.81	-800.000
201.18	-141.667
201.56	228.571
201.94	-46.667
202.31	-27.273
202.69	-30.000
203.07	-100.000
203.44	666.667
203.82	-350.000
204.19	-425.000
204.57	-350.000
204.95	-1200.000
205.32	-100.000
205.70	300.000
206.08	-1500.000
206.45	5.556
206.83	-850.000
207.20	-200.000
207.58	-666.667
207.96	-300.000
208.33	-87.500
208.71	22.222
209.08	140.000
209.46	-257.143
209.84	1000.000
210.21	0.000
210.59	45.000
210.96	1300.000
211.34	-283.333
211.71	-266.667
212.09	225.000
212.46	1050.000
212.84	-2200.000
213.22	633.333
213.59	191.667
213.97	-88.889
214.34	100.000
214.72	-130.000
215.09	-400.000
215.47	0.000
215.84	-30.000
216.22	-160.000
216.59	-20.000
216.97	-250.000
217.34	550.000
217.72	-14.286
218.09	-366.667
218.47	-257.143
218.84	271.429
219.22	-85.714
219.59	0.000
219.97	214.286
220.34	500.000
220.72	312.500
221.09	-53.846
221.47	0.000
221.84	233.333
222.22	-350.000
222.59	1300.000
222.97	-175.000
223.34	-600.000
223.72	-466.667
224.09	-57.143
224.46	-625.000
224.84	-35.714
225.21	-128.571
225.59	-27.273
225.96	-87.500
226.34	0.000
226.71	-44.444
227.08	-30.000
227.46	2900.000
227.83	-142.857
228.21	-275.000
228.58	350.000
228.95	-56.250
229.33	-1000.000
229.70	-340.000
230.08	-1200.000
230.45	-125.000
230.82	-183.333
231.20	-1100.000
231.57	-800.000
231.95	400.000
232.32	-28.571
232.69	-111.111
233.07	-257.143
233.44	-850.000
233.81	-53.333
234.19	-133.333
234.56	-37.500
234.93	12.500
235.31	-214.286
235.68	-64.286
236.05	-35.294
236.43	-68.182
236.80	9.677
237.17	-29.167
237.55	-33.333
237.92	-50.000
238.29	-14.286
238.67	-5.882
239.04	16.667
239.41	-12.903
239.79	-12.821
240.16	7.143
240.53	-16.364
240.91	2.564
241.28	20.000
241.65	20.000
242.02	1.639
242.40	-19.672
242.77	6.061
243.14	-1.695
243.51	2.857
243.89	7.595
244.26	12.360
244.63	24.211
245.00	4.211
245.38	4.237
245.75	17.699
246.12	19.200
246.49	10.236
246.87	1.626
247.24	6.780
247.61	19.492
247.98	9.155
248.36	8.392
248.73	8.228
249.10	7.643
249.47	12.281
249.84	13.636
250.22	1.786
250.59	13.559
250.96	10.471
251.33	21.801
251.70	10.577
252.08	17.536
252.45	12.796
252.82	12.381
253.19	17.447
253.56	12.903
253.94	10.970
254.31	13.305
254.68	19.919
255.05	13.710
255.42	15.873
255.79	13.620
256.16	22.745
256.54	19.485
256.91	12.879
257.28	15.018
257.65	14.894
258.02	18.553
258.39	17.391
258.76	15.203
259.14	16.358
259.51	21.311
259.88	14.024
260.25	19.255
260.62	17.363
260.99	10.979
261.36	16.159
261.73	16.763
262.10	17.222
262.47	17.664
262.85	20.286
263.22	14.613
263.59	14.154
263.96	17.971
264.33	20.054
264.70	19.061
265.07	14.835
265.44	19.121
265.81	15.762
266.18	12.405
266.55	19.363
266.92	19.647
267.29	18.886
267.66	19.753
268.03	19.082
268.40	20.188
268.77	14.458
269.14	15.313
269.51	14.023
269.88	13.303
270.25	15.152
270.62	13.959
270.99	14.189
271.36	16.550
271.73	17.489
272.10	15.789
272.47	14.667
272.84	18.000
273.21	16.055
273.58	17.582
273.95	17.325
274.32	20.136
274.69	16.411
275.06	18.609
275.43	14.509
275.80	15.886
276.17	16.946
276.54	20.774
276.91	15.844
277.28	16.836
277.65	18.802
278.02	17.537
278.39	17.092
278.76	17.530
279.13	18.577
279.50	14.712
279.87	16.702
280.23	18.219
280.60	17.893
280.97	17.864
281.34	17.021
281.71	16.154
282.08	17.339
282.45	14.460
282.82	17.442
283.19	16.909
283.56	18.864
283.92	18.551
284.29	16.914
284.66	16.906
285.03	17.825
285.40	18.081
285.77	18.246
286.14	16.426
286.51	15.453
286.87	18.875
287.24	16.553
287.61	15.372
287.98	18.024
288.35	16.033
288.72	14.941
289.08	16.949
289.45	17.845
289.82	14.187
290.19	17.077
290.56	15.537
290.93	14.467
291.29	13.776
291.66	14.171
292.03	18.995
292.40	15.964
292.77	16.304
293.13	16.585
293.50	16.345
293.87	15.184
294.24	15.535
294.60	14.242
294.97	15.630
295.34	15.704
295.71	15.774
296.08	13.210
296.44	13.734
296.81	15.527
297.18	13.239
297.55	15.395
297.91	16.039
298.28	14.932
298.65	12.692
299.02	16.578
299.38	14.439
299.75	14.674
300.12	14.487
300.48	14.066
300.85	14.810
301.22	13.972
301.59	13.524
301.95	15.365
302.32	11.604
302.69	15.912
303.05	15.263
303.42	14.875
303.79	14.234
304.15	15.047
304.52	14.702
304.89	14.640
305.25	13.553
305.62	14.571
305.99	15.548
306.35	14.539
306.72	13.895
307.09	16.572
307.45	12.145
307.82	13.743
308.19	14.765
308.55	14.597
308.92	13.749
309.29	14.595
309.65	13.786
310.02	13.607
310.38	13.838
310.75	14.857
311.12	14.773
311.48	14.718
311.85	14.727
312.22	15.345
312.58	14.751
312.95	14.271
313.31	13.886
313.68	14.271
314.05	14.837
314.41	13.883
314.78	13.487
315.14	13.919
315.51	13.678
315.87	15.586
316.24	14.091
316.61	14.779
316.97	14.627
317.34	13.584
317.70	13.080
318.07	13.713
318.43	13.858
318.80	14.836
319.16	12.758
319.53	16.165
319.89	13.264
320.26	13.922
320.62	12.692
320.99	13.831
321.35	13.498
321.72	13.613
322.08	14.243
322.45	13.267
322.81	13.641
323.18	13.545
323.54	14.140
323.91	14.458
324.27	14.924
324.64	11.974
325.00	14.398
325.37	14.118
325.73	14.611
326.10	14.792
326.46	15.149
326.83	14.979
327.19	13.761
327.56	14.736
327.92	14.189
328.29	14.805
328.65	13.636
329.01	14.311
329.38	14.630
329.74	15.385
330.11	15.050
330.47	13.896
330.84	15.215
331.20	14.440
331.56	14.585
331.93	14.831
332.29	14.155
332.66	14.838
333.02	15.204
333.38	15.323
333.75	15.138
334.11	13.156
334.48	13.416
334.84	15.136
335.20	15.603
335.57	14.892
335.93	16.204
336.29	15.766
336.66	14.626
337.02	15.315
337.38	15.330
337.75	15.716
338.11	15.832
338.47	14.680
338.84	15.154
339.20	15.026
339.56	14.439
339.93	14.021
340.29	14.615
340.65	15.297
341.02	15.177
341.38	14.912
341.74	15.241
342.11	15.102
342.47	14.764
342.83	13.854
343.20	14.688
343.56	13.714
343.92	14.441
344.28	15.643
344.65	14.604
345.01	14.454
345.37	14.784
345.73	13.993
346.10	13.818
346.46	14.866
346.82	13.633
347.19	14.133
347.55	14.045
347.91	14.961
348.27	13.365
348.63	15.428
349.00	15.593
349.36	13.583
349.72	15.685
350.08	13.713
350.45	14.027
350.81	15.446
351.17	13.826
351.53	13.206
351.89	14.470
352.26	14.729
352.62	14.977
352.98	14.953
353.34	13.909
353.70	13.514
354.07	14.555
354.43	14.545
354.79	14.263
355.15	15.096
355.51	14.375
355.87	14.308
356.24	14.376
356.60	15.471
356.96	14.627
357.32	14.568
357.68	14.789
358.04	14.319
358.40	14.540
358.77	14.374
359.13	14.767
359.49	14.059
359.85	14.024
360.21	15.145
360.57	14.985
360.93	15.481
361.29	15.247
361.66	14.253
362.02	15.089
362.38	15.187
362.74	14.725
363.10	14.419
363.46	15.954
363.82	15.379
364.18	14.544
364.54	16.440
364.90	14.745
365.26	15.335
365.62	15.253
365.98	15.576
366.35	14.577
366.71	14.588
367.07	15.596
367.43	15.511
367.79	14.983
368.15	14.083
368.51	15.035
368.87	15.934
369.23	15.649
369.59	15.417
369.95	15.222
370.31	16.104
370.67	14.389
371.03	15.598
371.39	14.074
371.75	15.665
372.11	15.997
372.47	16.269
372.83	15.925
373.19	16.643
373.55	15.975
373.91	16.287
374.27	16.427
374.63	15.804
374.99	16.342
375.35	14.872
375.71	16.948
376.07	16.153
376.42	14.834
376.78	16.209
377.14	15.661
377.50	17.021
377.86	16.385
378.22	17.148
378.58	16.862
378.94	16.831
379.30	16.575
379.66	17.365
380.02	15.805
380.38	16.254
380.74	16.120
381.09	17.106
381.45	17.601
381.81	16.213
382.17	16.667
382.53	16.778
382.89	17.285
383.25	17.399
383.61	16.627
383.97	17.514
384.32	16.708
384.68	17.654
385.04	17.452
385.40	17.346
385.76	18.841
386.12	17.364
386.48	18.626
386.83	18.098
387.19	17.454
387.55	17.807
387.91	17.664
388.27	16.767
388.62	17.608
388.98	17.747
389.34	17.503
389.70	17.966
390.06	17.464
390.42	19.167
390.77	18.360
391.13	18.696
391.49	18.528
391.85	17.893
392.20	17.718
392.56	17.776
392.92	18.483
393.28	18.370
393.64	17.980
393.99	18.585
394.35	18.796
394.71	18.159
395.07	19.146
395.42	17.819
395.78	17.976
396.14	19.252
396.50	19.021
396.85	18.877
397.21	18.834
397.57	18.541
397.92	18.501
398.28	18.889
398.64	18.560
399.00	19.213
399.35	18.602
399.71	19.222
400.07	18.985
400.42	19.161
400.78	18.426
401.14	18.862
401.49	18.868
401.85	19.585
402.21	18.892
402.57	19.357
402.92	19.132
403.28	18.321
403.63	17.795
403.99	18.832
404.35	19.384
404.70	19.017
405.06	18.685
405.42	17.958
405.77	17.986
406.13	18.626
406.49	19.473
406.84	18.536
407.20	20.082
407.55	19.506
407.91	19.301
408.27	20.221
408.62	19.302
408.98	19.042
409.34	19.196
409.69	18.904
410.05	18.981
410.40	19.191
410.76	19.680
411.11	18.953
411.47	18.990
411.83	19.132
412.18	19.678
412.54	18.060
412.89	19.259
413.25	18.536
413.60	18.955
413.96	18.176
414.31	20.245
414.67	19.810
415.03	19.082
415.38	19.844
415.74	19.265
416.09	19.054
416.45	18.651
416.80	20.026
417.16	19.070
417.51	20.617
417.87	18.382
418.22	19.406
418.58	20.347
418.93	19.191
419.29	19.699
419.64	19.158
420.00	19.806
420.35	19.219
420.71	19.808
421.06	20.178
421.42	18.208
421.77	19.375
422.12	19.306
422.48	18.546
422.83	20.273
423.19	19.599
423.54	20.115
423.90	19.665
424.25	19.174
424.61	19.602
424.96	20.070
425.31	20.347
425.67	19.771
426.02	19.277
426.38	20.508
426.73	19.813
427.09	19.914
427.44	20.057
427.79	20.291
428.15	20.766
428.50	20.352
428.85	19.784
429.21	20.089
429.56	20.208
429.92	20.040
430.27	19.192
430.62	20.846
430.98	20.596
431.33	19.584
431.68	20.804
432.04	20.985
432.39	20.855
432.74	19.604
433.10	20.878
433.45	19.401
433.80	19.541
434.16	19.828
434.51	21.370
434.86	20.035
435.22	20.991
435.57	19.706
435.92	20.633
436.28	20.178
436.63	20.068
436.98	20.218
437.34	20.910
437.69	20.945
438.04	20.193
438.39	20.999
438.75	20.605
439.10	20.877
439.45	21.485
439.81	21.627
440.16	20.102
440.51	21.588
440.86	20.763
441.22	19.735
441.57	21.263
441.92	20.665
442.27	21.591
442.63	19.957
442.98	20.542
443.33	20.868
443.68	20.948
444.03	20.481
444.39	20.705
444.74	20.815
445.09	19.792
445.44	20.315
445.79	20.704
446.15	21.084
446.50	20.849
446.85	20.831
447.20	20.480
447.55	21.768
447.91	20.999
448.26	20.559
448.61	19.751
448.96	21.176
449.31	20.349
449.66	21.981
450.02	20.277
450.37	20.928
450.72	21.186
451.07	21.307
451.42	20.446
451.77	21.664
452.12	21.871
452.47	22.040
452.83	21.025
453.18	22.897
453.53	21.828
453.88	22.249
454.23	20.677
454.58	21.939
454.93	21.914
455.28	21.351
455.63	21.376
455.98	22.108
456.34	21.347
456.69	22.201
457.04	21.881
457.39	20.754
457.74	20.910
458.09	21.810
458.44	22.286
458.79	21.525
459.14	23.160
459.49	21.906
459.84	20.854
460.19	21.360
460.54	22.081
460.89	21.244
461.24	21.372
461.59	21.981
461.94	22.279
462.29	22.752
462.64	22.464
462.99	23.159
463.34	21.945
463.69	22.392
464.04	21.851
464.39	20.848
464.74	21.749
465.09	21.587
465.44	21.997
465.79	22.899
466.14	22.440
466.49	21.934
466.84	22.689
467.19	23.379
467.54	21.772
467.89	22.195
468.24	23.040
468.59	22.548
468.94	22.637
469.29	22.547
469.64	22.776
469.99	23.025
470.34	22.645
470.68	23.038
471.03	23.400
471.38	21.875
471.73	22.587
472.08	22.758
472.43	23.745
472.78	23.733
473.13	21.803
473.48	23.484
473.83	21.960
474.17	22.803
474.52	23.465
474.87	23.893
475.22	22.950
475.57	22.333
475.92	23.542
476.27	22.857
476.61	23.155
476.96	23.589
477.31	23.197
477.66	23.464
478.01	23.447
478.36	22.839
478.70	23.972
479.05	23.743
479.40	23.264
479.75	23.649
480.10	23.065
480.45	22.631
480.79	23.643
481.14	24.034
481.49	23.524
481.84	23.578
482.19	23.847
482.53	23.390
482.88	23.398
483.23	23.568
483.58	24.006
483.92	23.364
484.27	23.394
484.62	23.369
484.97	23.188
485.31	22.080
485.66	21.664
486.01	20.864
486.36	21.732
486.70	22.453
487.05	22.306
487.40	22.356
487.75	22.572
488.09	22.082
488.44	22.497
488.79	22.816
489.13	23.659
489.48	23.817
489.83	24.192
490.17	23.988
490.52	23.958
490.87	23.788
491.22	24.148
491.56	24.491
491.91	24.380
492.26	24.764
492.60	23.597
492.95	23.846
493.30	23.583
493.64	23.977
493.99	24.809
494.34	23.857
494.68	24.766
495.03	24.140
495.37	24.582
495.72	24.853
496.07	24.965
496.41	25.012
496.76	24.247
497.11	24.870
497.45	24.952
497.80	24.812
498.14	24.656
498.49	24.761
498.84	24.223
499.18	25.097
499.53	24.890
499.87	24.710
500.22	24.559
500.56	25.263
500.91	25.320
501.26	25.619
501.60	24.892
501.95	25.556
502.29	24.894
502.64	25.507
502.98	25.395
503.33	24.765
503.67	24.761
504.02	25.157
504.36	25.637
504.71	25.431
505.06	25.462
505.40	26.098
505.75	25.711
506.09	26.138
506.44	25.664
506.78	25.740
507.13	26.107
507.47	26.813
507.82	25.710
508.16	26.736
508.51	25.914
508.85	26.915
509.19	25.798
509.54	25.793
509.88	26.862
510.23	26.048
510.57	27.460
510.92	26.423
511.26	26.103
511.61	26.080
511.95	26.293
512.30	26.058
512.64	25.765
512.98	27.118
513.33	26.689
513.67	26.968
514.02	26.454
514.36	27.645
514.70	26.599
515.05	27.444
515.39	26.759
515.74	27.923
516.08	27.781
516.42	28.442
516.77	27.210
517.11	27.632
517.46	28.469
517.80	28.339
518.14	28.019
518.49	28.033
518.83	26.647
519.17	28.419
519.52	27.530
519.86	29.092
520.20	28.912
520.55	27.754
520.89	27.301
521.23	28.205
521.58	28.025
521.92	29.702
522.26	29.460
522.61	28.010
522.95	27.441
523.29	29.216
523.64	28.670
523.98	28.326
524.32	29.793
524.66	28.758
525.01	28.516
525.35	30.541
525.69	29.603
526.04	28.851
526.38	29.408
526.72	28.927
527.06	28.320
527.41	29.241
527.75	28.779
528.09	28.855
528.43	28.525
528.78	28.580
529.12	29.193
529.46	28.737
529.80	28.535
530.15	28.332
530.49	29.172
530.83	29.862
531.17	29.226
531.51	29.136
531.86	28.703
532.20	29.622
532.54	30.548
532.88	29.447
533.22	28.944
533.57	30.287
533.91	27.466
534.25	27.781
534.59	27.983
534.93	28.563
535.27	29.138
535.62	29.220
535.96	29.282
536.30	29.123
536.64	28.619
536.98	28.531
537.32	29.026
537.66	28.581
538.01	29.691
538.35	29.054
538.69	28.944
539.03	28.978
539.37	29.142
539.71	28.486
540.05	29.267
540.39	29.501
540.73	30.062
541.07	30.123
541.42	28.292
541.76	28.173
542.10	30.182
542.44	29.314
542.78	29.579
543.12	28.785
543.46	28.151
543.80	27.960
544.14	28.274
544.48	29.265
544.82	28.552
545.16	29.779
545.50	28.533
545.84	29.346
546.18	28.433
546.52	30.014
546.86	28.846
547.20	30.239
547.54	27.893
547.88	30.060
548.22	27.785
548.56	28.123
548.90	28.571
549.24	28.942
549.58	29.428
549.92	29.682
550.26	30.491
550.60	29.587
550.94	29.416
551.28	29.496
551.62	29.173
551.96	28.726
552.30	29.268
552.64	29.134
552.98	29.502
553.32	28.427
553.66	30.570
554.00	28.714
554.34	29.025
554.68	29.605
555.02	29.884
555.36	29.691
555.69	29.155
556.03	29.053
556.37	29.801
556.71	29.778
557.05	31.190
557.39	29.621
557.73	29.613
558.07	29.540
558.41	29.693
558.75	29.202
559.08	28.327
559.42	29.326
559.76	29.525
560.10	30.425
560.44	29.263
560.78	29.088
561.12	28.986
561.45	29.178
561.79	28.920
562.13	30.014
562.47	29.062
562.81	29.279
563.15	29.671
563.48	29.924
563.82	28.803
564.16	29.412
564.50	28.965
564.84	29.960
565.17	28.647
565.51	28.422
565.85	28.938
566.19	30.105
566.52	28.245
566.86	28.698
567.20	28.995
567.54	28.588
567.88	27.862
568.21	28.635
568.55	27.359
568.89	26.789
569.23	27.857
569.56	26.398
569.90	26.357
570.24	26.156
570.57	25.870
570.91	24.787
571.25	25.195
571.59	25.507
571.92	25.119
572.26	24.925
572.60	24.542
572.93	24.775
573.27	24.726
573.61	24.176
573.95	24.428
574.28	24.133
574.62	24.530
574.96	24.227
575.29	24.009
575.63	24.449
575.97	24.299
576.30	23.815
576.64	24.360
576.98	23.464
577.31	23.814
577.65	24.044
577.98	23.562
578.32	23.490
578.66	24.254
578.99	24.194
579.33	24.014
579.67	23.967
580.00	23.934
580.34	23.581
580.67	24.124
581.01	23.537
581.35	23.753
581.68	23.645
582.02	23.389
582.35	23.739
582.69	24.069
583.02	24.425
583.36	24.190
583.70	23.758
584.03	24.461
584.37	23.843
584.70	23.685
585.04	23.924
585.37	23.675
585.71	23.585
586.04	23.961
586.38	23.951
586.72	24.464
587.05	24.639
587.39	23.983
587.72	23.971
588.06	23.824
588.39	24.409
588.73	24.442
589.06	24.520
589.40	24.631
589.73	25.035
590.07	24.363
590.40	24.539
590.73	24.910
591.07	25.123
591.40	25.433
591.74	25.934
592.07	26.171
592.41	25.690
592.74	25.250
593.08	24.614
593.41	24.046
593.75	24.530
594.08	25.162
594.41	25.841
594.75	24.991
595.08	25.226
595.42	24.422
595.75	24.513
596.09	25.378
596.42	25.818
596.75	25.097
597.09	25.467
597.42	25.142
597.75	25.731
598.09	26.028
598.42	25.630
598.76	25.083
599.09	24.743
599.42	24.529
599.76	24.877
600.09	25.534
600.42	25.370
600.76	24.972
601.09	24.497
601.42	24.812
601.76	25.195
602.09	25.072
602.42	24.733
602.76	25.010
603.09	25.242
603.42	25.222
603.76	24.970
604.09	24.790
604.42	24.604
604.76	25.469
605.09	25.904
605.42	25.709
605.75	25.140
606.09	24.907
606.42	24.717
606.75	24.775
607.09	25.540
607.42	25.352
607.75	25.298
608.08	25.079
608.42	25.166
608.75	25.701
609.08	25.377
609.41	25.810
609.75	25.890
610.08	26.422
610.41	26.169
610.74	25.870
611.07	26.166
611.41	25.315
611.74	26.272
612.07	26.853
612.40	26.439
612.73	26.440
613.07	26.527
613.40	26.765
613.73	26.213
614.06	25.481
614.39	26.550
614.72	26.425
615.06	25.978
615.39	26.153
615.72	25.964
616.05	25.787
616.38	26.756
616.71	26.246
617.05	27.021
617.38	27.245
617.71	25.921
618.04	27.019
618.37	27.296
618.70	27.249
619.03	26.879
619.36	28.189
619.69	28.500
620.03	26.928
620.36	27.426
620.69	28.284
621.02	28.843
621.35	28.468
621.68	27.869
622.01	28.641
622.34	27.407
622.67	28.672
623.00	27.697
623.33	28.209
623.66	27.105
623.99	27.970
624.32	26.786
624.65	27.741
624.99	27.035
625.32	27.246
625.65	29.448
625.98	27.465
626.31	28.303
626.64	28.536
626.97	28.082
627.30	29.447
627.63	26.857
627.96	29.243
628.29	28.401
628.62	28.844
628.95	30.807
629.28	28.477
629.61	29.342
629.94	29.962
630.26	30.616
630.59	31.055
630.92	30.631
631.25	32.359
631.58	29.630
631.91	29.468
632.24	31.222
632.57	30.000
632.90	31.264
633.23	31.308
633.56	30.526
633.89	30.778
634.22	33.176
634.55	32.212
634.88	32.164
635.20	31.586
635.53	32.061
635.86	31.360
636.19	29.304
636.52	29.988
636.85	30.686
637.18	29.250
637.51	31.722
637.83	32.357
638.16	31.053
638.49	33.241
638.82	29.858
639.15	33.074
639.48	31.777
639.81	33.887
640.13	30.541
640.46	32.621
640.79	30.252
641.12	29.901
641.45	33.286
641.77	32.934
642.10	31.269
642.43	32.625
642.76	31.024
643.09	31.587
643.41	31.270
643.74	32.750
644.07	34.945
644.40	34.198
644.73	31.023
645.05	32.053
645.38	35.596
645.71	35.739
646.04	34.622
646.36	33.682
646.69	32.526
647.02	34.657
647.35	32.671
647.67	31.752
648.00	33.040
648.33	34.570
648.66	31.613
648.98	34.076
649.31	32.923
649.64	32.344
649.96	31.397
650.29	30.656
650.62	33.907
650.94	32.884
651.27	31.542
651.60	32.007
651.92	32.363
652.25	31.720
652.58	32.198
652.90	29.695
653.23	31.774
653.56	29.933
653.88	31.967
654.21	32.886
654.54	31.229
654.86	31.782
655.19	28.367
655.52	26.153
655.84	22.775
656.17	24.195
656.49	32.217
656.82	33.359
657.15	24.934
657.47	18.492
657.80	14.265
658.13	16.102
658.45	21.841
658.78	21.805
659.10	21.320
659.43	21.464
659.75	22.187
660.08	23.281
660.41	23.959
660.73	25.963
661.06	31.594
661.38	29.821
661.71	32.696
662.03	31.250
662.36	33.902
662.68	31.857
663.01	32.059
663.33	34.694
663.66	35.408
663.98	32.143
664.31	33.333
664.63	34.956
664.96	32.755
665.28	32.538
665.61	31.078
665.93	34.568
666.26	32.591
666.58	33.888
666.91	34.744
667.23	35.965
667.56	31.746
667.88	35.520
668.21	32.949
668.53	32.710
668.86	33.718
669.18	35.160
669.50	35.514
669.83	32.847
670.15	32.287
670.48	32.710
670.80	30.979
671.13	30.474
671.45	31.306
671.77	33.405
672.10	32.939
672.42	30.074
672.75	29.636
673.07	28.649
673.39	31.512
673.72	33.465
674.04	32.059
674.37	31.340
674.69	33.402
675.01	32.128
675.34	32.755
675.66	32.829
675.98	29.736
676.31	35.747
676.63	34.483
676.95	30.973
677.28	31.090
677.60	32.805
677.92	33.260
678.25	35.667
678.57	32.510
678.89	31.447
679.22	32.285
679.54	33.925
679.86	29.200
680.18	30.798
680.51	29.423
680.83	30.667
681.15	29.480
681.48	31.440
681.80	28.629
682.12	31.992
682.44	32.613
682.77	29.437
683.09	31.027
683.41	31.416
683.73	31.507
684.06	31.398
684.38	31.381
684.70	31.481
685.02	29.921
685.34	30.019
685.67	30.114
685.99	27.977
686.31	31.957
686.63	29.965
686.96	25.878
687.28	26.975
687.60	29.883
687.92	28.599
688.24	29.921
688.56	28.457
688.89	29.487
689.21	32.166
689.53	30.345
689.85	29.176
690.17	27.354
690.49	32.102
690.82	29.880
691.14	27.358
691.46	31.929
691.78	31.498
692.10	29.025
692.42	29.778
692.74	31.116
693.06	29.438
693.39	27.517
693.71	28.668
694.03	30.670
694.35	30.700
694.67	29.078
694.99	30.435
695.31	31.888
695.63	29.847
695.95	32.010
696.27	32.170
696.59	32.620
696.91	31.742
697.23	30.469
697.56	31.250
697.88	29.505
698.20	31.692
698.52	27.803
698.84	30.825
699.16	29.286
699.48	29.250
699.80	29.073
700.12	31.234
700.44	27.095
700.76	31.195
701.08	29.651
701.40	27.190
701.72	32.099
702.04	33.013
702.36	32.831
702.68	29.042
703.00	29.275
703.32	31.519
703.64	33.235
703.96	28.488
704.28	30.473
704.60	28.797
704.91	29.841
705.23	32.686
705.55	28.041
705.87	34.471
706.19	31.944
706.51	29.861
706.83	33.115
707.15	33.758
707.47	32.231
707.79	28.093
708.11	24.427
708.43	28.928
708.74	24.675
709.06	25.070
709.38	31.322
709.70	28.750
710.02	33.436
710.34	31.023
710.66	26.984
710.98	30.915
711.29	26.774
711.61	31.629
711.93	27.213
712.25	28.904
712.57	30.662
712.89	32.734
713.20	35.739
713.52	28.731
713.84	32.740
714.16	31.148
714.48	27.302
714.80	29.231
715.11	26.801
715.43	29.518
715.75	33.022
716.07	28.197
716.39	26.421
716.70	35.540
717.02	34.074
717.34	33.588
717.66	39.834
717.97	29.508
718.29	31.933
718.61	34.127
718.93	31.183
719.24	27.574
719.56	23.774
719.88	32.000
720.20	26.217
720.51	32.331
720.83	34.940
721.15	25.410
721.46	33.333
721.78	27.969
722.10	28.800
722.42	31.405
722.73	28.287
723.05	26.908
723.37	32.157
723.68	28.745
724.00	34.146
724.32	29.218
724.63	28.631
724.95	33.058
725.27	28.070
725.58	28.879
725.90	31.349
726.22	29.520
726.53	29.658
726.85	25.882
727.16	27.068
727.48	26.923
727.80	28.279
728.11	31.513
728.43	32.231
728.74	28.125
729.06	29.167
729.38	28.016
729.69	24.409
730.01	24.016
730.32	21.912
730.64	31.136
730.96	30.597
731.27	27.857
731.59	28.617
731.90	28.834
732.22	26.380
732.53	29.801
732.85	27.517
733.16	27.899
733.48	25.087
733.80	27.402
734.11	25.172
734.43	29.932
734.74	27.893
735.06	25.392
735.37	29.358
735.69	23.871
736.00	24.242
736.32	29.801
736.63	25.517
736.95	25.000
737.26	28.808
737.58	26.978
737.89	23.656
738.21	23.308
738.52	33.462
738.83	25.000
739.15	25.641
739.46	31.855
739.78	26.573
740.09	24.825
740.41	26.224
740.72	28.832
741.04	24.603
741.35	19.481
741.66	27.315
741.98	25.238
742.29	29.108
742.61	35.829
742.92	25.234
743.23	29.386
743.55	27.477
743.86	30.222
744.18	31.905
744.49	33.005
744.80	34.010
745.12	37.113
745.43	28.141
745.74	27.184
746.06	22.927
746.37	33.921
746.68	32.338
747.00	34.555
747.31	25.962
747.62	29.493
747.94	25.764
748.25	26.977
748.56	37.143
748.88	25.000
749.19	29.577
749.50	35.784
749.82	32.889
750.13	28.634
750.44	26.016
750.75	29.600
751.07	28.214
751.38	26.937
751.69	25.573
752.01	25.385
752.32	24.514
752.63	23.077
752.94	24.206
753.26	24.348
753.57	28.571
753.88	27.586
754.19	25.311
754.51	27.344
754.82	26.877
755.13	17.695
755.44	27.273
755.75	30.041
756.07	18.876
756.38	21.094
756.69	27.437
757.00	29.617
757.31	26.174
757.63	28.037
757.94	25.145
758.25	23.837
758.56	25.337
758.87	24.148
759.18	27.000
759.50	25.623
759.81	19.343
760.12	19.595
760.43	24.595
760.74	28.438
761.05	24.157
761.36	28.743
761.67	24.556
761.99	23.226
762.30	25.725
762.61	24.906
762.92	30.942
763.23	32.227
763.54	28.889
763.85	27.848
764.16	26.939
764.47	24.576
764.78	24.719
765.10	25.180
765.41	24.194
765.72	26.101
766.03	20.848
766.34	20.301
766.65	26.721
766.96	25.500
767.27	30.208
767.58	23.837
767.89	20.645
768.20	25.153
768.51	22.404
768.82	27.027
769.13	18.500
769.44	23.246
769.75	27.273
770.06	27.064
770.37	23.944
770.68	18.750
770.99	29.208
771.30	26.699
771.61	22.222
771.92	28.139
772.23	22.430
772.54	24.468
772.85	24.260
773.16	30.488
773.47	25.301
773.78	29.121
774.09	22.000
774.39	31.481
774.70	19.463
775.01	23.913
775.32	23.881
775.63	24.793
775.94	29.323
776.25	25.000
776.56	24.590
776.87	30.973
777.18	29.204
777.48	11.818
777.79	20.000
778.10	17.431
778.41	17.797
778.72	23.967
779.03	29.104
779.34	23.308
779.65	16.993
779.95	30.435
780.26	21.088
780.57	18.966
780.88	26.852
781.19	7.071
781.50	14.400
781.80	22.222
782.11	23.718
782.42	25.301
782.73	21.898
783.04	25.000
783.34	17.424
783.65	27.907
783.96	26.829
784.27	19.658
784.57	26.016
784.88	13.821
785.19	24.561
785.50	14.433
785.81	20.000
786.11	17.647
786.42	18.182
786.73	34.234
787.04	31.683
787.34	15.238
787.65	17.143
787.96	13.725
788.26	9.910
788.57	27.419
788.88	14.844
789.19	14.530
789.49	21.849
789.80	21.368
790.11	22.124
790.41	17.172
790.72	20.755
791.03	8.333
791.33	13.158
791.64	18.280
791.95	21.333
792.25	2.857
792.56	10.976
792.87	17.347
793.17	21.053
793.48	5.405
793.79	2.817
794.09	12.658
794.40	18.085
794.70	12.150
795.01	12.281
795.32	12.727
795.62	18.750
795.93	10.309
796.23	15.385
796.54	26.316
796.85	15.068
797.15	18.056
797.46	19.178
797.76	29.577
798.07	15.000
798.37	17.647
798.68	17.143
798.99	8.571
799.29	28.947
799.60	28.333
799.90	11.111
800.21	-1.563
800.51	14.286
800.82	19.672
801.12	-3.509
801.43	7.042
801.73	13.559
802.04	18.033
802.34	18.182
802.65	5.769
802.95	11.111
803.26	5.000
803.56	7.692
803.87	7.895
804.17	22.581
804.48	16.923
804.78	2.564
805.09	20.930
805.39	-18.750
805.70	-5.660
806.00	28.070
806.30	18.919
806.61	20.588
806.91	11.111
807.22	33.333
807.52	10.448
807.83	12.903
808.13	-3.175
808.43	0.000
808.74	6.061
809.04	9.434
809.35	13.699
809.65	38.596
809.95	13.235
810.26	3.922
810.56	-6.000
810.86	18.367
811.17	-2.857
811.47	11.538
811.77	6.452
812.08	-36.842
812.38	14.286
812.69	-8.696
812.99	-3.226
813.29	-9.524
813.59	-44.444
813.90	-17.021
814.20	-6.977
814.50	6.250
814.81	15.000
815.11	0.000
815.41	-23.333
815.72	8.571
816.02	-13.889
816.32	10.256
816.62	-2.703
816.93	-26.471
817.23	15.217
817.53	-35.294
817.84	2.941
818.14	-12.500
818.44	17.241
818.74	-9.677
819.04	18.519
819.35	-6.667
819.65	-12.000
819.95	13.333
820.25	-20.000
820.56	-10.526
820.86	-45.000
821.16	8.511
821.46	6.897
821.76	-15.385
822.07	-25.000
822.37	2.326
822.67	-6.667
822.97	-5.405
823.27	8.108
823.57	-4.000
823.88	0.000
824.18	-42.857
824.48	-19.231
824.78	-84.615
825.08	-17.391
825.38	-25.000
825.69	-37.500
825.99	-10.000
826.29	-27.027
826.59	-2.941
826.89	12.000
827.19	-2.857
827.49	7.895
827.79	-9.375
828.09	-13.333
828.39	47.826
828.70	-72.414
829.00	-13.793
829.30	13.889
829.60	0.000
829.90	-61.111
830.20	-53.846
830.50	-47.619
830.80	-32.143
831.10	-17.949
831.40	9.524
831.70	5.882
832.00	12.500
832.30	-73.684
832.60	-12.500
832.90	-108.333
833.20	-47.059
833.50	-80.000
833.80	-33.333
834.10	-85.000
834.40	-25.000
834.70	-38.889
835.00	7.692
835.30	-58.333
835.60	-34.483
835.90	-5.556
836.20	-118.182
836.50	-133.333
836.80	-5.714
837.10	25.714
837.40	-70.588
837.70	-36.364
838.00	-16.667
838.30	25.000
838.60	-28.571
838.90	-15.000
839.19	-43.478
839.49	-43.478
839.79	-77.778
840.09	-43.478
840.39	-27.273
840.69	-137.500
840.99	-47.368
841.29	-43.750
841.59	-14.286
841.88	-27.778
842.18	-54.167
842.48	-105.882
842.78	17.241
843.08	-21.429
843.38	-38.462
843.68	-122.222
843.97	-46.154
844.27	-27.273
844.57	-400.000
844.87	4.000
845.17	-40.000
845.47	-50.000
845.76	-100.000
846.06	0.000
846.36	-575.000
846.66	-100.000
846.96	21.053
847.25	-33.333
847.55	-66.667
847.85	-26.667
848.15	-240.000
848.44	88.462
848.74	-10.526
849.04	733.333
849.34	-22.222
849.63	21.053
849.93	0.000
850.23	-25.000
850.53	-52.381
850.82	-36.000
851.12	5.263
851.42	-1200.000
851.71	-7.143
852.01	-66.667
852.31	17.647
852.61	33.333
852.90	-61.905
853.20	-50.000
853.50	-38.889
853.79	-57.895
854.09	-140.000
854.39	0.000
854.68	-56.522
854.98	-158.333
855.28	-13.793
855.57	-68.750
855.87	-10.000
856.17	-86.667
856.46	-10.345
856.76	-80.000
857.05	-111.765
857.35	-115.385
857.65	-118.182
857.94	-40.741
858.24	-128.571
858.53	-92.857
858.83	-83.333
859.13	-122.222
859.42	52.381
859.72	-162.500
860.01	-366.667
860.31	-237.500
860.60	-300.000
860.90	-122.222
861.20	-150.000
861.49	-100.000
861.79	0.000
862.08	-350.000
862.38	-66.667
862.67	-46.154
862.97	-29.412
863.26	45.000
863.56	-52.941
863.85	500.000
864.15	-120.000
864.44	-69.231
864.74	-10.000
865.03	-200.000
865.33	-300.000
865.62	-47.059
865.92	-325.000
866.21	-128.571
866.51	-58.333
866.80	-1300.000
867.10	-300.000
867.39	-29.412
867.69	-30.435
867.98	0.000
868.27	-300.000
868.57	-62.500
868.86	-172.727
869.16	-47.059
869.45	-66.667
869.75	-42.857
870.04	1700.000
870.33	-50.000
870.63	-140.000
870.92	-77.778
871.22	-100.000
871.51	-36.364
871.80	-66.667
872.10	-40.000
>>>>>End Processed Spectral Data<<<<<
