SpectraSuite Data File
++++++++++++++++++++++++++++++++++++
Date: Sat May 16 11:25:14 PDT 2015
User: schluterlab
Dark Spectrum Present: Yes
Reference Spectrum Present: Yes
Number of Sampled Component Spectra: 1
Spectrometers: USB2E3373
Integration Time (usec): 3000 (USB2E3373)
Spectra Averaged: 3 (USB2E3373)
Boxcar Smoothing: 0 (USB2E3373)
Correct for Electrical Dark: No (USB2E3373)
Strobe/Lamp Enabled: No (USB2E3373)
Correct for Detector Non-linearity: No (USB2E3373)
Correct for Stray Light: No (USB2E3373)
Number of Pixels in Processed Spectrum: 2048
>>>>>Begin Processed Spectral Data<<<<<
178.53	0.000
178.91	166.667
179.29	633.333
179.67	-1700.000
180.04	-92.308
180.42	1300.000
180.80	200.000
181.18	475.000
181.56	-12.500
181.94	900.000
182.31	675.000
182.69	-153.846
183.07	-500.000
183.45	1800.000
183.83	500.000
184.20	-257.143
184.58	-50.000
184.96	-300.000
185.34	118.750
185.72	-600.000
186.09	166.667
186.47	-137.500
186.85	-125.000
187.23	25.000
187.61	-200.000
187.98	-387.500
188.36	-150.000
188.74	-137.500
189.12	1000.000
189.49	285.714
189.87	-41.667
190.25	450.000
190.63	-42.857
191.00	-188.889
191.38	320.000
191.76	-33.333
192.14	440.000
192.51	-220.000
192.89	-300.000
193.27	0.000
193.65	-66.667
194.02	-357.143
194.40	400.000
194.78	-210.000
195.15	-1400.000
195.53	-190.909
195.91	-400.000
196.29	200.000
196.66	-433.333
197.04	2100.000
197.42	-150.000
197.79	-13.333
198.17	-433.333
198.55	-500.000
198.92	-1200.000
199.30	225.000
199.68	-650.000
200.05	-166.667
200.43	-200.000
200.81	-1600.000
201.18	-108.333
201.56	271.429
201.94	6.667
202.31	22.727
202.69	140.000
203.07	-230.000
203.44	966.667
203.82	-316.667
204.19	-350.000
204.57	-175.000
204.95	-1300.000
205.32	-31.250
205.70	1000.000
206.08	-3000.000
206.45	-55.556
206.83	-800.000
207.20	50.000
207.58	-533.333
207.96	-600.000
208.33	-162.500
208.71	-88.889
209.08	280.000
209.46	-257.143
209.84	550.000
210.21	0.000
210.59	40.000
210.96	800.000
211.34	-450.000
211.71	-133.333
212.09	500.000
212.46	1000.000
212.84	-2300.000
213.22	700.000
213.59	191.667
213.97	-122.222
214.34	180.000
214.72	-140.000
215.09	-633.333
215.47	-216.667
215.84	-30.000
216.22	-90.000
216.59	-20.000
216.97	-525.000
217.34	850.000
217.72	-128.571
218.09	-266.667
218.47	-385.714
218.84	242.857
219.22	-128.571
219.59	0.000
219.97	157.143
220.34	400.000
220.72	212.500
221.09	-53.846
221.47	0.000
221.84	500.000
222.22	-300.000
222.59	2100.000
222.97	-125.000
223.34	-900.000
223.72	-366.667
224.09	-14.286
224.46	-100.000
224.84	-71.429
225.21	-285.714
225.59	-27.273
225.96	-137.500
226.34	-228.571
226.71	-144.444
227.08	-30.000
227.46	1800.000
227.83	-228.571
228.21	-187.500
228.58	900.000
228.95	-50.000
229.33	-1900.000
229.70	-180.000
230.08	-800.000
230.45	-16.667
230.82	-66.667
231.20	-800.000
231.57	0.000
231.95	1800.000
232.32	38.095
232.69	-166.667
233.07	-100.000
233.44	-300.000
233.81	-60.000
234.19	-166.667
234.56	-25.000
234.93	9.375
235.31	-185.714
235.68	-100.000
236.05	-17.647
236.43	9.091
236.80	-9.677
237.17	-50.000
237.55	-19.048
237.92	-22.727
238.29	-22.857
238.67	11.765
239.04	16.667
239.41	32.258
239.79	7.692
240.16	-4.762
240.53	10.909
240.91	48.718
241.28	20.000
241.65	36.923
242.02	14.754
242.40	9.836
242.77	22.727
243.14	37.288
243.51	24.286
243.89	36.709
244.26	31.461
244.63	33.684
245.00	31.579
245.38	29.661
245.75	30.088
246.12	24.000
246.49	34.646
246.87	19.512
247.24	27.966
247.61	19.492
247.98	33.803
248.36	26.573
248.73	37.342
249.10	36.306
249.47	36.257
249.84	33.523
250.22	27.381
250.59	30.508
250.96	36.649
251.33	34.597
251.70	37.500
252.08	32.227
252.45	28.910
252.82	36.190
253.19	31.915
253.56	29.032
253.94	32.911
254.31	40.773
254.68	40.650
255.05	35.081
255.42	32.143
255.79	33.333
256.16	40.392
256.54	34.926
256.91	35.985
257.28	38.095
257.65	32.270
258.02	38.679
258.39	35.117
258.76	34.459
259.14	35.802
259.51	38.689
259.88	37.195
260.25	42.236
260.62	36.334
260.99	29.970
261.36	37.805
261.73	36.127
262.10	38.333
262.47	36.182
262.85	37.143
263.22	36.390
263.59	34.769
263.96	37.681
264.33	37.940
264.70	38.122
265.07	36.538
265.44	36.176
265.81	34.625
266.18	36.709
266.55	34.559
266.92	37.783
267.29	38.015
267.66	35.309
268.03	36.473
268.40	36.385
268.77	37.831
269.14	38.979
269.51	35.862
269.88	34.862
270.25	35.897
270.62	37.300
270.99	37.387
271.36	37.762
271.73	33.408
272.10	37.986
272.47	32.667
272.84	38.222
273.21	38.073
273.58	34.505
273.95	36.623
274.32	39.367
274.69	37.856
275.06	35.378
275.43	35.937
275.80	37.882
276.17	39.121
276.54	35.642
276.91	37.037
277.28	36.511
277.65	38.636
278.02	35.282
278.39	38.703
278.76	37.052
279.13	37.154
279.50	35.388
279.87	35.941
280.23	38.057
280.60	36.978
280.97	39.417
281.34	35.977
281.71	35.385
282.08	36.895
282.45	36.049
282.82	39.147
283.19	37.273
283.56	39.560
283.92	39.576
284.29	35.874
284.66	34.712
285.03	33.690
285.40	35.793
285.77	37.018
286.14	37.004
286.51	36.590
286.87	35.027
287.24	37.713
287.61	33.719
287.98	34.662
288.35	32.231
288.72	35.144
289.08	34.915
289.45	32.997
289.82	33.910
290.19	33.990
290.56	31.240
290.93	32.591
291.29	31.929
291.66	31.562
292.03	32.025
292.40	31.627
292.77	30.124
293.13	33.008
293.50	31.947
293.87	30.521
294.24	30.468
294.60	30.000
294.97	30.956
295.34	27.852
295.71	30.804
296.08	29.339
296.44	28.183
296.81	29.345
297.18	27.606
297.55	31.215
297.91	32.915
298.28	29.452
298.65	26.499
299.02	29.947
299.38	27.273
299.75	27.717
300.12	25.513
300.48	27.877
300.85	25.819
301.22	27.038
301.59	26.788
301.95	27.834
302.32	26.988
302.69	27.173
303.05	25.275
303.42	25.500
303.79	28.110
304.15	25.948
304.52	26.488
304.89	26.092
305.25	26.984
305.62	24.559
305.99	28.033
306.35	26.193
306.72	25.968
307.09	26.447
307.45	25.766
307.82	24.804
308.19	25.839
308.55	26.471
308.92	24.275
309.29	24.973
309.65	24.284
310.02	25.054
310.38	25.514
310.75	25.102
311.12	23.967
311.48	25.052
311.85	23.893
312.22	24.923
312.58	25.229
312.95	24.465
313.31	24.975
313.68	25.729
314.05	23.541
314.41	22.938
314.78	23.477
315.14	24.877
315.51	23.708
315.87	25.653
316.24	24.781
316.61	24.664
316.97	24.577
317.34	25.337
317.70	23.469
318.07	23.228
318.43	23.127
318.80	24.977
319.16	23.077
319.53	24.436
319.89	22.107
320.26	24.314
320.62	21.731
320.99	23.582
321.35	21.478
321.72	23.337
322.08	22.354
322.45	24.257
322.81	22.671
323.18	24.400
323.54	22.921
323.91	23.818
324.27	22.909
324.64	23.309
325.00	23.386
325.37	24.163
325.73	23.797
326.10	23.118
326.46	23.993
326.83	23.489
327.19	24.687
327.56	24.106
327.92	23.959
328.29	24.762
328.65	22.636
329.01	23.233
329.38	23.550
329.74	23.443
330.11	23.844
330.47	22.888
330.84	24.198
331.20	24.549
331.56	22.060
331.93	23.091
332.29	24.566
332.66	23.442
333.02	23.258
333.38	23.387
333.75	23.330
334.11	21.778
334.48	22.418
334.84	23.972
335.20	22.695
335.57	22.924
335.93	23.724
336.29	21.258
336.66	21.762
337.02	24.144
337.38	22.727
337.75	23.793
338.11	21.825
338.47	23.043
338.84	22.414
339.20	22.496
339.56	24.153
339.93	23.457
340.29	22.232
340.65	22.727
341.02	22.681
341.38	22.157
341.74	23.539
342.11	22.696
342.47	22.403
342.83	22.082
343.20	21.776
343.56	22.694
343.92	23.706
344.28	23.717
344.65	22.525
345.01	21.513
345.37	23.920
345.73	20.704
346.10	20.850
346.46	22.258
346.82	21.893
347.19	22.021
347.55	21.910
347.91	21.654
348.27	21.241
348.63	21.567
349.00	23.230
349.36	20.843
349.72	23.169
350.08	21.010
350.45	20.804
350.81	22.054
351.17	20.740
351.53	22.037
351.89	22.878
352.26	22.326
352.62	22.197
352.98	21.677
353.34	22.142
353.70	21.236
354.07	22.423
354.43	21.660
354.79	21.870
355.15	20.927
355.51	21.406
355.87	20.949
356.24	21.287
356.60	21.273
356.96	20.939
357.32	20.903
357.68	20.460
358.04	20.554
358.40	20.882
358.77	22.179
359.13	20.888
359.49	20.937
359.85	20.503
360.21	21.233
360.57	21.536
360.93	21.704
361.29	21.450
361.66	19.893
362.02	20.932
362.38	21.423
362.74	20.293
363.10	20.230
363.46	21.652
363.82	21.647
364.18	21.346
364.54	21.658
364.90	20.825
365.26	20.613
365.62	21.311
365.98	22.617
366.35	19.577
366.71	19.309
367.07	21.030
367.43	21.894
367.79	21.375
368.15	20.910
368.51	21.678
368.87	21.841
369.23	20.561
369.59	21.736
369.95	21.001
370.31	21.308
370.67	19.740
371.03	21.283
371.39	20.085
371.75	21.388
372.11	21.664
372.47	20.607
372.83	21.766
373.19	20.929
373.55	21.886
373.91	20.199
374.27	20.602
374.63	20.290
374.99	21.140
375.35	20.727
375.71	21.607
376.07	20.876
376.42	20.132
376.78	20.980
377.14	21.627
377.50	20.761
377.86	21.326
378.22	20.540
378.58	20.939
378.94	20.222
379.30	20.293
379.66	20.765
380.02	20.083
380.38	20.121
380.74	20.750
381.09	20.797
381.45	20.227
381.81	19.601
382.17	20.865
382.53	19.878
382.89	20.754
383.25	20.951
383.61	19.693
383.97	20.943
384.32	21.089
384.68	20.798
385.04	20.109
385.40	20.146
385.76	20.854
386.12	19.988
386.48	20.297
386.83	20.920
387.19	20.980
387.55	21.078
387.91	21.221
388.27	19.964
388.62	19.952
388.98	19.867
389.34	20.135
389.70	20.037
390.06	19.702
390.42	20.897
390.77	21.073
391.13	21.863
391.49	20.649
391.85	20.262
392.20	19.842
392.56	20.037
392.92	20.479
393.28	20.723
393.64	20.866
393.99	19.754
394.35	20.012
394.71	20.074
395.07	21.155
395.42	19.070
395.78	20.113
396.14	20.935
396.50	20.734
396.85	21.036
397.21	20.413
397.57	21.398
397.92	20.960
398.28	20.611
398.64	21.773
399.00	22.079
399.35	20.575
399.71	20.441
400.07	20.299
400.42	20.985
400.78	20.930
401.14	20.659
401.49	20.165
401.85	20.744
402.21	20.560
402.57	20.874
402.92	21.460
403.28	20.098
403.63	19.473
403.99	20.261
404.35	20.048
404.70	20.012
405.06	20.934
405.42	20.295
405.77	20.475
406.13	20.897
406.49	20.611
406.84	20.576
407.20	21.201
407.55	20.393
407.91	19.883
408.27	21.262
408.62	20.866
408.98	21.286
409.34	19.988
409.69	20.164
410.05	21.164
410.40	20.540
410.76	21.280
411.11	20.511
411.47	20.460
411.83	20.721
412.18	20.359
412.54	20.073
412.89	21.142
413.25	19.953
413.60	19.806
413.96	19.039
414.31	20.734
414.67	21.079
415.03	20.052
415.38	21.015
415.74	21.649
416.09	20.332
416.45	18.981
416.80	21.261
417.16	20.399
417.51	19.632
417.87	20.841
418.22	20.607
418.58	20.026
418.93	19.620
419.29	20.201
419.64	20.352
420.00	21.507
420.35	21.053
420.71	20.408
421.06	20.473
421.42	19.731
421.77	20.882
422.12	21.153
422.48	21.005
422.83	20.558
423.19	20.156
423.54	21.095
423.90	20.648
424.25	20.362
424.61	20.265
424.96	20.772
425.31	20.570
425.67	20.287
426.02	19.507
426.38	20.871
426.73	20.456
427.09	20.343
427.44	20.625
427.79	20.698
428.15	21.305
428.50	22.229
428.85	20.144
429.21	20.974
429.56	21.042
429.92	21.343
430.27	20.738
430.62	20.533
430.98	21.171
431.33	20.491
431.68	20.268
432.04	21.489
432.39	20.570
432.74	21.643
433.10	20.597
433.45	20.265
433.80	20.325
434.16	21.386
434.51	21.151
434.86	20.562
435.22	21.102
435.57	20.991
435.92	20.868
436.28	21.009
436.63	20.294
436.98	19.817
437.34	21.382
437.69	20.653
438.04	20.250
438.39	21.600
438.75	21.129
439.10	20.933
439.45	20.579
439.81	20.904
440.16	21.352
440.51	20.882
440.86	20.937
441.22	20.509
441.57	20.579
441.92	20.921
442.27	20.238
442.63	20.279
442.98	19.808
443.33	21.032
443.68	20.532
444.03	20.285
444.39	20.215
444.74	20.485
445.09	20.998
445.44	20.765
445.79	21.010
446.15	20.591
446.50	20.033
446.85	21.498
447.20	20.735
447.55	20.829
447.91	20.999
448.26	20.726
448.61	20.543
448.96	21.345
449.31	20.349
449.66	21.179
450.02	19.778
450.37	21.043
450.72	20.678
451.07	21.559
451.42	20.384
451.77	20.287
452.12	20.560
452.47	21.285
452.83	19.802
453.18	21.063
453.53	20.896
453.88	21.352
454.23	19.589
454.58	21.193
454.93	20.151
455.28	20.459
455.63	21.437
455.98	21.024
456.34	19.886
456.69	20.450
457.04	20.406
457.39	19.797
457.74	21.264
458.09	21.520
458.44	21.016
458.79	21.749
459.14	20.993
459.49	21.433
459.84	20.686
460.19	21.420
460.54	20.508
460.89	20.404
461.24	21.676
461.59	21.043
461.94	21.388
462.29	21.560
462.64	20.883
462.99	21.017
463.34	20.594
463.69	20.802
464.04	20.152
464.39	20.729
464.74	21.040
465.09	20.806
465.44	20.587
465.79	21.263
466.14	21.519
466.49	21.301
466.84	21.248
467.19	21.197
467.54	19.494
467.89	21.085
468.24	21.140
468.59	20.612
468.94	21.801
469.29	21.053
469.64	19.811
469.99	21.067
470.34	20.107
470.68	22.384
471.03	21.129
471.38	20.347
471.73	21.678
472.08	20.214
472.43	20.399
472.78	21.333
473.13	19.483
473.48	21.825
473.83	20.720
474.17	21.210
474.52	22.059
474.87	21.270
475.22	20.177
475.57	19.833
475.92	20.950
476.27	20.400
476.61	20.620
476.96	20.794
477.31	21.206
477.66	20.365
478.01	20.475
478.36	21.530
478.70	20.715
479.05	21.147
479.40	21.710
479.75	20.999
480.10	21.429
480.45	20.551
480.79	20.780
481.14	21.124
481.49	21.152
481.84	20.758
482.19	21.425
482.53	21.402
482.88	20.693
483.23	20.892
483.58	21.462
483.92	21.548
484.27	20.160
484.62	21.037
484.97	20.499
485.31	20.608
485.66	20.862
486.01	20.772
486.36	21.385
486.70	21.467
487.05	20.919
487.40	20.700
487.75	20.410
488.09	19.549
488.44	20.501
488.79	20.340
489.13	20.806
489.48	20.555
489.83	20.873
490.17	20.592
490.52	20.969
490.87	20.416
491.22	20.785
491.56	20.509
491.91	20.945
492.26	22.123
492.60	20.742
492.95	20.657
493.30	20.391
493.64	20.357
493.99	20.698
494.34	21.857
494.68	20.646
495.03	20.889
495.37	21.239
495.72	21.365
496.07	21.258
496.41	22.094
496.76	20.639
497.11	20.725
497.45	21.073
497.80	20.810
498.14	21.071
498.49	20.944
498.84	21.019
499.18	21.735
499.53	21.140
499.87	21.139
500.22	21.078
500.56	21.211
500.91	20.394
501.26	21.252
501.60	21.233
501.95	21.787
502.29	20.737
502.64	22.254
502.98	20.700
503.33	20.395
503.67	21.312
504.02	21.632
504.36	21.275
504.71	20.871
505.06	20.270
505.40	20.908
505.75	21.646
506.09	21.284
506.44	21.103
506.78	21.325
507.13	21.112
507.47	21.648
507.82	21.167
508.16	21.192
508.51	20.711
508.85	21.170
509.19	20.670
509.54	20.825
509.88	21.649
510.23	21.122
510.57	21.640
510.92	21.858
511.26	21.159
511.61	20.734
511.95	21.498
512.30	21.165
512.64	20.200
512.98	21.342
513.33	21.032
513.67	20.882
514.02	21.365
514.36	20.831
514.70	20.487
515.05	21.784
515.39	20.761
515.74	21.291
516.08	21.153
516.42	21.303
516.77	22.068
517.11	22.254
517.46	20.993
517.80	21.239
518.14	22.041
518.49	21.279
518.83	20.890
519.17	22.084
519.52	21.515
519.86	22.162
520.20	20.599
520.55	21.292
520.89	21.227
521.23	21.917
521.58	21.818
521.92	21.849
522.26	21.841
522.61	21.293
522.95	21.251
523.29	21.379
523.64	21.424
523.98	20.624
524.32	21.622
524.66	21.739
525.01	21.323
525.35	21.070
525.69	21.145
526.04	21.018
526.38	21.324
526.72	20.817
527.06	21.680
527.41	21.320
527.75	20.594
528.09	22.105
528.43	20.656
528.78	21.796
529.12	21.831
529.46	22.616
529.80	21.562
530.15	22.086
530.49	22.251
530.83	22.331
531.17	21.010
531.51	20.764
531.86	21.461
532.20	22.132
532.54	22.059
532.88	20.883
533.22	21.791
533.57	21.345
533.91	20.537
534.25	21.622
534.59	21.049
534.93	21.033
535.27	21.523
535.62	22.123
535.96	21.655
536.30	20.615
536.64	21.647
536.98	21.257
537.32	21.769
537.66	21.996
538.01	22.268
538.35	22.635
538.69	20.655
539.03	21.666
539.37	22.089
539.71	22.548
540.05	21.453
540.39	22.507
540.73	22.253
541.07	22.131
541.42	20.729
541.76	21.130
542.10	21.810
542.44	21.386
542.78	21.438
543.12	21.792
543.46	20.548
543.80	21.672
544.14	21.424
544.48	22.244
544.82	21.380
545.16	22.133
545.50	21.534
545.84	22.323
546.18	21.567
546.52	21.977
546.86	20.940
547.20	22.644
547.54	21.006
547.88	21.765
548.22	21.232
548.56	20.508
548.90	21.294
549.24	21.724
549.58	21.524
549.92	21.908
550.26	22.327
550.60	20.768
550.94	22.263
551.28	21.445
551.62	21.492
551.96	22.214
552.30	22.021
552.64	21.182
552.98	21.374
553.32	20.635
553.66	21.629
554.00	21.962
554.34	21.227
554.68	21.711
555.02	21.635
555.36	20.776
555.69	21.490
556.03	21.825
556.37	21.550
556.71	21.761
557.05	20.621
557.39	21.678
557.73	20.934
558.07	21.552
558.41	21.690
558.75	21.293
559.08	20.545
559.42	22.129
559.76	21.549
560.10	22.521
560.44	21.604
560.78	21.503
561.12	21.601
561.45	21.986
561.79	21.951
562.13	21.318
562.47	21.849
562.81	20.651
563.15	21.973
563.48	21.700
563.82	22.312
564.16	21.298
564.50	21.976
564.84	21.759
565.17	21.684
565.51	21.447
565.85	21.298
566.19	22.398
566.52	21.722
566.86	21.176
567.20	22.518
567.54	22.563
567.88	21.217
568.21	21.980
568.55	21.368
568.89	21.322
569.23	21.425
569.56	22.278
569.90	21.597
570.24	22.360
570.57	21.441
570.91	21.659
571.25	22.114
571.59	22.011
571.92	21.488
572.26	21.540
572.60	21.502
572.93	21.214
573.27	21.220
573.61	21.136
573.95	21.527
574.28	21.155
574.62	21.403
574.96	21.510
575.29	21.875
575.63	21.290
575.97	21.063
576.30	20.992
576.64	21.253
576.98	21.498
577.31	21.526
577.65	21.047
577.98	21.632
578.32	21.659
578.66	21.313
578.99	21.041
579.33	21.176
579.67	20.949
580.00	21.057
580.34	21.013
580.67	21.500
581.01	21.069
581.35	21.355
581.68	21.240
582.02	21.296
582.35	21.114
582.69	21.091
583.02	21.972
583.36	21.258
583.70	20.789
584.03	21.013
584.37	20.433
584.70	21.200
585.04	21.139
585.37	21.193
585.71	21.263
586.04	21.353
586.38	21.144
586.72	21.364
587.05	21.127
587.39	21.169
587.72	21.396
588.06	21.183
588.39	20.706
588.73	20.881
589.06	21.419
589.40	21.367
589.73	21.140
590.07	20.721
590.40	21.218
590.73	20.432
591.07	21.025
591.40	21.404
591.74	21.329
592.07	20.180
592.41	21.486
592.74	21.407
593.08	21.902
593.41	21.217
593.75	20.870
594.08	21.999
594.41	22.107
594.75	21.291
595.08	21.767
595.42	21.171
595.75	21.095
596.09	20.644
596.42	21.645
596.75	20.914
597.09	21.416
597.42	20.952
597.75	20.815
598.09	21.464
598.42	20.283
598.76	20.473
599.09	20.916
599.42	20.953
599.76	21.329
600.09	21.527
600.42	21.420
600.76	21.620
601.09	20.889
601.42	21.290
601.76	21.534
602.09	21.554
602.42	21.193
602.76	20.814
603.09	20.685
603.42	21.595
603.76	21.260
604.09	21.706
604.42	20.483
604.76	20.846
605.09	21.971
605.42	21.321
605.75	21.173
606.09	21.461
606.42	20.737
606.75	20.910
607.09	21.570
607.42	21.083
607.75	21.589
608.08	21.283
608.42	21.239
608.75	21.262
609.08	20.068
609.41	20.877
609.75	21.355
610.08	22.059
610.41	21.831
610.74	21.760
611.07	21.450
611.41	20.222
611.74	21.440
612.07	21.375
612.40	20.842
612.73	20.679
613.07	20.693
613.40	22.113
613.73	21.035
614.06	21.032
614.39	21.646
614.72	20.335
615.06	21.413
615.39	21.432
615.72	21.021
616.05	21.149
616.38	21.880
616.71	21.502
617.05	21.472
617.38	21.300
617.71	20.762
618.04	20.870
618.37	20.629
618.70	21.708
619.03	20.921
619.36	21.705
619.69	22.469
620.03	20.661
620.36	21.589
620.69	20.531
621.02	19.711
621.35	20.887
621.68	20.902
622.01	22.006
622.34	20.963
622.67	20.547
623.00	21.500
623.33	21.567
623.66	20.606
623.99	21.429
624.32	19.494
624.65	20.456
624.99	21.285
625.32	20.284
625.65	20.979
625.98	20.031
626.31	21.452
626.64	20.837
626.97	20.890
627.30	21.277
627.63	18.998
627.96	20.540
628.29	20.496
628.62	20.439
628.95	20.965
629.28	21.711
629.61	21.001
629.94	21.361
630.26	21.670
630.59	22.211
630.92	20.320
631.25	21.270
631.58	19.788
631.91	19.043
632.24	21.222
632.57	20.111
632.90	20.805
633.23	20.911
633.56	20.000
633.89	20.283
634.22	21.015
634.55	22.236
634.88	19.952
635.20	21.099
635.53	19.720
635.86	20.781
636.19	19.658
636.52	19.355
636.85	19.735
637.18	18.375
637.51	21.190
637.83	20.639
638.16	21.053
638.49	18.759
638.82	20.463
639.15	20.233
639.48	19.326
639.81	21.300
640.13	20.135
640.46	21.652
640.79	21.849
641.12	22.708
641.45	19.082
641.77	21.108
642.10	20.242
642.43	20.334
642.76	20.472
643.09	19.365
643.41	20.952
643.74	21.304
644.07	21.217
644.40	20.421
644.73	21.122
645.05	19.199
645.38	21.854
645.71	21.993
646.04	21.345
646.36	19.372
646.69	19.723
647.02	21.480
647.35	21.841
647.67	20.438
648.00	20.387
648.33	23.272
648.66	19.516
648.98	19.268
649.31	21.231
649.64	20.313
649.96	20.565
650.29	17.869
650.62	21.515
650.94	21.754
651.27	20.624
651.60	19.031
651.92	21.747
652.25	19.032
652.58	20.102
652.90	18.941
653.23	20.645
653.56	18.060
653.88	19.344
654.21	22.483
654.54	20.930
654.86	20.225
655.19	21.633
655.52	21.920
655.84	21.869
656.17	24.597
656.49	33.219
656.82	33.556
657.15	24.882
657.47	17.969
657.80	13.443
658.13	14.933
658.45	19.898
658.78	19.071
659.10	18.456
659.43	18.096
659.75	17.703
660.08	17.344
660.41	17.385
660.73	16.942
661.06	19.710
661.38	20.893
661.71	19.120
662.03	20.161
662.36	20.256
662.68	17.300
663.01	19.533
663.33	19.501
663.66	22.318
663.98	19.196
664.31	19.463
664.63	23.230
664.96	19.523
665.28	19.089
665.61	19.450
665.93	19.136
666.26	16.599
666.58	21.414
666.91	20.935
667.23	22.149
667.56	17.007
667.88	20.814
668.21	20.737
668.53	21.262
668.86	18.476
669.18	19.635
669.50	18.224
669.83	16.302
670.15	18.386
670.48	16.355
670.80	17.768
671.13	18.059
671.45	20.270
671.77	19.486
672.10	20.118
672.42	20.480
672.75	17.636
673.07	15.676
673.39	18.215
673.72	16.142
674.04	19.321
674.37	15.876
674.69	19.262
675.01	18.723
675.34	18.872
675.66	21.814
675.98	19.383
676.31	21.946
676.63	19.310
676.95	18.584
677.28	18.561
677.60	20.362
677.92	22.687
678.25	19.912
678.57	21.399
678.89	16.981
679.22	17.820
679.54	22.485
679.86	18.600
680.18	21.293
680.51	16.760
680.83	18.667
681.15	20.039
681.48	21.501
681.80	19.758
682.12	18.109
682.44	19.843
682.77	17.749
683.09	22.013
683.41	22.345
683.73	19.635
684.06	19.140
684.38	21.130
684.70	18.519
685.02	19.488
685.34	19.493
685.67	17.803
685.99	17.580
686.31	19.569
686.63	19.326
686.96	19.593
687.28	18.690
687.60	19.531
687.92	18.093
688.24	18.110
688.56	18.838
688.89	17.521
689.21	18.381
689.53	16.782
689.85	20.045
690.17	19.058
690.49	17.783
690.82	18.554
691.14	16.981
691.46	19.069
691.78	20.925
692.10	18.008
692.42	18.444
692.74	17.167
693.06	19.551
693.39	21.029
693.71	19.865
694.03	21.166
694.35	20.090
694.67	15.839
694.99	17.136
695.31	17.347
695.63	17.092
695.95	17.618
696.27	16.459
696.59	18.984
696.91	19.663
697.23	19.271
697.56	16.827
697.88	18.919
698.20	18.630
698.52	16.592
698.84	19.660
699.16	15.952
699.48	18.000
699.80	19.048
700.12	19.647
700.44	21.229
700.76	16.035
701.08	16.279
701.40	15.106
701.72	17.901
702.04	18.269
702.36	17.771
702.68	16.168
703.00	17.101
703.32	19.484
703.64	22.353
703.96	21.221
704.28	16.568
704.60	15.190
704.91	17.143
705.23	16.828
705.55	14.189
705.87	16.041
706.19	13.889
706.51	14.236
706.83	16.393
707.15	14.331
707.47	20.110
707.79	17.268
708.11	16.794
708.43	18.454
708.74	19.221
709.06	15.320
709.38	15.805
709.70	13.437
710.02	18.712
710.34	14.851
710.66	14.921
710.98	18.297
711.29	12.903
711.61	14.696
711.93	15.082
712.25	18.937
712.57	12.892
712.89	20.144
713.20	18.900
713.52	16.418
713.84	13.879
714.16	15.082
714.48	18.730
714.80	15.077
715.11	21.326
715.43	19.880
715.75	18.069
716.07	15.410
716.39	19.732
716.70	14.634
717.02	17.778
717.34	15.649
717.66	17.012
717.97	13.934
718.29	15.126
718.61	15.873
718.93	13.262
719.24	15.074
719.56	12.830
719.88	18.545
720.20	13.483
720.51	19.173
720.83	16.064
721.15	15.984
721.46	14.510
721.78	13.410
722.10	12.400
722.42	14.463
722.73	15.936
723.05	19.277
723.37	16.471
723.68	14.170
724.00	19.512
724.32	18.107
724.63	9.544
724.95	22.727
725.27	9.211
725.58	14.224
725.90	18.254
726.22	18.819
726.53	16.350
726.85	9.412
727.16	15.038
727.48	18.462
727.80	12.295
728.11	18.067
728.43	17.769
728.74	16.797
729.06	14.773
729.38	14.786
729.69	11.417
730.01	15.748
730.32	14.741
730.64	15.385
730.96	18.284
731.27	14.643
731.59	18.650
731.90	18.098
732.22	16.871
732.53	19.868
732.85	16.779
733.16	16.667
733.48	13.937
733.80	16.370
734.11	13.793
734.43	16.327
734.74	18.101
735.06	16.928
735.37	16.514
735.69	13.871
736.00	18.519
736.32	18.874
736.63	13.793
736.95	14.130
737.26	17.550
737.58	16.906
737.89	17.921
738.21	16.165
738.52	12.308
738.83	15.234
739.15	16.667
739.46	20.968
739.78	17.133
740.09	14.336
740.41	12.587
740.72	18.613
741.04	9.524
741.35	14.286
741.66	14.815
741.98	10.000
742.29	15.962
742.61	18.182
742.92	18.692
743.23	10.088
743.55	17.117
743.86	19.556
744.18	13.810
744.49	23.645
744.80	15.228
745.12	19.588
745.43	14.573
745.74	13.592
746.06	16.098
746.37	16.740
746.68	12.935
747.00	23.037
747.31	7.212
747.62	13.364
747.94	15.284
748.25	16.279
748.56	19.524
748.88	15.761
749.19	12.676
749.50	20.098
749.82	12.889
750.13	22.907
750.44	14.228
750.75	18.000
751.07	19.643
751.38	14.391
751.69	12.977
752.01	15.385
752.32	12.062
752.63	14.615
752.94	14.683
753.26	21.739
753.57	20.536
753.88	18.534
754.19	6.224
754.51	16.016
754.82	15.020
755.13	15.226
755.44	15.702
755.75	18.519
756.07	9.237
756.38	19.141
756.69	15.523
757.00	19.861
757.31	16.443
757.63	19.938
757.94	17.341
758.25	18.314
758.56	20.216
758.87	15.909
759.18	15.333
759.50	12.811
759.81	14.234
760.12	12.838
760.43	20.388
760.74	21.562
761.05	20.787
761.36	18.263
761.67	17.751
761.99	15.806
762.30	17.391
762.61	18.491
762.92	18.386
763.23	17.536
763.54	16.889
763.85	16.878
764.16	18.776
764.47	15.678
764.78	16.854
765.10	19.424
765.41	14.194
765.72	15.409
766.03	12.367
766.34	18.421
766.65	14.170
766.96	13.000
767.27	14.583
767.58	16.860
767.89	9.032
768.20	14.110
768.51	13.661
768.82	12.973
769.13	21.000
769.44	15.789
769.75	13.853
770.06	16.514
770.37	11.737
770.68	14.062
770.99	13.366
771.30	15.534
771.61	11.574
771.92	12.987
772.23	15.888
772.54	18.617
772.85	6.509
773.16	10.976
773.47	15.060
773.78	20.879
774.09	6.000
774.39	16.049
774.70	12.752
775.01	6.522
775.32	11.194
775.63	4.132
775.94	15.038
776.25	6.429
776.56	14.754
776.87	16.814
777.18	13.274
777.48	0.909
777.79	7.826
778.10	7.339
778.41	5.932
778.72	11.570
779.03	18.657
779.34	11.278
779.65	21.569
779.95	17.391
780.26	12.925
780.57	3.448
780.88	7.407
781.19	3.030
781.50	2.400
781.80	10.458
782.11	14.103
782.42	16.265
782.73	8.029
783.04	8.784
783.34	10.606
783.65	13.953
783.96	15.447
784.27	2.564
784.57	1.626
784.88	3.252
785.19	26.316
785.50	-13.402
785.81	9.524
786.11	4.902
786.42	10.909
786.73	16.216
787.04	13.861
787.34	10.476
787.65	16.190
787.96	0.980
788.26	14.414
788.57	19.355
788.88	10.937
789.19	12.821
789.49	7.563
789.80	6.838
790.11	17.699
790.41	17.172
790.72	16.038
791.03	-2.778
791.33	3.947
791.64	17.204
791.95	9.333
792.25	-2.857
792.56	2.439
792.87	26.531
793.17	7.895
793.48	-1.351
793.79	-1.408
794.09	6.329
794.40	22.340
794.70	12.150
795.01	0.877
795.32	3.636
795.62	9.821
795.93	10.309
796.23	-2.198
796.54	13.684
796.85	6.849
797.15	6.944
797.46	8.219
797.76	12.676
798.07	2.500
798.37	-1.471
798.68	12.857
798.99	5.714
799.29	14.474
799.60	3.333
799.90	-6.944
800.21	-12.500
800.51	-12.698
800.82	9.836
801.12	10.526
801.43	-4.225
801.73	-6.780
802.04	1.639
802.34	0.000
802.65	11.538
802.95	11.111
803.26	-50.000
803.56	-5.769
803.87	-23.684
804.17	-8.065
804.48	10.769
804.78	-15.385
805.09	-6.977
805.39	-34.375
805.70	-18.868
806.00	-12.281
806.30	6.757
806.61	14.706
806.91	1.235
807.22	-1.333
807.52	25.373
807.83	-3.226
808.13	-4.762
808.43	-14.545
808.74	0.000
809.04	-9.434
809.35	0.000
809.65	12.281
809.95	11.765
810.26	-7.843
810.56	-10.000
810.86	-6.122
811.17	-20.000
811.47	-11.538
811.77	-35.484
812.08	-57.895
812.38	7.143
812.69	-15.217
812.99	12.903
813.29	-7.143
813.59	-37.037
813.90	-38.298
814.20	-30.233
814.50	2.083
814.81	0.000
815.11	17.073
815.41	-16.667
815.72	-5.714
816.02	-30.556
816.32	25.641
816.62	-32.432
816.93	-79.412
817.23	-2.174
817.53	-2.941
817.84	-14.706
818.14	-37.500
818.44	-24.138
818.74	-25.806
819.04	-22.222
819.35	-20.000
819.65	-28.000
819.95	-16.667
820.25	-40.000
820.56	-28.947
820.86	-10.000
821.16	19.149
821.46	8.621
821.76	-46.154
822.07	0.000
822.37	-6.977
822.67	13.333
822.97	-18.919
823.27	0.000
823.57	-4.000
823.88	8.108
824.18	-61.905
824.48	-11.538
824.78	-138.462
825.08	-39.130
825.38	-12.500
825.69	-16.667
825.99	-55.000
826.29	-24.324
826.59	-38.235
826.89	-20.000
827.19	-14.286
827.49	-15.789
827.79	-28.125
828.09	-63.333
828.39	8.696
828.70	-44.828
829.00	-10.345
829.30	0.000
829.60	9.375
829.90	-72.222
830.20	-38.462
830.50	-71.429
830.80	-67.857
831.10	0.000
831.40	-76.190
831.70	-14.706
832.00	8.333
832.30	-73.684
832.60	-75.000
832.90	-91.667
833.20	-88.235
833.50	-53.333
833.80	-46.667
834.10	-15.000
834.40	-37.500
834.70	-27.778
835.00	-15.385
835.30	-41.667
835.60	-37.931
835.90	-111.111
836.20	-100.000
836.50	-100.000
836.80	-34.286
837.10	42.857
837.40	-5.882
837.70	-181.818
838.00	-54.167
838.30	-100.000
838.60	-57.143
838.90	5.000
839.19	-4.348
839.49	-30.435
839.79	-77.778
840.09	-60.870
840.39	-4.545
840.69	-62.500
840.99	15.789
841.29	-100.000
841.59	-100.000
841.88	-72.222
842.18	-75.000
842.48	-47.059
842.78	-41.379
843.08	0.000
843.38	-84.615
843.68	-144.444
843.97	-138.462
844.27	-145.455
844.57	-120.000
844.87	8.000
845.17	-160.000
845.47	-157.143
845.76	-77.778
846.06	0.000
846.36	-500.000
846.66	-230.000
846.96	-68.421
847.25	-50.000
847.55	-108.333
847.85	-53.333
848.15	-120.000
848.44	3.846
848.74	26.316
849.04	500.000
849.34	-44.444
849.63	-89.474
849.93	0.000
850.23	-80.000
850.53	-4.762
850.82	-32.000
851.12	0.000
851.42	-1100.000
851.71	-14.286
852.01	-83.333
852.31	-70.588
852.61	-66.667
852.90	-52.381
853.20	-183.333
853.50	-44.444
853.79	-100.000
854.09	-46.667
854.39	10.714
854.68	-13.043
854.98	-175.000
855.28	0.000
855.57	-68.750
855.87	-45.000
856.17	-26.667
856.46	-44.828
856.76	-66.667
857.05	-105.882
857.35	-130.769
857.65	-54.545
857.94	-7.407
858.24	-85.714
858.53	-135.714
858.83	-16.667
859.13	-133.333
859.42	47.619
859.72	-162.500
860.01	-400.000
860.31	-87.500
860.60	-420.000
860.90	-144.444
861.20	-237.500
861.49	-128.571
861.79	-58.824
862.08	-850.000
862.38	-116.667
862.67	-30.769
862.97	-35.294
863.26	-20.000
863.56	-82.353
863.85	533.333
864.15	-160.000
864.44	-53.846
864.74	-35.000
865.03	-250.000
865.33	-266.667
865.62	-76.471
865.92	-550.000
866.21	-121.429
866.51	-175.000
866.80	-1600.000
867.10	-333.333
867.39	-29.412
867.69	-65.217
867.98	-200.000
868.27	-440.000
868.57	-56.250
868.86	-200.000
869.16	-29.412
869.45	-266.667
869.75	-114.286
870.04	100.000
870.33	-66.667
870.63	-320.000
870.92	-155.556
871.22	-66.667
871.51	-63.636
871.80	16.667
872.10	-50.000
>>>>>End Processed Spectral Data<<<<<
