SpectraSuite Data File
++++++++++++++++++++++++++++++++++++
Date: Sat May 16 11:36:39 PDT 2015
User: schluterlab
Dark Spectrum Present: Yes
Reference Spectrum Present: Yes
Number of Sampled Component Spectra: 1
Spectrometers: USB2E3373
Integration Time (usec): 3000 (USB2E3373)
Spectra Averaged: 3 (USB2E3373)
Boxcar Smoothing: 0 (USB2E3373)
Correct for Electrical Dark: No (USB2E3373)
Strobe/Lamp Enabled: No (USB2E3373)
Correct for Detector Non-linearity: No (USB2E3373)
Correct for Stray Light: No (USB2E3373)
Number of Pixels in Processed Spectrum: 2048
>>>>>Begin Processed Spectral Data<<<<<
178.53	0.000
178.91	146.667
179.29	500.000
179.67	-1100.000
180.04	-69.231
180.42	400.000
180.80	200.000
181.18	350.000
181.56	-100.000
181.94	-100.000
182.31	775.000
182.69	-46.154
183.07	-333.333
183.45	1450.000
183.83	433.333
184.20	-171.429
184.58	-37.500
184.96	-275.000
185.34	150.000
185.72	-450.000
186.09	300.000
186.47	-225.000
186.85	-112.500
187.23	37.500
187.61	-375.000
187.98	-262.500
188.36	-150.000
188.74	-212.500
189.12	1200.000
189.49	257.143
189.87	-100.000
190.25	275.000
190.63	-35.714
191.00	-155.556
191.38	300.000
191.76	-6.667
192.14	480.000
192.51	-280.000
192.89	-400.000
193.27	0.000
193.65	-188.889
194.02	-185.714
194.40	733.333
194.78	-120.000
195.15	-800.000
195.53	-154.545
195.91	-550.000
196.29	280.000
196.66	-800.000
197.04	2500.000
197.42	-250.000
197.79	0.000
198.17	-200.000
198.55	-1100.000
198.92	-1300.000
199.30	275.000
199.68	-900.000
200.05	-100.000
200.43	-244.444
200.81	-1900.000
201.18	-75.000
201.56	128.571
201.94	-93.333
202.31	-4.545
202.69	10.000
203.07	-60.000
203.44	533.333
203.82	-366.667
204.19	-400.000
204.57	-275.000
204.95	-1400.000
205.32	18.750
205.70	1300.000
206.08	-1600.000
206.45	22.222
206.83	-1050.000
207.20	-50.000
207.58	-933.333
207.96	-566.667
208.33	-137.500
208.71	-188.889
209.08	130.000
209.46	-200.000
209.84	1200.000
210.21	0.000
210.59	15.000
210.96	900.000
211.34	-266.667
211.71	-400.000
212.09	375.000
212.46	1150.000
212.84	-1800.000
213.22	600.000
213.59	108.333
213.97	-77.778
214.34	150.000
214.72	-120.000
215.09	-266.667
215.47	-200.000
215.84	-130.000
216.22	-80.000
216.59	13.333
216.97	-375.000
217.34	700.000
217.72	-128.571
218.09	-316.667
218.47	-242.857
218.84	271.429
219.22	-114.286
219.59	0.000
219.97	385.714
220.34	375.000
220.72	275.000
221.09	-61.538
221.47	0.000
221.84	666.667
222.22	-500.000
222.59	1300.000
222.97	-187.500
223.34	-550.000
223.72	-466.667
224.09	-92.857
224.46	-775.000
224.84	-35.714
225.21	-242.857
225.59	-45.455
225.96	-287.500
226.34	-214.286
226.71	-155.556
227.08	-5.000
227.46	2200.000
227.83	-214.286
228.21	-237.500
228.58	-0.000
228.95	-37.500
229.33	-1200.000
229.70	-300.000
230.08	-850.000
230.45	-25.000
230.82	-233.333
231.20	-1700.000
231.57	-300.000
231.95	1300.000
232.32	-9.524
232.69	-233.333
233.07	-257.143
233.44	-1250.000
233.81	-100.000
234.19	-88.889
234.56	-131.250
234.93	0.000
235.31	-214.286
235.68	-142.857
236.05	-41.176
236.43	-81.818
236.80	6.452
237.17	-70.833
237.55	-47.619
237.92	-95.455
238.29	-48.571
238.67	-8.824
239.04	8.333
239.41	-48.387
239.79	-56.410
240.16	-40.476
240.53	-25.455
240.91	-66.667
241.28	-5.455
241.65	-6.154
242.02	-9.836
242.40	-16.393
242.77	-9.091
243.14	-22.034
243.51	-21.429
243.89	-11.392
244.26	-15.730
244.63	-3.158
245.00	-5.263
245.38	-4.237
245.75	-6.195
246.12	5.600
246.49	-4.724
246.87	-8.130
247.24	-12.712
247.61	-11.864
247.98	-1.408
248.36	-6.993
248.73	0.000
249.10	-6.369
249.47	1.170
249.84	1.136
250.22	-17.262
250.59	-3.390
250.96	-1.047
251.33	4.739
251.70	3.846
252.08	3.791
252.45	-5.213
252.82	-2.381
253.19	0.851
253.56	3.226
253.94	-0.422
254.31	-2.146
254.68	2.846
255.05	0.403
255.42	1.587
255.79	4.659
256.16	1.569
256.54	0.735
256.91	-5.303
257.28	0.000
257.65	2.482
258.02	5.660
258.39	1.672
258.76	1.689
259.14	-0.309
259.51	3.607
259.88	1.524
260.25	4.037
260.62	-0.322
260.99	-2.077
261.36	4.573
261.73	2.023
262.10	1.667
262.47	1.140
262.85	4.571
263.22	1.719
263.59	-1.538
263.96	1.739
264.33	2.439
264.70	2.762
265.07	3.022
265.44	-1.809
265.81	1.550
266.18	0.000
266.55	0.000
266.92	3.275
267.29	1.211
267.66	0.247
268.03	6.039
268.40	1.408
268.77	2.410
269.14	0.464
269.51	1.839
269.88	-0.688
270.25	1.399
270.62	2.975
270.99	0.901
271.36	0.932
271.73	3.587
272.10	-0.229
272.47	0.444
272.84	4.889
273.21	2.294
273.58	2.637
273.95	2.632
274.32	1.584
274.69	4.595
275.06	1.636
275.43	1.339
275.80	5.906
276.17	1.883
276.54	3.055
276.91	1.646
277.28	2.028
277.65	-0.207
278.02	2.505
278.39	2.554
278.76	2.988
279.13	2.767
279.50	1.789
279.87	3.594
280.23	2.632
280.60	1.988
280.97	1.748
281.34	1.354
281.71	3.654
282.08	0.806
282.45	-0.611
282.82	2.519
283.19	1.273
283.56	4.212
283.92	2.650
284.29	2.416
284.66	4.317
285.03	5.704
285.40	3.321
285.77	2.982
286.14	2.708
286.51	3.552
286.87	3.085
287.24	3.242
287.61	3.140
287.98	4.159
288.35	4.463
288.72	2.547
289.08	3.220
289.45	4.545
289.82	2.422
290.19	5.911
290.56	2.479
290.93	1.272
291.29	2.107
291.66	1.932
292.03	6.122
292.40	5.120
292.77	4.814
293.13	5.203
293.50	4.012
293.87	4.294
294.24	3.469
294.60	3.485
294.97	4.097
295.34	2.815
295.71	2.232
296.08	2.458
296.44	2.146
296.81	3.561
297.18	4.507
297.55	4.802
297.91	6.416
298.28	3.425
298.65	3.905
299.02	5.481
299.38	4.011
299.75	3.940
300.12	4.487
300.48	4.987
300.85	4.718
301.22	4.269
301.59	4.161
301.95	6.927
302.32	3.390
302.69	5.263
303.05	4.029
303.42	3.750
303.79	5.742
304.15	5.095
304.52	5.484
304.89	5.077
305.25	5.006
305.62	5.758
305.99	5.418
306.35	5.993
306.72	5.011
307.09	6.129
307.45	5.221
307.82	4.581
308.19	5.369
308.55	5.229
308.92	4.834
309.29	5.189
309.65	4.666
310.02	4.860
310.38	4.324
310.75	5.430
311.12	5.165
311.48	5.115
311.85	5.355
312.22	5.149
312.58	6.002
312.95	6.014
313.31	5.794
313.68	6.030
314.05	7.319
314.41	5.131
314.78	4.895
315.14	6.318
315.51	5.572
315.87	7.067
316.24	6.317
316.61	7.582
316.97	6.169
317.34	5.588
317.70	5.380
318.07	6.343
318.43	6.086
318.80	7.512
319.16	6.848
319.53	6.203
319.89	6.773
320.26	6.176
320.62	6.154
320.99	6.667
321.35	6.207
321.72	7.165
322.08	6.726
322.45	6.040
322.81	8.261
323.18	6.532
323.54	6.839
323.91	7.322
324.27	7.224
324.64	6.856
325.00	6.894
325.37	7.602
325.73	8.399
326.10	6.200
326.46	7.356
326.83	7.319
327.19	7.923
327.56	9.284
327.92	8.751
328.29	8.571
328.65	7.364
329.01	7.951
329.38	7.939
329.74	8.333
330.11	7.706
330.47	8.084
330.84	9.166
331.20	8.574
331.56	7.931
331.93	7.815
332.29	8.767
332.66	7.989
333.02	7.873
333.38	8.781
333.75	9.439
334.11	7.467
334.48	7.326
334.84	9.099
335.20	8.599
335.57	9.206
335.93	10.116
336.29	7.706
336.66	8.370
337.02	8.559
337.38	8.467
337.75	8.253
338.11	8.497
338.47	8.630
338.84	7.623
339.20	8.875
339.56	9.180
339.93	7.496
340.29	8.503
340.65	8.829
341.02	8.769
341.38	7.835
341.74	8.467
342.11	8.362
342.47	8.412
342.83	7.893
343.20	7.600
343.56	7.837
343.92	8.598
344.28	8.495
344.65	8.746
345.01	7.731
345.37	9.468
345.73	7.529
346.10	7.604
346.46	8.773
346.82	7.298
347.19	7.560
347.55	7.865
347.91	8.583
348.27	8.035
348.63	8.885
349.00	8.274
349.36	7.884
349.72	9.076
350.08	7.939
350.45	7.329
350.81	8.280
351.17	7.878
351.53	7.558
351.89	7.357
352.26	8.605
352.62	9.524
352.98	7.911
353.34	9.193
353.70	8.340
354.07	8.340
354.43	8.221
354.79	8.320
355.15	7.109
355.51	7.969
355.87	8.221
356.24	6.990
356.60	8.219
356.96	8.930
357.32	7.363
357.68	6.897
358.04	8.930
358.40	8.662
358.77	7.805
359.13	7.651
359.49	8.314
359.85	7.698
360.21	8.067
360.57	8.810
360.93	9.111
361.29	8.744
361.66	8.003
362.02	8.136
362.38	7.924
362.74	8.059
363.10	8.608
363.46	9.046
363.82	7.872
364.18	9.190
364.54	8.506
364.90	7.897
365.26	7.775
365.62	8.054
365.98	8.962
366.35	7.817
366.71	8.175
367.07	8.186
367.43	9.540
367.79	9.485
368.15	8.890
368.51	8.741
368.87	8.723
369.23	8.281
369.59	8.958
369.95	8.809
370.31	8.298
370.67	7.954
371.03	9.038
371.39	7.496
371.75	8.727
372.11	8.680
372.47	8.388
372.83	9.179
373.19	9.000
373.55	9.008
373.91	8.606
374.27	8.830
374.63	9.179
374.99	9.318
375.35	8.412
375.71	8.980
376.07	8.830
376.42	8.146
376.78	9.281
377.14	9.153
377.50	9.413
377.86	8.322
378.22	9.736
378.58	8.894
378.94	8.631
379.30	9.324
379.66	9.350
380.02	9.091
380.38	8.701
380.74	9.086
381.09	9.783
381.45	9.905
381.81	9.316
382.17	9.649
382.53	8.267
382.89	9.270
383.25	9.151
383.61	9.906
383.97	9.614
384.32	9.387
384.68	9.553
385.04	9.662
385.40	10.408
385.76	9.878
386.12	9.494
386.48	8.973
386.83	10.061
387.19	9.504
387.55	9.873
387.91	9.899
388.27	8.384
388.62	9.495
388.98	9.146
389.34	9.914
389.70	9.379
390.06	9.323
390.42	8.910
390.77	10.032
391.13	9.379
391.49	9.357
391.85	9.726
392.20	9.891
392.56	9.591
392.92	10.040
393.28	10.850
393.64	9.802
393.99	10.154
394.35	10.158
394.71	9.574
395.07	10.232
395.42	9.714
395.78	9.365
396.14	10.841
396.50	10.092
396.85	10.487
397.21	9.235
397.57	9.787
397.92	10.480
398.28	9.833
398.64	10.410
399.00	10.337
399.35	9.977
399.71	10.105
400.07	10.328
400.42	9.246
400.78	10.197
401.14	9.641
401.49	9.729
401.85	11.104
402.21	10.131
402.57	10.255
402.92	10.699
403.28	9.926
403.63	9.467
403.99	10.503
404.35	9.964
404.70	10.123
405.06	10.554
405.42	10.148
405.77	9.446
406.13	9.540
406.49	9.946
406.84	10.498
407.20	10.188
407.55	11.146
407.91	8.744
408.27	10.110
408.62	9.862
408.98	9.885
409.34	9.567
409.69	9.578
410.05	9.885
410.40	9.994
410.76	10.907
411.11	9.663
411.47	9.079
411.83	9.780
412.18	9.777
412.54	9.213
412.89	10.328
413.25	9.327
413.60	9.660
413.96	8.811
414.31	9.847
414.67	9.524
415.03	9.120
415.38	10.540
415.74	9.858
416.09	10.102
416.45	8.796
416.80	10.533
417.16	9.037
417.51	9.652
417.87	9.968
418.22	9.355
418.58	10.141
418.93	10.178
419.29	10.289
419.64	9.485
420.00	10.085
420.35	10.349
420.71	9.484
421.06	10.414
421.42	8.782
421.77	10.497
422.12	9.849
422.48	10.048
422.83	10.251
423.19	9.911
423.54	9.914
423.90	9.774
424.25	10.124
424.61	10.856
424.96	10.532
425.31	10.509
425.67	10.372
426.02	9.065
426.38	11.252
426.73	10.812
427.09	10.110
427.44	10.682
427.79	10.291
428.15	11.071
428.50	10.674
428.85	10.372
429.21	9.685
429.56	10.677
429.92	10.721
430.27	9.721
430.62	10.920
430.98	10.037
431.33	10.245
431.68	9.866
432.04	10.688
432.39	10.370
432.74	10.312
433.10	10.186
433.45	10.075
433.80	10.582
434.16	10.908
434.51	11.014
434.86	10.310
435.22	10.245
435.57	9.180
435.92	9.379
436.28	10.801
436.63	9.949
436.98	10.309
437.34	11.223
437.69	10.968
438.04	10.040
438.39	11.492
438.75	10.477
439.10	10.994
439.45	9.535
439.81	11.205
440.16	11.471
440.51	10.824
440.86	10.526
441.22	10.171
441.57	10.789
441.92	10.997
442.27	10.335
442.63	10.408
442.98	10.553
443.33	10.763
443.68	11.256
444.03	10.806
444.39	10.573
444.74	10.297
445.09	10.800
445.44	10.692
445.79	10.352
446.15	10.679
446.50	10.234
446.85	10.416
447.20	10.163
447.55	10.718
447.91	11.286
448.26	11.173
448.61	10.640
448.96	10.644
449.31	10.259
449.66	11.162
450.02	10.139
450.37	9.797
450.72	10.621
451.07	10.308
451.42	10.223
451.77	10.592
452.12	10.846
452.47	10.327
452.83	10.775
453.18	10.689
453.53	10.634
453.88	11.244
454.23	9.855
454.58	11.311
454.93	11.398
455.28	10.198
455.63	10.381
455.98	10.904
456.34	9.403
456.69	11.132
457.04	11.309
457.39	11.423
457.74	10.632
458.09	11.253
458.44	11.085
458.79	10.706
459.14	10.268
459.49	11.072
459.84	11.074
460.19	10.382
460.54	10.829
460.89	10.650
461.24	11.111
461.59	11.313
461.94	11.267
462.29	11.316
462.64	11.331
462.99	11.111
463.34	11.411
463.69	10.941
464.04	10.779
464.39	10.394
464.74	10.993
465.09	10.102
465.44	11.224
465.79	11.506
466.14	11.335
466.49	11.054
466.84	11.224
467.19	11.596
467.54	10.316
467.89	11.221
468.24	11.283
468.59	11.181
468.94	10.740
469.29	9.877
469.64	11.860
469.99	12.424
470.34	11.556
470.68	11.410
471.03	11.562
471.38	11.528
471.73	10.909
472.08	10.107
472.43	11.647
472.78	11.467
473.13	10.139
473.48	10.913
473.83	11.166
474.17	10.701
474.52	11.701
474.87	11.480
475.22	11.150
475.57	10.722
475.92	11.069
476.27	11.314
476.61	11.437
476.96	10.565
477.31	10.980
477.66	11.455
478.01	11.723
478.36	11.786
478.70	11.426
479.05	11.574
479.40	11.451
479.75	11.417
480.10	11.607
480.45	10.445
480.79	11.945
481.14	12.042
481.49	11.181
481.84	11.142
482.19	11.923
482.53	10.890
482.88	11.580
483.23	11.408
483.58	12.396
483.92	11.849
484.27	10.988
484.62	11.922
484.97	11.613
485.31	11.232
485.66	11.004
486.01	10.993
486.36	11.387
486.70	11.812
487.05	11.189
487.40	11.779
487.75	11.202
488.09	11.211
488.44	11.637
488.79	11.815
489.13	11.487
489.48	12.194
489.83	12.052
490.17	12.364
490.52	12.047
490.87	11.640
491.22	11.677
491.56	11.481
491.91	11.927
492.26	11.462
492.60	12.274
492.95	11.614
493.30	12.149
493.64	11.236
493.99	11.568
494.34	12.000
494.68	11.798
495.03	11.472
495.37	11.603
495.72	11.984
496.07	12.248
496.41	12.691
496.76	11.918
497.11	12.153
497.45	12.213
497.80	11.456
498.14	12.132
498.49	11.150
498.84	12.184
499.18	12.476
499.53	11.836
499.87	11.293
500.22	12.304
500.56	11.456
500.91	12.020
501.26	11.887
501.60	11.363
501.95	12.271
502.29	11.526
502.64	12.730
502.98	11.787
503.33	12.312
503.67	12.308
504.02	11.733
504.36	12.549
504.71	10.892
505.06	11.882
505.40	12.176
505.75	11.382
506.09	12.184
506.44	11.579
506.78	12.092
507.13	11.535
507.47	13.093
507.82	12.545
508.16	12.539
508.51	12.468
508.85	11.853
509.19	11.826
509.54	12.315
509.88	11.968
510.23	11.950
510.57	12.487
510.92	12.675
511.26	11.590
511.61	11.825
511.95	12.231
512.30	11.875
512.64	11.742
512.98	12.101
513.33	12.411
513.67	11.893
514.02	12.416
514.36	13.019
514.70	11.998
515.05	12.636
515.39	12.457
515.74	14.252
516.08	12.680
516.42	12.975
516.77	12.594
517.11	13.101
517.46	12.679
517.80	12.756
518.14	12.198
518.49	13.090
518.83	12.641
519.17	13.558
519.52	12.435
519.86	12.127
520.20	13.386
520.55	12.923
520.89	12.210
521.23	13.553
521.58	12.853
521.92	13.553
522.26	13.079
522.61	13.435
522.95	12.061
523.29	13.605
523.64	13.242
523.98	13.176
524.32	13.388
524.66	13.043
525.01	13.295
525.35	13.531
525.69	13.468
526.04	13.903
526.38	14.067
526.72	12.580
527.06	13.346
527.41	13.861
527.75	13.663
528.09	13.633
528.43	13.902
528.78	14.070
529.12	13.380
529.46	12.822
529.80	12.331
530.15	13.844
530.49	13.001
530.83	13.949
531.17	13.737
531.51	13.731
531.86	13.298
532.20	13.698
532.54	14.171
532.88	13.702
533.22	13.369
533.57	13.773
533.91	13.983
534.25	14.142
534.59	13.179
534.93	13.815
535.27	14.034
535.62	14.130
535.96	13.704
536.30	13.089
536.64	13.878
536.98	13.347
537.32	13.131
537.66	13.849
538.01	13.127
538.35	13.784
538.69	13.102
539.03	13.473
539.37	13.240
539.71	14.676
540.05	13.091
540.39	13.781
540.73	13.960
541.07	14.959
541.42	13.302
541.76	13.156
542.10	13.977
542.44	13.924
542.78	13.161
543.12	13.781
543.46	13.904
543.80	14.381
544.14	12.895
544.48	14.173
544.82	13.058
545.16	14.286
545.50	12.786
545.84	14.395
546.18	14.771
546.52	14.083
546.86	13.675
547.20	14.135
547.54	13.636
547.88	13.736
548.22	13.172
548.56	12.291
548.90	13.881
549.24	13.805
549.58	14.114
549.92	14.205
550.26	14.090
550.60	13.300
550.94	13.577
551.28	13.469
551.62	13.516
551.96	13.242
552.30	14.216
552.64	14.145
552.98	14.576
553.32	13.059
553.66	14.492
554.00	13.646
554.34	14.079
554.68	13.670
555.02	13.965
555.36	13.875
555.69	12.894
556.03	13.684
556.37	14.154
556.71	14.102
557.05	13.969
557.39	13.883
557.73	14.661
558.07	14.469
558.41	13.687
558.75	13.840
559.08	13.385
559.42	14.701
559.76	13.957
560.10	14.840
560.44	14.957
560.78	13.848
561.12	12.836
561.45	13.425
561.79	13.728
562.13	13.604
562.47	13.585
562.81	13.225
563.15	13.226
563.48	14.029
563.82	13.387
564.16	14.266
564.50	13.172
564.84	14.286
565.17	13.064
565.51	14.081
565.85	15.145
566.19	14.361
566.52	13.438
566.86	13.274
567.20	15.315
567.54	14.826
567.88	13.903
568.21	13.535
568.55	13.309
568.89	12.823
569.23	12.911
569.56	12.778
569.90	13.139
570.24	13.454
570.57	12.865
570.91	13.125
571.25	13.359
571.59	13.487
571.92	13.363
572.26	12.942
572.60	13.280
572.93	13.410
573.27	12.652
573.61	13.020
573.95	13.332
574.28	12.817
574.62	13.091
574.96	13.185
575.29	13.084
575.63	13.087
575.97	12.621
576.30	13.127
576.64	12.977
576.98	13.362
577.31	13.087
577.65	13.576
577.98	13.016
578.32	13.029
578.66	12.779
578.99	13.279
579.33	12.962
579.67	13.391
580.00	13.194
580.34	13.283
580.67	13.091
581.01	12.820
581.35	13.023
581.68	12.595
582.02	12.704
582.35	12.691
582.69	13.222
583.02	13.263
583.36	13.108
583.70	13.082
584.03	12.985
584.37	12.882
584.70	13.138
585.04	13.063
585.37	12.530
585.71	13.087
586.04	13.171
586.38	13.098
586.72	13.219
587.05	13.112
587.39	13.057
587.72	12.848
588.06	12.957
588.39	13.386
588.73	13.488
589.06	13.139
589.40	13.432
589.73	13.704
590.07	12.964
590.40	13.727
590.73	13.035
591.07	13.648
591.40	13.345
591.74	13.076
592.07	13.288
592.41	12.951
592.74	13.528
593.08	13.903
593.41	13.651
593.75	13.056
594.08	13.408
594.41	13.752
594.75	13.779
595.08	13.571
595.42	13.259
595.75	13.304
596.09	13.232
596.42	13.748
596.75	12.893
597.09	13.758
597.42	13.226
597.75	13.596
598.09	13.059
598.42	13.301
598.76	13.538
599.09	12.747
599.42	13.303
599.76	13.137
600.09	13.550
600.42	13.673
600.76	13.446
601.09	12.761
601.42	12.980
601.76	13.279
602.09	13.661
602.42	13.333
602.76	13.087
603.09	13.306
603.42	13.417
603.76	13.123
604.09	13.576
604.42	13.072
604.76	13.868
605.09	13.472
605.42	14.140
605.75	13.540
606.09	12.827
606.42	12.778
606.75	13.225
607.09	13.277
607.42	13.732
607.75	13.687
608.08	13.556
608.42	13.150
608.75	13.505
609.08	14.126
609.41	13.702
609.75	13.749
610.08	13.529
610.41	13.783
610.74	13.491
611.07	13.742
611.41	13.515
611.74	13.728
612.07	14.232
612.40	14.179
612.73	13.193
613.07	13.374
613.40	14.833
613.73	13.733
614.06	13.125
614.39	13.360
614.72	13.631
615.06	13.424
615.39	13.782
615.72	13.580
616.05	13.142
616.38	13.813
616.71	13.694
617.05	15.018
617.38	12.879
617.71	12.838
618.04	14.410
618.37	13.082
618.70	14.407
619.03	13.541
619.36	13.742
619.69	15.291
620.03	13.774
620.36	13.572
620.69	13.855
621.02	14.612
621.35	14.758
621.68	14.590
622.01	13.916
622.34	14.829
622.67	14.766
623.00	14.308
623.33	15.373
623.66	13.663
623.99	14.211
624.32	14.137
624.65	13.613
624.99	14.787
625.32	12.799
625.65	14.375
625.98	13.459
626.31	14.029
626.64	14.895
626.97	14.041
627.30	14.894
627.63	14.076
627.96	14.534
628.29	14.522
628.62	14.613
628.95	14.764
629.28	14.568
629.61	13.543
629.94	14.839
630.26	14.712
630.59	15.879
630.92	14.615
631.25	15.625
631.58	14.497
631.91	12.553
632.24	15.000
632.57	14.222
632.90	14.828
633.23	15.421
633.56	13.567
633.89	15.094
634.22	13.932
634.55	16.226
634.88	16.082
635.20	15.481
635.53	15.140
635.86	15.743
636.19	13.797
636.52	14.337
636.85	14.801
637.18	13.750
637.51	15.242
637.83	14.647
638.16	15.000
638.49	13.793
638.82	15.701
639.15	16.472
639.48	13.619
639.81	15.906
640.13	15.676
640.46	15.100
640.79	14.286
641.12	16.220
641.45	15.638
641.77	15.419
642.10	14.653
642.43	16.692
642.76	16.850
643.09	15.873
643.41	16.190
643.74	17.329
644.07	17.005
644.40	14.911
644.73	16.337
645.05	14.357
645.38	17.384
645.71	16.667
646.04	17.647
646.36	13.613
646.69	15.225
647.02	15.884
647.35	14.982
647.67	14.781
648.00	16.344
648.33	17.201
648.66	13.871
648.98	16.083
649.31	14.769
649.64	14.375
649.96	15.856
650.29	13.279
650.62	15.491
650.94	15.008
651.27	15.078
651.60	14.706
651.92	17.979
652.25	13.689
652.58	13.629
652.90	15.249
653.23	14.516
653.56	15.050
653.88	16.066
654.21	15.101
654.54	17.276
654.86	13.644
655.19	15.330
655.52	13.530
655.84	13.366
656.17	14.359
656.49	19.983
656.82	20.724
657.15	15.781
657.47	11.557
657.80	8.802
658.13	10.247
658.45	13.599
658.78	13.582
659.10	13.724
659.43	13.380
659.75	13.179
660.08	13.490
660.41	13.294
660.73	13.311
661.06	14.348
661.38	17.857
661.71	14.723
662.03	16.129
662.36	15.778
662.68	12.447
663.01	16.773
663.33	16.327
663.66	15.665
663.98	14.286
664.31	11.857
664.63	18.142
664.96	13.883
665.28	15.835
665.61	13.319
665.93	17.284
666.26	14.980
666.58	15.593
666.91	15.813
667.23	19.956
667.56	15.873
667.88	18.552
668.21	15.438
668.53	13.551
668.86	15.935
669.18	14.384
669.50	13.551
669.83	15.085
670.15	17.713
670.48	13.785
670.80	13.440
671.13	14.673
671.45	13.514
671.77	16.060
672.10	13.609
672.42	16.236
672.75	14.000
673.07	14.234
673.39	16.211
673.72	16.339
674.04	15.499
674.37	12.990
674.69	16.598
675.01	13.404
675.34	12.581
675.66	17.711
675.98	17.181
676.31	15.385
676.63	14.713
676.95	13.938
677.28	17.169
677.60	17.421
677.92	15.198
678.25	17.068
678.57	15.021
678.89	13.836
679.22	15.514
679.54	17.751
679.86	14.400
680.18	15.209
680.51	14.525
680.83	15.429
681.15	14.644
681.48	16.227
681.80	12.903
682.12	15.292
682.44	16.110
682.77	14.719
683.09	16.771
683.41	15.265
683.73	14.612
684.06	13.763
684.38	16.946
684.70	15.021
685.02	13.976
685.34	15.010
685.67	14.394
685.99	14.178
686.31	13.824
686.63	15.957
686.96	14.048
687.28	15.607
687.60	17.773
687.92	12.257
688.24	16.535
688.56	15.030
688.89	12.607
689.21	17.287
689.53	18.161
689.85	16.258
690.17	17.265
690.49	14.319
690.82	11.566
691.14	13.208
691.46	16.630
691.78	15.419
692.10	13.983
692.42	14.889
692.74	12.876
693.06	15.955
693.39	15.884
693.71	14.221
694.03	16.415
694.35	14.447
694.67	15.130
694.99	12.020
695.31	16.327
695.63	13.776
695.95	15.881
696.27	14.713
696.59	18.717
696.91	14.045
697.23	17.708
697.56	14.904
697.88	15.090
698.20	15.418
698.52	15.471
698.84	15.534
699.16	15.238
699.48	11.250
699.80	18.296
700.12	17.632
700.44	12.570
700.76	12.828
701.08	14.244
701.40	13.897
701.72	16.358
702.04	16.026
702.36	17.169
702.68	12.275
703.00	15.072
703.32	13.181
703.64	17.353
703.96	18.314
704.28	16.272
704.60	15.190
704.91	13.651
705.23	17.476
705.55	12.838
705.87	17.406
706.19	11.111
706.51	13.889
706.83	16.721
707.15	14.013
707.47	12.948
707.79	14.433
708.11	12.723
708.43	18.703
708.74	13.506
709.06	15.320
709.38	11.782
709.70	11.562
710.02	15.951
710.34	15.842
710.66	11.111
710.98	15.457
711.29	14.194
711.61	11.502
711.93	12.787
712.25	21.262
712.57	11.150
712.89	14.748
713.20	18.557
713.52	11.940
713.84	13.879
714.16	18.361
714.48	13.016
714.80	16.000
715.11	15.274
715.43	22.289
715.75	17.445
716.07	16.393
716.39	13.712
716.70	16.028
717.02	16.296
717.34	14.885
717.66	21.577
717.97	10.246
718.29	18.487
718.61	12.698
718.93	15.054
719.24	13.971
719.56	15.849
719.88	12.364
720.20	16.105
720.51	11.654
720.83	12.048
721.15	16.393
721.46	12.157
721.78	11.877
722.10	16.800
722.42	13.223
722.73	14.343
723.05	14.056
723.37	10.588
723.68	18.219
724.00	17.073
724.32	16.872
724.63	13.278
724.95	16.116
725.27	12.719
725.58	13.362
725.90	9.921
726.22	19.926
726.53	10.646
726.85	10.980
727.16	16.165
727.48	9.615
727.80	13.934
728.11	13.025
728.43	15.702
728.74	16.797
729.06	17.424
729.38	15.564
729.69	12.205
730.01	15.748
730.32	14.741
730.64	17.949
730.96	14.552
731.27	16.071
731.59	12.862
731.90	12.883
732.22	13.804
732.53	12.914
732.85	15.436
733.16	13.406
733.48	12.195
733.80	12.811
734.11	13.103
734.43	15.646
734.74	18.101
735.06	13.480
735.37	16.208
735.69	10.323
736.00	14.815
736.32	11.589
736.63	14.483
736.95	12.681
737.26	15.232
737.58	14.748
737.89	14.337
738.21	17.293
738.52	15.000
738.83	18.750
739.15	12.821
739.46	17.742
739.78	12.238
740.09	12.238
740.41	13.986
740.72	14.599
741.04	16.270
741.35	13.420
741.66	10.185
741.98	9.524
742.29	15.493
742.61	14.439
742.92	17.757
743.23	14.912
743.55	16.216
743.86	16.889
744.18	12.857
744.49	19.704
744.80	19.797
745.12	9.278
745.43	11.055
745.74	17.961
746.06	8.780
746.37	13.656
746.68	15.423
747.00	14.136
747.31	12.500
747.62	12.903
747.94	13.100
748.25	18.605
748.56	12.857
748.88	6.522
749.19	14.554
749.50	20.588
749.82	16.444
750.13	15.859
750.44	16.667
750.75	8.000
751.07	18.214
751.38	10.332
751.69	10.687
752.01	15.000
752.32	10.506
752.63	16.154
752.94	11.111
753.26	19.130
753.57	21.875
753.88	10.345
754.19	14.108
754.51	11.328
754.82	15.810
755.13	11.934
755.44	14.876
755.75	13.169
756.07	9.237
756.38	10.547
756.69	20.578
757.00	12.195
757.31	13.758
757.63	15.576
757.94	14.162
758.25	13.372
758.56	17.520
758.87	14.205
759.18	11.333
759.50	12.456
759.81	11.679
760.12	13.176
760.43	15.858
760.74	14.062
761.05	18.820
761.36	14.671
761.67	13.314
761.99	10.645
762.30	16.304
762.61	15.849
762.92	15.695
763.23	9.953
763.54	11.556
763.85	13.924
764.16	15.102
764.47	12.288
764.78	15.730
765.10	17.986
765.41	10.968
765.72	13.208
766.03	8.127
766.34	17.669
766.65	14.575
766.96	11.000
767.27	10.937
767.58	13.372
767.89	12.903
768.20	15.337
768.51	16.940
768.82	5.405
769.13	14.500
769.44	11.404
769.75	11.255
770.06	11.009
770.37	12.676
770.68	10.417
770.99	17.822
771.30	8.738
771.61	13.889
771.92	9.524
772.23	12.617
772.54	7.979
772.85	2.367
773.16	7.927
773.47	16.867
773.78	14.835
774.09	13.333
774.39	13.580
774.70	14.094
775.01	7.246
775.32	10.448
775.63	12.397
775.94	12.782
776.25	3.571
776.56	9.016
776.87	18.584
777.18	17.699
777.48	2.727
777.79	2.609
778.10	13.761
778.41	3.390
778.72	6.612
779.03	23.881
779.34	10.526
779.65	16.993
779.95	4.348
780.26	10.204
780.57	-4.310
780.88	13.889
781.19	-3.030
781.50	4.800
781.80	20.261
782.11	3.205
782.42	13.253
782.73	2.920
783.04	11.486
783.34	11.364
783.65	6.977
783.96	13.008
784.27	12.821
784.57	-1.626
784.88	6.504
785.19	7.895
785.50	-3.093
785.81	3.810
786.11	-3.922
786.42	1.818
786.73	10.811
787.04	9.901
787.34	5.714
787.65	-0.952
787.96	9.804
788.26	9.910
788.57	12.903
788.88	0.000
789.19	11.111
789.49	0.840
789.80	8.547
790.11	17.699
790.41	9.091
790.72	25.472
791.03	-5.556
791.33	6.579
791.64	6.452
791.95	12.000
792.25	-17.143
792.56	3.659
792.87	12.245
793.17	-9.211
793.48	-16.216
793.79	-1.408
794.09	12.658
794.40	18.085
794.70	7.477
795.01	0.877
795.32	3.636
795.62	10.714
795.93	5.155
796.23	4.396
796.54	20.000
796.85	1.370
797.15	-12.500
797.46	5.479
797.76	5.634
798.07	10.000
798.37	7.353
798.68	2.857
798.99	5.714
799.29	-3.947
799.60	-3.333
799.90	-5.556
800.21	-9.375
800.51	-3.175
800.82	-8.197
801.12	-15.789
801.43	2.817
801.73	-16.949
802.04	21.311
802.34	-10.909
802.65	0.000
802.95	12.963
803.26	-35.000
803.56	-13.462
803.87	-15.789
804.17	11.290
804.48	3.077
804.78	-5.128
805.09	-2.326
805.39	-84.375
805.70	-5.660
806.00	21.053
806.30	6.757
806.61	-1.471
806.91	2.469
807.22	2.667
807.52	5.970
807.83	-19.355
808.13	-7.937
808.43	-10.909
808.74	4.545
809.04	9.434
809.35	4.110
809.65	14.035
809.95	-2.941
810.26	-7.843
810.56	-14.000
810.86	-2.041
811.17	11.429
811.47	-1.923
811.77	12.903
812.08	-60.526
812.38	-2.381
812.69	-17.391
812.99	-38.710
813.29	-21.429
813.59	-88.889
813.90	-21.277
814.20	-51.163
814.50	-4.167
814.81	-1.667
815.11	-19.512
815.41	-40.000
815.72	0.000
816.02	-8.333
816.32	-17.949
816.62	-45.946
816.93	-70.588
817.23	-26.087
817.53	-20.588
817.84	-14.706
818.14	-53.125
818.44	-79.310
818.74	-16.129
819.04	-7.407
819.35	-66.667
819.65	-48.000
819.95	-26.667
820.25	0.000
820.56	-13.158
820.86	-5.000
821.16	-4.255
821.46	0.000
821.76	-23.077
822.07	-40.000
822.37	-27.907
822.67	-53.333
822.97	-45.946
823.27	-8.108
823.57	12.000
823.88	0.000
824.18	-42.857
824.48	-46.154
824.78	-130.769
825.08	-21.739
825.38	-25.000
825.69	-29.167
825.99	-90.000
826.29	-10.811
826.59	2.941
826.89	-4.000
827.19	-14.286
827.49	15.789
827.79	-31.250
828.09	-36.667
828.39	-34.783
828.70	-62.069
829.00	-24.138
829.30	8.333
829.60	25.000
829.90	-22.222
830.20	-42.308
830.50	-61.905
830.80	-35.714
831.10	0.000
831.40	-61.905
831.70	-17.647
832.00	-41.667
832.30	-115.789
832.60	18.750
832.90	-50.000
833.20	-58.824
833.50	-73.333
833.80	-26.667
834.10	-55.000
834.40	-4.167
834.70	0.000
835.00	-53.846
835.30	-41.667
835.60	-10.345
835.90	-100.000
836.20	-127.273
836.50	-133.333
836.80	-17.143
837.10	25.714
837.40	-64.706
837.70	-154.545
838.00	-25.000
838.30	-81.250
838.60	-19.048
838.90	-30.000
839.19	-34.783
839.49	-4.348
839.79	-55.556
840.09	-43.478
840.39	-68.182
840.69	-68.750
840.99	-47.368
841.29	-81.250
841.59	-114.286
841.88	-61.111
842.18	-45.833
842.48	-41.176
842.78	13.793
843.08	-42.857
843.38	-38.462
843.68	-222.222
843.97	-138.462
844.27	-154.545
844.57	-280.000
844.87	4.000
845.17	-280.000
845.47	-135.714
845.76	-155.556
846.06	0.000
846.36	-125.000
846.66	-120.000
846.96	-89.474
847.25	-54.167
847.55	-100.000
847.85	-13.333
848.15	-260.000
848.44	15.385
848.74	-42.105
849.04	800.000
849.34	-66.667
849.63	-94.737
849.93	0.000
850.23	-60.000
850.53	-14.286
850.82	-44.000
851.12	-5.263
851.42	-800.000
851.71	-78.571
852.01	-83.333
852.31	-64.706
852.61	-66.667
852.90	-52.381
853.20	-266.667
853.50	-88.889
853.79	-73.684
854.09	-33.333
854.39	-7.143
854.68	-4.348
854.98	-258.333
855.28	17.241
855.57	-25.000
855.87	-55.000
856.17	-100.000
856.46	-13.793
856.76	-113.333
857.05	-58.824
857.35	-138.462
857.65	-100.000
857.94	-22.222
858.24	-92.857
858.53	-78.571
858.83	-108.333
859.13	-200.000
859.42	-47.619
859.72	-225.000
860.01	-466.667
860.31	-162.500
860.60	-460.000
860.90	-211.111
861.20	-112.500
861.49	-257.143
861.79	-11.765
862.08	-700.000
862.38	-141.667
862.67	-46.154
862.97	-29.412
863.26	10.000
863.56	-23.529
863.85	833.333
864.15	-70.000
864.44	-53.846
864.74	0.000
865.03	-387.500
865.33	-283.333
865.62	-117.647
865.92	-450.000
866.21	-107.143
866.51	-125.000
866.80	-2200.000
867.10	-433.333
867.39	-29.412
867.69	0.000
867.98	-185.714
868.27	-320.000
868.57	-100.000
868.86	-145.455
869.16	0.000
869.45	-300.000
869.75	-228.571
870.04	2100.000
870.33	-116.667
870.63	-360.000
870.92	-144.444
871.22	-50.000
871.51	-81.818
871.80	-75.000
872.10	-90.000
>>>>>End Processed Spectral Data<<<<<
