SpectraSuite Data File
++++++++++++++++++++++++++++++++++++
Date: Sat May 16 11:32:13 PDT 2015
User: schluterlab
Dark Spectrum Present: Yes
Reference Spectrum Present: Yes
Number of Sampled Component Spectra: 1
Spectrometers: USB2E3373
Integration Time (usec): 3000 (USB2E3373)
Spectra Averaged: 3 (USB2E3373)
Boxcar Smoothing: 0 (USB2E3373)
Correct for Electrical Dark: No (USB2E3373)
Strobe/Lamp Enabled: No (USB2E3373)
Correct for Detector Non-linearity: No (USB2E3373)
Correct for Stray Light: No (USB2E3373)
Number of Pixels in Processed Spectrum: 2048
>>>>>Begin Processed Spectral Data<<<<<
178.53	0.000
178.91	93.333
179.29	600.000
179.67	-2000.000
180.04	-53.846
180.42	1100.000
180.80	225.000
181.18	225.000
181.56	-100.000
181.94	2200.000
182.31	375.000
182.69	-76.923
183.07	-600.000
183.45	1700.000
183.83	366.667
184.20	57.143
184.58	-200.000
184.96	-375.000
185.34	93.750
185.72	-575.000
186.09	150.000
186.47	-187.500
186.85	-112.500
187.23	-112.500
187.61	-125.000
187.98	-325.000
188.36	-125.000
188.74	-300.000
189.12	1700.000
189.49	271.429
189.87	-75.000
190.25	525.000
190.63	-42.857
191.00	-244.444
191.38	640.000
191.76	0.000
192.14	440.000
192.51	-340.000
192.89	-533.333
193.27	0.000
193.65	-177.778
194.02	-285.714
194.40	466.667
194.78	-210.000
195.15	-900.000
195.53	-127.273
195.91	-466.667
196.29	440.000
196.66	-366.667
197.04	2000.000
197.42	-150.000
197.79	-60.000
198.17	-433.333
198.55	-700.000
198.92	-1200.000
199.30	150.000
199.68	-1450.000
200.05	-211.111
200.43	-155.556
200.81	-1000.000
201.18	-125.000
201.56	371.429
201.94	-40.000
202.31	-50.000
202.69	-80.000
203.07	-10.000
203.44	766.667
203.82	-216.667
204.19	-275.000
204.57	-75.000
204.95	-1500.000
205.32	-62.500
205.70	700.000
206.08	-1800.000
206.45	-44.444
206.83	-650.000
207.20	-200.000
207.58	-666.667
207.96	-566.667
208.33	-200.000
208.71	-111.111
209.08	180.000
209.46	-185.714
209.84	1250.000
210.21	0.000
210.59	60.000
210.96	1500.000
211.34	-400.000
211.71	-466.667
212.09	300.000
212.46	1200.000
212.84	-2700.000
213.22	833.333
213.59	141.667
213.97	0.000
214.34	220.000
214.72	-40.000
215.09	-700.000
215.47	-283.333
215.84	-100.000
216.22	-80.000
216.59	-20.000
216.97	-375.000
217.34	950.000
217.72	-100.000
218.09	-266.667
218.47	-271.429
218.84	228.571
219.22	-85.714
219.59	0.000
219.97	328.571
220.34	475.000
220.72	237.500
221.09	-30.769
221.47	0.000
221.84	400.000
222.22	-550.000
222.59	800.000
222.97	-212.500
223.34	-700.000
223.72	-966.667
224.09	-57.143
224.46	-325.000
224.84	-28.571
225.21	-157.143
225.59	-63.636
225.96	-150.000
226.34	-85.714
226.71	-133.333
227.08	-35.000
227.46	2800.000
227.83	-128.571
228.21	-275.000
228.58	350.000
228.95	-143.750
229.33	-1300.000
229.70	-300.000
230.08	-1050.000
230.45	-75.000
230.82	-233.333
231.20	-800.000
231.57	-800.000
231.95	1600.000
232.32	-57.143
232.69	-177.778
233.07	-242.857
233.44	-1050.000
233.81	-93.333
234.19	-155.556
234.56	-68.750
234.93	-3.125
235.31	-285.714
235.68	-164.286
236.05	-64.706
236.43	-77.273
236.80	-32.258
237.17	-41.667
237.55	-38.095
237.92	-113.636
238.29	-48.571
238.67	0.000
239.04	-30.556
239.41	-45.161
239.79	-61.538
240.16	-35.714
240.53	-14.545
240.91	7.692
241.28	-10.909
241.65	0.000
242.02	-13.115
242.40	-22.951
242.77	-4.545
243.14	-32.203
243.51	-11.429
243.89	-17.722
244.26	-12.360
244.63	0.000
245.00	-5.263
245.38	-0.847
245.75	-5.310
246.12	0.800
246.49	-3.937
246.87	-20.325
247.24	-13.559
247.61	-16.949
247.98	-8.451
248.36	-7.692
248.73	-1.266
249.10	-7.006
249.47	-2.339
249.84	-4.545
250.22	-15.476
250.59	-5.650
250.96	-8.377
251.33	-4.265
251.70	-2.404
252.08	-1.422
252.45	-4.265
252.82	-8.095
253.19	-1.702
253.56	-5.645
253.94	-3.376
254.31	-1.717
254.68	-4.472
255.05	-2.823
255.42	0.397
255.79	-2.151
256.16	-5.882
256.54	0.368
256.91	-5.303
257.28	-5.861
257.65	-5.674
258.02	-0.943
258.39	-2.676
258.76	-6.081
259.14	-2.469
259.51	-1.639
259.88	-4.878
260.25	-0.932
260.62	-2.894
260.99	-1.187
261.36	-2.439
261.73	-1.156
262.10	4.167
262.47	-5.128
262.85	-2.286
263.22	-0.573
263.59	-4.923
263.96	-1.449
264.33	1.355
264.70	0.552
265.07	-2.473
265.44	-2.067
265.81	-5.685
266.18	-4.810
266.55	-1.471
266.92	-0.504
267.29	-2.906
267.66	-1.975
268.03	0.000
268.40	-3.756
268.77	-0.482
269.14	-0.928
269.51	1.609
269.88	-3.440
270.25	-4.196
270.62	-2.059
270.99	-0.901
271.36	-2.098
271.73	-3.363
272.10	-1.144
272.47	-2.222
272.84	-0.222
273.21	0.459
273.58	-0.659
273.95	-2.193
274.32	-4.525
274.69	1.969
275.06	-0.204
275.43	-4.688
275.80	0.407
276.17	-1.883
276.54	0.000
276.91	-4.115
277.28	-1.623
277.65	-3.926
278.02	-3.340
278.39	-0.589
278.76	-0.199
279.13	-0.593
279.50	-2.187
279.87	-2.326
280.23	0.405
280.60	-1.590
280.97	-2.524
281.34	-2.321
281.71	-0.769
282.08	-1.008
282.45	-3.666
282.82	-3.488
283.19	-0.364
283.56	-0.366
283.92	-1.767
284.29	-2.788
284.66	-0.899
285.03	0.357
285.40	-0.554
285.77	-2.105
286.14	-0.903
286.51	-0.888
286.87	0.907
287.24	-0.171
287.61	-1.818
287.98	-3.640
288.35	-1.818
288.72	-1.358
289.08	-2.881
289.45	-1.010
289.82	-1.730
290.19	0.328
290.56	-2.314
290.93	-2.385
291.29	-2.269
291.66	-2.093
292.03	-0.785
292.40	-1.355
292.77	-1.863
293.13	-1.463
293.50	0.297
293.87	-0.920
294.24	-1.961
294.60	-1.212
294.97	0.152
295.34	-1.926
295.71	-0.298
296.08	-2.611
296.44	-1.431
296.81	-0.570
297.18	-0.423
297.55	-0.282
297.91	0.000
298.28	-2.192
298.65	-1.813
299.02	-0.134
299.38	-0.802
299.75	-1.359
300.12	-0.128
300.48	0.000
300.85	-0.917
301.22	-0.776
301.59	-0.650
301.95	1.511
302.32	-2.347
302.69	0.490
303.05	-0.611
303.42	-1.250
303.79	0.478
304.15	0.829
304.52	0.117
304.89	0.590
305.25	-0.611
305.62	0.118
305.99	0.707
306.35	0.222
306.72	-0.114
307.09	1.135
307.45	0.454
307.82	-0.670
308.19	0.671
308.55	0.327
308.92	-1.289
309.29	1.297
309.65	-0.424
310.02	1.080
310.38	-0.324
310.75	1.230
311.12	1.343
311.48	0.835
311.85	1.236
312.22	1.030
312.58	1.526
312.95	0.306
313.31	1.499
313.68	2.211
314.05	2.671
314.41	0.704
314.78	1.099
315.14	3.850
315.51	2.026
315.87	2.420
316.24	3.013
316.61	3.455
316.97	3.781
317.34	3.179
317.70	3.711
318.07	3.265
318.43	3.090
318.80	4.413
319.16	3.189
319.53	2.632
319.89	4.045
320.26	4.510
320.62	4.615
320.99	4.378
321.35	3.251
321.72	3.787
322.08	5.539
322.45	4.653
322.81	6.820
323.18	6.532
323.54	6.007
323.91	4.819
324.27	6.654
324.64	6.490
325.00	7.417
325.37	7.421
325.73	7.962
326.10	6.820
326.46	7.968
326.83	8.170
327.19	8.841
327.56	9.625
327.92	8.921
328.29	9.177
328.65	7.818
329.01	9.541
329.38	9.545
329.74	9.707
330.11	10.607
330.47	10.173
330.84	11.182
331.20	10.289
331.56	12.033
331.93	11.456
332.29	11.142
332.66	11.414
333.02	10.769
333.38	12.545
333.75	12.912
334.11	12.622
334.48	12.004
334.84	13.561
335.20	12.677
335.57	12.455
335.93	13.429
336.29	12.489
336.66	11.366
337.02	12.973
337.38	11.408
337.75	12.818
338.11	12.612
338.47	12.900
338.84	12.160
339.20	13.093
339.56	13.815
339.93	12.610
340.29	12.932
340.65	12.238
341.02	13.238
341.38	13.479
341.74	13.124
342.11	14.078
342.47	12.876
342.83	13.098
343.20	12.212
343.56	12.163
343.92	13.773
344.28	14.045
344.65	11.304
345.01	12.689
345.37	13.870
345.73	11.866
346.10	12.020
346.46	12.185
346.82	12.430
347.19	12.572
347.55	12.600
347.91	13.307
348.27	12.729
348.63	14.297
349.00	13.286
349.36	11.319
349.72	13.933
350.08	12.510
350.45	12.293
350.81	12.898
351.17	12.460
351.53	12.570
351.89	12.530
352.26	12.868
352.62	14.055
352.98	13.133
353.34	13.589
353.70	12.896
354.07	13.061
354.43	13.597
354.79	12.599
355.15	12.061
355.51	12.734
355.87	13.202
356.24	13.344
356.60	13.537
356.96	14.088
357.32	13.618
357.68	13.180
358.04	14.165
358.40	13.225
358.77	13.215
359.13	13.466
359.49	13.076
359.85	13.186
360.21	13.775
360.57	14.232
360.93	14.593
361.29	14.126
361.66	12.805
362.02	14.053
362.38	14.380
362.74	13.626
363.10	13.917
363.46	14.601
363.82	13.994
364.18	14.544
364.54	15.654
364.90	13.767
365.26	14.123
365.62	15.110
365.98	14.367
366.35	14.930
366.71	13.742
367.07	14.820
367.43	15.786
367.79	15.120
368.15	13.869
368.51	15.105
368.87	15.934
369.23	15.719
369.59	15.069
369.95	14.870
370.31	16.385
370.67	16.269
371.03	16.035
371.39	15.134
371.75	16.381
372.11	15.782
372.47	15.618
372.83	16.690
373.19	15.714
373.55	15.693
373.91	16.501
374.27	15.264
374.63	16.839
374.99	16.968
375.35	16.622
375.71	17.758
376.07	17.112
376.42	16.755
376.78	18.105
377.14	17.085
377.50	18.504
377.86	18.401
378.22	17.714
378.58	17.603
378.94	17.756
379.30	18.403
379.66	18.094
380.02	18.004
380.38	17.523
380.74	18.347
381.09	19.156
381.45	19.093
381.81	18.149
382.17	18.421
382.53	18.298
382.89	20.215
383.25	19.747
383.61	19.575
383.97	19.106
384.32	20.338
384.68	20.979
385.04	20.471
385.40	19.903
385.76	20.549
386.12	21.299
386.48	20.050
386.83	20.859
387.19	21.279
387.55	21.018
387.91	21.043
388.27	20.084
388.62	20.974
388.98	20.836
389.34	20.685
389.70	20.889
390.06	21.131
390.42	21.603
390.77	21.136
391.13	22.733
391.49	22.021
391.85	21.696
392.20	21.784
392.56	21.564
392.92	21.563
393.28	22.962
393.64	22.850
393.99	22.646
394.35	23.054
394.71	21.804
395.07	22.913
395.42	21.812
395.78	22.313
396.14	22.617
396.50	21.957
396.85	21.653
397.21	21.993
397.57	22.553
397.92	22.951
398.28	23.556
398.64	23.319
399.00	23.427
399.35	22.435
399.71	23.810
400.07	23.582
400.42	23.297
400.78	22.838
401.14	22.994
401.49	22.818
401.85	23.490
402.21	23.123
402.57	23.786
402.92	23.914
403.28	23.591
403.63	23.547
403.99	22.996
404.35	22.766
404.70	23.230
405.06	24.337
405.42	23.186
405.77	22.851
406.13	23.055
406.49	23.667
406.84	23.635
407.20	24.028
407.55	23.433
407.91	22.345
408.27	24.142
408.62	24.053
408.98	24.075
409.34	24.619
409.69	24.575
410.05	23.711
410.40	22.747
410.76	24.244
411.11	24.314
411.47	23.913
411.83	24.511
412.18	24.134
412.54	22.636
412.89	23.208
413.25	23.790
413.60	23.512
413.96	22.797
414.31	24.526
414.67	22.603
415.03	23.221
415.38	24.593
415.74	24.613
416.09	24.425
416.45	23.810
416.80	23.927
417.16	23.056
417.51	24.819
417.87	23.560
418.22	24.273
418.58	23.748
418.93	23.850
419.29	23.965
419.64	23.492
420.00	24.909
420.35	24.837
420.71	24.310
421.06	24.142
421.42	24.649
421.77	24.623
422.12	24.622
422.48	24.532
422.83	24.146
423.19	24.666
423.54	25.187
423.90	24.812
424.25	24.774
424.61	25.633
424.96	25.278
425.31	25.377
425.67	25.387
426.02	25.129
426.38	26.074
426.73	25.599
427.09	25.797
427.44	25.341
427.79	25.930
428.15	25.972
428.50	25.748
428.85	26.499
429.21	25.180
429.56	26.146
429.92	25.952
430.27	26.171
430.62	26.698
430.98	25.614
431.33	26.041
431.68	26.971
432.04	26.637
432.39	25.641
432.74	25.300
433.10	26.505
433.45	26.425
433.80	26.260
434.16	27.405
434.51	27.342
434.86	29.057
435.22	27.283
435.57	27.540
435.92	27.608
436.28	27.834
436.63	26.569
436.98	27.377
437.34	27.702
437.69	26.838
438.04	28.361
438.39	28.219
438.75	26.950
439.10	28.373
439.45	27.520
439.81	27.108
440.16	28.109
440.51	27.588
440.86	28.629
441.22	28.303
441.57	28.158
441.92	28.286
442.27	27.814
442.63	27.843
442.98	27.935
443.33	28.720
443.68	27.775
444.03	28.733
444.39	28.488
444.74	29.240
445.09	27.632
445.44	28.869
445.79	28.200
446.15	28.970
446.50	29.015
446.85	29.502
447.20	28.805
447.55	28.840
447.91	29.029
448.26	28.715
448.61	28.693
448.96	30.140
449.31	28.974
449.66	28.563
450.02	28.809
450.37	29.043
450.72	28.757
451.07	29.918
451.42	28.191
451.77	29.204
452.12	29.380
452.47	29.975
452.83	28.538
453.18	30.550
453.53	29.726
453.88	29.964
454.23	28.718
454.58	30.081
454.93	30.416
455.28	29.318
455.63	29.607
455.98	29.639
456.34	29.797
456.69	30.519
457.04	29.502
457.39	29.725
457.74	29.238
458.09	29.698
458.44	30.774
458.79	30.549
459.14	30.348
459.49	29.307
459.84	29.848
460.19	30.609
460.54	29.462
460.89	29.372
461.24	30.419
461.59	30.012
461.94	29.472
462.29	30.554
462.64	30.435
462.99	31.058
463.34	30.182
463.69	30.153
464.04	29.525
464.39	29.450
464.74	29.728
465.09	29.525
465.44	29.949
465.79	30.570
466.14	30.955
466.49	30.052
466.84	30.252
467.19	30.611
467.54	29.684
467.89	29.285
468.24	30.998
468.59	30.294
468.94	31.061
469.29	29.240
469.64	30.458
469.99	30.993
470.34	30.728
470.68	31.613
471.03	31.934
471.38	31.944
471.73	31.189
472.08	31.258
472.43	29.665
472.78	30.067
473.13	29.423
473.48	30.823
473.83	31.576
474.17	30.510
474.52	32.225
474.87	30.420
475.22	30.678
475.57	30.556
475.92	30.616
476.27	29.943
476.61	30.648
476.96	31.470
477.31	31.378
477.66	31.323
478.01	31.226
478.36	31.325
478.70	32.461
479.05	31.152
479.40	31.813
479.75	31.397
480.10	31.052
480.45	30.754
480.79	31.836
481.14	32.062
481.49	32.381
481.84	31.669
482.19	31.932
482.53	32.008
482.88	31.039
483.23	30.751
483.58	32.979
483.92	31.868
484.27	31.192
484.62	31.274
484.97	31.177
485.31	30.496
485.66	29.895
486.01	30.515
486.36	31.800
486.70	32.518
487.05	30.966
487.40	31.651
487.75	30.713
488.09	31.594
488.44	31.258
488.79	31.800
489.13	31.191
489.48	31.688
489.83	31.266
490.17	31.128
490.52	32.020
490.87	30.947
491.22	31.340
491.56	32.407
491.91	31.870
492.26	31.462
492.60	31.351
492.95	31.461
493.30	31.301
493.64	31.923
493.99	31.358
494.34	33.190
494.68	33.052
495.03	31.405
495.37	32.940
495.72	32.269
496.07	32.238
496.41	33.117
496.76	31.963
497.11	31.748
497.45	31.657
497.80	32.566
498.14	31.778
498.49	31.743
498.84	32.282
499.18	32.066
499.53	31.905
499.87	31.805
500.22	32.451
500.56	31.916
500.91	31.724
501.26	32.169
501.60	31.873
501.95	32.995
502.29	31.885
502.64	32.909
502.98	32.247
503.33	31.579
503.67	32.088
504.02	31.917
504.36	33.137
504.71	31.611
505.06	31.403
505.40	33.034
505.75	33.435
506.09	32.710
506.44	32.231
506.78	32.965
507.13	33.471
507.47	32.342
507.82	32.215
508.16	32.953
508.51	32.612
508.85	32.557
509.19	32.705
509.54	33.351
509.88	33.298
510.23	32.652
510.57	33.333
510.92	33.727
511.26	32.483
511.61	32.505
511.95	33.136
512.30	33.535
512.64	32.387
512.98	33.938
513.33	33.388
513.67	33.780
514.02	33.054
514.36	34.017
514.70	34.409
515.05	33.676
515.39	33.679
515.74	34.264
516.08	33.026
516.42	33.371
516.77	33.622
517.11	34.725
517.46	34.510
517.80	34.356
518.14	33.092
518.49	34.668
518.83	33.353
519.17	34.695
519.52	33.141
519.86	34.588
520.20	33.924
520.55	35.385
520.89	33.688
521.23	34.371
521.58	33.605
521.92	34.516
522.26	34.603
522.61	34.347
522.95	33.886
523.29	34.232
523.64	34.229
523.98	34.246
524.32	33.815
524.66	33.975
525.01	35.324
525.35	35.052
525.69	33.832
526.04	34.334
526.38	35.328
526.72	33.653
527.06	35.091
527.41	33.861
527.75	33.927
528.09	35.341
528.43	34.623
528.78	35.302
529.12	36.044
529.46	35.309
529.80	35.442
530.15	34.771
530.49	34.541
530.83	35.232
531.17	34.680
531.51	34.159
531.86	34.101
532.20	35.762
532.54	35.027
532.88	34.717
533.22	35.227
533.57	35.379
533.91	35.144
534.25	34.255
534.59	34.791
534.93	34.599
535.27	35.305
535.62	35.038
535.96	35.229
536.30	34.555
536.64	35.126
536.98	35.734
537.32	35.245
537.66	34.623
538.01	35.120
538.35	34.730
538.69	34.626
539.03	34.394
539.37	35.196
539.71	34.556
540.05	35.572
540.39	35.665
540.73	36.075
541.07	35.997
541.42	34.504
541.76	33.821
542.10	34.976
542.44	35.243
542.78	35.753
543.12	35.642
543.46	34.315
543.80	34.247
544.14	35.594
544.48	34.383
544.82	34.574
545.16	34.541
545.50	33.984
545.84	34.214
546.18	34.327
546.52	35.704
546.86	34.687
547.20	35.162
547.54	34.366
547.88	34.373
548.22	33.879
548.56	35.204
548.90	35.512
549.24	34.898
549.58	34.651
549.92	34.841
550.26	34.393
550.60	34.495
550.94	34.745
551.28	34.913
551.62	34.860
551.96	35.456
552.30	34.077
552.64	35.749
552.98	35.319
553.32	33.983
553.66	35.184
554.00	36.105
554.34	34.513
554.68	34.284
555.02	34.443
555.36	35.514
555.69	35.888
556.03	34.737
556.37	36.202
556.71	34.789
557.05	34.590
557.39	36.006
557.73	33.990
558.07	35.494
558.41	35.453
558.75	34.829
559.08	34.241
559.42	35.299
559.76	34.969
560.10	35.496
560.44	36.127
560.78	35.282
561.12	34.438
561.45	36.164
561.79	35.401
562.13	34.151
562.47	34.104
562.81	34.724
563.15	34.850
563.48	35.107
563.82	35.767
564.16	34.618
564.50	36.156
564.84	35.384
565.17	34.881
565.51	35.137
565.85	34.821
566.19	35.639
566.52	34.508
566.86	35.019
567.20	35.351
567.54	35.676
567.88	34.562
568.21	34.452
568.55	33.881
568.89	34.294
569.23	34.706
569.56	34.216
569.90	35.130
570.24	34.498
570.57	33.568
570.91	34.070
571.25	33.690
571.59	34.436
571.92	33.601
572.26	32.924
572.60	33.323
572.93	33.354
573.27	32.957
573.61	33.152
573.95	33.928
574.28	33.273
574.62	34.392
574.96	33.375
575.29	33.054
575.63	33.501
575.97	32.201
576.30	33.023
576.64	33.916
576.98	32.744
577.31	33.659
577.65	33.460
577.98	33.610
578.32	33.235
578.66	33.473
578.99	33.843
579.33	33.409
579.67	32.665
580.00	32.788
580.34	33.317
580.67	33.342
581.01	32.587
581.35	33.537
581.68	33.130
582.02	33.413
582.35	33.163
582.69	34.111
583.02	33.952
583.36	33.842
583.70	33.282
584.03	33.540
584.37	34.019
584.70	33.413
585.04	33.570
585.37	33.198
585.71	33.043
586.04	33.587
586.38	33.360
586.72	33.935
587.05	33.702
587.39	33.461
587.72	34.112
588.06	34.058
588.39	33.438
588.73	34.037
589.06	34.751
589.40	34.421
589.73	34.136
590.07	33.613
590.40	33.653
590.73	34.026
591.07	33.730
591.40	33.925
591.74	34.405
592.07	34.369
592.41	33.333
592.74	33.782
593.08	34.844
593.41	33.882
593.75	33.630
594.08	34.508
594.41	34.640
594.75	34.466
595.08	34.549
595.42	34.682
595.75	34.252
596.09	34.653
596.42	34.124
596.75	34.239
597.09	34.105
597.42	34.134
597.75	34.234
598.09	34.388
598.42	34.423
598.76	33.638
599.09	33.899
599.42	34.141
599.76	34.315
600.09	34.504
600.42	34.637
600.76	34.953
601.09	34.106
601.42	34.468
601.76	33.684
602.09	33.538
602.42	34.403
602.76	34.358
603.09	34.234
603.42	34.891
603.76	34.184
604.09	34.081
604.42	34.221
604.76	34.584
605.09	33.816
605.42	34.441
605.75	34.196
606.09	34.413
606.42	34.353
606.75	33.577
607.09	33.833
607.42	34.067
607.75	34.128
608.08	34.297
608.42	34.248
608.75	33.832
609.08	33.755
609.41	33.931
609.75	33.447
610.08	33.971
610.41	34.217
610.74	34.284
611.07	33.824
611.41	33.535
611.74	34.293
612.07	35.070
612.40	34.542
612.73	34.518
613.07	34.452
613.40	34.975
613.73	33.896
614.06	34.047
614.39	34.160
614.72	33.575
615.06	33.641
615.39	33.749
615.72	34.709
616.05	34.125
616.38	33.778
616.71	33.694
617.05	35.464
617.38	34.180
617.71	33.600
618.04	35.466
618.37	34.717
618.70	34.876
619.03	34.597
619.36	34.531
619.69	34.458
620.03	33.333
620.36	34.599
620.69	34.530
621.02	34.779
621.35	35.081
621.68	34.262
622.01	35.275
622.34	33.540
622.67	33.594
623.00	35.042
623.33	35.224
623.66	34.712
623.99	34.812
624.32	34.003
624.65	34.511
624.99	34.503
625.32	34.431
625.65	35.120
625.98	34.429
626.31	35.481
626.64	34.226
626.97	34.418
627.30	35.064
627.63	33.592
627.96	34.204
628.29	35.294
628.62	35.053
628.95	35.236
629.28	35.150
629.61	34.347
629.94	35.350
630.26	35.089
630.59	35.578
630.92	35.335
631.25	35.081
631.58	32.804
631.91	34.574
632.24	36.000
632.57	35.111
632.90	36.322
633.23	36.449
633.56	35.556
633.89	36.557
634.22	34.711
634.55	35.697
634.88	36.518
635.20	34.956
635.53	36.387
635.86	34.005
636.19	34.066
636.52	34.289
636.85	35.379
637.18	34.125
637.51	35.068
637.83	34.621
638.16	35.658
638.49	35.862
638.82	34.749
639.15	36.835
639.48	33.593
639.81	37.344
640.13	34.324
640.46	36.610
640.79	34.874
641.12	35.825
641.45	36.872
641.77	36.078
642.10	35.498
642.43	34.750
642.76	34.488
643.09	33.492
643.41	35.397
643.74	35.771
644.07	35.413
644.40	34.684
644.73	36.469
645.05	35.392
645.38	36.093
645.71	37.629
646.04	35.630
646.36	35.602
646.69	33.737
647.02	36.101
647.35	34.116
647.67	35.949
648.00	36.907
648.33	36.762
648.66	34.194
648.98	35.828
649.31	34.462
649.64	35.938
649.96	36.107
650.29	34.098
650.62	35.800
650.94	33.221
651.27	36.568
651.60	36.332
651.92	34.418
652.25	36.060
652.58	34.242
652.90	31.621
653.23	35.806
653.56	33.110
653.88	32.951
654.21	36.577
654.54	35.050
654.86	34.510
655.19	33.954
655.52	34.618
655.84	33.868
656.17	36.652
656.49	49.512
656.82	51.258
657.15	38.491
657.47	27.917
657.80	21.611
658.13	24.448
658.45	32.988
658.78	32.393
659.10	31.557
659.43	31.261
659.75	30.606
660.08	30.990
660.41	31.921
660.73	31.793
661.06	33.913
661.38	35.357
661.71	33.461
662.03	33.266
662.36	37.740
662.68	34.810
663.01	34.820
663.33	36.054
663.66	35.408
663.98	33.482
664.31	33.557
664.63	37.389
664.96	35.358
665.28	35.141
665.61	32.981
665.93	35.391
666.26	32.186
666.58	34.304
666.91	34.521
667.23	34.868
667.56	35.601
667.88	33.710
668.21	35.714
668.53	37.383
668.86	33.487
669.18	30.822
669.50	34.579
669.83	33.577
670.15	33.857
670.48	33.411
670.80	33.941
671.13	30.926
671.45	33.784
671.77	35.974
672.10	35.306
672.42	34.317
672.75	34.909
673.07	33.333
673.39	33.515
673.72	36.220
674.04	34.820
674.37	30.928
674.69	34.221
675.01	34.043
675.34	35.141
675.66	36.069
675.98	30.396
676.31	33.032
676.63	37.701
676.95	33.850
677.28	32.715
677.60	34.163
677.92	37.885
678.25	36.324
678.57	35.391
678.89	34.591
679.22	33.543
679.54	34.122
679.86	33.600
680.18	33.840
680.51	34.451
680.83	34.667
681.15	35.260
681.48	34.483
681.80	33.468
682.12	32.797
682.44	33.988
682.77	31.385
683.09	35.010
683.41	34.292
683.73	34.932
684.06	33.333
684.38	33.682
684.70	33.951
685.02	35.433
685.34	34.113
685.67	34.280
685.99	29.112
686.31	35.009
686.63	32.801
686.96	33.457
687.28	30.058
687.60	36.133
687.92	31.128
688.24	33.071
688.56	32.665
688.89	30.556
689.21	33.042
689.53	32.414
689.85	34.967
690.17	33.408
690.49	33.949
690.82	34.217
691.14	32.547
691.46	32.816
691.78	34.802
692.10	33.263
692.42	30.667
692.74	32.833
693.06	31.236
693.39	32.438
693.71	29.797
694.03	34.773
694.35	30.248
694.67	33.097
694.99	30.946
695.31	31.888
695.63	33.163
695.95	32.506
696.27	33.666
696.59	34.225
696.91	31.461
697.23	32.292
697.56	29.087
697.88	33.784
698.20	29.764
698.52	32.063
698.84	35.922
699.16	33.810
699.48	33.500
699.80	35.338
700.12	34.257
700.44	31.285
700.76	30.904
701.08	33.721
701.40	30.514
701.72	33.951
702.04	33.654
702.36	34.036
702.68	30.539
703.00	31.594
703.32	27.794
703.64	32.353
703.96	34.884
704.28	33.728
704.60	31.646
704.91	34.921
705.23	34.951
705.55	31.757
705.87	34.471
706.19	29.861
706.51	31.944
706.83	34.754
707.15	31.210
707.47	34.435
707.79	32.474
708.11	29.008
708.43	33.416
708.74	29.870
709.06	28.134
709.38	31.034
709.70	34.062
710.02	36.196
710.34	33.333
710.66	29.841
710.98	33.438
711.29	27.097
711.61	29.712
711.93	31.148
712.25	35.548
712.57	27.526
712.89	30.935
713.20	34.708
713.52	27.612
713.84	32.028
714.16	33.770
714.48	30.794
714.80	31.385
715.11	30.836
715.43	34.940
715.75	32.710
716.07	30.164
716.39	29.766
716.70	31.359
717.02	31.852
717.34	30.916
717.66	33.195
717.97	31.967
718.29	30.672
718.61	36.111
718.93	28.674
719.24	32.353
719.56	22.642
719.88	25.818
720.20	31.835
720.51	34.962
720.83	32.932
721.15	31.557
721.46	33.725
721.78	31.418
722.10	34.800
722.42	29.339
722.73	31.873
723.05	30.924
723.37	33.333
723.68	29.150
724.00	34.959
724.32	30.864
724.63	30.290
724.95	34.298
725.27	29.386
725.58	30.603
725.90	25.000
726.22	35.055
726.53	31.939
726.85	27.059
727.16	31.579
727.48	29.231
727.80	25.410
728.11	29.832
728.43	30.165
728.74	27.344
729.06	31.061
729.38	29.183
729.69	30.709
730.01	30.315
730.32	27.888
730.64	28.205
730.96	32.463
731.27	26.786
731.59	36.013
731.90	29.448
732.22	29.755
732.53	29.139
732.85	28.859
733.16	30.797
733.48	29.268
733.80	30.249
734.11	30.000
734.43	35.374
734.74	27.003
735.06	32.915
735.37	33.028
735.69	27.742
736.00	28.620
736.32	30.132
736.63	26.897
736.95	31.159
737.26	34.768
737.58	30.576
737.89	26.882
738.21	28.195
738.52	29.231
738.83	31.250
739.15	25.641
739.46	33.065
739.78	32.517
740.09	27.972
740.41	29.720
740.72	30.292
741.04	30.952
741.35	26.840
741.66	26.389
741.98	24.762
742.29	30.516
742.61	34.225
742.92	28.972
743.23	29.386
743.55	28.829
743.86	31.556
744.18	27.619
744.49	31.034
744.80	29.949
745.12	31.959
745.43	29.648
745.74	29.126
746.06	30.244
746.37	33.040
746.68	32.836
747.00	31.937
747.31	25.481
747.62	30.415
747.94	28.384
748.25	27.442
748.56	31.429
748.88	27.717
749.19	32.394
749.50	36.765
749.82	36.444
750.13	33.040
750.44	29.268
750.75	28.400
751.07	30.714
751.38	26.937
751.69	24.809
752.01	32.308
752.32	29.572
752.63	25.769
752.94	25.397
753.26	33.478
753.57	34.375
753.88	33.621
754.19	31.535
754.51	28.125
754.82	27.668
755.13	32.099
755.44	30.992
755.75	28.395
756.07	21.285
756.38	28.516
756.69	30.686
757.00	27.178
757.31	34.228
757.63	33.022
757.94	29.480
758.25	32.849
758.56	31.267
758.87	27.557
759.18	30.333
759.50	29.537
759.81	25.912
760.12	26.351
760.43	33.981
760.74	29.062
761.05	29.494
761.36	33.234
761.67	28.107
761.99	25.161
762.30	25.725
762.61	27.170
762.92	32.735
763.23	30.806
763.54	25.778
763.85	28.270
764.16	33.061
764.47	26.695
764.78	29.213
765.10	27.338
765.41	28.710
765.72	29.245
766.03	26.502
766.34	29.323
766.65	29.555
766.96	23.500
767.27	27.604
767.58	34.884
767.89	27.097
768.20	37.423
768.51	25.137
768.82	26.486
769.13	26.500
769.44	26.316
769.75	28.139
770.06	34.862
770.37	26.291
770.68	19.271
770.99	25.743
771.30	31.068
771.61	24.074
771.92	20.346
772.23	28.037
772.54	20.213
772.85	25.444
773.16	34.756
773.47	30.120
773.78	30.769
774.09	22.000
774.39	30.864
774.70	19.463
775.01	16.667
775.32	25.373
775.63	22.314
775.94	34.586
776.25	25.714
776.56	27.869
776.87	31.858
777.18	32.743
777.48	15.455
777.79	21.739
778.10	22.018
778.41	18.644
778.72	30.579
779.03	31.343
779.34	26.316
779.65	26.797
779.95	25.362
780.26	25.850
780.57	23.276
780.88	32.407
781.19	17.172
781.50	16.000
781.80	30.065
782.11	20.513
782.42	22.892
782.73	15.328
783.04	30.405
783.34	24.242
783.65	27.907
783.96	22.764
784.27	30.769
784.57	21.138
784.88	14.634
785.19	19.298
785.50	2.062
785.81	18.095
786.11	21.569
786.42	22.727
786.73	21.622
787.04	20.792
787.34	18.095
787.65	24.762
787.96	19.608
788.26	23.423
788.57	27.419
788.88	17.969
789.19	18.803
789.49	17.647
789.80	18.803
790.11	29.204
790.41	13.131
790.72	33.019
791.03	8.333
791.33	11.842
791.64	15.054
791.95	12.000
792.25	11.429
792.56	6.098
792.87	24.490
793.17	11.842
793.48	8.108
793.79	1.408
794.09	22.785
794.40	21.277
794.70	27.103
795.01	21.053
795.32	20.909
795.62	24.107
795.93	19.588
796.23	9.890
796.54	25.263
796.85	5.479
797.15	8.333
797.46	28.767
797.76	23.944
798.07	26.250
798.37	11.765
798.68	25.714
798.99	21.429
799.29	19.737
799.60	18.333
799.90	11.111
800.21	-4.688
800.51	-9.524
800.82	27.869
801.12	7.018
801.43	0.000
801.73	-11.864
802.04	14.754
802.34	21.818
802.65	0.000
802.95	-5.556
803.26	2.500
803.56	3.846
803.87	-28.947
804.17	24.194
804.48	20.000
804.78	-10.256
805.09	2.326
805.39	-28.125
805.70	-15.094
806.00	26.316
806.30	32.432
806.61	11.765
806.91	9.877
807.22	14.667
807.52	14.925
807.83	12.903
808.13	1.587
808.43	14.545
808.74	0.000
809.04	18.868
809.35	24.658
809.65	21.053
809.95	13.235
810.26	3.922
810.56	10.000
810.86	-6.122
811.17	5.714
811.47	-1.923
811.77	-3.226
812.08	-42.105
812.38	26.190
812.69	-21.739
812.99	16.129
813.29	-16.667
813.59	-74.074
813.90	-10.638
814.20	-9.302
814.50	-4.167
814.81	1.667
815.11	21.951
815.41	-26.667
815.72	-14.286
816.02	-19.444
816.32	12.821
816.62	-40.541
816.93	-23.529
817.23	17.391
817.53	-8.824
817.84	17.647
818.14	-3.125
818.44	-27.586
818.74	-77.419
819.04	-37.037
819.35	-6.667
819.65	-40.000
819.95	0.000
820.25	-60.000
820.56	-39.474
820.86	17.500
821.16	-4.255
821.46	17.241
821.76	-23.077
822.07	-30.000
822.37	0.000
822.67	-40.000
822.97	-29.730
823.27	-10.811
823.57	40.000
823.88	35.135
824.18	-85.714
824.48	0.000
824.78	-23.077
825.08	-26.087
825.38	4.167
825.69	-37.500
825.99	-25.000
826.29	-29.730
826.59	2.941
826.89	0.000
827.19	-17.143
827.49	15.789
827.79	-37.500
828.09	-43.333
828.39	-8.696
828.70	-27.586
829.00	-34.483
829.30	-13.889
829.60	6.250
829.90	-44.444
830.20	-50.000
830.50	-76.190
830.80	-14.286
831.10	2.564
831.40	-66.667
831.70	8.824
832.00	-33.333
832.30	-47.368
832.60	-50.000
832.90	-133.333
833.20	-100.000
833.50	-146.667
833.80	-93.333
834.10	-80.000
834.40	-4.167
834.70	-27.778
835.00	-7.692
835.30	-20.833
835.60	-24.138
835.90	-127.778
836.20	-100.000
836.50	-108.333
836.80	8.571
837.10	37.143
837.40	-58.824
837.70	-163.636
838.00	-16.667
838.30	-43.750
838.60	-4.762
838.90	15.000
839.19	0.000
839.49	-26.087
839.79	-61.111
840.09	-47.826
840.39	-86.364
840.69	-68.750
840.99	-5.263
841.29	-18.750
841.59	-14.286
841.88	-50.000
842.18	-16.667
842.48	-123.529
842.78	13.793
843.08	-14.286
843.38	-107.692
843.68	-244.444
843.97	-107.692
844.27	-118.182
844.57	-140.000
844.87	4.000
845.17	-280.000
845.47	-100.000
845.76	-188.889
846.06	0.000
846.36	-500.000
846.66	-190.000
846.96	0.000
847.25	-29.167
847.55	-91.667
847.85	6.667
848.15	-70.000
848.44	26.923
848.74	26.316
849.04	733.333
849.34	-100.000
849.63	-73.684
849.93	0.000
850.23	-105.000
850.53	-14.286
850.82	-8.000
851.12	-26.316
851.42	-650.000
851.71	42.857
852.01	-50.000
852.31	-11.765
852.61	-26.667
852.90	-19.048
853.20	-150.000
853.50	-61.111
853.79	-63.158
854.09	-33.333
854.39	-14.286
854.68	-86.957
854.98	-191.667
855.28	-10.345
855.57	-18.750
855.87	10.000
856.17	-60.000
856.46	-10.345
856.76	-73.333
857.05	-82.353
857.35	-146.154
857.65	18.182
857.94	11.111
858.24	-164.286
858.53	0.000
858.83	-116.667
859.13	-44.444
859.42	38.095
859.72	-225.000
860.01	-400.000
860.31	-112.500
860.60	-260.000
860.90	-200.000
861.20	-200.000
861.49	-42.857
861.79	-105.882
862.08	-900.000
862.38	-133.333
862.67	-100.000
862.97	-17.647
863.26	35.000
863.56	-47.059
863.85	600.000
864.15	-170.000
864.44	-53.846
864.74	-40.000
865.03	-200.000
865.33	-216.667
865.62	17.647
865.92	-450.000
866.21	-107.143
866.51	-141.667
866.80	-800.000
867.10	-600.000
867.39	41.176
867.69	-30.435
867.98	-100.000
868.27	-440.000
868.57	-75.000
868.86	-227.273
869.16	11.765
869.45	-300.000
869.75	-228.571
870.04	1700.000
870.33	-75.000
870.63	-120.000
870.92	-100.000
871.22	-75.000
871.51	-54.545
871.80	-100.000
872.10	-10.000
>>>>>End Processed Spectral Data<<<<<
