SpectraSuite Data File
++++++++++++++++++++++++++++++++++++
Date: Sat May 16 11:08:39 PDT 2015
User: schluterlab
Dark Spectrum Present: Yes
Reference Spectrum Present: Yes
Number of Sampled Component Spectra: 1
Spectrometers: USB2E3373
Integration Time (usec): 3000 (USB2E3373)
Spectra Averaged: 3 (USB2E3373)
Boxcar Smoothing: 0 (USB2E3373)
Correct for Electrical Dark: No (USB2E3373)
Strobe/Lamp Enabled: No (USB2E3373)
Correct for Detector Non-linearity: No (USB2E3373)
Correct for Stray Light: No (USB2E3373)
Number of Pixels in Processed Spectrum: 2048
>>>>>Begin Processed Spectral Data<<<<<
178.53	0.000
178.91	26.667
179.29	100.000
179.67	500.000
180.04	61.538
180.42	200.000
180.80	-0.000
181.18	50.000
181.56	-12.500
181.94	-300.000
182.31	150.000
182.69	76.923
183.07	-233.333
183.45	650.000
183.83	-0.000
184.20	-100.000
184.58	12.500
184.96	-50.000
185.34	75.000
185.72	-325.000
186.09	66.667
186.47	12.500
186.85	12.500
187.23	125.000
187.61	50.000
187.98	-187.500
188.36	62.500
188.74	-50.000
189.12	-200.000
189.49	171.429
189.87	116.667
190.25	100.000
190.63	42.857
191.00	-155.556
191.38	40.000
191.76	33.333
192.14	300.000
192.51	220.000
192.89	66.667
193.27	0.000
193.65	-111.111
194.02	-42.857
194.40	566.667
194.78	20.000
195.15	-200.000
195.53	45.455
195.91	-183.333
196.29	-180.000
196.66	-366.667
197.04	800.000
197.42	0.000
197.79	-33.333
198.17	133.333
198.55	0.000
198.92	-300.000
199.30	162.500
199.68	-300.000
200.05	0.000
200.43	-111.111
200.81	-100.000
201.18	-8.333
201.56	57.143
201.94	20.000
202.31	13.636
202.69	190.000
203.07	10.000
203.44	233.333
203.82	-150.000
204.19	-75.000
204.57	-100.000
204.95	-200.000
205.32	25.000
205.70	-0.000
206.08	-700.000
206.45	11.111
206.83	-50.000
207.20	200.000
207.58	-266.667
207.96	100.000
208.33	37.500
208.71	-133.333
209.08	20.000
209.46	-185.714
209.84	450.000
210.21	0.000
210.59	70.000
210.96	-100.000
211.34	0.000
211.71	100.000
212.09	225.000
212.46	250.000
212.84	-400.000
213.22	333.333
213.59	41.667
213.97	22.222
214.34	90.000
214.72	-50.000
215.09	0.000
215.47	33.333
215.84	20.000
216.22	10.000
216.59	113.333
216.97	-75.000
217.34	250.000
217.72	0.000
218.09	16.667
218.47	-14.286
218.84	-28.571
219.22	0.000
219.59	0.000
219.97	200.000
220.34	150.000
220.72	212.500
221.09	23.077
221.47	0.000
221.84	-100.000
222.22	100.000
222.59	-0.000
222.97	-75.000
223.34	-100.000
223.72	-333.333
224.09	0.000
224.46	-250.000
224.84	-21.429
225.21	-28.571
225.59	-45.455
225.96	-75.000
226.34	14.286
226.71	0.000
227.08	55.000
227.46	500.000
227.83	-28.571
228.21	-125.000
228.58	-50.000
228.95	62.500
229.33	500.000
229.70	-40.000
230.08	-300.000
230.45	83.333
230.82	-100.000
231.20	-100.000
231.57	350.000
231.95	400.000
232.32	47.619
232.69	0.000
233.07	-142.857
233.44	-550.000
233.81	13.333
234.19	-44.444
234.56	25.000
234.93	46.875
235.31	-100.000
235.68	-50.000
236.05	-11.765
236.43	-22.727
236.80	35.484
237.17	37.500
237.55	-23.810
237.92	-50.000
238.29	-14.286
238.67	17.647
239.04	13.889
239.41	16.129
239.79	-7.692
240.16	-16.667
240.53	3.636
240.91	41.026
241.28	20.000
241.65	23.077
242.02	16.393
242.40	-6.557
242.77	-1.515
243.14	11.864
243.51	2.857
243.89	0.000
244.26	5.618
244.63	12.632
245.00	14.737
245.38	20.339
245.75	15.929
246.12	13.600
246.49	7.874
246.87	10.569
247.24	6.780
247.61	3.390
247.98	9.155
248.36	9.091
248.73	14.557
249.10	1.911
249.47	11.111
249.84	7.955
250.22	3.571
250.59	7.345
250.96	4.188
251.33	11.374
251.70	10.096
252.08	6.635
252.45	6.635
252.82	6.667
253.19	10.638
253.56	11.694
253.94	5.485
254.31	6.438
254.68	11.382
255.05	6.855
255.42	11.111
255.79	4.659
256.16	11.765
256.54	11.029
256.91	9.470
257.28	8.425
257.65	6.738
258.02	13.208
258.39	9.030
258.76	4.054
259.14	8.025
259.51	9.508
259.88	10.671
260.25	12.733
260.62	8.360
260.99	4.451
261.36	9.146
261.73	10.405
262.10	8.611
262.47	5.983
262.85	12.571
263.22	7.450
263.59	7.385
263.96	7.826
264.33	10.027
264.70	11.878
265.07	8.516
265.44	10.078
265.81	9.302
266.18	8.608
266.55	8.824
266.92	10.076
267.29	9.201
267.66	7.901
268.03	10.870
268.40	13.380
268.77	8.675
269.14	8.817
269.51	11.264
269.88	7.569
270.25	6.760
270.62	10.755
270.99	7.432
271.36	7.925
271.73	7.623
272.10	8.924
272.47	10.667
272.84	10.444
273.21	9.174
273.58	9.451
273.95	7.237
274.32	10.407
274.69	11.816
275.06	11.043
275.43	9.375
275.80	10.794
276.17	10.251
276.54	11.609
276.91	9.053
277.28	8.519
277.65	9.298
278.02	8.768
278.39	8.448
278.76	8.964
279.13	9.486
279.50	8.946
279.87	8.245
280.23	9.919
280.60	9.145
280.97	8.155
281.34	8.511
281.71	9.038
282.08	10.282
282.45	8.554
282.82	9.109
283.19	10.727
283.56	10.073
283.92	9.894
284.29	8.922
284.66	8.094
285.03	10.339
285.40	8.303
285.77	9.123
286.14	11.733
286.51	9.414
286.87	9.256
287.24	10.068
287.61	8.926
287.98	10.572
288.35	7.273
288.72	9.168
289.08	9.322
289.45	9.596
289.82	7.266
290.19	12.315
290.56	7.603
290.93	8.744
291.29	9.076
291.66	8.857
292.03	10.675
292.40	10.090
292.77	8.851
293.13	11.220
293.50	9.361
293.87	12.883
294.24	10.106
294.60	10.152
294.97	11.988
295.34	8.741
295.71	11.905
296.08	9.217
296.44	8.441
296.81	10.114
297.18	10.704
297.55	10.311
297.91	11.715
298.28	9.863
298.65	10.600
299.02	11.765
299.38	10.027
299.75	11.141
300.12	10.513
300.48	11.637
300.85	9.305
301.22	10.737
301.59	10.793
301.95	12.469
302.32	9.126
302.69	9.547
303.05	10.745
303.42	9.750
303.79	10.287
304.15	11.137
304.52	10.968
304.89	10.626
305.25	10.623
305.62	10.928
305.99	11.779
306.35	12.320
306.72	9.909
307.09	11.010
307.45	11.578
307.82	10.279
308.19	11.521
308.55	10.893
308.92	11.278
309.29	10.595
309.65	9.756
310.02	11.771
310.38	10.162
310.75	10.758
311.12	11.983
311.48	10.856
311.85	10.505
312.22	11.329
312.58	11.699
312.95	9.888
313.31	11.588
313.68	12.563
314.05	11.672
314.41	10.463
314.78	10.989
315.14	11.945
315.51	10.436
315.87	11.520
316.24	11.953
316.61	11.900
316.97	11.542
317.34	12.235
317.70	11.874
318.07	11.847
318.43	10.955
318.80	12.394
319.16	11.351
319.53	11.654
319.89	11.853
320.26	12.647
320.62	10.673
320.99	12.935
321.35	11.330
321.72	11.771
322.08	11.276
322.45	12.376
322.81	11.912
323.18	11.527
323.54	11.922
323.91	11.307
324.27	11.502
324.64	11.609
325.00	11.518
325.37	11.041
325.73	12.948
326.10	10.717
326.46	11.996
326.83	12.766
327.19	12.260
327.56	13.288
327.92	12.065
328.29	12.641
328.65	10.909
329.01	12.809
329.38	12.489
329.74	11.905
330.11	11.061
330.47	11.807
330.84	14.024
331.20	12.184
331.56	13.400
331.93	12.345
332.29	13.881
332.66	12.204
333.02	12.670
333.38	13.351
333.75	12.912
334.11	13.422
334.48	11.562
334.84	13.211
335.20	12.323
335.57	12.996
335.93	14.593
336.29	12.489
336.66	11.101
337.02	13.604
337.38	12.299
337.75	12.379
338.11	12.612
338.47	12.011
338.84	12.341
339.20	12.214
339.56	13.012
339.93	11.905
340.29	12.932
340.65	11.801
341.02	13.069
341.38	12.805
341.74	12.024
342.11	12.287
342.47	11.931
342.83	12.427
343.20	12.297
343.56	11.837
343.92	13.272
344.28	13.036
344.65	12.541
345.01	11.597
345.37	13.372
345.73	11.784
346.10	10.875
346.46	10.967
346.82	11.628
347.19	12.161
347.55	12.279
347.91	11.260
348.27	11.615
348.63	12.439
349.00	12.331
349.36	11.632
349.72	11.783
350.08	12.029
350.45	11.348
350.81	12.978
351.17	11.495
351.53	11.933
351.89	12.530
352.26	11.783
352.62	12.135
352.98	12.263
353.34	12.630
353.70	12.355
354.07	11.723
354.43	12.964
354.79	11.490
355.15	10.144
355.51	11.797
355.87	11.146
356.24	12.470
356.60	12.006
356.96	12.394
357.32	11.401
357.68	11.724
358.04	12.471
358.40	12.684
358.77	12.133
359.13	11.859
359.49	11.111
359.85	12.043
360.21	12.253
360.57	12.500
360.93	12.148
361.29	12.631
361.66	10.442
362.02	11.169
362.38	12.766
362.74	11.429
363.10	11.765
363.46	12.678
363.82	12.974
364.18	12.156
364.54	13.081
364.90	12.229
365.26	12.054
365.62	12.402
365.98	12.731
366.35	12.113
366.71	11.276
367.07	11.997
367.43	12.835
367.79	12.509
368.15	12.020
368.51	12.587
368.87	13.393
369.23	12.211
369.59	12.292
369.95	12.121
370.31	12.658
370.67	11.280
371.03	12.172
371.39	12.376
371.75	11.588
372.11	13.558
372.47	12.509
372.83	11.961
373.19	12.286
373.55	12.526
373.91	12.731
374.27	12.526
374.63	12.077
374.99	13.004
375.35	12.180
375.71	13.302
376.07	12.799
376.42	11.060
376.78	12.614
377.14	12.610
377.50	12.959
377.86	12.419
378.22	12.500
378.58	12.909
378.94	12.515
379.30	12.858
379.66	12.993
380.02	12.418
380.38	12.508
380.74	12.016
381.09	12.888
381.45	12.649
381.81	11.676
382.17	12.845
382.53	12.280
382.89	13.158
383.25	13.847
383.61	12.087
383.97	12.921
384.32	11.890
384.68	12.817
385.04	11.836
385.40	12.295
385.76	12.927
386.12	13.679
386.48	12.995
386.83	12.638
387.19	13.927
387.55	13.144
387.91	12.922
388.27	12.364
388.62	12.320
388.98	13.022
389.34	13.035
389.70	12.302
390.06	13.052
390.42	12.436
390.77	12.366
391.13	12.671
391.49	13.600
391.85	12.843
392.20	12.257
392.56	12.217
392.92	13.577
393.28	13.318
393.64	13.530
393.99	13.292
394.35	13.078
394.71	13.218
395.07	13.559
395.42	12.694
395.78	12.194
396.14	14.143
396.50	12.783
396.85	13.017
397.21	13.426
397.57	13.435
397.92	13.173
398.28	12.722
398.64	13.266
399.00	13.315
399.35	12.401
399.71	13.357
400.07	13.015
400.42	13.200
400.78	12.463
401.14	12.994
401.49	12.559
401.85	12.569
402.21	13.230
402.57	13.410
402.92	13.027
403.28	13.971
403.63	13.002
403.99	12.989
404.35	12.983
404.70	12.756
405.06	14.302
405.42	12.977
405.77	11.991
406.13	12.379
406.49	12.822
406.84	13.077
407.20	13.722
407.55	12.920
407.91	12.694
408.27	13.297
408.62	12.989
408.98	13.341
409.34	13.346
409.69	11.783
410.05	12.674
410.40	13.427
410.76	12.922
411.11	12.905
411.47	12.852
411.83	13.264
412.18	12.748
412.54	12.081
412.89	12.940
413.25	12.338
413.60	13.062
413.96	12.569
414.31	13.578
414.67	12.381
415.03	12.743
415.38	13.012
415.74	12.887
416.09	13.299
416.45	12.698
416.80	14.109
417.16	12.093
417.51	13.723
417.87	12.492
418.22	13.401
418.58	12.901
418.93	12.937
419.29	13.676
419.64	12.374
420.00	13.548
420.35	13.424
420.71	12.905
421.06	13.609
421.42	12.763
421.77	12.954
422.12	13.318
422.48	12.774
422.83	13.155
423.19	13.586
423.54	12.277
423.90	12.955
424.25	12.839
424.61	14.174
424.96	13.926
425.31	13.974
425.67	13.811
426.02	12.507
426.38	13.491
426.73	13.150
427.09	13.297
427.44	13.580
427.79	12.267
428.15	13.345
428.50	14.311
428.85	12.650
429.21	13.724
429.56	14.010
429.92	13.677
430.27	13.958
430.62	13.062
430.98	14.062
431.33	14.034
431.68	13.941
432.04	13.318
432.39	13.618
432.74	14.269
433.10	13.675
433.45	13.472
433.80	13.718
434.16	13.810
434.51	13.151
434.86	14.646
435.22	13.474
435.57	13.035
435.92	14.127
436.28	13.650
436.63	13.624
436.98	14.204
437.34	14.471
437.69	14.177
438.04	14.010
438.39	14.079
438.75	14.028
439.10	13.826
439.45	14.062
439.81	14.578
440.16	13.913
440.51	14.118
440.86	13.534
441.22	13.322
441.57	14.000
441.92	14.066
442.27	14.340
442.63	14.002
442.98	14.616
443.33	14.443
443.68	13.705
444.03	13.802
444.39	14.391
444.74	14.593
445.09	13.706
445.44	14.237
445.79	14.431
446.15	14.567
446.50	13.609
446.85	13.802
447.20	13.994
447.55	14.365
447.91	14.935
448.26	14.972
448.61	14.148
448.96	14.398
449.31	14.092
449.66	14.768
450.02	14.017
450.37	13.855
450.72	14.181
451.07	15.148
451.42	14.002
451.77	14.423
452.12	14.482
452.47	14.610
452.83	14.211
453.18	14.801
453.53	15.672
453.88	15.490
454.23	13.543
454.58	14.543
454.93	14.547
455.28	14.468
455.63	15.418
455.98	15.181
456.34	14.295
456.69	14.884
457.04	14.444
457.39	13.636
457.74	13.999
458.09	15.023
458.44	14.434
458.79	13.901
459.14	14.604
459.49	14.802
459.84	13.772
460.19	14.379
460.54	15.064
460.89	14.686
461.24	15.118
461.59	14.947
461.94	14.831
462.29	15.307
462.64	15.481
462.99	15.127
463.34	15.327
463.69	14.822
464.04	13.708
464.39	14.277
464.74	14.539
465.09	14.011
465.44	14.834
465.79	15.567
466.14	14.614
466.49	14.796
466.84	16.267
467.19	15.586
467.54	14.494
467.89	14.673
468.24	14.964
468.59	14.553
468.94	14.534
469.29	14.620
469.64	15.836
469.99	15.868
470.34	15.832
470.68	15.698
471.03	15.416
471.38	14.375
471.73	15.175
472.08	14.793
472.43	14.736
472.78	15.133
473.13	15.109
473.48	15.188
473.83	14.950
474.17	15.414
474.52	15.857
474.87	15.152
475.22	14.749
475.57	14.667
475.92	16.145
476.27	14.800
476.61	14.817
476.96	14.980
477.31	14.747
477.66	14.942
478.01	15.613
478.36	14.772
478.70	15.216
479.05	15.306
479.40	16.010
479.75	15.647
480.10	15.129
480.45	14.458
480.79	14.808
481.14	15.504
481.49	15.005
481.84	15.303
482.19	15.487
482.53	15.814
482.88	14.808
483.23	15.352
483.58	15.495
483.92	15.815
484.27	14.621
484.62	15.248
484.97	15.199
485.31	14.816
485.66	14.328
486.01	13.989
486.36	14.390
486.70	14.790
487.05	14.376
487.40	14.850
487.75	14.767
488.09	15.256
488.44	14.953
488.79	15.529
489.13	15.405
489.48	15.294
489.83	15.808
490.17	15.324
490.52	15.851
490.87	15.427
491.22	15.227
491.56	15.231
491.91	15.601
492.26	15.094
492.60	15.319
492.95	15.421
493.30	15.531
493.64	15.233
493.99	15.392
494.34	16.143
494.68	16.573
495.03	15.727
495.37	15.733
495.72	15.324
496.07	15.251
496.41	16.304
496.76	15.525
497.11	15.732
497.45	16.284
497.80	15.358
498.14	15.275
498.49	16.173
498.84	15.437
499.18	16.277
499.53	15.538
499.87	15.878
500.22	15.833
500.56	15.758
500.91	15.911
501.26	16.788
501.60	15.840
501.95	16.280
502.29	16.202
502.64	16.549
502.98	16.100
503.33	16.118
503.67	15.996
504.02	15.983
504.36	16.176
504.71	15.603
505.06	15.627
505.40	16.018
505.75	15.803
506.09	15.672
506.44	15.739
506.78	16.106
507.13	15.448
507.47	16.380
507.82	16.572
508.16	17.150
508.51	16.435
508.85	16.356
509.19	16.431
509.54	16.702
509.88	17.074
510.23	16.405
510.57	17.196
510.92	16.971
511.26	16.587
511.61	15.713
511.95	16.433
512.30	16.273
512.64	16.249
512.98	16.502
513.33	16.420
513.67	16.918
514.02	16.219
514.36	17.175
514.70	16.921
515.05	17.553
515.39	17.301
515.74	17.394
516.08	17.349
516.42	17.507
516.77	17.447
517.11	17.792
517.46	17.644
517.80	17.389
518.14	16.425
518.49	16.975
518.83	17.033
519.17	17.644
519.52	16.715
519.86	17.443
520.20	17.665
520.55	17.415
520.89	16.907
521.23	18.620
521.58	17.868
521.92	18.429
522.26	17.905
522.61	17.744
522.95	17.039
523.29	17.179
523.64	18.051
523.98	17.568
524.32	17.599
524.66	17.143
525.01	17.148
525.35	17.655
525.69	17.957
526.04	18.146
526.38	17.823
526.72	16.667
527.06	18.034
527.41	17.294
527.75	17.360
528.09	18.663
528.43	17.967
528.78	17.211
529.12	18.182
529.46	18.041
529.80	17.624
530.15	17.386
530.49	17.723
530.83	18.271
531.17	17.306
531.51	16.946
531.86	17.972
532.20	18.016
532.54	18.182
532.88	17.391
533.22	17.580
533.57	18.277
533.91	17.291
534.25	17.788
534.59	17.739
534.93	16.926
535.27	17.873
535.62	17.967
535.96	17.970
536.30	17.866
536.64	18.393
536.98	18.573
537.32	17.415
537.66	18.262
538.01	17.388
538.35	18.041
538.69	17.714
539.03	17.739
539.37	17.299
539.71	18.012
540.05	17.752
540.39	17.244
540.73	17.968
541.07	18.033
541.42	17.151
541.76	16.146
542.10	18.096
542.44	17.588
542.78	18.046
543.12	17.312
543.46	16.849
543.80	17.525
544.14	17.327
544.48	17.848
544.82	17.456
545.16	17.907
545.50	17.160
545.84	17.663
546.18	18.377
546.52	17.496
546.86	17.379
547.20	18.214
547.54	15.909
547.88	17.983
548.22	16.317
548.56	17.435
548.90	17.655
549.24	17.239
549.58	17.643
549.92	18.375
550.26	18.425
550.60	17.283
550.94	18.175
551.28	17.983
551.62	18.021
551.96	18.886
552.30	18.188
552.64	17.664
552.98	18.220
553.32	17.388
553.66	18.241
554.00	18.124
554.34	18.267
554.68	17.909
555.02	18.379
555.36	18.045
555.69	18.553
556.03	18.526
556.37	18.137
556.71	18.754
557.05	18.108
557.39	18.486
557.73	18.162
558.07	17.860
558.41	18.474
558.75	18.251
559.08	17.121
559.42	17.994
559.76	18.942
560.10	19.239
560.44	19.003
560.78	17.745
561.12	17.805
561.45	17.945
561.79	17.422
562.13	18.163
562.47	17.157
562.81	18.034
563.15	17.915
563.48	18.245
563.82	17.985
564.16	17.579
564.50	17.944
564.84	16.997
565.17	18.170
565.51	17.992
565.85	18.256
566.19	17.391
566.52	17.417
566.86	17.573
567.20	18.523
567.54	17.720
567.88	17.309
568.21	16.890
568.55	17.179
568.89	16.600
569.23	16.381
569.56	16.604
569.90	17.073
570.24	16.422
570.57	16.415
570.91	16.049
571.25	16.699
571.59	15.579
571.92	15.952
572.26	16.327
572.60	16.196
572.93	15.856
573.27	16.372
573.61	15.802
573.95	15.859
574.28	15.510
574.62	15.785
574.96	15.454
575.29	15.930
575.63	15.583
575.97	15.453
576.30	15.347
576.64	15.640
576.98	15.352
577.31	15.662
577.65	15.656
577.98	15.632
578.32	15.555
578.66	15.499
578.99	15.906
579.33	15.725
579.67	15.420
580.00	15.352
580.34	15.631
580.67	15.911
581.01	15.288
581.35	15.485
581.68	15.229
582.02	15.403
582.35	15.335
582.69	15.476
583.02	15.716
583.36	15.276
583.70	15.873
584.03	15.867
584.37	15.805
584.70	15.993
585.04	15.620
585.37	15.442
585.71	15.530
586.04	15.957
586.38	15.103
586.72	15.868
587.05	16.284
587.39	16.225
587.72	15.583
588.06	15.983
588.39	15.893
588.73	16.113
589.06	16.145
589.40	16.798
589.73	16.572
590.07	16.242
590.40	16.273
590.73	16.913
591.07	16.230
591.40	17.114
591.74	16.898
592.07	16.802
592.41	15.711
592.74	16.833
593.08	16.547
593.41	15.987
593.75	15.793
594.08	16.211
594.41	16.969
594.75	16.648
595.08	16.429
595.42	16.438
595.75	16.134
596.09	16.531
596.42	16.980
596.75	16.861
597.09	17.453
597.42	16.019
597.75	17.139
598.09	16.719
598.42	15.952
598.76	16.404
599.09	16.022
599.42	16.455
599.76	15.780
600.09	16.565
600.42	16.977
600.76	16.761
601.09	15.913
601.42	15.592
601.76	17.368
602.09	16.278
602.42	17.202
602.76	16.369
603.09	16.694
603.42	16.398
603.76	16.514
604.09	16.340
604.42	16.611
604.76	16.790
605.09	16.908
605.42	16.977
605.75	16.990
606.09	16.438
606.42	16.045
606.75	16.960
607.09	17.159
607.42	16.857
607.75	16.115
608.08	16.765
608.42	16.698
608.75	16.682
609.08	17.340
609.41	17.090
609.75	16.870
610.08	17.304
610.41	17.205
610.74	17.650
611.07	17.140
611.41	16.541
611.74	17.532
612.07	17.078
612.40	17.271
612.73	16.801
613.07	16.786
613.40	17.843
613.73	17.875
614.06	17.683
614.39	17.982
614.72	16.872
615.06	17.174
615.39	17.472
615.72	17.979
616.05	16.621
616.38	17.644
616.71	17.538
617.05	18.034
617.38	17.585
617.71	17.138
618.04	18.261
618.37	18.302
618.70	18.514
619.03	17.874
619.36	18.605
619.69	19.239
620.03	17.149
620.36	18.425
620.69	18.162
621.02	18.493
621.35	18.871
621.68	18.443
622.01	17.557
622.34	19.332
622.67	17.969
623.00	19.434
623.33	19.030
623.66	18.316
623.99	19.248
624.32	19.048
624.65	18.837
624.99	18.820
625.32	18.563
625.65	18.881
625.98	19.562
626.31	19.902
626.64	18.661
626.97	19.264
627.30	19.915
627.63	17.962
627.96	19.495
628.29	19.485
628.62	19.580
628.95	20.374
629.28	21.805
629.61	19.823
629.94	20.132
630.26	20.179
630.59	20.000
630.92	18.719
631.25	20.161
631.58	20.000
631.91	18.936
632.24	19.667
632.57	21.000
632.90	20.000
633.23	21.028
633.56	20.234
633.89	21.344
634.22	19.717
634.55	19.832
634.88	22.007
635.20	20.225
635.53	21.374
635.86	20.529
636.19	21.978
636.52	20.311
636.85	19.976
637.18	19.875
637.51	21.685
637.83	20.373
638.16	20.658
638.49	20.828
638.82	20.206
639.15	20.233
639.48	18.677
639.81	21.438
640.13	21.892
640.46	20.940
640.79	19.748
641.12	22.426
641.45	20.803
641.77	21.856
642.10	21.752
642.43	20.182
642.76	20.630
643.09	23.016
643.41	20.952
643.74	20.827
644.07	23.401
644.40	20.097
644.73	23.432
645.05	19.199
645.38	22.848
645.71	24.399
646.04	23.697
646.36	20.593
646.69	23.183
647.02	24.188
647.35	21.480
647.67	22.628
648.00	23.726
648.33	25.801
648.66	21.452
648.98	22.293
649.31	22.154
649.64	20.156
649.96	22.449
650.29	20.000
650.62	23.408
650.94	23.103
651.27	20.971
651.60	22.145
651.92	24.658
652.25	20.033
652.58	20.443
652.90	21.830
653.23	21.129
653.56	21.237
653.88	22.131
654.21	23.154
654.54	23.754
654.86	21.669
655.19	19.914
655.52	18.367
655.84	15.448
656.17	17.135
656.49	23.039
656.82	24.131
657.15	18.014
657.47	13.321
657.80	10.403
658.13	11.899
658.45	16.032
658.78	15.904
659.10	15.940
659.43	15.830
659.75	16.994
660.08	17.083
660.41	17.677
660.73	19.142
661.06	22.319
661.38	23.571
661.71	21.415
662.03	23.387
662.36	24.307
662.68	22.785
663.01	24.841
663.33	22.449
663.66	23.391
663.98	20.982
664.31	21.700
664.63	25.442
664.96	24.078
665.28	22.560
665.61	21.776
665.93	23.045
666.26	23.887
666.58	21.830
666.91	22.940
667.23	27.851
667.56	26.304
667.88	24.434
668.21	23.502
668.53	23.364
668.86	24.711
669.18	25.114
669.50	23.832
669.83	23.114
670.15	23.318
670.48	24.065
670.80	21.185
671.13	22.799
671.45	25.000
671.77	22.270
672.10	23.866
672.42	24.170
672.75	20.909
673.07	20.541
673.39	22.769
673.72	22.835
674.04	19.533
674.37	19.381
674.69	26.025
675.01	21.489
675.34	22.343
675.66	24.190
675.98	25.110
676.31	25.339
676.63	24.828
676.95	22.124
677.28	22.506
677.60	26.697
677.92	24.009
678.25	23.851
678.57	23.045
678.89	22.432
679.22	23.270
679.54	23.077
679.86	21.600
680.18	22.243
680.51	19.553
680.83	21.905
681.15	22.736
681.48	24.949
681.80	22.581
682.12	22.736
682.44	22.397
682.77	19.913
683.09	25.786
683.41	23.894
683.73	24.429
684.06	22.151
684.38	23.222
684.70	24.691
685.02	21.260
685.34	23.392
685.67	22.727
685.99	18.526
686.31	22.442
686.63	21.809
686.96	21.627
687.28	20.039
687.60	20.898
687.92	21.595
688.24	22.244
688.56	23.447
688.89	20.513
689.21	23.851
689.53	22.069
689.85	23.163
690.17	23.991
690.49	21.709
690.82	21.928
691.14	22.642
691.46	24.612
691.78	23.568
692.10	23.093
692.42	20.000
692.74	22.532
693.06	24.944
693.39	23.043
693.71	20.993
694.03	24.406
694.35	21.219
694.67	24.586
694.99	21.739
695.31	23.980
695.63	21.939
695.95	23.325
696.27	23.691
696.59	25.401
696.91	23.034
697.23	24.219
697.56	23.317
697.88	21.171
698.20	21.842
698.52	19.507
698.84	21.845
699.16	22.381
699.48	20.000
699.80	23.308
700.12	23.929
700.44	21.229
700.76	23.324
701.08	24.128
701.40	19.335
701.72	27.778
702.04	22.756
702.36	25.904
702.68	22.455
703.00	23.478
703.32	20.917
703.64	26.765
703.96	26.744
704.28	24.556
704.60	21.835
704.91	23.175
705.23	22.330
705.55	22.635
705.87	31.058
706.19	23.958
706.51	23.611
706.83	27.869
707.15	25.796
707.47	25.069
707.79	22.680
708.11	19.593
708.43	25.686
708.74	22.597
709.06	20.056
709.38	22.126
709.70	24.062
710.02	27.914
710.34	21.452
710.66	23.175
710.98	25.552
711.29	23.871
711.61	20.767
711.93	23.607
712.25	23.920
712.57	24.042
712.89	22.662
713.20	23.368
713.52	23.881
713.84	22.420
714.16	25.574
714.48	22.540
714.80	24.923
715.11	24.784
715.43	24.699
715.75	27.103
716.07	22.951
716.39	19.732
716.70	26.132
717.02	25.185
717.34	25.954
717.66	30.290
717.97	22.951
718.29	25.630
718.61	23.016
718.93	25.090
719.24	19.485
719.56	23.019
719.88	24.727
720.20	19.850
720.51	28.571
720.83	28.514
721.15	25.000
721.46	23.137
721.78	25.670
722.10	24.000
722.42	21.488
722.73	19.522
723.05	27.711
723.37	24.706
723.68	23.887
724.00	28.049
724.32	29.218
724.63	19.917
724.95	26.860
725.27	22.807
725.58	22.845
725.90	24.603
726.22	25.092
726.53	30.038
726.85	19.216
727.16	24.060
727.48	23.846
727.80	19.262
728.11	27.311
728.43	22.727
728.74	27.344
729.06	27.652
729.38	24.125
729.69	21.654
730.01	27.559
730.32	21.912
730.64	25.641
730.96	22.015
731.27	22.857
731.59	22.830
731.90	22.086
732.22	22.699
732.53	24.834
732.85	25.168
733.16	21.377
733.48	20.906
733.80	19.217
734.11	24.828
734.43	22.109
734.74	25.519
735.06	20.063
735.37	23.853
735.69	21.613
736.00	20.539
736.32	25.497
736.63	18.966
736.95	20.290
737.26	23.841
737.58	24.820
737.89	20.430
738.21	21.805
738.52	20.769
738.83	26.172
739.15	20.085
739.46	30.242
739.78	23.427
740.09	20.280
740.41	22.028
740.72	27.372
741.04	23.413
741.35	19.048
741.66	26.852
741.98	24.762
742.29	22.535
742.61	31.551
742.92	30.841
743.23	19.737
743.55	27.027
743.86	28.000
744.18	24.286
744.49	26.108
744.80	22.335
745.12	28.351
745.43	26.131
745.74	22.330
746.06	22.439
746.37	28.194
746.68	27.363
747.00	23.037
747.31	21.635
747.62	21.659
747.94	29.258
748.25	28.837
748.56	30.476
748.88	18.478
749.19	28.169
749.50	29.902
749.82	24.000
750.13	22.907
750.44	23.171
750.75	20.800
751.07	22.500
751.38	23.616
751.69	20.992
752.01	22.308
752.32	21.790
752.63	23.846
752.94	23.810
753.26	24.348
753.57	25.446
753.88	27.155
754.19	23.237
754.51	24.219
754.82	23.320
755.13	20.988
755.44	23.967
755.75	26.337
756.07	20.080
756.38	23.828
756.69	24.549
757.00	20.906
757.31	25.503
757.63	22.741
757.94	19.075
758.25	20.349
758.56	24.259
758.87	20.739
759.18	19.333
759.50	24.199
759.81	18.978
760.12	18.919
760.43	20.712
760.74	25.937
761.05	23.596
761.36	22.156
761.67	19.822
761.99	19.677
762.30	23.551
762.61	22.642
762.92	22.870
763.23	23.223
763.54	22.667
763.85	21.519
764.16	28.163
764.47	21.610
764.78	23.970
765.10	23.741
765.41	20.000
765.72	17.610
766.03	18.021
766.34	18.421
766.65	22.672
766.96	20.500
767.27	35.937
767.58	22.674
767.89	24.516
768.20	31.902
768.51	21.311
768.82	23.243
769.13	23.500
769.44	19.298
769.75	21.212
770.06	23.853
770.37	25.822
770.68	23.437
770.99	25.743
771.30	18.447
771.61	18.056
771.92	18.182
772.23	21.963
772.54	19.149
772.85	21.302
773.16	22.561
773.47	27.108
773.78	22.527
774.09	30.000
774.39	24.691
774.70	19.463
775.01	24.638
775.32	23.881
775.63	20.661
775.94	30.075
776.25	22.143
776.56	21.311
776.87	32.743
777.18	35.398
777.48	26.364
777.79	20.870
778.10	18.349
778.41	16.102
778.72	28.099
779.03	32.090
779.34	36.090
779.65	19.608
779.95	28.986
780.26	19.048
780.57	19.828
780.88	31.481
781.19	14.141
781.50	20.800
781.80	25.490
782.11	28.846
782.42	18.072
782.73	11.679
783.04	27.027
783.34	18.939
783.65	30.233
783.96	23.577
784.27	25.641
784.57	19.512
784.88	21.138
785.19	28.070
785.50	12.371
785.81	20.952
786.11	13.725
786.42	19.091
786.73	24.324
787.04	32.673
787.34	29.524
787.65	24.762
787.96	18.627
788.26	26.126
788.57	25.806
788.88	24.219
789.19	26.496
789.49	15.966
789.80	23.932
790.11	23.894
790.41	18.182
790.72	29.245
791.03	25.000
791.33	6.579
791.64	23.656
791.95	28.000
792.25	12.857
792.56	21.951
792.87	35.714
793.17	17.105
793.48	13.514
793.79	15.493
794.09	17.722
794.40	35.106
794.70	24.299
795.01	7.895
795.32	13.636
795.62	19.643
795.93	22.680
796.23	15.385
796.54	21.053
796.85	24.658
797.15	22.222
797.46	24.658
797.76	23.944
798.07	35.000
798.37	23.529
798.68	27.143
798.99	30.000
799.29	31.579
799.60	41.667
799.90	12.500
800.21	20.312
800.51	20.635
800.82	39.344
801.12	8.772
801.43	19.718
801.73	20.339
802.04	47.541
802.34	14.545
802.65	21.154
802.95	35.185
803.26	-10.000
803.56	15.385
803.87	5.263
804.17	22.581
804.48	27.692
804.78	17.949
805.09	41.860
805.39	3.125
805.70	15.094
806.00	38.596
806.30	28.378
806.61	30.882
806.91	17.284
807.22	16.000
807.52	34.328
807.83	8.065
808.13	11.111
808.43	32.727
808.74	28.788
809.04	32.075
809.35	41.096
809.65	38.596
809.95	23.529
810.26	35.294
810.56	-6.000
810.86	26.531
811.17	14.286
811.47	26.923
811.77	35.484
812.08	-10.526
812.38	57.143
812.69	10.870
812.99	3.226
813.29	16.667
813.59	-11.111
813.90	8.511
814.20	9.302
814.50	25.000
814.81	30.000
815.11	9.756
815.41	13.333
815.72	68.571
816.02	16.667
816.32	61.538
816.62	-2.703
816.93	-2.941
817.23	21.739
817.53	2.941
817.84	44.118
818.14	15.625
818.44	24.138
818.74	-12.903
819.04	33.333
819.35	33.333
819.65	12.000
819.95	10.000
820.25	32.000
820.56	31.579
820.86	27.500
821.16	25.532
821.46	22.414
821.76	46.154
822.07	2.500
822.37	34.884
822.67	-13.333
822.97	-10.811
823.27	51.351
823.57	28.000
823.88	10.811
824.18	14.286
824.48	11.538
824.78	-15.385
825.08	-13.043
825.38	33.333
825.69	25.000
825.99	-30.000
826.29	27.027
826.59	2.941
826.89	60.000
827.19	17.143
827.49	28.947
827.79	-9.375
828.09	46.667
828.39	86.957
828.70	-13.793
829.00	10.345
829.30	27.778
829.60	78.125
829.90	72.222
830.20	3.846
830.50	-19.048
830.80	-10.714
831.10	17.949
831.40	-33.333
831.70	23.529
832.00	20.833
832.30	68.421
832.60	37.500
832.90	-83.333
833.20	-70.588
833.50	-33.333
833.80	-13.333
834.10	20.000
834.40	33.333
834.70	27.778
835.00	23.077
835.30	-16.667
835.60	31.034
835.90	55.556
836.20	27.273
836.50	-25.000
836.80	17.143
837.10	54.286
837.40	23.529
837.70	-18.182
838.00	33.333
838.30	-6.250
838.60	9.524
838.90	65.000
839.19	30.435
839.49	8.696
839.79	-27.778
840.09	30.435
840.39	18.182
840.69	-18.750
840.99	10.526
841.29	75.000
841.59	7.143
841.88	5.556
842.18	-4.167
842.48	41.176
842.78	34.483
843.08	14.286
843.38	-7.692
843.68	33.333
843.97	69.231
844.27	18.182
844.57	-80.000
844.87	56.000
845.17	220.000
845.47	35.714
845.76	-100.000
846.06	0.000
846.36	-175.000
846.66	-30.000
846.96	31.579
847.25	12.500
847.55	-16.667
847.85	60.000
848.15	0.000
848.44	46.154
848.74	26.316
849.04	600.000
849.34	33.333
849.63	36.842
849.93	0.000
850.23	-15.000
850.53	47.619
850.82	-8.000
851.12	10.526
851.42	100.000
851.71	92.857
852.01	25.000
852.31	41.176
852.61	66.667
852.90	-14.286
853.20	100.000
853.50	5.556
853.79	-31.579
854.09	20.000
854.39	17.857
854.68	-4.348
854.98	-125.000
855.28	41.379
855.57	25.000
855.87	55.000
856.17	-66.667
856.46	37.931
856.76	-6.667
857.05	11.765
857.35	-30.769
857.65	27.273
857.94	62.963
858.24	-64.286
858.53	7.143
858.83	-8.333
859.13	-88.889
859.42	80.952
859.72	-12.500
860.01	-433.333
860.31	-25.000
860.60	-180.000
860.90	0.000
861.20	87.500
861.49	-157.143
861.79	11.765
862.08	-450.000
862.38	-66.667
862.67	53.846
862.97	41.176
863.26	50.000
863.56	17.647
863.85	200.000
864.15	50.000
864.44	23.077
864.74	40.000
865.03	-62.500
865.33	166.667
865.62	23.529
865.92	-250.000
866.21	0.000
866.51	-8.333
866.80	-800.000
867.10	200.000
867.39	35.294
867.69	65.217
867.98	57.143
868.27	-40.000
868.57	0.000
868.86	0.000
869.16	41.176
869.45	50.000
869.75	-42.857
870.04	500.000
870.33	33.333
870.63	-20.000
870.92	-33.333
871.22	-25.000
871.51	81.818
871.80	25.000
872.10	70.000
>>>>>End Processed Spectral Data<<<<<
