SpectraSuite Data File
++++++++++++++++++++++++++++++++++++
Date: Sat May 16 11:10:55 PDT 2015
User: schluterlab
Dark Spectrum Present: Yes
Reference Spectrum Present: Yes
Number of Sampled Component Spectra: 1
Spectrometers: USB2E3373
Integration Time (usec): 3000 (USB2E3373)
Spectra Averaged: 3 (USB2E3373)
Boxcar Smoothing: 0 (USB2E3373)
Correct for Electrical Dark: No (USB2E3373)
Strobe/Lamp Enabled: No (USB2E3373)
Correct for Detector Non-linearity: No (USB2E3373)
Correct for Stray Light: No (USB2E3373)
Number of Pixels in Processed Spectrum: 2048
>>>>>Begin Processed Spectral Data<<<<<
178.53	0.000
178.91	113.333
179.29	-233.333
179.67	700.000
180.04	-46.154
180.42	300.000
180.80	75.000
181.18	-50.000
181.56	-25.000
181.94	-500.000
182.31	300.000
182.69	0.000
183.07	-233.333
183.45	600.000
183.83	100.000
184.20	-28.571
184.58	-187.500
184.96	100.000
185.34	87.500
185.72	-275.000
186.09	-66.667
186.47	-25.000
186.85	-62.500
187.23	87.500
187.61	25.000
187.98	-87.500
188.36	100.000
188.74	50.000
189.12	200.000
189.49	300.000
189.87	-33.333
190.25	100.000
190.63	-14.286
191.00	-188.889
191.38	100.000
191.76	0.000
192.14	600.000
192.51	-60.000
192.89	133.333
193.27	0.000
193.65	-66.667
194.02	-128.571
194.40	433.333
194.78	30.000
195.15	500.000
195.53	-18.182
195.91	-166.667
196.29	20.000
196.66	-66.667
197.04	400.000
197.42	-75.000
197.79	6.667
198.17	-233.333
198.55	-300.000
198.92	-700.000
199.30	262.500
199.68	-200.000
200.05	-33.333
200.43	-88.889
200.81	-700.000
201.18	0.000
201.56	285.714
201.94	-46.667
202.31	45.455
202.69	60.000
203.07	-50.000
203.44	-33.333
203.82	-216.667
204.19	-150.000
204.57	-175.000
204.95	-300.000
205.32	18.750
205.70	-1100.000
206.08	-1800.000
206.45	-38.889
206.83	-250.000
207.20	550.000
207.58	-133.333
207.96	0.000
208.33	-125.000
208.71	22.222
209.08	150.000
209.46	28.571
209.84	200.000
210.21	0.000
210.59	80.000
210.96	-500.000
211.34	-33.333
211.71	200.000
212.09	175.000
212.46	500.000
212.84	-1400.000
213.22	400.000
213.59	66.667
213.97	-44.444
214.34	20.000
214.72	-60.000
215.09	-533.333
215.47	200.000
215.84	0.000
216.22	40.000
216.59	26.667
216.97	-325.000
217.34	700.000
217.72	-85.714
218.09	-100.000
218.47	-200.000
218.84	142.857
219.22	-57.143
219.59	0.000
219.97	185.714
220.34	325.000
220.72	37.500
221.09	-7.692
221.47	0.000
221.84	300.000
222.22	200.000
222.59	-200.000
222.97	-75.000
223.34	100.000
223.72	-100.000
224.09	-35.714
224.46	-275.000
224.84	7.143
225.21	28.571
225.59	127.273
225.96	-162.500
226.34	-214.286
226.71	-33.333
227.08	20.000
227.46	1200.000
227.83	-128.571
228.21	-112.500
228.58	-50.000
228.95	-6.250
229.33	-500.000
229.70	-40.000
230.08	-150.000
230.45	-41.667
230.82	0.000
231.20	-1300.000
231.57	-250.000
231.95	500.000
232.32	42.857
232.69	-66.667
233.07	-214.286
233.44	-950.000
233.81	26.667
234.19	-55.556
234.56	25.000
234.93	25.000
235.31	-200.000
235.68	-85.714
236.05	-29.412
236.43	-18.182
236.80	3.226
237.17	-25.000
237.55	23.810
237.92	-13.636
238.29	-5.714
238.67	0.000
239.04	-2.778
239.41	-16.129
239.79	-25.641
240.16	-4.762
240.53	-14.545
240.91	12.821
241.28	-3.636
241.65	18.462
242.02	0.000
242.40	6.557
242.77	6.061
243.14	-18.644
243.51	-10.000
243.89	-10.127
244.26	-13.483
244.63	4.211
245.00	-2.105
245.38	10.169
245.75	10.619
246.12	-0.800
246.49	3.937
246.87	-2.439
247.24	-7.627
247.61	-3.390
247.98	11.268
248.36	-4.196
248.73	1.266
249.10	1.911
249.47	3.509
249.84	4.545
250.22	-5.952
250.59	-5.085
250.96	3.665
251.33	6.635
251.70	0.962
252.08	9.953
252.45	-0.948
252.82	-1.429
253.19	5.532
253.56	1.613
253.94	2.532
254.31	6.438
254.68	1.220
255.05	-1.210
255.42	4.762
255.79	2.151
256.16	6.667
256.54	5.882
256.91	3.030
257.28	-2.198
257.65	2.128
258.02	6.289
258.39	2.341
258.76	4.730
259.14	0.000
259.51	4.918
259.88	2.744
260.25	4.037
260.62	2.572
260.99	1.780
261.36	4.878
261.73	3.179
262.10	4.722
262.47	2.849
262.85	4.571
263.22	1.719
263.59	2.154
263.96	0.290
264.33	2.168
264.70	6.354
265.07	2.198
265.44	3.618
265.81	2.842
266.18	0.000
266.55	0.735
266.92	2.771
267.29	2.179
267.66	-1.235
268.03	4.106
268.40	2.582
268.77	2.169
269.14	4.408
269.51	5.287
269.88	0.459
270.25	1.399
270.62	4.577
270.99	4.054
271.36	1.865
271.73	1.794
272.10	4.577
272.47	2.444
272.84	7.778
273.21	2.523
273.58	4.176
273.95	2.193
274.32	3.167
274.69	3.720
275.06	4.294
275.43	1.786
275.80	3.666
276.17	2.929
276.54	6.517
276.91	1.646
277.28	2.840
277.65	1.653
278.02	4.384
278.39	2.161
278.76	3.187
279.13	2.569
279.50	4.374
279.87	4.651
280.23	2.024
280.60	1.789
280.97	1.165
281.34	4.255
281.71	2.885
282.08	3.226
282.45	2.444
282.82	1.163
283.19	4.000
283.56	4.396
283.92	3.710
284.29	2.602
284.66	4.856
285.03	3.209
285.40	4.428
285.77	4.737
286.14	4.152
286.51	2.131
286.87	2.722
287.24	3.925
287.61	3.140
287.98	3.466
288.35	1.653
288.72	2.207
289.08	0.678
289.45	3.535
289.82	1.730
290.19	5.911
290.56	2.479
290.93	2.385
291.29	2.917
291.66	1.771
292.03	3.611
292.40	2.711
292.77	3.416
293.13	1.301
293.50	2.972
293.87	2.454
294.24	3.469
294.60	0.758
294.97	4.401
295.34	2.815
295.71	4.018
296.08	1.075
296.44	0.858
296.81	3.419
297.18	3.521
297.55	2.401
297.91	3.208
298.28	2.055
298.65	1.813
299.02	4.813
299.38	2.674
299.75	2.717
300.12	3.333
300.48	4.987
300.85	1.311
301.22	3.622
301.59	2.991
301.95	4.282
302.32	-0.130
302.69	3.182
303.05	2.564
303.42	2.125
303.79	2.990
304.15	2.014
304.52	3.267
304.89	2.597
305.25	2.076
305.62	2.938
305.99	2.827
306.35	3.774
306.72	2.164
307.09	2.724
307.45	2.838
307.82	1.899
308.19	3.803
308.55	2.941
308.92	1.826
309.29	3.784
309.65	2.969
310.02	1.728
310.38	3.135
310.75	2.561
311.12	3.926
311.48	4.280
311.85	2.987
312.22	4.222
312.58	4.171
312.95	3.262
313.31	3.896
313.68	4.020
314.05	3.561
314.41	2.817
314.78	2.198
315.14	4.047
315.51	2.330
315.87	4.356
316.24	4.956
316.61	4.319
316.97	3.781
317.34	3.565
317.70	2.783
318.07	4.664
318.43	4.120
318.80	5.070
319.16	2.814
319.53	3.853
319.89	3.763
320.26	4.216
320.62	3.462
320.99	4.876
321.35	3.744
321.72	4.606
322.08	4.847
322.45	5.248
322.81	5.476
323.18	6.052
323.54	6.192
323.91	6.302
324.27	6.369
324.64	6.399
325.00	7.068
325.37	6.606
325.73	8.661
326.10	6.909
326.46	7.618
326.83	8.596
327.19	9.758
327.56	9.625
327.92	9.431
328.29	10.476
328.65	9.455
329.01	11.749
329.38	11.508
329.74	12.912
330.11	12.511
330.47	12.352
330.84	14.482
331.20	13.538
331.56	14.312
331.93	14.920
332.29	15.068
332.66	15.540
333.02	16.561
333.38	16.577
333.75	17.364
334.11	16.622
334.48	17.123
334.84	18.635
335.20	17.908
335.57	18.141
335.93	19.696
336.29	16.829
336.66	16.828
337.02	18.919
337.38	19.251
337.75	18.525
338.11	18.515
338.47	17.972
338.84	18.784
339.20	19.684
339.56	18.984
339.93	18.783
340.29	19.663
340.65	18.182
341.02	19.562
341.38	17.776
341.74	19.983
342.11	18.771
342.47	17.082
342.83	18.808
343.20	18.275
343.56	17.959
343.92	20.033
344.28	19.680
344.65	19.967
345.01	19.328
345.37	18.522
345.73	18.249
346.10	18.806
346.46	18.278
346.82	19.727
347.19	17.420
347.55	17.576
347.91	18.898
348.27	17.422
348.63	19.548
349.00	18.457
349.36	16.628
349.72	19.984
350.08	18.685
350.45	16.942
350.81	18.073
351.17	19.373
351.53	17.661
351.89	17.623
352.26	18.140
352.62	18.740
352.98	18.987
353.34	18.785
353.70	18.301
354.07	18.883
354.43	18.893
354.79	17.829
355.15	17.891
355.51	18.203
355.87	16.601
356.24	18.348
356.60	19.339
356.96	18.630
357.32	17.815
357.68	17.778
358.04	18.399
358.40	17.788
358.77	17.620
359.13	18.745
359.49	19.123
359.85	17.759
360.21	19.559
360.57	19.051
360.93	19.481
361.29	19.058
361.66	17.530
362.02	17.751
362.38	19.222
362.74	18.535
363.10	18.580
363.46	20.085
363.82	19.023
364.18	18.669
364.54	19.728
364.90	18.449
365.26	18.474
365.62	19.031
365.98	19.630
366.35	18.732
366.71	19.239
367.07	18.984
367.43	19.904
367.79	19.313
368.15	18.706
368.51	19.231
368.87	19.849
369.23	19.088
369.59	19.097
369.95	18.816
370.31	18.706
370.67	18.872
371.03	19.679
371.39	17.963
371.75	19.385
372.11	20.158
372.47	19.450
372.83	19.680
373.19	20.357
373.55	19.634
373.91	19.915
374.27	20.055
374.63	19.807
374.99	20.515
375.35	20.458
375.71	21.269
376.07	20.192
376.42	19.735
376.78	21.438
377.14	21.153
377.50	21.083
377.86	20.481
378.22	20.791
378.58	21.124
378.94	20.592
379.30	20.475
379.66	21.251
380.02	20.143
380.38	21.329
380.74	19.930
381.09	21.617
381.45	21.659
381.81	20.629
382.17	21.429
382.53	21.520
382.89	22.069
383.25	22.095
383.61	21.580
383.97	21.678
384.32	21.214
384.68	22.370
385.04	21.739
385.40	22.215
385.76	22.134
386.12	21.674
386.48	22.587
386.83	21.902
387.19	22.953
387.55	22.471
387.91	22.584
388.27	21.894
388.62	22.656
388.98	22.411
389.34	22.644
389.70	22.594
390.06	22.250
390.42	23.397
390.77	22.461
391.13	23.789
391.49	23.144
391.85	23.379
392.20	22.087
392.56	22.847
392.92	23.560
393.28	23.421
393.64	24.354
393.99	23.262
394.35	23.358
394.71	23.039
395.07	24.482
395.42	22.408
395.78	22.879
396.14	24.237
396.50	23.119
396.85	22.887
397.21	23.147
397.57	23.708
397.92	24.122
398.28	23.778
398.64	23.795
399.00	23.989
399.35	23.732
399.71	24.623
400.07	24.179
400.42	24.209
400.78	23.375
401.14	23.533
401.49	23.585
401.85	23.429
402.21	23.182
402.57	23.604
402.92	23.914
403.28	23.713
403.63	22.289
403.99	23.866
404.35	23.611
404.70	23.874
405.06	23.241
405.42	23.555
405.77	22.738
406.13	23.112
406.49	23.487
406.84	23.515
407.20	24.323
407.55	24.256
407.91	22.992
408.27	24.142
408.62	23.331
408.98	23.651
409.34	22.913
409.69	23.062
410.05	23.833
410.40	23.850
410.76	22.999
411.11	23.878
411.47	23.338
411.83	23.227
412.18	23.639
412.54	22.880
412.89	23.147
413.25	22.491
413.60	22.296
413.96	22.181
414.31	23.670
414.67	22.794
415.03	23.480
415.38	23.878
415.74	23.840
416.09	24.041
416.45	23.214
416.80	24.317
417.16	22.525
417.51	24.885
417.87	23.625
418.22	23.831
418.58	23.363
418.93	23.605
419.29	24.216
419.64	22.487
420.00	24.058
420.35	23.418
420.71	24.010
421.06	23.550
421.42	22.775
421.77	23.004
422.12	24.175
422.48	22.929
422.83	24.032
423.19	23.163
423.54	23.573
423.90	23.540
424.25	23.756
424.61	23.040
424.96	24.751
425.31	24.259
425.67	23.897
426.02	23.465
426.38	23.835
426.73	23.729
427.09	24.632
427.44	23.750
427.79	24.128
428.15	23.519
428.50	24.399
428.85	24.101
429.21	24.571
429.56	23.802
429.92	24.198
430.27	23.978
430.62	24.451
430.98	24.464
431.33	23.906
431.68	25.201
432.04	24.287
432.39	24.444
432.74	24.161
433.10	24.873
433.45	23.431
433.80	24.412
434.16	25.040
434.51	25.205
434.86	24.722
435.22	24.889
435.57	25.398
435.92	24.326
436.28	24.510
436.63	24.703
436.98	24.513
437.34	25.162
437.69	25.088
438.04	24.504
438.39	24.188
438.75	24.214
439.10	24.986
439.45	24.502
439.81	24.277
440.16	24.929
440.51	24.412
440.86	25.101
441.22	23.659
441.57	24.632
441.92	25.064
442.27	24.729
442.63	24.624
442.98	24.379
443.33	24.712
443.68	25.221
444.03	25.196
444.39	24.670
444.74	25.826
445.09	24.726
445.44	25.380
445.79	25.395
446.15	25.246
446.50	24.224
446.85	25.295
447.20	25.332
447.55	25.193
447.91	25.323
448.26	24.749
448.61	24.505
448.96	25.658
449.31	25.592
449.66	24.270
450.02	24.321
450.37	25.275
450.72	25.367
451.07	25.770
451.42	24.783
451.77	25.793
452.12	25.030
452.47	25.315
452.83	25.568
453.18	25.553
453.53	25.124
453.88	25.359
454.23	25.030
454.58	25.855
454.93	25.819
455.28	25.112
455.63	25.369
455.98	26.205
456.34	23.825
456.69	25.704
457.04	25.015
457.39	24.342
457.74	25.281
458.09	25.696
458.44	25.808
458.79	24.608
459.14	25.613
459.49	26.288
459.84	25.351
460.19	25.358
460.54	26.316
460.89	25.617
461.24	25.319
461.59	26.671
461.94	25.652
462.29	24.836
462.64	25.758
462.99	25.502
463.34	24.916
463.69	25.891
464.04	24.605
464.39	24.970
464.74	25.414
465.09	25.436
465.44	24.986
465.79	26.001
466.14	25.662
466.49	26.252
466.84	24.850
467.19	25.561
467.54	24.747
467.89	25.709
468.24	25.416
468.59	25.859
468.94	24.823
469.29	25.016
469.64	25.539
469.99	25.861
470.34	25.451
470.68	25.363
471.03	25.258
471.38	25.417
471.73	25.804
472.08	25.100
472.43	25.676
472.78	26.067
473.13	24.520
473.48	26.165
473.83	25.744
474.17	25.414
474.52	26.982
474.87	25.641
475.22	25.015
475.57	25.167
475.92	25.540
476.27	24.800
476.61	25.296
476.96	25.657
477.31	25.404
477.66	24.516
478.01	25.932
478.36	25.511
478.70	25.360
479.05	25.527
479.40	26.477
479.75	24.873
480.10	25.198
480.45	23.888
480.79	24.729
481.14	25.991
481.49	24.976
481.84	24.272
482.19	25.354
482.53	25.047
482.88	25.154
483.23	25.540
483.58	25.902
483.92	26.087
484.27	24.590
484.62	24.190
484.97	24.825
485.31	24.128
485.66	23.980
486.01	24.393
486.36	24.458
486.70	25.082
487.05	24.957
487.40	25.107
487.75	24.818
488.09	24.614
488.44	25.237
488.79	25.256
489.13	25.675
489.48	25.734
489.83	25.415
490.17	25.468
490.52	25.272
490.87	25.635
491.22	25.689
491.56	25.463
491.91	26.145
492.26	25.330
492.60	25.309
492.95	24.941
493.30	25.774
493.64	24.965
493.99	25.765
494.34	25.333
494.68	25.375
495.03	25.478
495.37	24.975
495.72	25.688
496.07	25.340
496.41	25.799
496.76	25.434
497.11	26.284
497.45	25.431
497.80	25.013
498.14	24.853
498.49	25.565
498.84	25.631
499.18	26.170
499.53	25.085
499.87	24.807
500.22	24.902
500.56	25.313
500.91	25.862
501.26	25.716
501.60	25.806
501.95	25.604
502.29	25.083
502.64	25.554
502.98	25.012
503.33	25.329
503.67	25.431
504.02	25.060
504.36	25.539
504.71	25.532
505.06	25.262
505.40	25.150
505.75	25.508
506.09	25.683
506.44	25.013
506.78	25.439
507.13	25.077
507.47	25.978
507.82	24.884
508.16	25.699
508.51	25.193
508.85	25.466
509.19	24.647
509.54	25.740
509.88	25.532
510.23	25.629
510.57	26.085
510.92	25.564
511.26	24.615
511.61	25.216
511.95	25.431
512.30	25.673
512.64	24.930
512.98	26.183
513.33	25.700
513.67	25.405
514.02	24.944
514.36	24.820
514.70	25.184
515.05	25.958
515.39	25.836
515.74	26.178
516.08	24.899
516.42	25.496
516.77	25.303
517.11	24.886
517.46	26.435
517.80	25.872
518.14	25.242
518.49	24.746
518.83	24.451
519.17	25.400
519.52	24.754
519.86	24.791
520.20	25.611
520.55	24.246
520.89	24.922
521.23	25.946
521.58	25.204
521.92	25.332
522.26	25.968
522.61	24.968
522.95	24.633
523.29	24.890
523.64	25.234
523.98	25.271
524.32	25.079
524.66	24.472
525.01	24.791
525.35	25.644
525.69	23.943
526.04	25.196
526.38	26.989
526.72	25.032
527.06	25.716
527.41	24.752
527.75	24.884
528.09	25.612
528.43	24.787
528.78	25.565
529.12	25.544
529.46	24.613
529.80	25.048
530.15	25.628
530.49	24.968
530.83	25.409
531.17	24.916
531.51	24.514
531.86	25.609
532.20	25.169
532.54	24.532
532.88	24.901
533.22	25.735
533.57	25.196
533.91	24.469
534.25	24.513
534.59	23.548
534.93	23.709
535.27	25.047
535.62	25.128
535.96	25.145
536.30	24.607
536.64	23.971
536.98	24.859
537.32	23.704
537.66	24.915
538.01	24.811
538.35	25.135
538.69	23.864
539.03	25.186
539.37	24.551
539.71	24.950
540.05	24.400
540.39	25.623
540.73	24.672
541.07	24.590
541.42	25.253
541.76	23.322
542.10	25.726
542.44	25.250
542.78	25.441
543.12	25.458
543.46	24.247
543.80	23.880
544.14	24.916
544.48	23.950
544.82	24.560
545.16	23.742
545.50	24.092
545.84	24.757
546.18	25.451
546.52	24.538
546.86	24.501
547.20	24.824
547.54	23.898
547.88	24.486
548.22	23.853
548.56	23.848
548.90	24.798
549.24	23.336
549.58	24.700
549.92	24.947
550.26	25.361
550.60	23.826
550.94	24.599
551.28	23.627
551.62	24.520
551.96	24.385
552.30	24.808
552.64	23.434
552.98	24.667
553.32	23.954
553.66	25.162
554.00	25.018
554.34	24.982
554.68	24.635
555.02	23.878
555.36	23.940
555.69	24.570
556.03	23.368
556.37	23.400
556.71	23.980
557.05	23.651
557.39	22.866
557.73	24.070
558.07	23.662
558.41	23.186
558.75	24.791
559.08	23.424
559.42	24.579
559.76	24.617
560.10	24.534
560.44	23.699
560.78	23.382
561.12	23.050
561.45	23.836
561.79	23.763
562.13	24.053
562.47	23.529
562.81	23.409
563.15	24.913
563.48	23.704
563.82	23.327
564.16	23.597
564.50	24.194
564.84	23.810
565.17	24.138
565.51	23.207
565.85	24.070
566.19	22.859
566.52	23.614
566.86	23.704
567.20	24.939
567.54	23.863
567.88	23.004
568.21	23.714
568.55	22.057
568.89	22.515
569.23	22.536
569.56	23.287
569.90	23.053
570.24	22.999
570.57	22.531
570.91	22.611
571.25	22.633
571.59	22.635
571.92	22.113
572.26	22.199
572.60	22.091
572.93	22.081
573.27	21.707
573.61	21.681
573.95	22.086
574.28	21.983
574.62	22.242
574.96	21.735
575.29	21.977
575.63	21.954
575.97	22.033
576.30	21.787
576.64	21.958
576.98	22.170
577.31	21.669
577.65	21.941
577.98	21.902
578.32	21.301
578.66	21.800
578.99	22.164
579.33	21.728
579.67	21.659
580.00	21.602
580.34	21.673
580.67	21.549
581.01	21.161
581.35	21.649
581.68	21.355
582.02	21.608
582.35	21.454
582.69	21.634
583.02	22.237
583.36	21.783
583.70	21.941
584.03	21.875
584.37	22.192
584.70	21.782
585.04	21.418
585.37	21.169
585.71	21.795
586.04	21.809
586.38	21.465
586.72	22.210
587.05	21.665
587.39	21.551
587.72	21.609
588.06	21.816
588.39	21.219
588.73	21.575
589.06	21.995
589.40	22.295
589.73	22.238
590.07	22.032
590.40	21.808
590.73	22.231
591.07	22.295
591.40	22.487
591.74	22.850
592.07	22.027
592.41	21.741
592.74	22.137
593.08	21.456
593.41	21.480
593.75	21.629
594.08	21.387
594.41	22.292
594.75	22.537
595.08	22.143
595.42	21.568
595.75	21.904
596.09	21.692
596.42	22.831
596.75	22.251
597.09	22.529
597.42	21.694
597.75	21.922
598.09	22.006
598.42	21.918
598.76	21.885
599.09	21.350
599.42	21.069
599.76	21.253
600.09	21.832
600.42	21.155
600.76	21.657
601.09	21.420
601.42	21.092
601.76	21.807
602.09	21.350
602.42	21.770
602.76	20.731
603.09	21.653
603.42	21.998
603.76	20.981
604.09	21.546
604.42	21.399
604.76	21.239
605.09	22.152
605.42	22.074
605.75	21.389
606.09	21.212
606.42	21.324
606.75	22.027
607.09	21.791
607.42	21.039
607.75	21.280
608.08	21.735
608.42	21.334
608.75	20.327
609.08	21.676
609.41	21.525
609.75	20.965
610.08	21.814
610.41	21.542
610.74	22.340
611.07	21.298
611.41	21.029
611.74	22.622
612.07	22.019
612.40	21.962
612.73	21.648
613.07	20.969
613.40	22.222
613.73	20.872
614.06	20.538
614.39	21.251
614.72	21.844
615.06	21.522
615.39	21.812
615.72	21.510
616.05	20.762
616.38	21.184
616.71	21.562
617.05	21.834
617.38	20.743
617.71	21.990
618.04	21.615
618.37	22.138
618.70	22.751
619.03	21.869
619.36	21.987
619.69	21.967
620.03	21.970
620.36	21.660
620.69	22.828
621.02	21.766
621.35	21.855
621.68	21.557
622.01	22.330
622.34	21.972
622.67	21.094
623.00	22.112
623.33	22.239
623.66	22.083
623.99	21.353
624.32	21.503
624.65	21.486
624.99	21.509
625.32	20.958
625.65	21.678
625.98	21.283
626.31	21.615
626.64	21.841
626.97	23.288
627.30	22.213
627.63	20.898
627.96	22.106
628.29	21.875
628.62	21.012
628.95	22.638
629.28	21.898
629.61	21.492
629.94	22.495
630.26	22.465
630.59	22.010
630.92	21.522
631.25	23.387
631.58	23.069
631.91	21.383
632.24	22.556
632.57	23.556
632.90	22.759
633.23	22.313
633.56	21.053
633.89	21.934
634.22	21.960
634.55	21.034
634.88	21.282
635.20	21.473
635.53	21.501
635.86	21.662
636.19	21.368
636.52	22.222
636.85	20.818
637.18	19.375
637.51	23.420
637.83	22.770
638.16	20.658
638.49	22.483
638.82	23.166
639.15	21.660
639.48	21.790
639.81	21.715
640.13	22.027
640.46	22.080
640.79	23.669
641.12	23.554
641.45	22.095
641.77	22.605
642.10	21.299
642.43	22.762
642.76	22.047
643.09	22.063
643.41	21.905
643.74	21.304
644.07	23.089
644.40	21.394
644.73	21.782
645.05	20.367
645.38	23.179
645.71	24.914
646.04	20.840
646.36	22.862
646.69	24.048
647.02	21.841
647.35	22.924
647.67	22.993
648.00	22.847
648.33	25.801
648.66	20.806
648.98	20.223
649.31	23.077
649.64	22.188
649.96	21.193
650.29	19.344
650.62	22.203
650.94	21.922
651.27	21.490
651.60	20.415
651.92	21.062
652.25	20.534
652.58	19.080
652.90	19.422
653.23	21.613
653.56	22.074
653.88	21.803
654.21	24.664
654.54	22.259
654.86	22.311
655.19	20.344
655.52	20.484
655.84	18.738
656.17	19.997
656.49	27.774
656.82	28.951
657.15	22.154
657.47	16.077
657.80	12.535
658.13	14.437
658.45	19.596
658.78	19.505
659.10	19.651
659.43	20.208
659.75	20.378
660.08	20.312
660.41	20.234
660.73	19.912
661.06	20.870
661.38	26.250
661.71	21.033
662.03	23.790
662.36	22.601
662.68	20.464
663.01	25.265
663.33	23.129
663.66	21.459
663.98	22.768
664.31	19.016
664.63	23.894
664.96	21.041
665.28	21.475
665.61	17.336
665.93	22.840
666.26	22.267
666.58	21.622
666.91	23.831
667.23	21.491
667.56	20.862
667.88	22.398
668.21	20.507
668.53	21.262
668.86	21.940
669.18	23.973
669.50	23.364
669.83	22.384
670.15	21.525
670.48	19.159
670.80	20.273
671.13	21.219
671.45	21.622
671.77	19.914
672.10	19.921
672.42	21.587
672.75	19.273
673.07	19.279
673.39	19.854
673.72	21.260
674.04	22.505
674.37	21.649
674.69	21.516
675.01	20.213
675.34	20.607
675.66	24.406
675.98	19.383
676.31	22.851
676.63	21.839
676.95	19.027
677.28	21.578
677.60	21.719
677.92	22.247
678.25	21.663
678.57	21.811
678.89	18.029
679.22	18.239
679.54	21.105
679.86	18.400
680.18	20.722
680.51	18.063
680.83	22.095
681.15	18.882
681.48	22.110
681.80	20.766
682.12	19.718
682.44	19.057
682.77	19.264
683.09	22.642
683.41	21.681
683.73	17.123
684.06	19.785
684.38	20.502
684.70	21.811
685.02	19.488
685.34	20.468
685.67	18.750
685.99	20.038
686.31	21.185
686.63	20.745
686.96	19.593
687.28	20.809
687.60	22.070
687.92	18.482
688.24	19.488
688.56	17.836
688.89	16.453
689.21	22.101
689.53	20.690
689.85	20.045
690.17	17.489
690.49	18.938
690.82	19.759
691.14	18.160
691.46	22.838
691.78	21.366
692.10	19.068
692.42	19.778
692.74	18.240
693.06	19.775
693.39	18.345
693.71	19.639
694.03	20.518
694.35	19.639
694.67	20.095
694.99	17.903
695.31	19.133
695.63	17.347
695.95	23.821
696.27	22.943
696.59	18.717
696.91	22.472
697.23	21.354
697.56	18.269
697.88	19.595
698.20	18.415
698.52	18.610
698.84	19.903
699.16	22.143
699.48	19.000
699.80	19.048
700.12	19.144
700.44	19.832
700.76	16.910
701.08	21.802
701.40	14.199
701.72	22.531
702.04	21.474
702.36	20.783
702.68	17.066
703.00	18.261
703.32	18.052
703.64	22.059
703.96	19.477
704.28	17.160
704.60	20.570
704.91	16.508
705.23	18.447
705.55	17.230
705.87	20.478
706.19	14.931
706.51	19.792
706.83	23.607
707.15	18.471
707.47	19.559
707.79	21.649
708.11	18.066
708.43	19.701
708.74	16.364
709.06	16.713
709.38	17.529
709.70	18.125
710.02	23.006
710.34	16.172
710.66	19.048
710.98	18.927
711.29	17.742
711.61	19.489
711.93	18.361
712.25	16.944
712.57	20.209
712.89	20.144
713.20	20.962
713.52	15.672
713.84	21.708
714.16	20.984
714.48	18.413
714.80	16.615
715.11	20.461
715.43	20.482
715.75	21.807
716.07	14.098
716.39	17.726
716.70	22.300
717.02	21.481
717.34	19.466
717.66	23.651
717.97	19.262
718.29	15.126
718.61	22.222
718.93	18.996
719.24	16.176
719.56	15.472
719.88	18.182
720.20	19.850
720.51	19.173
720.83	14.458
721.15	18.033
721.46	19.216
721.78	15.709
722.10	19.600
722.42	17.769
722.73	16.335
723.05	19.277
723.37	20.784
723.68	17.004
724.00	17.886
724.32	20.576
724.63	15.353
724.95	18.182
725.27	16.667
725.58	16.379
725.90	17.063
726.22	21.402
726.53	22.433
726.85	13.725
727.16	20.677
727.48	17.692
727.80	12.705
728.11	20.168
728.43	17.769
728.74	21.484
729.06	16.667
729.38	19.455
729.69	17.323
730.01	18.898
730.32	15.538
730.64	18.315
730.96	21.642
731.27	17.500
731.59	18.971
731.90	22.086
732.22	15.644
732.53	20.530
732.85	13.758
733.16	19.928
733.48	17.422
733.80	13.523
734.11	18.966
734.43	19.728
734.74	17.507
735.06	17.555
735.37	15.596
735.69	16.452
736.00	17.845
736.32	14.901
736.63	12.069
736.95	15.217
737.26	17.550
737.58	16.906
737.89	17.563
738.21	15.789
738.52	15.385
738.83	17.578
739.15	16.667
739.46	20.968
739.78	17.133
740.09	16.783
740.41	16.084
740.72	16.058
741.04	18.254
741.35	10.390
741.66	20.833
741.98	16.667
742.29	17.840
742.61	19.786
742.92	21.495
743.23	16.667
743.55	17.568
743.86	19.556
744.18	16.667
744.49	24.631
744.80	18.782
745.12	21.134
745.43	19.095
745.74	22.330
746.06	17.073
746.37	18.502
746.68	18.408
747.00	11.518
747.31	18.269
747.62	16.590
747.94	11.354
748.25	20.930
748.56	18.095
748.88	10.870
749.19	15.962
749.50	25.000
749.82	19.111
750.13	18.062
750.44	18.699
750.75	16.400
751.07	16.429
751.38	16.236
751.69	13.359
752.01	15.385
752.32	15.175
752.63	12.692
752.94	14.286
753.26	16.957
753.57	21.429
753.88	19.828
754.19	9.129
754.51	16.016
754.82	14.625
755.13	13.580
755.44	17.355
755.75	16.049
756.07	10.040
756.38	15.625
756.69	18.412
757.00	17.422
757.31	18.456
757.63	16.511
757.94	15.896
758.25	15.698
758.56	23.989
758.87	14.205
759.18	14.000
759.50	17.438
759.81	10.219
760.12	14.527
760.43	18.447
760.74	17.812
761.05	18.820
761.36	13.473
761.67	18.343
761.99	16.774
762.30	16.667
762.61	18.113
762.92	20.179
763.23	18.957
763.54	16.444
763.85	20.675
764.16	15.510
764.47	17.373
764.78	17.978
765.10	18.705
765.41	15.161
765.72	20.440
766.03	9.894
766.34	15.789
766.65	16.194
766.96	14.500
767.27	10.937
767.58	22.093
767.89	16.774
768.20	20.859
768.51	21.311
768.82	12.973
769.13	11.500
769.44	20.614
769.75	20.779
770.06	15.596
770.37	18.779
770.68	11.458
770.99	14.851
771.30	18.447
771.61	11.574
771.92	16.017
772.23	20.561
772.54	8.511
772.85	13.018
773.16	17.073
773.47	12.651
773.78	16.484
774.09	16.000
774.39	19.136
774.70	7.383
775.01	9.420
775.32	5.970
775.63	11.570
775.94	18.797
776.25	15.000
776.56	14.754
776.87	23.009
777.18	15.044
777.48	8.182
777.79	5.217
778.10	9.174
778.41	5.932
778.72	10.744
779.03	18.657
779.34	15.038
779.65	21.569
779.95	13.768
780.26	8.163
780.57	9.483
780.88	15.741
781.19	14.141
781.50	7.200
781.80	16.993
782.11	14.744
782.42	21.084
782.73	11.679
783.04	18.919
783.34	11.364
783.65	16.279
783.96	21.951
784.27	14.530
784.57	15.447
784.88	14.634
785.19	14.912
785.50	4.124
785.81	8.571
786.11	3.922
786.42	13.636
786.73	19.820
787.04	14.851
787.34	14.286
787.65	15.238
787.96	-0.980
788.26	12.613
788.57	16.935
788.88	10.937
789.19	11.111
789.49	11.765
789.80	10.256
790.11	16.814
790.41	20.202
790.72	16.981
791.03	9.722
791.33	7.895
791.64	5.376
791.95	24.000
792.25	8.571
792.56	26.829
792.87	20.408
793.17	5.263
793.48	0.000
793.79	1.408
794.09	12.658
794.40	15.957
794.70	21.495
795.01	1.754
795.32	16.364
795.62	17.857
795.93	10.309
796.23	6.593
796.54	18.947
796.85	1.370
797.15	8.333
797.46	16.438
797.76	22.535
798.07	33.750
798.37	11.765
798.68	11.429
798.99	12.857
799.29	28.947
799.60	21.667
799.90	-2.778
800.21	9.375
800.51	12.698
800.82	27.869
801.12	8.772
801.43	16.901
801.73	3.390
802.04	16.393
802.34	5.455
802.65	7.692
802.95	11.111
803.26	-17.500
803.56	13.462
803.87	-10.526
804.17	19.355
804.48	18.462
804.78	-2.564
805.09	-4.651
805.39	-43.750
805.70	-18.868
806.00	36.842
806.30	31.081
806.61	10.294
806.91	7.407
807.22	20.000
807.52	10.448
807.83	-1.613
808.13	11.111
808.43	5.455
808.74	21.212
809.04	11.321
809.35	10.959
809.65	7.018
809.95	19.118
810.26	5.882
810.56	-8.000
810.86	12.245
811.17	-17.143
811.47	3.846
811.77	19.355
812.08	-13.158
812.38	-2.381
812.69	8.696
812.99	19.355
813.29	16.667
813.59	-51.852
813.90	0.000
814.20	-18.605
814.50	22.917
814.81	5.000
815.11	9.756
815.41	-13.333
815.72	34.286
816.02	0.000
816.32	46.154
816.62	24.324
816.93	8.824
817.23	-4.348
817.53	0.000
817.84	-11.765
818.14	-46.875
818.44	-3.448
818.74	25.806
819.04	-22.222
819.35	20.000
819.65	-16.000
819.95	10.000
820.25	-20.000
820.56	-13.158
820.86	5.000
821.16	38.298
821.46	5.172
821.76	-12.821
822.07	-30.000
822.37	13.953
822.67	-26.667
822.97	-16.216
823.27	13.514
823.57	48.000
823.88	40.541
824.18	-28.571
824.48	-7.692
824.78	-53.846
825.08	17.391
825.38	12.500
825.69	-25.000
825.99	-30.000
826.29	-27.027
826.59	-20.588
826.89	28.000
827.19	-28.571
827.49	34.211
827.79	18.750
828.09	-3.333
828.39	47.826
828.70	-48.276
829.00	-17.241
829.30	22.222
829.60	25.000
829.90	-5.556
830.20	-11.538
830.50	-14.286
830.80	-10.714
831.10	17.949
831.40	-28.571
831.70	38.235
832.00	4.167
832.30	0.000
832.60	12.500
832.90	-66.667
833.20	-64.706
833.50	-20.000
833.80	-46.667
834.10	35.000
834.40	-8.333
834.70	-11.111
835.00	0.000
835.30	-25.000
835.60	0.000
835.90	-38.889
836.20	-27.273
836.50	16.667
836.80	22.857
837.10	60.000
837.40	-52.941
837.70	-9.091
838.00	20.833
838.30	-25.000
838.60	42.857
838.90	0.000
839.19	-39.130
839.49	8.696
839.79	-94.444
840.09	-26.087
840.39	0.000
840.69	12.500
840.99	15.789
841.29	-75.000
841.59	0.000
841.88	-61.111
842.18	29.167
842.48	-47.059
842.78	27.586
843.08	21.429
843.38	-15.385
843.68	-111.111
843.97	-69.231
844.27	-36.364
844.57	-200.000
844.87	4.000
845.17	100.000
845.47	-21.429
845.76	0.000
846.06	0.000
846.36	-225.000
846.66	-40.000
846.96	36.842
847.25	4.167
847.55	-8.333
847.85	-6.667
848.15	-60.000
848.44	96.154
848.74	15.789
849.04	366.667
849.34	88.889
849.63	-68.421
849.93	0.000
850.23	-5.000
850.53	28.571
850.82	8.000
851.12	42.105
851.42	-700.000
851.71	50.000
852.01	-66.667
852.31	76.471
852.61	26.667
852.90	0.000
853.20	-150.000
853.50	11.111
853.79	-63.158
854.09	-53.333
854.39	7.143
854.68	0.000
854.98	-108.333
855.28	-10.345
855.57	31.250
855.87	-30.000
856.17	-13.333
856.46	24.138
856.76	0.000
857.05	-23.529
857.35	-92.308
857.65	-63.636
857.94	29.630
858.24	-21.429
858.53	-57.143
858.83	-8.333
859.13	33.333
859.42	61.905
859.72	-162.500
860.01	33.333
860.31	0.000
860.60	-200.000
860.90	-188.889
861.20	50.000
861.49	-128.571
861.79	-11.765
862.08	-250.000
862.38	-66.667
862.67	-38.462
862.97	29.412
863.26	30.000
863.56	-29.412
863.85	133.333
864.15	-50.000
864.44	15.385
864.74	45.000
865.03	-125.000
865.33	116.667
865.62	-35.294
865.92	-100.000
866.21	-28.571
866.51	-83.333
866.80	-500.000
867.10	-166.667
867.39	58.824
867.69	86.957
867.98	128.571
868.27	-100.000
868.57	-56.250
868.86	-81.818
869.16	0.000
869.45	150.000
869.75	-42.857
870.04	100.000
870.33	41.667
870.63	40.000
870.92	-55.556
871.22	8.333
871.51	63.636
871.80	41.667
872.10	30.000
>>>>>End Processed Spectral Data<<<<<
