SpectraSuite Data File
++++++++++++++++++++++++++++++++++++
Date: Sat May 16 11:25:17 PDT 2015
User: schluterlab
Dark Spectrum Present: Yes
Reference Spectrum Present: Yes
Number of Sampled Component Spectra: 1
Spectrometers: USB2E3373
Integration Time (usec): 3000 (USB2E3373)
Spectra Averaged: 3 (USB2E3373)
Boxcar Smoothing: 0 (USB2E3373)
Correct for Electrical Dark: No (USB2E3373)
Strobe/Lamp Enabled: No (USB2E3373)
Correct for Detector Non-linearity: No (USB2E3373)
Correct for Stray Light: No (USB2E3373)
Number of Pixels in Processed Spectrum: 2048
>>>>>Begin Processed Spectral Data<<<<<
178.53	0.000
178.91	60.000
179.29	533.333
179.67	-1100.000
180.04	-38.462
180.42	1300.000
180.80	75.000
181.18	275.000
181.56	-75.000
181.94	600.000
182.31	825.000
182.69	-30.769
183.07	-466.667
183.45	1150.000
183.83	466.667
184.20	-71.429
184.58	-25.000
184.96	-425.000
185.34	118.750
185.72	-450.000
186.09	116.667
186.47	-200.000
186.85	-125.000
187.23	-150.000
187.61	-250.000
187.98	-325.000
188.36	-87.500
188.74	-87.500
189.12	1100.000
189.49	271.429
189.87	25.000
190.25	775.000
190.63	0.000
191.00	-177.778
191.38	320.000
191.76	-20.000
192.14	160.000
192.51	-120.000
192.89	-766.667
193.27	0.000
193.65	-88.889
194.02	-200.000
194.40	566.667
194.78	-120.000
195.15	-1800.000
195.53	-100.000
195.91	-333.333
196.29	500.000
196.66	-733.333
197.04	1900.000
197.42	-125.000
197.79	26.667
198.17	-166.667
198.55	-750.000
198.92	200.000
199.30	200.000
199.68	-700.000
200.05	-33.333
200.43	-177.778
200.81	-2700.000
201.18	-75.000
201.56	200.000
201.94	-73.333
202.31	-54.545
202.69	-60.000
203.07	-40.000
203.44	666.667
203.82	-483.333
204.19	-500.000
204.57	-350.000
204.95	-1600.000
205.32	0.000
205.70	1800.000
206.08	-1500.000
206.45	-27.778
206.83	-1100.000
207.20	-100.000
207.58	-800.000
207.96	-500.000
208.33	-112.500
208.71	-144.444
209.08	240.000
209.46	-257.143
209.84	650.000
210.21	0.000
210.59	-5.000
210.96	1300.000
211.34	-266.667
211.71	-33.333
212.09	275.000
212.46	1300.000
212.84	-1300.000
213.22	833.333
213.59	58.333
213.97	-88.889
214.34	200.000
214.72	-180.000
215.09	-133.333
215.47	-166.667
215.84	-30.000
216.22	-110.000
216.59	0.000
216.97	-675.000
217.34	750.000
217.72	-14.286
218.09	-266.667
218.47	-142.857
218.84	171.429
219.22	-114.286
219.59	0.000
219.97	157.143
220.34	425.000
220.72	300.000
221.09	23.077
221.47	0.000
221.84	533.333
222.22	-550.000
222.59	1200.000
222.97	-225.000
223.34	-1300.000
223.72	-366.667
224.09	-71.429
224.46	-425.000
224.84	-85.714
225.21	-157.143
225.59	-18.182
225.96	-150.000
226.34	-200.000
226.71	-144.444
227.08	15.000
227.46	1500.000
227.83	-114.286
228.21	-275.000
228.58	-50.000
228.95	-62.500
229.33	-1300.000
229.70	-420.000
230.08	-650.000
230.45	-116.667
230.82	-83.333
231.20	-1200.000
231.57	-300.000
231.95	2300.000
232.32	9.524
232.69	-111.111
233.07	-171.429
233.44	-450.000
233.81	-66.667
234.19	-133.333
234.56	-43.750
234.93	6.250
235.31	-328.571
235.68	-128.571
236.05	-41.176
236.43	-68.182
236.80	-25.806
237.17	-4.167
237.55	-9.524
237.92	-45.455
238.29	-37.143
238.67	-8.824
239.04	-22.222
239.41	-3.226
239.79	-35.897
240.16	2.381
240.53	-5.455
240.91	12.821
241.28	18.182
241.65	18.462
242.02	-1.639
242.40	-4.918
242.77	-9.091
243.14	0.000
243.51	1.429
243.89	-2.532
244.26	12.360
244.63	6.316
245.00	6.316
245.38	7.627
245.75	10.619
246.12	8.800
246.49	13.386
246.87	4.065
247.24	5.932
247.61	9.322
247.98	8.451
248.36	8.392
248.73	13.291
249.10	8.280
249.47	12.865
249.84	13.068
250.22	7.738
250.59	15.819
250.96	14.136
251.33	16.114
251.70	13.942
252.08	13.270
252.45	9.953
252.82	12.857
253.19	17.021
253.56	12.500
253.94	15.190
254.31	11.588
254.68	16.260
255.05	15.726
255.42	16.270
255.79	12.545
256.16	15.686
256.54	16.912
256.91	16.667
257.28	12.088
257.65	13.121
258.02	17.296
258.39	10.702
258.76	15.203
259.14	13.580
259.51	14.754
259.88	14.634
260.25	18.634
260.62	14.148
260.99	16.320
261.36	22.561
261.73	18.208
262.10	16.944
262.47	14.815
262.85	16.286
263.22	15.759
263.59	14.154
263.96	14.493
264.33	16.260
264.70	19.337
265.07	13.736
265.44	13.178
265.81	18.605
266.18	14.177
266.55	17.402
266.92	17.632
267.29	15.254
267.66	17.037
268.03	18.116
268.40	18.545
268.77	17.831
269.14	16.937
269.51	17.931
269.88	15.596
270.25	15.618
270.62	17.162
270.99	18.468
271.36	18.182
271.73	16.368
272.10	17.620
272.47	14.667
272.84	17.778
273.21	16.055
273.58	16.703
273.95	19.956
274.32	19.910
274.69	19.037
275.06	18.405
275.43	19.866
275.80	15.479
276.17	17.155
276.54	19.145
276.91	17.078
277.28	17.444
277.65	19.628
278.02	19.207
278.39	18.075
278.76	19.124
279.13	19.368
279.50	16.501
279.87	19.239
280.23	17.814
280.60	18.091
280.97	16.117
281.34	17.021
281.71	16.923
282.08	17.742
282.45	14.257
282.82	18.798
283.19	17.091
283.56	18.132
283.92	17.314
284.29	14.312
284.66	18.885
285.03	19.786
285.40	18.081
285.77	18.947
286.14	17.148
286.51	16.696
286.87	15.971
287.24	17.918
287.61	14.380
287.98	17.331
288.35	16.198
288.72	13.922
289.08	16.102
289.45	15.993
289.82	14.187
290.19	17.570
290.56	15.372
290.93	14.149
291.29	13.938
291.66	17.069
292.03	15.699
292.40	15.512
292.77	16.460
293.13	15.610
293.50	15.156
293.87	13.650
294.24	12.971
294.60	13.788
294.97	14.568
295.34	11.852
295.71	13.988
296.08	13.057
296.44	12.876
296.81	13.675
297.18	14.648
297.55	14.124
297.91	15.621
298.28	13.699
298.65	12.831
299.02	14.706
299.38	12.834
299.75	12.772
300.12	14.744
300.48	15.217
300.85	12.713
301.22	11.772
301.59	12.354
301.95	13.980
302.32	10.430
302.69	12.729
303.05	12.821
303.42	12.750
303.79	13.397
304.15	11.848
304.52	12.485
304.89	13.459
305.25	12.943
305.62	10.693
305.99	14.370
306.35	13.651
306.72	11.731
307.09	13.961
307.45	12.259
307.82	12.067
308.19	12.752
308.55	11.220
308.92	10.526
309.29	12.432
309.65	11.453
310.02	12.743
310.38	12.541
310.75	11.680
311.12	13.533
311.48	12.944
311.85	13.182
312.22	12.770
312.58	13.428
312.95	11.723
313.31	11.489
313.68	11.658
314.05	12.463
314.41	12.575
314.78	10.889
315.14	11.352
315.51	12.665
315.87	12.101
316.24	11.856
316.61	13.916
316.97	11.841
317.34	12.331
317.70	10.761
318.07	13.246
318.43	12.734
318.80	13.709
319.16	11.445
319.53	12.594
319.89	11.007
320.26	11.078
320.62	11.250
320.99	12.637
321.35	10.345
321.72	11.668
322.08	12.067
322.45	11.188
322.81	11.816
323.18	11.912
323.54	12.200
323.91	13.160
324.27	12.072
324.64	12.249
325.00	11.518
325.37	12.760
325.73	13.473
326.10	11.957
326.46	12.259
326.83	11.660
327.19	12.677
327.56	12.095
327.92	12.319
328.29	12.381
328.65	10.455
329.01	12.633
329.38	11.597
329.74	12.912
330.11	12.421
330.47	10.990
330.84	13.932
331.20	12.094
331.56	11.577
331.93	11.279
332.29	12.055
332.66	10.887
333.02	12.489
333.38	12.276
333.75	13.001
334.11	12.089
334.48	11.915
334.84	12.948
335.20	12.677
335.57	11.823
335.93	13.071
336.29	11.780
336.66	12.247
337.02	12.162
337.38	12.032
337.75	11.589
338.11	11.538
338.47	11.477
338.84	12.976
339.20	11.336
339.56	12.389
339.93	11.552
340.29	12.046
340.65	12.150
341.02	12.142
341.38	12.553
341.74	11.770
342.11	11.860
342.47	12.446
342.83	12.007
343.20	12.126
343.56	10.286
343.92	12.688
344.28	12.195
344.65	11.469
345.01	11.597
345.37	11.877
345.73	11.211
346.10	10.466
346.46	10.885
346.82	11.147
347.19	11.175
347.55	12.199
347.91	12.126
348.27	10.979
348.63	11.551
349.00	12.331
349.36	10.695
349.72	11.863
350.08	10.986
350.45	11.111
350.81	11.704
351.17	11.334
351.53	11.456
351.89	11.560
352.26	11.628
352.62	12.366
352.98	11.313
353.34	10.631
353.70	10.579
354.07	11.723
354.43	11.700
354.79	11.173
355.15	10.623
355.51	10.937
355.87	10.988
356.24	10.405
356.60	11.845
356.96	12.625
357.32	10.847
357.68	10.651
358.04	10.701
358.40	11.678
358.77	10.665
359.13	10.712
359.49	10.355
359.85	10.823
360.21	10.578
360.57	11.672
360.93	10.889
361.29	11.061
361.66	9.756
362.02	10.725
362.38	11.005
362.74	12.015
363.10	11.191
363.46	12.179
363.82	11.297
364.18	11.722
364.54	11.866
364.90	10.901
365.26	10.984
365.62	11.262
365.98	11.095
366.35	11.338
366.71	11.276
367.07	10.727
367.43	12.217
367.79	10.859
368.15	10.028
368.51	13.077
368.87	11.676
369.23	10.807
369.59	10.764
369.95	11.487
370.31	11.252
370.67	11.208
371.03	11.079
371.39	11.033
371.75	11.302
372.11	10.904
372.47	10.918
372.83	11.196
373.19	11.000
373.55	11.963
373.91	10.882
374.27	11.225
374.63	10.697
374.99	10.848
375.35	11.036
375.71	11.276
376.07	10.815
376.42	10.265
376.78	11.438
377.14	11.119
377.50	11.025
377.86	10.663
378.22	10.176
378.58	11.180
378.94	10.727
379.30	12.005
379.66	11.354
380.02	10.458
380.38	10.393
380.74	11.313
381.09	11.424
381.45	11.635
381.81	11.071
382.17	10.714
382.53	10.091
382.89	11.184
383.25	11.258
383.61	11.321
383.97	11.758
384.32	11.577
384.68	11.245
385.04	10.930
385.40	10.651
385.76	11.280
386.12	10.931
386.48	11.386
386.83	10.982
387.19	11.178
387.55	11.690
387.91	10.492
388.27	10.977
388.62	11.178
388.98	10.297
389.34	10.955
389.70	10.658
390.06	10.938
390.42	11.090
390.77	11.041
391.13	11.801
391.49	10.792
391.85	10.973
392.20	10.862
392.56	10.690
392.92	11.181
393.28	11.309
393.64	10.884
393.99	11.569
394.35	10.645
394.71	11.489
395.07	11.739
395.42	10.727
395.78	10.622
396.14	11.713
396.50	11.315
396.85	11.906
397.21	10.875
397.57	11.854
397.92	11.300
398.28	11.889
398.64	10.529
399.00	11.629
399.35	11.048
399.71	12.253
400.07	11.761
400.42	11.131
400.78	10.793
401.14	10.838
401.49	10.672
401.85	11.043
402.21	11.085
402.57	11.044
402.92	11.454
403.28	10.784
403.63	11.144
403.99	11.187
404.35	11.232
404.70	11.527
405.06	12.341
405.42	10.517
405.77	11.029
406.13	11.584
406.49	11.324
406.84	11.518
407.20	12.073
407.55	11.273
407.91	10.687
408.27	11.887
408.62	11.004
408.98	11.461
409.34	11.822
409.69	11.090
410.05	11.037
410.40	11.772
410.76	12.033
411.11	11.347
411.47	11.189
411.83	11.858
412.18	10.767
412.54	11.165
412.89	11.482
413.25	11.098
413.60	10.693
413.96	10.659
414.31	11.376
414.67	10.857
415.03	11.514
415.38	11.646
415.74	11.727
416.09	11.061
416.45	10.714
416.80	11.378
417.16	11.030
417.51	12.213
417.87	11.068
418.22	11.568
418.58	11.617
418.93	11.465
419.29	11.292
419.64	10.741
420.00	12.090
420.35	11.295
420.71	11.405
421.06	11.953
421.42	10.773
421.77	11.781
422.12	11.192
422.48	11.598
422.83	11.162
423.19	11.247
423.54	11.239
423.90	10.989
424.25	11.029
424.61	12.666
424.96	12.756
425.31	11.738
425.67	11.175
426.02	11.302
426.38	11.373
426.73	11.222
427.09	11.275
427.44	11.932
427.79	11.047
428.15	12.328
428.50	11.613
428.85	11.871
429.21	11.234
429.56	11.771
429.92	11.573
430.27	11.914
430.62	11.546
430.98	11.030
431.33	11.046
431.68	11.421
432.04	11.752
432.39	11.738
432.74	11.751
433.10	11.649
433.45	10.593
433.80	11.254
434.16	11.553
434.51	11.781
434.86	12.127
435.22	12.138
435.57	12.179
435.92	11.079
436.28	12.760
436.63	10.741
436.98	11.111
437.34	11.577
437.69	11.844
438.04	11.685
438.39	12.274
438.75	11.932
439.10	11.549
439.45	11.527
439.81	12.470
440.16	11.755
440.51	11.882
440.86	12.146
441.22	11.277
441.57	11.158
441.92	12.123
442.27	12.013
442.63	12.232
442.98	11.625
443.33	11.752
443.68	11.204
444.03	11.739
444.39	11.013
444.74	12.225
445.09	11.568
445.44	12.043
445.79	11.780
446.15	12.103
446.50	11.377
446.85	12.211
447.20	11.696
447.55	12.376
447.91	12.353
448.26	11.285
448.61	12.281
448.96	12.381
449.31	11.556
449.66	12.421
450.02	12.410
450.37	11.942
450.72	11.356
451.07	11.565
451.42	11.029
451.77	11.849
452.12	10.965
452.47	11.839
452.83	11.415
453.18	11.575
453.53	11.443
453.88	12.380
454.23	10.822
454.58	12.554
454.93	11.839
455.28	11.026
455.63	11.916
455.98	12.289
456.34	11.817
456.69	11.945
457.04	11.555
457.39	11.543
457.74	11.400
458.09	12.587
458.44	13.048
458.79	12.164
459.14	12.037
459.49	12.315
459.84	12.366
460.19	11.874
460.54	12.099
460.89	11.659
461.24	11.779
461.59	12.603
461.94	12.222
462.29	12.686
462.64	11.331
462.99	12.651
463.34	12.289
463.69	11.578
464.04	12.068
464.39	11.589
464.74	11.820
465.09	11.786
465.44	12.352
465.79	12.803
466.14	12.371
466.49	12.320
466.84	13.145
467.19	12.718
467.54	11.392
467.89	11.776
468.24	13.124
468.59	11.305
468.94	11.897
469.29	12.476
469.64	12.803
469.99	13.302
470.34	11.824
470.68	13.154
471.03	12.182
471.38	11.944
471.73	11.259
472.08	13.119
472.43	11.969
472.78	13.000
473.13	11.862
473.48	12.125
473.83	12.531
474.17	11.656
474.52	13.043
474.87	12.354
475.22	12.330
475.57	11.389
475.92	12.581
476.27	12.171
476.61	12.225
476.96	12.353
477.31	12.540
477.66	11.566
478.01	12.696
478.36	12.310
478.70	12.920
479.05	12.493
479.40	12.746
479.75	12.080
480.10	12.351
480.45	12.669
480.79	13.179
481.14	12.293
481.49	12.488
481.84	12.298
482.19	12.928
482.53	12.642
482.88	12.625
483.23	12.958
483.58	13.321
483.92	12.757
484.27	12.317
484.62	12.484
484.97	12.588
485.31	11.744
485.66	11.715
486.01	11.746
486.36	12.446
486.70	12.716
487.05	12.625
487.40	12.714
487.75	12.437
488.09	12.261
488.44	12.449
488.79	12.947
489.13	12.058
489.48	12.724
489.83	12.358
490.17	12.886
490.52	12.500
490.87	12.286
491.22	12.471
491.56	12.917
491.91	12.309
492.26	13.019
492.60	12.607
492.95	13.470
493.30	12.911
493.64	13.164
493.99	12.906
494.34	13.619
494.68	13.904
495.03	12.524
495.37	12.635
495.72	13.261
496.07	13.233
496.41	13.849
496.76	12.648
497.11	13.236
497.45	13.170
497.80	13.357
498.14	12.868
498.49	12.858
498.84	12.524
499.18	13.548
499.53	13.054
499.87	12.693
500.22	12.794
500.56	13.457
500.91	12.857
501.26	13.392
501.60	12.711
501.95	13.816
502.29	12.990
502.64	13.343
502.98	13.273
503.33	13.064
503.67	12.931
504.02	13.375
504.36	13.431
504.71	12.969
505.06	12.332
505.40	13.473
505.75	13.516
506.09	13.246
506.44	12.932
506.78	13.347
507.13	13.028
507.47	13.772
507.82	12.081
508.16	13.575
508.51	13.035
508.85	12.888
509.19	12.873
509.54	12.791
509.88	13.138
510.23	13.208
510.57	13.228
510.92	13.641
511.26	13.025
511.61	12.797
511.95	13.470
512.30	13.524
512.64	12.465
512.98	13.806
513.33	13.344
513.67	13.680
514.02	13.702
514.36	13.740
514.70	13.130
515.05	14.351
515.39	13.379
515.74	13.264
516.08	14.063
516.42	13.711
516.77	14.038
517.11	13.844
517.46	14.713
517.80	13.418
518.14	12.379
518.49	13.270
518.83	14.481
519.17	14.150
519.52	13.418
519.86	13.859
520.20	14.364
520.55	13.354
520.89	13.338
521.23	14.469
521.58	13.103
521.92	14.313
522.26	13.587
522.61	13.878
522.95	13.082
523.29	13.605
523.64	12.804
523.98	13.749
524.32	13.765
524.66	13.292
525.01	13.616
525.35	14.497
525.69	13.728
526.04	13.185
526.38	13.686
526.72	13.282
527.06	14.062
527.41	13.861
527.75	13.465
528.09	14.229
528.43	13.574
528.78	14.259
529.12	13.188
529.46	14.497
529.80	13.622
530.15	14.681
530.49	13.583
530.83	14.604
531.17	13.468
531.51	13.798
531.86	13.825
532.20	13.765
532.54	14.906
532.88	13.702
533.22	13.904
533.57	14.034
533.91	13.546
534.25	13.953
534.59	14.054
534.93	13.877
535.27	14.286
535.62	14.578
535.96	13.769
536.30	13.351
536.64	13.745
536.98	14.407
537.32	13.269
537.66	14.053
538.01	13.746
538.35	14.054
538.69	13.703
539.03	14.218
539.37	14.305
539.71	13.809
540.05	13.982
540.39	13.850
540.73	14.167
541.07	13.593
541.42	12.762
541.76	13.289
542.10	14.517
542.44	14.257
542.78	13.094
543.12	14.596
543.46	12.466
543.80	12.642
544.14	13.230
544.48	14.436
544.82	13.058
545.16	13.950
545.50	12.921
545.84	13.630
546.18	13.592
546.52	14.651
546.86	13.960
547.20	14.276
547.54	13.636
547.88	13.603
548.22	12.844
548.56	13.026
548.90	14.757
549.24	13.104
549.58	13.409
549.92	14.205
550.26	14.451
550.60	13.514
550.94	14.307
551.28	13.469
551.62	13.442
551.96	13.893
552.30	14.077
552.64	14.004
552.98	14.296
553.32	12.843
553.66	13.699
554.00	13.788
554.34	13.646
554.68	12.865
555.02	14.472
555.36	12.940
555.69	13.181
556.03	13.474
556.37	13.940
556.71	13.099
557.05	13.821
557.39	13.808
557.73	14.077
558.07	14.017
558.41	14.660
558.75	13.764
559.08	12.374
559.42	13.783
559.76	14.494
560.10	14.616
560.44	14.523
560.78	13.570
561.12	14.079
561.45	13.836
561.79	13.310
562.13	13.184
562.47	13.445
562.81	13.932
563.15	13.296
563.48	14.029
563.82	14.402
564.16	13.185
564.50	14.046
564.84	14.286
565.17	12.798
565.51	13.038
565.85	14.537
566.19	13.966
566.52	13.438
566.86	13.401
567.20	14.286
567.54	14.353
567.88	13.177
568.21	14.206
568.55	12.354
568.89	12.177
569.23	12.911
569.56	12.863
569.90	13.257
570.24	13.153
570.57	12.759
570.91	13.295
571.25	13.521
571.59	12.457
571.92	12.560
572.26	12.822
572.60	12.783
572.93	12.666
573.27	12.835
573.61	12.073
573.95	12.986
574.28	12.843
574.62	12.710
574.96	12.512
575.29	12.602
575.63	12.875
575.97	12.540
576.30	12.469
576.64	12.559
576.98	12.814
577.31	12.348
577.65	12.861
577.98	12.373
578.32	12.103
578.66	12.558
578.99	12.730
579.33	12.484
579.67	12.833
580.00	12.227
580.34	12.524
580.67	12.454
581.01	12.340
581.35	12.645
581.68	12.328
582.02	12.484
582.35	12.465
582.69	12.658
583.02	12.710
583.36	12.655
583.70	12.673
584.03	12.931
584.37	12.909
584.70	12.768
585.04	12.430
585.37	12.387
585.71	12.627
586.04	12.513
586.38	12.590
586.72	12.740
587.05	12.858
587.39	12.674
587.72	12.848
588.06	13.287
588.39	12.532
588.73	12.794
589.06	13.523
589.40	13.088
589.73	13.067
590.07	11.799
590.40	13.653
590.73	13.315
591.07	12.787
591.40	12.478
591.74	12.511
592.07	13.108
592.41	12.951
592.74	13.336
593.08	12.461
593.41	12.303
593.75	12.595
594.08	13.048
594.41	13.272
594.75	13.137
595.08	12.932
595.42	12.934
595.75	12.679
596.09	12.495
596.42	13.584
596.75	12.678
597.09	13.268
597.42	12.702
597.75	12.888
598.09	12.291
598.42	12.992
598.76	12.168
599.09	12.628
599.42	12.534
599.76	12.835
600.09	12.939
600.42	13.065
600.76	12.655
601.09	12.723
601.42	12.663
601.76	13.435
602.09	12.434
602.42	12.840
602.76	12.838
603.09	12.419
603.42	12.530
603.76	13.243
604.09	12.175
604.42	13.072
604.76	13.127
605.09	13.020
605.42	13.032
605.75	12.764
606.09	13.076
606.42	12.317
606.75	13.096
607.09	12.748
607.42	12.808
607.75	13.289
608.08	13.421
608.42	13.292
608.75	12.477
609.08	13.346
609.41	12.706
609.75	12.092
610.08	13.235
610.41	12.482
610.74	13.588
611.07	12.982
611.41	12.103
611.74	14.036
612.07	14.017
612.40	13.060
612.73	12.978
613.07	12.823
613.40	13.848
613.73	12.970
614.06	13.234
614.39	12.683
614.72	12.626
615.06	12.826
615.39	12.968
615.72	13.145
616.05	12.811
616.38	12.885
616.71	13.273
617.05	14.053
617.38	12.817
617.71	12.531
618.04	13.478
618.37	12.893
618.70	12.647
619.03	13.947
619.36	14.235
619.69	13.137
620.03	13.430
620.36	13.572
620.69	12.563
621.02	12.861
621.35	13.306
621.68	12.869
622.01	13.188
622.34	14.363
622.67	12.969
623.00	13.160
623.33	13.060
623.66	13.146
623.99	12.932
624.32	13.170
624.65	13.319
624.99	13.816
625.32	12.874
625.65	13.209
625.98	12.207
626.31	14.111
626.64	12.469
626.97	13.784
627.30	13.957
627.63	11.831
627.96	12.185
628.29	12.868
628.62	14.422
628.95	13.484
629.28	13.252
629.61	11.874
629.94	12.949
630.26	13.817
630.59	13.367
630.92	13.213
631.25	15.121
631.58	14.286
631.91	12.660
632.24	14.000
632.57	14.889
632.90	12.989
633.23	14.369
633.56	11.579
633.89	13.797
634.22	13.341
634.55	12.740
634.88	13.180
635.20	13.608
635.53	12.468
635.86	12.972
636.19	12.943
636.52	13.859
636.85	12.515
637.18	12.125
637.51	14.622
637.83	13.582
638.16	13.553
638.49	12.000
638.82	12.999
639.15	13.489
639.48	12.970
639.81	13.970
640.13	13.784
640.46	14.672
640.79	15.826
641.12	13.963
641.45	13.773
641.77	12.874
642.10	11.934
642.43	14.264
642.76	12.598
643.09	13.016
643.41	15.556
643.74	14.467
644.07	15.133
644.40	13.128
644.73	14.026
645.05	14.023
645.38	14.238
645.71	13.230
646.04	14.454
646.36	11.169
646.69	12.630
647.02	12.816
647.35	14.621
647.67	13.321
648.00	13.005
648.33	14.840
648.66	10.806
648.98	14.650
649.31	14.615
649.64	14.844
649.96	13.658
650.29	11.803
650.62	13.253
650.94	12.479
651.27	12.478
651.60	12.630
651.92	14.212
652.25	9.683
652.58	11.925
652.90	13.483
653.23	13.548
653.56	12.709
653.88	12.459
654.21	14.597
654.54	14.784
654.86	12.841
655.19	12.751
655.52	12.547
655.84	11.968
656.17	12.808
656.49	17.928
656.82	18.618
657.15	14.353
657.47	10.453
657.80	7.937
658.13	9.267
658.45	12.297
658.78	11.564
659.10	12.154
659.43	11.359
659.75	11.251
660.08	11.771
660.41	11.030
660.73	10.671
661.06	12.899
661.38	12.857
661.71	12.620
662.03	16.129
662.36	12.580
662.68	12.447
663.01	15.074
663.33	14.286
663.66	14.592
663.98	11.607
664.31	10.962
664.63	14.602
664.96	12.364
665.28	12.798
665.61	13.108
665.93	16.049
666.26	16.802
666.58	13.929
666.91	12.027
667.23	16.228
667.56	11.791
667.88	15.385
668.21	11.982
668.53	13.318
668.86	11.085
669.18	13.470
669.50	12.617
669.83	12.165
670.15	13.677
670.48	9.579
670.80	11.162
671.13	11.287
671.45	11.036
671.77	13.490
672.10	12.426
672.42	13.838
672.75	11.818
673.07	11.351
673.39	13.661
673.72	11.614
674.04	11.677
674.37	11.134
674.69	13.525
675.01	11.277
675.34	12.148
675.66	13.391
675.98	13.656
676.31	14.706
676.63	12.414
676.95	10.841
677.28	14.153
677.60	13.348
677.92	13.436
678.25	10.722
678.57	13.580
678.89	11.740
679.22	11.111
679.54	13.609
679.86	12.000
680.18	12.738
680.51	10.801
680.83	12.952
681.15	13.295
681.48	13.793
681.80	12.702
682.12	11.670
682.44	12.181
682.77	8.442
683.09	15.094
683.41	12.168
683.73	9.361
684.06	13.118
684.38	15.481
684.70	10.700
685.02	12.402
685.34	11.891
685.67	10.606
685.99	10.397
686.31	12.029
686.63	11.525
686.96	11.830
687.28	10.597
687.60	10.937
687.92	7.198
688.24	12.992
688.56	10.220
688.89	12.393
689.21	13.129
689.53	12.414
689.85	13.363
690.17	11.435
690.49	12.702
690.82	9.398
691.14	12.264
691.46	12.195
691.78	12.996
692.10	12.500
692.42	6.889
692.74	12.876
693.06	11.910
693.39	11.857
693.71	11.964
694.03	12.743
694.35	13.544
694.67	11.348
694.99	8.696
695.31	10.459
695.63	10.204
695.95	11.663
696.27	13.217
696.59	13.102
696.91	12.079
697.23	13.021
697.56	10.337
697.88	11.261
698.20	14.989
698.52	10.762
698.84	12.379
699.16	10.238
699.48	9.000
699.80	12.030
700.12	14.358
700.44	9.497
700.76	10.787
701.08	15.698
701.40	10.876
701.72	14.198
702.04	13.462
702.36	14.759
702.68	9.880
703.00	8.986
703.32	8.309
703.64	13.529
703.96	12.209
704.28	9.172
704.60	8.544
704.91	9.206
705.23	11.327
705.55	12.162
705.87	11.945
706.19	10.417
706.51	10.417
706.83	7.541
707.15	11.146
707.47	16.253
707.79	13.144
708.11	9.415
708.43	14.713
708.74	11.429
709.06	8.078
709.38	8.908
709.70	10.000
710.02	12.883
710.34	8.911
710.66	6.667
710.98	10.726
711.29	8.710
711.61	12.141
711.93	10.820
712.25	14.286
712.57	10.453
712.89	11.151
713.20	13.402
713.52	7.463
713.84	10.320
714.16	9.836
714.48	10.159
714.80	10.154
715.11	12.104
715.43	13.253
715.75	11.215
716.07	7.869
716.39	8.696
716.70	13.240
717.02	10.370
717.34	6.870
717.66	14.938
717.97	8.197
718.29	10.084
718.61	7.540
718.93	12.903
719.24	4.779
719.56	4.151
719.88	8.727
720.20	8.614
720.51	11.654
720.83	6.827
721.15	7.787
721.46	11.765
721.78	11.494
722.10	9.200
722.42	9.917
722.73	10.757
723.05	8.835
723.37	11.373
723.68	10.121
724.00	16.260
724.32	11.523
724.63	4.979
724.95	14.463
725.27	9.649
725.58	8.190
725.90	9.921
726.22	12.177
726.53	8.745
726.85	4.706
727.16	12.406
727.48	11.154
727.80	7.377
728.11	6.723
728.43	5.785
728.74	10.547
729.06	10.606
729.38	11.284
729.69	2.362
730.01	5.906
730.32	3.586
730.64	6.227
730.96	11.567
731.27	7.500
731.59	6.109
731.90	8.589
732.22	8.282
732.53	13.576
732.85	6.376
733.16	8.333
733.48	11.498
733.80	8.185
734.11	8.966
734.43	9.864
734.74	10.386
735.06	6.897
735.37	9.480
735.69	6.774
736.00	10.774
736.32	11.258
736.63	6.207
736.95	8.333
737.26	9.934
737.58	5.036
737.89	12.186
738.21	1.880
738.52	9.231
738.83	9.766
739.15	5.983
739.46	6.855
739.78	8.741
740.09	8.042
740.41	4.545
740.72	12.044
741.04	7.540
741.35	4.762
741.66	13.426
741.98	7.143
742.29	10.329
742.61	11.765
742.92	4.673
743.23	5.702
743.55	8.108
743.86	15.556
744.18	0.000
744.49	8.867
744.80	12.690
745.12	8.763
745.43	9.045
745.74	4.854
746.06	8.780
746.37	11.013
746.68	10.448
747.00	11.518
747.31	8.173
747.62	3.687
747.94	9.170
748.25	7.442
748.56	10.476
748.88	3.804
749.19	7.981
749.50	11.765
749.82	15.556
750.13	9.251
750.44	8.130
750.75	8.800
751.07	5.357
751.38	8.118
751.69	10.305
752.01	9.231
752.32	5.447
752.63	8.462
752.94	6.349
753.26	10.870
753.57	6.250
753.88	6.034
754.19	5.394
754.51	8.984
754.82	8.696
755.13	9.877
755.44	6.612
755.75	10.288
756.07	2.410
756.38	6.641
756.69	10.108
757.00	6.969
757.31	14.430
757.63	13.707
757.94	7.514
758.25	9.593
758.56	10.782
758.87	8.239
759.18	7.000
759.50	9.253
759.81	3.285
760.12	9.459
760.43	11.974
760.74	13.438
761.05	8.708
761.36	12.275
761.67	11.538
761.99	9.355
762.30	10.145
762.61	7.925
762.92	4.484
763.23	5.213
763.54	8.000
763.85	12.658
764.16	6.939
764.47	11.441
764.78	6.367
765.10	12.230
765.41	9.032
765.72	11.321
766.03	5.300
766.34	9.398
766.65	3.644
766.96	2.500
767.27	10.417
767.58	9.302
767.89	7.742
768.20	6.748
768.51	9.836
768.82	10.811
769.13	5.500
769.44	11.404
769.75	9.957
770.06	6.422
770.37	7.042
770.68	8.333
770.99	8.911
771.30	4.854
771.61	-0.926
771.92	9.091
772.23	8.411
772.54	8.511
772.85	11.834
773.16	9.146
773.47	7.229
773.78	12.637
774.09	4.000
774.39	12.346
774.70	5.369
775.01	5.797
775.32	5.970
775.63	2.479
775.94	9.023
776.25	2.857
776.56	13.115
776.87	5.310
777.18	4.425
777.48	-8.182
777.79	0.870
778.10	-3.670
778.41	-4.237
778.72	1.653
779.03	5.970
779.34	8.271
779.65	9.804
779.95	8.696
780.26	-3.401
780.57	1.724
780.88	6.481
781.19	-12.121
781.50	-4.000
781.80	8.497
782.11	3.846
782.42	5.422
782.73	-2.920
783.04	6.757
783.34	3.788
783.65	6.977
783.96	3.252
784.27	3.419
784.57	-0.813
784.88	1.626
785.19	0.000
785.50	-17.526
785.81	-3.810
786.11	-1.961
786.42	0.000
786.73	8.108
787.04	3.960
787.34	-1.905
787.65	-7.619
787.96	5.882
788.26	5.405
788.57	11.290
788.88	10.937
789.19	-0.855
789.49	6.723
789.80	7.692
790.11	-0.885
790.41	1.010
790.72	7.547
791.03	-9.722
791.33	5.263
791.64	6.452
791.95	5.333
792.25	-1.429
792.56	3.659
792.87	4.082
793.17	-7.895
793.48	-17.568
793.79	-11.268
794.09	0.000
794.40	-3.191
794.70	1.869
795.01	-14.035
795.32	3.636
795.62	0.000
795.93	-6.186
796.23	-14.286
796.54	15.789
796.85	-6.849
797.15	-5.556
797.46	-8.219
797.76	-2.817
798.07	1.250
798.37	-10.294
798.68	5.714
798.99	10.000
799.29	3.947
799.60	1.667
799.90	8.333
800.21	-21.875
800.51	-11.111
800.82	-6.557
801.12	-12.281
801.43	12.676
801.73	-22.034
802.04	8.197
802.34	-20.000
802.65	-13.462
802.95	-7.407
803.26	-30.000
803.56	-7.692
803.87	-44.737
804.17	-11.290
804.48	-1.538
804.78	-51.282
805.09	-37.209
805.39	-46.875
805.70	-26.415
806.00	-1.754
806.30	16.216
806.61	2.941
806.91	3.704
807.22	0.000
807.52	2.985
807.83	-3.226
808.13	4.762
808.43	-34.545
808.74	-21.212
809.04	-16.981
809.35	9.589
809.65	14.035
809.95	13.235
810.26	-3.922
810.56	-2.000
810.86	-28.571
811.17	0.000
811.47	-7.692
811.77	-6.452
812.08	-34.211
812.38	0.000
812.69	-23.913
812.99	-16.129
813.29	-11.905
813.59	-70.370
813.90	-12.766
814.20	-53.488
814.50	-33.333
814.81	13.333
815.11	-2.439
815.41	-13.333
815.72	-2.857
816.02	-27.778
816.32	5.128
816.62	-16.216
816.93	-44.118
817.23	-26.087
817.53	-17.647
817.84	-32.353
818.14	-56.250
818.44	-10.345
818.74	-38.710
819.04	-22.222
819.35	-13.333
819.65	-44.000
819.95	-6.667
820.25	-64.000
820.56	-7.895
820.86	-25.000
821.16	-4.255
821.46	3.448
821.76	-12.821
822.07	-50.000
822.37	-18.605
822.67	-30.000
822.97	-2.703
823.27	0.000
823.57	-4.000
823.88	0.000
824.18	-85.714
824.48	0.000
824.78	-169.231
825.08	-56.522
825.38	-41.667
825.69	-4.167
825.99	-105.000
826.29	-24.324
826.59	-55.882
826.89	-28.000
827.19	-2.857
827.49	-23.684
827.79	-15.625
828.09	-16.667
828.39	-60.870
828.70	-31.034
829.00	-17.241
829.30	-13.889
829.60	-15.625
829.90	-61.111
830.20	-61.538
830.50	-85.714
830.80	-50.000
831.10	7.692
831.40	-52.381
831.70	-29.412
832.00	-4.167
832.30	-110.526
832.60	-37.500
832.90	-183.333
833.20	-117.647
833.50	-133.333
833.80	-26.667
834.10	-55.000
834.40	-50.000
834.70	-38.889
835.00	11.538
835.30	-8.333
835.60	3.448
835.90	-83.333
836.20	-100.000
836.50	-208.333
836.80	5.714
837.10	2.857
837.40	-41.176
837.70	-109.091
838.00	-41.667
838.30	-50.000
838.60	-61.905
838.90	20.000
839.19	-52.174
839.49	-17.391
839.79	-105.556
840.09	-21.739
840.39	-27.273
840.69	-75.000
840.99	-42.105
841.29	-131.250
841.59	-57.143
841.88	-55.556
842.18	-58.333
842.48	-82.353
842.78	-27.586
843.08	-50.000
843.38	-84.615
843.68	-133.333
843.97	-161.538
844.27	-163.636
844.57	-180.000
844.87	12.000
845.17	-500.000
845.47	-142.857
845.76	-77.778
846.06	0.000
846.36	-450.000
846.66	-210.000
846.96	-63.158
847.25	-62.500
847.55	-100.000
847.85	-26.667
848.15	-100.000
848.44	38.462
848.74	-15.789
849.04	466.667
849.34	-33.333
849.63	-36.842
849.93	0.000
850.23	-135.000
850.53	-33.333
850.82	-32.000
851.12	-36.842
851.42	-750.000
851.71	-28.571
852.01	-83.333
852.31	-70.588
852.61	-40.000
852.90	-23.810
853.20	-200.000
853.50	-88.889
853.79	-84.211
854.09	-120.000
854.39	-10.714
854.68	-65.217
854.98	-166.667
855.28	-20.690
855.57	-75.000
855.87	-105.000
856.17	-120.000
856.46	-37.931
856.76	-73.333
857.05	-58.824
857.35	-115.385
857.65	-45.455
857.94	-22.222
858.24	-57.143
858.53	-21.429
858.83	-150.000
859.13	-155.556
859.42	33.333
859.72	-125.000
860.01	-1000.000
860.31	-25.000
860.60	-300.000
860.90	-44.444
861.20	-75.000
861.49	-128.571
861.79	-5.882
862.08	-500.000
862.38	-200.000
862.67	-69.231
862.97	-23.529
863.26	10.000
863.56	-29.412
863.85	366.667
864.15	-140.000
864.44	-46.154
864.74	-50.000
865.03	-287.500
865.33	-216.667
865.62	-35.294
865.92	-500.000
866.21	-157.143
866.51	-150.000
866.80	-800.000
867.10	-200.000
867.39	-64.706
867.69	34.783
867.98	-114.286
868.27	-360.000
868.57	50.000
868.86	-136.364
869.16	17.647
869.45	-266.667
869.75	-171.429
870.04	2900.000
870.33	-58.333
870.63	-220.000
870.92	-100.000
871.22	-91.667
871.51	-118.182
871.80	0.000
872.10	-50.000
>>>>>End Processed Spectral Data<<<<<
