SpectraSuite Data File
++++++++++++++++++++++++++++++++++++
Date: Sat May 16 11:24:08 PDT 2015
User: schluterlab
Dark Spectrum Present: Yes
Reference Spectrum Present: Yes
Number of Sampled Component Spectra: 1
Spectrometers: USB2E3373
Integration Time (usec): 3000 (USB2E3373)
Spectra Averaged: 3 (USB2E3373)
Boxcar Smoothing: 0 (USB2E3373)
Correct for Electrical Dark: No (USB2E3373)
Strobe/Lamp Enabled: No (USB2E3373)
Correct for Detector Non-linearity: No (USB2E3373)
Correct for Stray Light: No (USB2E3373)
Number of Pixels in Processed Spectrum: 2048
>>>>>Begin Processed Spectral Data<<<<<
178.53	0.000
178.91	146.667
179.29	266.667
179.67	-700.000
180.04	-23.077
180.42	1200.000
180.80	100.000
181.18	250.000
181.56	-87.500
181.94	1300.000
182.31	625.000
182.69	0.000
183.07	-600.000
183.45	1100.000
183.83	533.333
184.20	-214.286
184.58	-200.000
184.96	-375.000
185.34	131.250
185.72	-300.000
186.09	233.333
186.47	-200.000
186.85	-150.000
187.23	-37.500
187.61	-175.000
187.98	-250.000
188.36	-62.500
188.74	-175.000
189.12	1900.000
189.49	300.000
189.87	-50.000
190.25	425.000
190.63	-21.429
191.00	-188.889
191.38	540.000
191.76	6.667
192.14	560.000
192.51	-420.000
192.89	-766.667
193.27	0.000
193.65	-188.889
194.02	-228.571
194.40	466.667
194.78	0.000
195.15	-700.000
195.53	-136.364
195.91	-483.333
196.29	300.000
196.66	-666.667
197.04	1900.000
197.42	-150.000
197.79	13.333
198.17	-233.333
198.55	-400.000
198.92	-2200.000
199.30	175.000
199.68	-600.000
200.05	-133.333
200.43	-300.000
200.81	-1000.000
201.18	-91.667
201.56	142.857
201.94	-60.000
202.31	0.000
202.69	-100.000
203.07	-60.000
203.44	200.000
203.82	-266.667
204.19	-500.000
204.57	-225.000
204.95	-1500.000
205.32	-18.750
205.70	1300.000
206.08	-1500.000
206.45	-27.778
206.83	-750.000
207.20	-50.000
207.58	-633.333
207.96	-566.667
208.33	-250.000
208.71	-200.000
209.08	200.000
209.46	-242.857
209.84	1100.000
210.21	0.000
210.59	60.000
210.96	900.000
211.34	-300.000
211.71	66.667
212.09	500.000
212.46	900.000
212.84	-2100.000
213.22	633.333
213.59	200.000
213.97	-88.889
214.34	70.000
214.72	-60.000
215.09	-700.000
215.47	-33.333
215.84	20.000
216.22	-100.000
216.59	-33.333
216.97	-200.000
217.34	950.000
217.72	-214.286
218.09	-166.667
218.47	-157.143
218.84	157.143
219.22	-128.571
219.59	0.000
219.97	271.429
220.34	225.000
220.72	187.500
221.09	-53.846
221.47	0.000
221.84	700.000
222.22	-350.000
222.59	1600.000
222.97	-225.000
223.34	-650.000
223.72	-333.333
224.09	-42.857
224.46	-150.000
224.84	-21.429
225.21	-157.143
225.59	-45.455
225.96	25.000
226.34	-185.714
226.71	-255.556
227.08	25.000
227.46	1100.000
227.83	-114.286
228.21	-175.000
228.58	150.000
228.95	37.500
229.33	-600.000
229.70	-180.000
230.08	-1050.000
230.45	-66.667
230.82	-200.000
231.20	-1100.000
231.57	-600.000
231.95	2000.000
232.32	9.524
232.69	-122.222
233.07	-257.143
233.44	-1000.000
233.81	-100.000
234.19	22.222
234.56	0.000
234.93	18.750
235.31	-157.143
235.68	-92.857
236.05	-64.706
236.43	-131.818
236.80	-32.258
237.17	-8.333
237.55	-47.619
237.92	-68.182
238.29	-25.714
238.67	-14.706
239.04	-33.333
239.41	-12.903
239.79	-25.641
240.16	-11.905
240.53	-16.364
240.91	-25.641
241.28	-20.000
241.65	7.692
242.02	-22.951
242.40	-4.918
242.77	4.545
243.14	-11.864
243.51	-8.571
243.89	-3.797
244.26	-2.247
244.63	9.474
245.00	-3.158
245.38	9.322
245.75	15.044
246.12	16.800
246.49	9.449
246.87	-1.626
247.24	5.085
247.61	-1.695
247.98	4.225
248.36	4.895
248.73	11.392
249.10	-1.911
249.47	12.865
249.84	9.091
250.22	6.548
250.59	11.864
250.96	11.518
251.33	15.640
251.70	9.615
252.08	11.374
252.45	8.531
252.82	10.000
253.19	16.170
253.56	8.468
253.94	7.173
254.31	11.588
254.68	8.130
255.05	4.435
255.42	15.476
255.79	11.470
256.16	8.627
256.54	13.235
256.91	8.712
257.28	9.158
257.65	9.220
258.02	18.868
258.39	10.702
258.76	11.486
259.14	10.802
259.51	13.443
259.88	11.585
260.25	15.217
260.62	10.611
260.99	7.418
261.36	14.024
261.73	13.295
262.10	15.278
262.47	13.960
262.85	13.429
263.22	10.888
263.59	10.462
263.96	11.884
264.33	13.821
264.70	14.088
265.07	10.714
265.44	11.628
265.81	10.594
266.18	9.620
266.55	13.480
266.92	14.861
267.29	10.896
267.66	12.593
268.03	14.976
268.40	13.146
268.77	13.253
269.14	12.761
269.51	14.023
269.88	11.009
270.25	11.422
270.62	13.043
270.99	11.937
271.36	12.587
271.73	11.883
272.10	11.213
272.47	12.222
272.84	15.111
273.21	15.596
273.58	12.967
273.95	12.939
274.32	13.575
274.69	13.129
275.06	13.292
275.43	14.286
275.80	13.849
276.17	12.134
276.54	13.646
276.91	11.317
277.28	13.185
277.65	13.636
278.02	13.779
278.39	16.306
278.76	14.542
279.13	13.636
279.50	15.109
279.87	10.571
280.23	14.170
280.60	12.326
280.97	12.039
281.34	13.733
281.71	14.423
282.08	14.113
282.45	11.202
282.82	13.372
283.19	13.636
283.56	16.117
283.92	12.367
284.29	11.710
284.66	11.871
285.03	14.795
285.40	13.653
285.77	15.263
286.14	12.996
286.51	11.723
286.87	13.975
287.24	13.140
287.61	12.231
287.98	12.132
288.35	11.570
288.72	12.564
289.08	11.356
289.45	13.300
289.82	12.284
290.19	12.479
290.56	10.909
290.93	11.288
291.29	10.211
291.66	11.916
292.03	12.873
292.40	12.199
292.77	12.733
293.13	11.382
293.50	12.630
293.87	12.117
294.24	10.860
294.60	8.939
294.97	11.684
295.34	10.519
295.71	11.607
296.08	10.292
296.44	11.731
296.81	11.823
297.18	11.127
297.55	10.876
297.91	11.715
298.28	11.781
298.65	9.205
299.02	12.299
299.38	10.829
299.75	10.734
300.12	12.436
300.48	10.742
300.85	9.961
301.22	11.384
301.59	10.533
301.95	12.343
302.32	8.083
302.69	11.383
303.05	10.256
303.42	9.000
303.79	9.809
304.15	11.019
304.52	10.268
304.89	11.688
305.25	9.524
305.62	10.576
305.99	12.721
306.35	10.100
306.72	9.681
307.09	10.670
307.45	10.329
307.82	9.385
308.19	10.738
308.55	9.913
308.92	8.808
309.29	9.946
309.65	9.544
310.02	10.583
310.38	9.730
310.75	10.246
311.12	9.917
311.48	11.273
311.85	10.814
312.22	10.711
312.58	10.173
312.95	9.990
313.31	10.490
313.68	10.854
314.05	11.276
314.41	10.563
314.78	10.889
315.14	11.649
315.51	10.942
315.87	11.229
316.24	12.439
316.61	13.532
316.97	13.035
317.34	11.272
317.70	11.132
318.07	11.381
318.43	10.955
318.80	13.427
319.16	12.195
319.53	11.654
319.89	11.571
320.26	11.569
320.62	12.404
320.99	13.930
321.35	12.217
321.72	11.771
322.08	13.254
322.45	11.782
322.81	13.641
323.18	12.680
323.54	13.863
323.91	13.531
324.27	14.354
324.64	13.711
325.00	14.834
325.37	14.208
325.73	16.273
326.10	13.995
326.46	15.412
326.83	15.404
327.19	14.846
327.56	17.547
327.92	16.398
328.29	16.797
328.65	14.909
329.01	17.226
329.38	16.682
329.74	17.399
330.11	17.316
330.47	16.621
330.84	18.607
331.20	17.960
331.56	18.049
331.93	18.650
332.29	18.539
332.66	17.998
333.02	18.733
333.38	17.832
333.75	18.344
334.11	18.933
334.48	19.771
334.84	20.210
335.20	19.681
335.57	20.217
335.93	20.680
336.29	19.398
336.66	19.295
337.02	19.910
337.38	19.786
337.75	20.018
338.11	19.946
338.47	19.662
338.84	21.053
339.20	20.650
339.56	20.143
339.93	20.899
340.29	20.372
340.65	20.804
341.02	20.826
341.38	20.051
341.74	20.914
342.11	20.392
342.47	20.944
342.83	20.151
343.20	21.178
343.56	18.612
343.92	21.703
344.28	21.026
344.65	19.802
345.01	19.496
345.37	20.930
345.73	19.149
346.10	20.196
346.46	19.821
346.82	21.091
347.19	19.721
347.55	19.422
347.91	20.866
348.27	19.411
348.63	21.002
349.00	21.002
349.36	19.594
349.72	21.497
350.08	20.930
350.45	20.095
350.81	20.541
351.17	20.177
351.53	20.605
351.89	21.665
352.26	20.853
352.62	20.968
352.98	20.491
353.34	20.624
353.70	20.386
354.07	20.535
354.43	20.000
354.79	21.395
355.15	20.927
355.51	21.172
355.87	20.711
356.24	20.651
356.60	22.240
356.96	21.940
357.32	21.219
357.68	20.843
358.04	21.247
358.40	20.495
358.77	21.638
359.13	20.658
359.49	21.391
359.85	21.037
360.21	20.624
360.57	21.611
360.93	21.630
361.29	21.599
361.66	20.579
362.02	22.263
362.38	21.864
362.74	22.125
363.10	20.516
363.46	22.650
363.82	22.230
364.18	22.576
364.54	23.159
364.90	22.013
365.26	21.826
365.62	22.309
365.98	22.973
366.35	22.254
366.71	22.128
367.07	22.159
367.43	23.336
367.79	22.818
368.15	22.404
368.51	22.168
368.87	23.764
369.23	23.298
369.59	22.222
369.95	24.101
370.31	23.558
370.67	22.487
371.03	22.741
371.39	22.914
371.75	23.820
372.11	23.960
372.47	23.933
372.83	24.270
373.19	22.500
373.55	24.068
373.91	23.186
374.27	24.230
374.63	24.362
374.99	24.687
375.35	24.428
375.71	25.658
376.07	25.599
376.42	23.841
376.78	24.641
377.14	25.220
377.50	25.016
377.86	24.512
378.22	25.691
378.58	25.077
378.94	25.216
379.30	25.350
379.66	25.804
380.02	25.074
380.38	25.257
380.74	25.381
381.09	24.722
381.45	25.597
381.81	25.408
382.17	25.815
382.53	25.410
382.89	26.017
383.25	26.610
383.61	25.531
383.97	26.332
384.32	26.220
384.68	26.904
385.04	26.570
385.40	27.085
385.76	26.341
386.12	26.983
386.48	27.847
386.83	27.055
387.19	27.197
387.55	27.196
387.91	26.141
388.27	26.719
388.62	27.584
388.98	27.256
389.34	27.050
389.70	27.284
390.06	27.222
390.42	27.051
390.77	27.571
391.13	28.075
391.49	28.634
391.85	27.057
392.20	27.973
392.56	27.550
392.92	27.496
393.28	28.301
393.64	27.480
393.99	29.477
394.35	28.832
394.71	28.042
395.07	28.249
395.42	27.533
395.78	28.473
396.14	28.474
396.50	29.235
396.85	28.439
397.21	28.979
397.57	28.450
397.92	28.513
398.28	28.667
398.64	28.554
399.00	28.989
399.35	28.805
399.71	29.326
400.07	28.776
400.42	29.197
400.78	28.026
401.14	27.784
401.49	29.127
401.85	28.066
402.21	29.321
402.57	30.522
402.92	29.390
403.28	28.431
403.63	28.520
403.99	29.397
404.35	29.710
404.70	29.023
405.06	29.181
405.42	29.090
405.77	28.733
406.13	28.393
406.49	28.700
406.84	29.634
407.20	29.741
407.55	29.132
407.91	28.497
408.27	28.983
408.62	29.525
408.98	30.139
409.34	29.007
409.69	29.931
410.05	28.927
410.40	30.043
410.76	29.994
411.11	29.925
411.47	29.859
411.83	29.890
412.18	30.446
412.54	29.286
412.89	29.162
413.25	29.457
413.60	29.587
413.96	29.575
414.31	30.581
414.67	29.651
415.03	29.819
415.38	30.254
415.74	29.639
416.09	30.115
416.45	29.167
416.80	31.079
417.16	30.299
417.51	31.123
417.87	31.197
418.22	30.278
418.58	30.295
418.93	30.472
419.29	30.176
419.64	30.716
420.00	31.531
420.35	30.988
420.71	30.372
421.06	30.296
421.42	30.504
421.77	30.765
422.12	31.281
422.48	30.091
422.83	30.524
423.19	29.900
423.54	30.259
423.90	30.885
424.25	31.335
424.61	31.725
424.96	32.534
425.31	31.638
425.67	31.117
426.02	30.178
426.38	32.063
426.73	32.028
427.09	31.679
427.44	31.477
427.79	31.744
428.15	31.598
428.50	32.199
428.85	31.355
429.21	31.489
429.56	31.563
429.92	31.112
430.27	31.356
430.62	32.079
430.98	31.155
431.33	31.057
431.68	32.601
432.04	33.016
432.39	32.764
432.74	32.434
433.10	32.189
433.45	32.355
433.80	32.251
434.16	33.584
434.51	33.589
434.86	34.036
435.22	32.572
435.57	32.987
435.92	33.177
436.28	32.878
436.63	33.183
436.98	32.474
437.34	32.428
437.69	32.847
438.04	33.919
438.39	33.213
438.75	32.945
439.10	33.093
439.45	33.072
439.81	34.759
440.16	33.333
440.51	34.059
440.86	33.661
441.22	33.720
441.57	33.632
441.92	34.066
442.27	34.794
442.63	34.281
442.98	33.916
443.33	33.004
443.68	34.080
444.03	33.939
444.39	34.312
444.74	34.747
445.09	34.101
445.44	34.890
445.79	34.727
446.15	34.502
446.50	34.077
446.85	34.684
447.20	35.189
447.55	35.028
447.91	35.261
448.26	34.804
448.61	34.805
448.96	34.958
449.31	35.457
449.66	34.803
450.02	35.235
450.37	35.188
450.72	34.576
451.07	35.135
451.42	34.634
451.77	36.146
452.12	35.936
452.47	35.139
452.83	35.294
453.18	34.915
453.53	36.132
453.88	35.945
454.23	33.918
454.58	36.793
454.93	36.398
455.28	35.628
455.63	36.302
455.98	35.723
456.34	35.197
456.69	34.959
457.04	35.771
457.39	34.868
457.74	35.558
458.09	35.209
458.44	36.490
458.79	36.211
459.14	36.052
459.49	36.412
459.84	35.750
460.19	35.561
460.54	35.753
460.89	34.978
461.24	36.126
461.59	35.698
461.94	36.219
462.29	36.689
462.64	36.759
462.99	36.479
463.34	36.192
463.69	36.768
464.04	35.032
464.39	35.185
464.74	36.702
465.09	36.140
465.44	36.323
465.79	36.605
466.14	37.284
466.49	36.269
466.84	35.774
467.19	37.531
467.54	35.823
467.89	37.485
468.24	35.748
468.59	36.477
468.94	38.457
469.29	37.297
469.64	36.658
469.99	37.610
470.34	38.343
470.68	38.735
471.03	37.371
471.38	37.292
471.73	38.462
472.08	36.747
472.43	38.288
472.78	36.867
473.13	36.978
473.48	37.396
473.83	37.593
474.17	38.408
474.52	38.427
474.87	38.811
475.22	37.168
475.57	37.722
475.92	38.283
476.27	37.200
476.61	36.901
476.96	37.451
477.31	38.698
477.66	37.078
478.01	37.709
478.36	38.240
478.70	38.601
479.05	37.588
479.40	38.083
479.75	38.481
480.10	37.550
480.45	37.621
480.79	38.549
481.14	38.334
481.49	38.141
481.84	38.326
482.19	38.054
482.53	38.258
482.88	37.921
483.23	38.873
483.58	38.760
483.92	38.079
484.27	37.749
484.62	38.013
484.97	36.984
485.31	36.288
485.66	35.122
486.01	36.085
486.36	37.007
486.70	37.634
487.05	37.363
487.40	37.366
487.75	37.282
488.09	37.523
488.44	37.754
488.79	37.602
489.13	37.543
489.48	38.744
489.83	39.432
490.17	37.745
490.52	39.447
490.87	38.522
491.22	38.954
491.56	38.472
491.91	39.456
492.26	38.585
492.60	39.486
492.95	38.458
493.30	38.542
493.64	38.505
493.99	38.862
494.34	40.190
494.68	38.811
495.03	39.436
495.37	40.069
495.72	39.686
496.07	40.028
496.41	40.204
496.76	39.863
497.11	39.190
497.45	39.176
497.80	38.719
498.14	40.226
498.49	39.427
498.84	38.495
499.18	40.205
499.53	38.821
499.87	38.465
500.22	39.853
500.56	39.320
500.91	39.360
501.26	40.417
501.60	38.950
501.95	40.145
502.29	38.829
502.64	38.991
502.98	39.866
503.33	39.709
503.67	39.895
504.02	39.450
504.36	40.441
504.71	39.260
505.06	39.241
505.40	40.768
505.75	39.990
506.09	41.608
506.44	40.351
506.78	40.191
507.13	41.246
507.47	41.836
507.82	41.249
508.16	41.347
508.51	41.577
508.85	41.977
509.19	41.549
509.54	42.336
509.88	41.383
510.23	40.776
510.57	41.799
510.92	43.448
511.26	41.414
511.61	41.739
511.95	42.134
512.30	41.946
512.64	42.014
512.98	43.179
513.33	43.053
513.67	42.769
514.02	43.177
514.36	42.715
514.70	43.067
515.05	43.625
515.39	43.195
515.74	44.444
516.08	43.689
516.42	43.456
516.77	43.963
517.11	43.593
517.46	46.053
517.80	45.247
518.14	44.263
518.49	44.830
518.83	44.866
519.17	44.583
519.52	43.725
519.86	45.400
520.20	46.210
520.55	44.431
520.89	46.024
521.23	45.360
521.58	44.577
521.92	46.105
522.26	45.714
522.61	45.881
522.95	45.629
523.29	46.395
523.64	44.847
523.98	47.549
524.32	47.077
524.66	46.211
525.01	45.665
525.35	46.907
525.69	45.608
526.04	46.606
526.38	48.186
526.72	46.488
527.06	46.940
527.41	46.733
527.75	46.205
528.09	47.055
528.43	47.082
528.78	47.111
529.12	47.823
529.46	47.229
529.80	48.031
530.15	47.457
530.49	47.025
530.83	48.527
531.17	48.148
531.51	46.818
531.86	46.939
532.20	47.301
532.54	48.463
532.88	46.904
533.22	48.128
533.57	47.324
533.91	46.255
534.25	47.769
534.59	47.595
534.93	46.857
535.27	48.710
535.62	46.931
535.96	46.994
536.30	46.662
536.64	47.344
536.98	49.223
537.32	48.376
537.66	47.522
538.01	47.423
538.35	47.500
538.69	46.658
539.03	46.919
539.37	47.438
539.71	46.031
540.05	47.978
540.39	48.269
540.73	48.791
541.07	48.702
541.42	47.265
541.76	46.645
542.10	46.995
542.44	46.835
542.78	47.422
543.12	47.251
543.46	46.918
543.80	47.224
544.14	48.422
544.48	47.835
544.82	48.444
545.16	49.229
545.50	47.510
545.84	48.122
546.18	47.503
546.52	48.649
546.86	48.219
547.20	47.398
547.54	47.658
547.88	47.976
548.22	45.216
548.56	46.560
548.90	48.315
549.24	48.073
549.58	48.553
549.92	48.763
550.26	48.194
550.60	47.582
550.94	49.854
551.28	48.608
551.62	49.114
551.96	48.480
552.30	47.735
552.64	47.361
552.98	48.984
553.32	48.701
553.66	49.243
554.00	48.756
554.34	48.159
554.68	48.246
555.02	47.612
555.36	48.167
555.69	48.424
556.03	48.702
556.37	49.502
556.71	48.318
557.05	48.928
557.39	47.958
557.73	47.702
558.07	51.394
558.41	48.467
558.75	49.734
559.08	48.249
559.42	48.851
559.76	48.850
560.10	49.366
560.44	48.483
560.78	47.947
561.12	48.378
561.45	47.466
561.79	49.617
562.13	48.387
562.47	47.339
562.81	49.293
563.15	48.286
563.48	48.030
563.82	49.290
564.16	48.614
564.50	48.656
564.84	48.743
565.17	48.143
565.51	48.501
565.85	49.358
566.19	50.066
566.52	49.380
566.86	48.483
567.20	48.729
567.54	48.435
567.88	46.454
568.21	48.098
568.55	45.493
568.89	45.229
569.23	45.720
569.56	44.094
569.90	45.240
570.24	44.231
570.57	44.007
570.91	43.795
571.25	43.872
571.59	44.646
571.92	43.393
572.26	44.248
572.60	43.096
572.93	43.047
573.27	43.140
573.61	42.787
573.95	43.161
574.28	42.387
574.62	43.289
574.96	42.772
575.29	42.251
575.63	42.633
575.97	41.909
576.30	42.614
576.64	43.055
576.98	42.473
577.31	42.551
577.65	42.764
577.98	41.291
578.32	42.202
578.66	42.251
578.99	42.680
579.33	42.502
579.67	42.810
580.00	42.212
580.34	43.126
580.67	42.903
581.01	41.316
581.35	42.584
581.68	42.176
582.02	42.023
582.35	42.361
582.69	43.027
583.02	43.435
583.36	42.541
583.70	42.345
584.03	43.696
584.37	43.545
584.70	43.167
585.04	42.278
585.37	42.387
585.71	42.574
586.04	42.857
586.38	42.956
586.72	43.123
587.05	43.217
587.39	42.611
587.72	42.766
588.06	43.631
588.39	43.008
588.73	43.543
589.06	44.150
589.40	45.551
589.73	43.909
590.07	44.355
590.40	43.469
590.73	44.782
591.07	44.795
591.40	45.407
591.74	45.135
592.07	44.775
592.41	44.841
592.74	44.812
593.08	43.872
593.41	43.783
593.75	43.060
594.08	44.213
594.41	45.065
594.75	44.281
595.08	44.887
595.42	44.906
595.75	43.697
596.09	44.315
596.42	45.540
596.75	43.855
597.09	46.438
597.42	45.701
597.75	44.951
598.09	45.459
598.42	45.338
598.76	44.767
599.09	44.120
599.42	44.521
599.76	44.432
600.09	45.115
600.42	44.284
600.76	44.520
601.09	44.398
601.42	44.717
601.76	44.743
602.09	44.376
602.42	45.267
602.76	44.454
603.09	44.718
603.42	45.447
603.76	45.592
604.09	44.333
604.42	43.963
604.76	44.658
605.09	45.027
605.42	44.725
605.75	44.718
606.09	44.541
606.42	44.533
606.75	44.783
607.09	45.126
607.42	44.058
607.75	45.210
608.08	45.865
608.42	45.270
608.75	44.533
609.08	45.738
609.41	46.338
609.75	44.271
610.08	45.441
610.41	45.301
610.74	46.905
611.07	45.842
611.41	45.890
611.74	45.656
612.07	47.530
612.40	46.482
612.73	45.288
613.07	46.615
613.40	47.345
613.73	46.485
614.06	46.568
614.39	48.253
614.72	45.810
615.06	44.891
615.39	45.469
615.72	45.573
616.05	45.500
616.38	47.940
616.71	46.607
617.05	47.226
617.38	47.307
617.71	46.683
618.04	47.329
618.37	47.799
618.70	48.435
619.03	47.461
619.36	47.992
619.69	47.164
620.03	46.970
620.36	48.312
620.69	48.600
621.02	49.391
621.35	49.677
621.68	48.689
622.01	50.485
622.34	47.904
622.67	50.234
623.00	48.738
623.33	49.328
623.66	48.966
623.99	48.872
624.32	48.214
624.65	49.522
624.99	50.037
625.32	48.653
625.65	49.184
625.98	50.548
626.31	49.511
626.64	49.874
626.97	52.312
627.30	50.553
627.63	50.864
627.96	51.001
628.29	52.206
628.62	51.289
628.95	52.461
629.28	51.598
629.61	51.816
629.94	51.229
630.26	52.386
630.59	53.568
630.92	51.251
631.25	52.823
631.58	52.169
631.91	51.489
632.24	54.778
632.57	54.000
632.90	54.483
633.23	52.804
633.56	53.333
633.89	52.948
634.22	52.893
634.55	56.490
634.88	51.753
635.20	54.057
635.53	54.580
635.86	52.393
636.19	54.212
636.52	53.524
636.85	53.670
637.18	53.750
637.51	55.019
637.83	56.059
638.16	55.789
638.49	57.793
638.82	52.510
639.15	55.512
639.48	54.734
639.81	56.846
640.13	53.243
640.46	56.125
640.79	54.202
641.12	55.148
641.45	57.245
641.77	57.036
642.10	55.136
642.43	56.297
642.76	54.803
643.09	55.397
643.41	60.000
643.74	54.849
644.07	55.850
644.40	56.564
644.73	58.746
645.05	56.594
645.38	56.457
645.71	58.763
646.04	58.655
646.36	56.719
646.69	59.862
647.02	57.942
647.35	59.928
647.67	58.942
648.00	57.469
648.33	59.528
648.66	56.290
648.98	54.459
649.31	55.077
649.64	57.031
649.96	56.044
650.29	55.410
650.62	56.627
650.94	55.312
651.27	60.139
651.60	56.228
651.92	56.849
652.25	54.424
652.58	58.603
652.90	55.056
653.23	56.290
653.56	55.686
653.88	55.574
654.21	58.054
654.54	56.146
654.86	56.180
655.19	54.011
655.52	49.055
655.84	43.198
656.17	46.093
656.49	61.481
656.82	63.645
657.15	47.883
657.47	35.767
657.80	27.597
658.13	31.649
658.45	42.701
658.78	42.959
659.10	43.113
659.43	42.774
659.75	43.942
660.08	44.740
660.41	45.289
660.73	49.945
661.06	54.493
661.38	57.857
661.71	55.449
662.03	58.468
662.36	60.128
662.68	56.329
663.01	59.236
663.33	60.998
663.66	59.227
663.98	58.705
664.31	61.074
664.63	57.522
664.96	59.002
665.28	59.653
665.61	57.928
665.93	60.082
666.26	59.109
666.58	58.628
666.91	59.688
667.23	57.675
667.56	59.410
667.88	58.824
668.21	56.912
668.53	60.280
668.86	59.353
669.18	58.447
669.50	59.579
669.83	58.394
670.15	61.211
670.48	62.850
670.80	58.314
671.13	58.691
671.45	58.784
671.77	56.103
672.10	55.424
672.42	55.904
672.75	55.455
673.07	52.613
673.39	55.373
673.72	57.480
674.04	59.236
674.37	56.907
674.69	56.148
675.01	55.957
675.34	57.267
675.66	60.475
675.98	59.251
676.31	56.787
676.63	58.391
676.95	57.965
677.28	59.629
677.60	59.729
677.92	59.471
678.25	58.643
678.57	60.905
678.89	58.910
679.22	56.184
679.54	55.819
679.86	54.000
680.18	54.183
680.51	53.445
680.83	54.476
681.15	54.721
681.48	61.258
681.80	54.032
682.12	57.344
682.44	56.582
682.77	55.844
683.09	55.556
683.41	58.407
683.73	56.393
684.06	56.129
684.38	56.276
684.70	59.465
685.02	57.283
685.34	55.361
685.67	54.545
685.99	54.442
686.31	57.451
686.63	51.596
686.96	52.126
687.28	54.913
687.60	57.031
687.92	51.362
688.24	55.709
688.56	52.705
688.89	53.846
689.21	56.893
689.53	57.701
689.85	57.684
690.17	57.399
690.49	58.199
690.82	56.627
691.14	57.783
691.46	55.876
691.78	57.930
692.10	53.178
692.42	53.556
692.74	57.940
693.06	54.831
693.39	54.810
693.71	52.144
694.03	53.780
694.35	54.176
694.67	55.319
694.99	56.777
695.31	61.735
695.63	56.122
695.95	54.094
696.27	56.858
696.59	57.754
696.91	58.989
697.23	55.729
697.56	56.010
697.88	55.631
698.20	51.606
698.52	53.139
698.84	58.252
699.16	53.810
699.48	55.000
699.80	54.135
700.12	56.927
700.44	57.821
700.76	58.892
701.08	56.977
701.40	59.517
701.72	58.025
702.04	64.423
702.36	60.542
702.68	56.587
703.00	57.391
703.32	58.166
703.64	58.529
703.96	59.012
704.28	55.917
704.60	59.494
704.91	58.413
705.23	59.871
705.55	63.176
705.87	59.044
706.19	56.597
706.51	57.292
706.83	61.311
707.15	54.777
707.47	58.678
707.79	53.608
708.11	52.926
708.43	53.367
708.74	53.766
709.06	57.103
709.38	53.161
709.70	53.437
710.02	60.736
710.34	56.436
710.66	54.286
710.98	56.782
711.29	55.484
711.61	54.952
711.93	56.721
712.25	56.146
712.57	51.916
712.89	61.871
713.20	59.107
713.52	59.328
713.84	52.669
714.16	55.738
714.48	57.143
714.80	56.615
715.11	55.043
715.43	59.337
715.75	55.140
716.07	53.443
716.39	55.184
716.70	58.188
717.02	58.148
717.34	56.870
717.66	66.390
717.97	54.918
718.29	60.084
718.61	57.937
718.93	55.914
719.24	50.000
719.56	55.094
719.88	57.091
720.20	55.056
720.51	58.647
720.83	57.430
721.15	59.016
721.46	56.863
721.78	53.257
722.10	56.000
722.42	57.438
722.73	54.183
723.05	61.044
723.37	57.255
723.68	53.036
724.00	57.724
724.32	58.848
724.63	55.187
724.95	53.719
725.27	51.316
725.58	61.207
725.90	55.952
726.22	56.089
726.53	53.612
726.85	54.510
727.16	57.519
727.48	57.308
727.80	50.000
728.11	54.622
728.43	57.438
728.74	53.906
729.06	54.924
729.38	54.086
729.69	47.638
730.01	58.661
730.32	58.964
730.64	54.579
730.96	55.970
731.27	54.643
731.59	54.019
731.90	46.933
732.22	51.534
732.53	57.285
732.85	53.020
733.16	50.362
733.48	49.826
733.80	51.246
734.11	53.793
734.43	52.721
734.74	51.335
735.06	55.486
735.37	51.376
735.69	51.613
736.00	51.515
736.32	51.656
736.63	47.586
736.95	49.638
737.26	51.987
737.58	55.036
737.89	54.839
738.21	51.504
738.52	55.000
738.83	48.047
739.15	55.983
739.46	58.871
739.78	53.497
740.09	49.301
740.41	53.846
740.72	54.015
741.04	51.587
741.35	54.978
741.66	52.315
741.98	51.429
742.29	53.991
742.61	64.706
742.92	56.542
743.23	54.386
743.55	53.153
743.86	57.333
744.18	54.286
744.49	57.143
744.80	58.883
745.12	58.763
745.43	60.804
745.74	51.942
746.06	52.683
746.37	53.304
746.68	60.697
747.00	62.827
747.31	48.077
747.62	52.995
747.94	54.148
748.25	53.953
748.56	54.286
748.88	53.261
749.19	55.869
749.50	65.196
749.82	58.222
750.13	59.031
750.44	56.098
750.75	54.400
751.07	54.286
751.38	53.506
751.69	50.763
752.01	53.077
752.32	48.638
752.63	53.077
752.94	54.365
753.26	50.870
753.57	58.929
753.88	57.759
754.19	51.452
754.51	52.344
754.82	54.545
755.13	54.733
755.44	57.025
755.75	55.556
756.07	49.799
756.38	51.953
756.69	54.874
757.00	52.613
757.31	53.356
757.63	51.090
757.94	49.133
758.25	49.709
758.56	56.334
758.87	52.841
759.18	47.333
759.50	54.093
759.81	47.810
760.12	49.324
760.43	50.809
760.74	50.625
761.05	51.124
761.36	50.599
761.67	46.154
761.99	46.452
762.30	55.435
762.61	47.170
762.92	58.296
763.23	58.294
763.54	54.222
763.85	55.696
764.16	49.796
764.47	51.695
764.78	53.933
765.10	49.281
765.41	46.774
765.72	51.572
766.03	46.996
766.34	46.617
766.65	52.227
766.96	50.500
767.27	54.167
767.58	61.047
767.89	45.806
768.20	55.215
768.51	50.273
768.82	58.919
769.13	50.000
769.44	50.877
769.75	53.247
770.06	55.963
770.37	53.991
770.68	48.958
770.99	54.950
771.30	54.369
771.61	50.463
771.92	46.320
772.23	51.869
772.54	50.000
772.85	48.521
773.16	59.146
773.47	54.819
773.78	54.945
774.09	52.000
774.39	53.704
774.70	52.349
775.01	54.348
775.32	47.761
775.63	56.198
775.94	55.639
776.25	48.571
776.56	60.656
776.87	69.027
777.18	60.177
777.48	59.091
777.79	48.696
778.10	43.119
778.41	44.068
778.72	53.719
779.03	47.761
779.34	55.639
779.65	46.405
779.95	52.174
780.26	48.299
780.57	53.448
780.88	53.704
781.19	55.556
781.50	47.200
781.80	49.020
782.11	46.795
782.42	51.205
782.73	50.365
783.04	43.919
783.34	53.788
783.65	53.488
783.96	52.033
784.27	52.137
784.57	56.911
784.88	45.528
785.19	52.632
785.50	43.299
785.81	51.429
786.11	42.157
786.42	49.091
786.73	50.450
787.04	48.515
787.34	53.333
787.65	55.238
787.96	57.843
788.26	55.856
788.57	49.194
788.88	44.531
789.19	41.026
789.49	45.378
789.80	45.299
790.11	42.478
790.41	47.475
790.72	47.170
791.03	51.389
791.33	36.842
791.64	49.462
791.95	36.000
792.25	51.429
792.56	53.659
792.87	47.959
793.17	42.105
793.48	43.243
793.79	39.437
794.09	53.165
794.40	53.191
794.70	50.467
795.01	36.842
795.32	33.636
795.62	49.107
795.93	38.144
796.23	40.659
796.54	51.579
796.85	46.575
797.15	26.389
797.46	52.055
797.76	50.704
798.07	38.750
798.37	52.941
798.68	57.143
798.99	51.429
799.29	46.053
799.60	58.333
799.90	31.944
800.21	45.312
800.51	36.508
800.82	49.180
801.12	40.351
801.43	40.845
801.73	52.542
802.04	40.984
802.34	45.455
802.65	26.923
802.95	50.000
803.26	5.000
803.56	44.231
803.87	55.263
804.17	64.516
804.48	44.615
804.78	56.410
805.09	25.581
805.39	34.375
805.70	30.189
806.00	70.175
806.30	41.892
806.61	57.353
806.91	40.741
807.22	36.000
807.52	47.761
807.83	51.613
808.13	31.746
808.43	41.818
808.74	48.485
809.04	49.057
809.35	49.315
809.65	38.596
809.95	38.235
810.26	56.863
810.56	44.000
810.86	71.429
811.17	34.286
811.47	26.923
811.77	48.387
812.08	13.158
812.38	50.000
812.69	19.565
812.99	22.581
813.29	11.905
813.59	0.000
813.90	27.660
814.20	6.977
814.50	22.917
814.81	41.667
815.11	36.585
815.41	70.000
815.72	54.286
816.02	30.556
816.32	61.538
816.62	59.459
816.93	26.471
817.23	32.609
817.53	47.059
817.84	38.235
818.14	37.500
818.44	27.586
818.74	22.581
819.04	40.741
819.35	26.667
819.65	40.000
819.95	53.333
820.25	28.000
820.56	36.842
820.86	17.500
821.16	42.553
821.46	39.655
821.76	2.564
822.07	30.000
822.37	30.233
822.67	13.333
822.97	10.811
823.27	56.757
823.57	76.000
823.88	18.919
824.18	9.524
824.48	30.769
824.78	-100.000
825.08	60.870
825.38	45.833
825.69	70.833
825.99	-10.000
826.29	-8.108
826.59	2.941
826.89	68.000
827.19	17.143
827.49	52.632
827.79	9.375
828.09	23.333
828.39	69.565
828.70	-10.345
829.00	-3.448
829.30	27.778
829.60	37.500
829.90	44.444
830.20	0.000
830.50	-4.762
830.80	14.286
831.10	0.000
831.40	0.000
831.70	11.765
832.00	8.333
832.30	52.632
832.60	-43.750
832.90	-8.333
833.20	29.412
833.50	-93.333
833.80	66.667
834.10	-5.000
834.40	37.500
834.70	27.778
835.00	-26.923
835.30	16.667
835.60	51.724
835.90	38.889
836.20	-9.091
836.50	-25.000
836.80	34.286
837.10	22.857
837.40	-52.941
837.70	0.000
838.00	41.667
838.30	25.000
838.60	-33.333
838.90	15.000
839.19	4.348
839.49	13.043
839.79	-16.667
840.09	-13.043
840.39	-68.182
840.69	-37.500
840.99	31.579
841.29	6.250
841.59	92.857
841.88	27.778
842.18	-4.167
842.48	17.647
842.78	17.241
843.08	28.571
843.38	0.000
843.68	-100.000
843.97	-7.692
844.27	-54.545
844.57	-200.000
844.87	0.000
845.17	-180.000
845.47	-21.429
845.76	0.000
846.06	0.000
846.36	-200.000
846.66	-80.000
846.96	-36.842
847.25	25.000
847.55	-125.000
847.85	40.000
848.15	-70.000
848.44	53.846
848.74	-31.579
849.04	400.000
849.34	-122.222
849.63	-84.211
849.93	0.000
850.23	-25.000
850.53	9.524
850.82	24.000
851.12	-26.316
851.42	-500.000
851.71	-57.143
852.01	-25.000
852.31	-29.412
852.61	0.000
852.90	14.286
853.20	-66.667
853.50	-16.667
853.79	-42.105
854.09	-33.333
854.39	10.714
854.68	-21.739
854.98	-208.333
855.28	6.897
855.57	-25.000
855.87	15.000
856.17	-60.000
856.46	10.345
856.76	-13.333
857.05	-11.765
857.35	-92.308
857.65	0.000
857.94	14.815
858.24	-114.286
858.53	7.143
858.83	-16.667
859.13	-11.111
859.42	0.000
859.72	-25.000
860.01	-233.333
860.31	37.500
860.60	-260.000
860.90	-77.778
861.20	-187.500
861.49	-142.857
861.79	11.765
862.08	-500.000
862.38	-75.000
862.67	-61.538
862.97	-35.294
863.26	70.000
863.56	17.647
863.85	233.333
864.15	-90.000
864.44	-100.000
864.74	45.000
865.03	-212.500
865.33	-233.333
865.62	0.000
865.92	-425.000
866.21	-57.143
866.51	-33.333
866.80	-1200.000
867.10	-633.333
867.39	-41.176
867.69	39.130
867.98	-85.714
868.27	-240.000
868.57	-112.500
868.86	-136.364
869.16	17.647
869.45	-33.333
869.75	-128.571
870.04	700.000
870.33	-91.667
870.63	-80.000
870.92	-111.111
871.22	-50.000
871.51	-136.364
871.80	33.333
872.10	10.000
>>>>>End Processed Spectral Data<<<<<
