SpectraSuite Data File
++++++++++++++++++++++++++++++++++++
Date: Sat May 16 11:20:25 PDT 2015
User: schluterlab
Dark Spectrum Present: Yes
Reference Spectrum Present: Yes
Number of Sampled Component Spectra: 1
Spectrometers: USB2E3373
Integration Time (usec): 3000 (USB2E3373)
Spectra Averaged: 3 (USB2E3373)
Boxcar Smoothing: 0 (USB2E3373)
Correct for Electrical Dark: No (USB2E3373)
Strobe/Lamp Enabled: No (USB2E3373)
Correct for Detector Non-linearity: No (USB2E3373)
Correct for Stray Light: No (USB2E3373)
Number of Pixels in Processed Spectrum: 2048
>>>>>Begin Processed Spectral Data<<<<<
178.53	0.000
178.91	73.333
179.29	633.333
179.67	-900.000
180.04	-69.231
180.42	1200.000
180.80	200.000
181.18	300.000
181.56	-75.000
181.94	1100.000
182.31	125.000
182.69	-15.385
183.07	-633.333
183.45	1300.000
183.83	400.000
184.20	-85.714
184.58	-37.500
184.96	-350.000
185.34	87.500
185.72	-375.000
186.09	200.000
186.47	-87.500
186.85	-250.000
187.23	-87.500
187.61	-200.000
187.98	-75.000
188.36	-325.000
188.74	-162.500
189.12	-400.000
189.49	342.857
189.87	-125.000
190.25	100.000
190.63	-100.000
191.00	-177.778
191.38	300.000
191.76	20.000
192.14	560.000
192.51	-140.000
192.89	-200.000
193.27	0.000
193.65	-88.889
194.02	-200.000
194.40	500.000
194.78	-120.000
195.15	-400.000
195.53	-118.182
195.91	-300.000
196.29	240.000
196.66	-466.667
197.04	2000.000
197.42	-400.000
197.79	53.333
198.17	-200.000
198.55	-750.000
198.92	0.000
199.30	262.500
199.68	-650.000
200.05	-77.778
200.43	-177.778
200.81	-1300.000
201.18	-100.000
201.56	114.286
201.94	-6.667
202.31	22.727
202.69	20.000
203.07	-40.000
203.44	433.333
203.82	-400.000
204.19	-225.000
204.57	-175.000
204.95	-1300.000
205.32	-56.250
205.70	1000.000
206.08	-2800.000
206.45	5.556
206.83	-1000.000
207.20	-650.000
207.58	-666.667
207.96	-633.333
208.33	-37.500
208.71	-77.778
209.08	210.000
209.46	-200.000
209.84	800.000
210.21	0.000
210.59	-10.000
210.96	-100.000
211.34	-216.667
211.71	-33.333
212.09	475.000
212.46	750.000
212.84	-1900.000
213.22	233.333
213.59	158.333
213.97	-11.111
214.34	60.000
214.72	-60.000
215.09	-233.333
215.47	-133.333
215.84	20.000
216.22	-50.000
216.59	-6.667
216.97	-375.000
217.34	400.000
217.72	-14.286
218.09	-383.333
218.47	-328.571
218.84	85.714
219.22	-42.857
219.59	0.000
219.97	328.571
220.34	325.000
220.72	187.500
221.09	-30.769
221.47	0.000
221.84	100.000
222.22	0.000
222.59	600.000
222.97	-237.500
223.34	-100.000
223.72	-266.667
224.09	-64.286
224.46	-250.000
224.84	21.429
225.21	-71.429
225.59	-81.818
225.96	-137.500
226.34	-128.571
226.71	-88.889
227.08	0.000
227.46	1900.000
227.83	-185.714
228.21	-87.500
228.58	200.000
228.95	-87.500
229.33	-800.000
229.70	-140.000
230.08	-400.000
230.45	-83.333
230.82	-150.000
231.20	-200.000
231.57	-450.000
231.95	900.000
232.32	52.381
232.69	-100.000
233.07	-128.571
233.44	-400.000
233.81	-73.333
234.19	-77.778
234.56	-18.750
234.93	25.000
235.31	-142.857
235.68	-135.714
236.05	-5.882
236.43	-18.182
236.80	-16.129
237.17	45.833
237.55	-4.762
237.92	-77.273
238.29	-5.714
238.67	-5.882
239.04	2.778
239.41	3.226
239.79	-41.026
240.16	-9.524
240.53	-14.545
240.91	15.385
241.28	16.364
241.65	27.692
242.02	18.033
242.40	-6.557
242.77	10.606
243.14	0.000
243.51	-1.429
243.89	-5.063
244.26	11.236
244.63	17.895
245.00	11.579
245.38	16.102
245.75	11.504
246.12	12.000
246.49	20.472
246.87	10.569
247.24	-2.542
247.61	8.475
247.98	16.197
248.36	7.692
248.73	10.759
249.10	10.191
249.47	15.789
249.84	10.227
250.22	2.976
250.59	10.734
250.96	18.325
251.33	16.588
251.70	13.462
252.08	17.536
252.45	14.692
252.82	18.095
253.19	14.043
253.56	14.113
253.94	17.300
254.31	12.017
254.68	14.228
255.05	13.306
255.42	15.476
255.79	13.978
256.16	20.000
256.54	16.176
256.91	13.258
257.28	15.018
257.65	12.411
258.02	17.925
258.39	16.054
258.76	14.527
259.14	12.346
259.51	15.082
259.88	15.244
260.25	18.944
260.62	14.469
260.99	11.573
261.36	18.598
261.73	16.763
262.10	17.778
262.47	14.530
262.85	17.429
263.22	18.625
263.59	14.462
263.96	15.072
264.33	17.073
264.70	17.403
265.07	15.659
265.44	15.245
265.81	15.245
266.18	14.177
266.55	16.667
266.92	15.617
267.29	16.949
267.66	15.309
268.03	17.874
268.40	15.493
268.77	18.554
269.14	15.081
269.51	17.011
269.88	14.220
270.25	13.753
270.62	17.620
270.99	13.964
271.36	16.317
271.73	14.798
272.10	17.162
272.47	13.778
272.84	15.556
273.21	17.202
273.58	14.725
273.95	16.667
274.32	15.158
274.69	21.007
275.06	16.769
275.43	15.179
275.80	16.497
276.17	13.389
276.54	17.719
276.91	14.403
277.28	14.604
277.65	14.050
278.02	16.701
278.39	16.896
278.76	14.940
279.13	16.601
279.50	15.905
279.87	15.433
280.23	15.789
280.60	15.507
280.97	14.175
281.34	17.215
281.71	16.731
282.08	14.315
282.45	13.442
282.82	17.829
283.19	16.727
283.56	17.582
283.92	16.431
284.29	17.100
284.66	13.489
285.03	15.152
285.40	16.052
285.77	17.544
286.14	16.426
286.51	14.565
286.87	17.241
287.24	15.358
287.61	17.025
287.98	14.211
288.35	16.529
288.72	15.110
289.08	14.407
289.45	14.815
289.82	13.322
290.19	15.435
290.56	14.711
290.93	13.990
291.29	13.776
291.66	14.654
292.03	17.268
292.40	14.157
292.77	15.528
293.13	15.122
293.50	13.819
293.87	14.110
294.24	14.630
294.60	13.636
294.97	13.657
295.34	15.111
295.71	12.500
296.08	13.057
296.44	12.160
296.81	14.815
297.18	13.380
297.55	14.972
297.91	14.226
298.28	11.507
298.65	14.505
299.02	16.043
299.38	14.840
299.75	15.082
300.12	13.846
300.48	14.322
300.85	13.106
301.22	14.748
301.59	14.434
301.95	15.743
302.32	12.647
302.69	13.586
303.05	14.408
303.42	12.875
303.79	13.876
304.15	13.033
304.52	13.652
304.89	13.577
305.25	13.919
305.62	12.926
305.99	14.605
306.35	14.206
306.72	13.440
307.09	14.302
307.45	14.642
307.82	14.413
308.19	13.870
308.55	12.963
308.92	13.749
309.29	14.703
309.65	13.574
310.02	15.443
310.38	14.054
310.75	13.627
311.12	14.773
311.48	15.658
311.85	15.139
312.22	14.315
312.58	17.192
312.95	16.208
313.31	14.685
313.68	16.382
314.05	17.013
314.41	15.795
314.78	16.484
315.14	17.769
315.51	16.819
315.87	17.425
316.24	17.881
316.61	18.426
316.97	18.806
317.34	17.148
317.70	17.811
318.07	19.216
318.43	19.569
318.80	20.376
319.16	19.137
319.53	19.737
319.89	18.909
320.26	20.686
320.62	20.865
320.99	21.990
321.35	19.803
321.72	22.518
322.08	23.541
322.45	23.267
322.81	23.055
323.18	24.592
323.54	24.214
323.91	24.930
324.27	25.760
324.64	27.514
325.00	27.574
325.37	27.421
325.73	30.096
326.10	28.432
326.46	29.335
326.83	30.383
327.19	30.192
327.56	33.220
327.92	33.645
328.29	32.987
328.65	33.091
329.01	34.894
329.38	33.274
329.74	36.264
330.11	35.449
330.47	34.151
330.84	33.822
331.20	35.469
331.56	35.005
331.93	35.524
332.29	36.621
332.66	35.031
333.02	35.385
333.38	35.842
333.75	36.509
334.11	34.756
334.48	36.275
334.84	36.833
335.20	35.461
335.57	36.282
335.93	37.153
336.29	37.290
336.66	36.035
337.02	36.757
337.38	35.651
337.75	37.313
338.11	37.299
338.47	37.544
338.84	37.024
339.20	36.819
339.56	37.790
339.93	37.654
340.29	37.733
340.65	37.675
341.02	36.341
341.38	37.321
341.74	36.918
342.11	38.737
342.47	37.167
342.83	37.364
343.20	37.746
343.56	36.571
343.92	37.145
344.28	37.426
344.65	37.459
345.01	37.731
345.37	37.625
345.73	36.989
346.10	35.895
346.46	35.662
346.82	36.087
347.19	37.469
347.55	36.998
347.91	38.583
348.27	37.391
348.63	37.237
349.00	38.584
349.36	35.129
349.72	39.729
350.08	38.011
350.45	36.958
350.81	37.580
351.17	38.103
351.53	36.516
351.89	37.672
352.26	36.977
352.62	38.095
352.98	37.975
353.34	38.209
353.70	37.838
354.07	38.316
354.43	38.577
354.79	37.084
355.15	38.179
355.51	39.062
355.87	37.233
356.24	37.411
356.60	39.484
356.96	37.644
357.32	39.113
357.68	37.625
358.04	37.952
358.40	37.123
358.77	38.640
359.13	37.184
359.49	38.322
359.85	37.729
360.21	39.269
360.57	37.952
360.93	39.185
361.29	39.611
361.66	37.500
362.02	38.462
362.38	38.958
362.74	40.513
363.10	39.670
363.46	40.100
363.82	38.703
364.18	39.653
364.54	40.672
364.90	39.064
365.26	40.371
365.62	40.128
365.98	39.474
366.35	39.930
366.71	39.958
367.07	38.885
367.43	40.426
367.79	40.344
368.15	39.616
368.51	39.790
368.87	41.071
369.23	40.070
369.59	40.347
369.95	39.394
370.31	40.858
370.67	39.913
371.03	39.577
371.39	40.170
371.75	40.200
372.11	41.679
372.47	40.709
372.83	41.029
373.19	42.929
373.55	41.098
373.91	41.394
374.27	41.068
374.63	40.097
374.99	41.099
375.35	40.915
375.71	41.323
376.07	40.999
376.42	40.331
376.78	40.980
377.14	41.831
377.50	42.424
377.86	40.442
378.22	42.525
378.58	41.013
378.94	41.492
379.30	41.987
379.66	42.380
380.02	41.533
380.38	41.873
380.74	41.794
381.09	41.652
381.45	41.468
381.81	41.682
382.17	41.980
382.53	40.851
382.89	41.746
383.25	42.444
383.61	41.450
383.97	43.111
384.32	43.492
384.68	42.140
385.04	42.210
385.40	42.544
385.76	42.073
386.12	42.786
386.48	44.307
386.83	41.840
387.19	43.276
387.55	42.883
387.91	42.442
388.27	41.556
388.62	42.188
388.98	43.065
389.34	42.350
389.70	42.692
390.06	42.324
390.42	44.295
390.77	42.524
391.13	43.789
391.49	43.231
391.85	42.830
392.20	42.658
392.56	42.272
392.92	42.442
393.28	42.997
393.64	43.776
393.99	44.677
394.35	43.370
394.71	42.372
395.07	43.503
395.42	42.610
395.78	42.740
396.14	43.489
396.50	43.242
396.85	43.183
397.21	42.467
397.57	44.012
397.92	42.389
398.28	43.444
398.64	42.951
399.00	43.596
399.35	43.123
399.71	43.322
400.07	43.821
400.42	44.891
400.78	41.920
401.14	43.952
401.49	42.689
401.85	43.258
402.21	43.027
402.57	42.961
402.92	43.738
403.28	42.831
403.63	43.379
403.99	42.511
404.35	41.787
404.70	42.774
405.06	42.849
405.42	42.066
405.77	41.686
406.13	42.930
406.49	42.780
406.84	43.191
407.20	41.991
407.55	43.255
407.91	41.904
408.27	43.382
408.62	42.333
408.98	42.147
409.34	42.901
409.69	42.344
410.05	41.480
410.40	41.937
410.76	43.509
411.11	41.708
411.47	42.199
411.83	43.765
412.18	41.708
412.54	42.770
412.89	42.892
413.25	42.090
413.60	42.345
413.96	42.391
414.31	42.997
414.67	41.968
415.03	41.656
415.38	42.485
415.74	44.330
416.09	41.432
416.45	41.468
416.80	42.848
417.16	42.591
417.51	43.270
417.87	42.201
418.22	43.300
418.58	42.940
418.93	42.918
419.29	42.033
419.64	42.965
420.00	43.742
420.35	43.643
420.71	44.238
421.06	44.260
421.42	44.087
421.77	44.054
422.12	45.048
422.48	44.361
422.83	44.021
423.19	44.265
423.54	45.187
423.90	45.344
424.25	44.683
424.61	46.019
424.96	45.875
425.31	46.506
425.67	44.642
426.02	44.980
426.38	46.521
426.73	46.756
427.09	46.691
427.44	46.307
427.79	46.105
428.15	46.918
428.50	46.862
428.85	47.302
429.21	47.482
429.56	46.615
429.92	46.994
430.27	47.807
430.62	46.865
430.98	47.569
431.33	47.279
431.68	48.472
432.04	48.349
432.39	48.718
432.74	48.022
433.10	48.509
433.45	47.956
433.80	49.104
434.16	48.146
434.51	49.808
434.86	49.151
435.22	48.497
435.57	48.409
435.92	48.593
436.28	49.021
436.63	48.276
436.98	48.339
437.34	49.262
437.69	49.125
438.04	50.652
438.39	50.963
438.75	49.069
439.10	49.417
439.45	49.246
439.81	50.181
440.16	49.972
440.51	49.471
440.86	49.219
441.22	49.751
441.57	49.947
441.92	48.798
442.27	50.920
442.63	50.000
442.98	49.266
443.33	50.357
443.68	50.078
444.03	50.000
444.39	49.780
444.74	50.551
445.09	50.987
445.44	50.647
445.79	51.147
446.15	51.807
446.50	50.517
446.85	49.820
447.20	49.489
447.55	50.718
447.91	51.713
448.26	49.274
448.61	50.368
448.96	50.700
449.31	50.620
449.66	51.746
450.02	50.526
450.37	51.014
450.72	49.944
451.07	51.603
451.42	50.682
451.77	51.706
452.12	51.788
452.47	50.630
452.83	50.262
453.18	52.056
453.53	50.746
453.88	51.555
454.23	51.330
454.58	52.393
454.93	51.134
455.28	51.625
455.63	51.290
455.98	51.988
456.34	50.318
456.69	51.157
457.04	51.875
457.39	50.359
457.74	51.447
458.09	51.334
458.44	51.270
458.79	51.065
459.14	51.055
459.49	51.332
459.84	51.714
460.19	50.298
460.54	51.845
460.89	50.224
461.24	51.123
461.59	52.696
461.94	52.323
462.29	52.114
462.64	52.701
462.99	52.544
463.34	50.574
463.69	52.545
464.04	50.967
464.39	51.075
464.74	51.005
465.09	50.752
465.44	51.889
465.79	51.607
466.14	52.129
466.49	51.353
466.84	52.821
467.19	53.117
467.54	51.392
467.89	52.589
468.24	51.603
468.59	52.467
468.94	53.569
469.29	50.747
469.64	52.426
469.99	52.802
470.34	52.572
470.68	52.907
471.03	52.787
471.38	51.875
471.73	53.147
472.08	51.740
472.43	53.153
472.78	51.733
473.13	51.292
473.48	51.691
473.83	53.226
474.17	51.656
474.52	54.092
474.87	51.166
475.22	50.973
475.57	50.611
475.92	51.080
476.27	50.400
476.61	51.211
476.96	52.040
477.31	52.153
477.66	51.300
478.01	52.566
478.36	50.602
478.70	52.162
479.05	51.163
479.40	51.036
479.75	51.529
480.10	51.488
480.45	50.822
480.79	51.678
481.14	52.283
481.49	51.791
481.84	51.410
482.19	51.804
482.53	52.367
482.88	50.119
483.23	51.549
483.58	51.758
483.92	51.457
484.27	50.820
484.62	50.410
484.97	50.429
485.31	48.736
485.66	47.822
486.01	47.941
486.36	49.384
486.70	50.863
487.05	48.991
487.40	49.733
487.75	49.214
488.09	49.537
488.44	50.203
488.79	50.265
489.13	50.894
489.48	51.223
489.83	51.528
490.17	48.977
490.52	52.174
490.87	50.115
491.22	50.677
491.56	50.741
491.91	51.813
492.26	50.802
492.60	51.047
492.95	51.214
493.30	50.596
493.64	50.353
493.99	51.338
494.34	52.000
494.68	51.732
495.03	52.008
495.37	50.590
495.72	51.179
496.07	51.056
496.41	51.969
496.76	51.507
497.11	50.777
497.45	51.580
497.80	50.125
498.14	51.965
498.49	50.075
498.84	50.485
499.18	52.388
499.53	50.999
499.87	50.772
500.22	50.882
500.56	50.425
500.91	50.345
501.26	51.820
501.60	50.794
501.95	51.739
502.29	50.354
502.64	51.014
502.98	50.791
503.33	50.846
503.67	51.054
504.02	49.976
504.36	50.441
504.71	51.621
505.06	50.974
505.40	51.447
505.75	50.864
506.09	50.556
506.44	50.927
506.78	50.527
507.13	50.618
507.47	50.965
507.82	51.420
508.16	50.984
508.51	50.644
508.85	50.569
509.19	50.340
509.54	51.004
509.88	51.809
510.23	50.629
510.57	50.899
510.92	50.698
511.26	50.186
511.61	50.486
511.95	50.000
512.30	51.402
512.64	51.141
512.98	50.990
513.33	50.741
513.67	50.642
514.02	50.671
514.36	51.080
514.70	51.500
515.05	51.115
515.39	50.173
515.74	51.658
516.08	50.778
516.42	50.368
516.77	52.282
517.11	50.515
517.46	52.333
517.80	52.407
518.14	51.087
518.49	52.062
518.83	50.920
519.17	50.681
519.52	50.202
519.86	51.135
520.20	51.528
520.55	52.185
520.89	50.595
521.23	52.198
521.58	49.906
521.92	52.565
522.26	51.556
522.61	50.380
522.95	49.840
523.29	50.408
523.64	49.906
523.98	50.414
524.32	50.911
524.66	50.000
525.01	51.317
525.35	51.353
525.69	50.488
526.04	50.849
526.38	51.750
526.72	47.893
527.06	50.716
527.41	50.627
527.75	49.241
528.09	50.695
528.43	50.951
528.78	50.251
529.12	50.896
529.46	50.902
529.80	50.161
530.15	50.161
530.49	50.259
530.83	49.967
531.17	49.832
531.51	49.632
531.86	50.889
532.20	50.405
532.54	50.602
532.88	50.198
533.22	49.532
533.57	48.760
533.91	48.876
534.25	48.649
534.59	48.032
534.93	47.915
535.27	48.647
535.62	48.721
535.96	49.257
536.30	49.084
536.64	48.672
536.98	50.071
537.32	48.652
537.66	47.658
538.01	48.935
538.35	49.189
538.69	47.995
539.03	48.274
539.37	47.106
539.71	48.099
540.05	48.869
540.39	50.277
540.73	48.860
541.07	48.292
541.42	48.751
541.76	46.910
542.10	48.211
542.44	47.768
542.78	48.100
543.12	48.201
543.46	47.055
543.80	46.221
544.14	46.340
544.48	46.785
544.82	47.361
545.16	47.686
545.50	45.559
545.84	46.801
546.18	47.226
546.52	48.364
546.86	48.362
547.20	47.679
547.54	46.556
547.88	47.180
548.22	45.806
548.56	46.426
548.90	45.957
549.24	45.971
549.58	46.577
549.92	47.633
550.26	48.555
550.60	46.515
550.94	46.131
551.28	47.404
551.62	46.529
551.96	45.369
552.30	45.226
552.64	46.165
552.98	46.741
553.32	47.186
553.66	47.080
554.00	46.269
554.34	46.426
554.68	46.784
555.02	47.178
555.36	46.082
555.69	46.203
556.03	46.526
556.37	46.373
556.71	46.671
557.05	45.824
557.39	47.142
557.73	47.484
558.07	47.023
558.41	45.475
558.75	46.768
559.08	45.603
559.42	46.631
559.76	46.319
560.10	46.682
560.44	45.448
560.78	45.929
561.12	45.480
561.45	45.479
561.79	45.854
562.13	44.600
562.47	45.448
562.81	44.625
563.15	45.206
563.48	44.506
563.82	44.895
564.16	44.151
564.50	44.019
564.84	43.981
565.17	42.838
565.51	42.568
565.85	45.707
566.19	44.796
566.52	42.922
566.86	43.805
567.20	43.705
567.54	42.115
567.88	42.434
568.21	42.058
568.55	42.789
568.89	41.451
569.23	41.509
569.56	40.311
569.90	40.362
570.24	40.474
570.57	39.824
570.91	38.728
571.25	39.624
571.59	39.931
571.92	38.899
572.26	38.107
572.60	38.598
572.93	38.154
573.27	38.780
573.61	37.224
573.95	37.892
574.28	37.519
574.62	38.358
574.96	37.762
575.29	37.754
575.63	37.244
575.97	37.136
576.30	37.435
576.64	37.232
576.98	36.303
577.31	37.044
577.65	36.972
577.98	36.101
578.32	36.876
578.66	36.812
578.99	36.804
579.33	36.750
579.67	36.850
580.00	36.706
580.34	36.448
580.67	37.019
581.01	35.763
581.35	36.125
581.68	35.725
582.02	36.460
582.35	36.053
582.69	36.305
583.02	36.914
583.36	36.320
583.70	36.380
584.03	36.907
584.37	36.834
584.70	36.611
585.04	36.253
585.37	35.895
585.71	35.970
586.04	36.221
586.38	36.060
586.72	36.950
587.05	36.534
587.39	36.302
587.72	36.315
588.06	36.534
588.39	36.343
588.73	36.995
589.06	37.212
589.40	37.479
589.73	36.473
590.07	36.453
590.40	37.048
590.73	37.065
591.07	37.664
591.40	37.998
591.74	37.489
592.07	37.387
592.41	37.240
592.74	36.972
593.08	36.320
593.41	36.382
593.75	35.641
594.08	37.168
594.41	36.303
594.75	36.769
595.08	36.880
595.42	36.525
595.75	36.126
596.09	36.477
596.42	37.152
596.75	36.912
597.09	37.622
597.42	35.967
597.75	36.537
598.09	36.512
598.42	36.191
598.76	36.130
599.09	35.556
599.42	35.102
599.76	35.674
600.09	35.611
600.42	35.321
600.76	35.895
601.09	35.473
601.42	34.982
601.76	35.748
602.09	35.256
602.42	35.679
602.76	35.355
603.09	35.605
603.42	35.697
603.76	35.740
604.09	36.444
604.42	34.804
604.76	35.281
605.09	36.166
605.42	35.550
605.75	35.489
606.09	35.118
606.42	34.855
606.75	36.067
607.09	35.245
607.42	34.331
607.75	35.364
608.08	35.201
608.42	34.674
608.75	35.234
609.08	35.412
609.41	35.326
609.75	34.812
610.08	34.853
610.41	35.566
610.74	35.638
611.07	35.700
611.41	34.997
611.74	35.938
612.07	36.788
612.40	35.341
612.73	34.518
613.07	34.287
613.40	35.851
613.73	35.095
614.06	34.871
614.39	35.908
614.72	35.642
615.06	34.185
615.39	34.238
615.72	34.438
616.05	33.683
616.38	35.577
616.71	34.174
617.05	35.163
617.38	35.294
617.71	34.828
618.04	35.652
618.37	35.849
618.70	35.658
619.03	35.613
619.36	35.377
619.69	36.683
620.03	35.468
620.36	35.654
620.69	35.750
621.02	36.225
621.35	36.210
621.68	37.459
622.01	36.650
622.34	36.102
622.67	36.406
623.00	35.731
623.33	36.567
623.66	35.672
623.99	35.489
624.32	35.193
624.65	34.658
624.99	36.594
625.32	35.030
625.65	34.887
625.98	34.977
626.31	36.134
626.64	35.314
626.97	36.387
627.30	35.830
627.63	34.456
627.96	36.989
628.29	36.121
628.62	37.154
628.95	38.976
629.28	37.406
629.61	36.997
629.94	37.524
630.26	38.668
630.59	37.487
630.92	37.838
631.25	36.593
631.58	37.566
631.91	37.021
632.24	37.333
632.57	38.222
632.90	38.966
633.23	38.201
633.56	38.129
633.89	36.910
634.22	36.954
634.55	36.659
634.88	37.485
635.20	37.828
635.53	38.041
635.86	35.894
636.19	38.706
636.52	34.886
636.85	36.221
637.18	35.625
637.51	38.290
637.83	37.284
638.16	38.158
638.49	38.345
638.82	35.393
639.15	36.965
639.48	34.760
639.81	37.621
640.13	39.054
640.46	37.464
640.79	36.134
641.12	37.800
641.45	37.159
641.77	37.126
642.10	37.613
642.43	37.026
642.76	37.795
643.09	37.302
643.41	38.413
643.74	40.859
644.07	38.846
644.40	37.763
644.73	37.459
645.05	35.726
645.38	38.576
645.71	39.863
646.04	37.311
646.36	36.300
646.69	37.543
647.02	39.892
647.35	38.989
647.67	36.131
648.00	39.016
648.33	39.966
648.66	36.613
648.98	38.535
649.31	35.538
649.64	37.500
649.96	37.834
650.29	37.705
650.62	36.317
650.94	36.425
651.27	39.168
651.60	35.986
651.92	37.329
652.25	35.058
652.58	36.286
652.90	35.313
653.23	35.484
653.56	35.786
653.88	33.934
654.21	35.906
654.54	36.047
654.86	36.758
655.19	34.957
655.52	32.200
655.84	27.702
656.17	29.549
656.49	40.026
656.82	41.508
657.15	31.486
657.47	23.585
657.80	17.887
658.13	20.647
658.45	28.329
658.78	28.054
659.10	28.194
659.43	28.230
659.75	28.757
660.08	29.687
660.41	29.438
660.73	32.123
661.06	33.913
661.38	36.250
661.71	33.652
662.03	34.879
662.36	37.313
662.68	35.021
663.01	38.004
663.33	37.415
663.66	38.412
663.98	35.714
664.31	35.794
664.63	36.283
664.96	33.839
665.28	37.310
665.61	35.518
665.93	36.214
666.26	36.032
666.58	34.719
666.91	36.748
667.23	35.965
667.56	34.921
667.88	38.688
668.21	35.945
668.53	37.383
668.86	37.182
669.18	32.877
669.50	34.346
669.83	38.443
670.15	37.668
670.48	36.916
670.80	35.991
671.13	35.892
671.45	31.982
671.77	34.261
672.10	33.333
672.42	35.240
672.75	32.727
673.07	31.712
673.39	32.240
673.72	36.614
674.04	32.696
674.37	30.928
674.69	35.656
675.01	32.979
675.34	34.056
675.66	36.501
675.98	34.141
676.31	35.747
676.63	34.713
676.95	31.637
677.28	33.875
677.60	34.615
677.92	36.123
678.25	35.449
678.57	33.745
678.89	31.656
679.22	33.962
679.54	34.911
679.86	31.000
680.18	32.890
680.51	29.981
680.83	31.810
681.15	31.985
681.48	31.643
681.80	31.048
682.12	30.785
682.44	31.238
682.77	30.952
683.09	31.866
683.41	33.186
683.73	29.452
684.06	32.258
684.38	33.891
684.70	32.305
685.02	30.512
685.34	32.554
685.67	31.439
685.99	31.947
686.31	32.675
686.63	28.723
686.96	31.793
687.28	30.636
687.60	31.641
687.92	28.794
688.24	31.299
688.56	31.864
688.89	30.342
689.21	33.042
689.53	31.954
689.85	28.062
690.17	29.372
690.49	32.102
690.82	31.807
691.14	30.660
691.46	32.151
691.78	33.480
692.10	31.780
692.42	29.778
692.74	30.687
693.06	32.360
693.39	27.069
693.71	30.248
694.03	30.238
694.35	28.217
694.67	32.624
694.99	30.691
695.31	34.184
695.63	27.806
695.95	28.288
696.27	30.673
696.59	33.957
696.91	29.213
697.23	29.688
697.56	31.490
697.88	30.180
698.20	27.409
698.52	28.251
698.84	30.340
699.16	30.714
699.48	31.750
699.80	32.581
700.12	30.479
700.44	28.492
700.76	30.904
701.08	31.105
701.40	30.514
701.72	32.407
702.04	33.333
702.36	34.036
702.68	30.240
703.00	29.275
703.32	27.507
703.64	30.588
703.96	33.721
704.28	32.544
704.60	25.316
704.91	26.984
705.23	28.155
705.55	27.365
705.87	29.693
706.19	28.472
706.51	30.903
706.83	31.148
707.15	28.662
707.47	30.028
707.79	28.866
708.11	25.700
708.43	30.923
708.74	26.753
709.06	29.805
709.38	25.575
709.70	31.562
710.02	33.129
710.34	29.043
710.66	24.762
710.98	27.760
711.29	26.774
711.61	29.393
711.93	27.213
712.25	33.555
712.57	31.707
712.89	31.655
713.20	34.708
713.52	26.493
713.84	27.402
714.16	25.246
714.48	26.984
714.80	27.692
715.11	26.225
715.43	30.120
715.75	28.037
716.07	25.902
716.39	27.090
716.70	27.526
717.02	27.778
717.34	27.863
717.66	33.195
717.97	28.279
718.29	27.311
718.61	32.143
718.93	26.882
719.24	25.735
719.56	26.792
719.88	28.000
720.20	27.715
720.51	30.827
720.83	34.137
721.15	27.459
721.46	28.627
721.78	26.820
722.10	26.400
722.42	29.752
722.73	26.295
723.05	29.317
723.37	27.843
723.68	27.126
724.00	30.488
724.32	24.280
724.63	25.726
724.95	26.860
725.27	27.193
725.58	24.569
725.90	25.794
726.22	29.520
726.53	25.856
726.85	22.745
727.16	25.940
727.48	25.000
727.80	25.820
728.11	23.529
728.43	27.273
728.74	24.609
729.06	27.273
729.38	25.292
729.69	20.866
730.01	27.165
730.32	24.701
730.64	27.473
730.96	27.239
731.27	24.286
731.59	24.437
731.90	28.834
732.22	24.847
732.53	29.139
732.85	23.826
733.16	24.638
733.48	23.693
733.80	22.064
734.11	22.759
734.43	26.871
734.74	25.519
735.06	23.511
735.37	25.994
735.69	20.000
736.00	20.875
736.32	27.152
736.63	21.379
736.95	25.725
737.26	24.503
737.58	20.863
737.89	29.749
738.21	23.308
738.52	29.231
738.83	26.953
739.15	25.214
739.46	27.419
739.78	25.175
740.09	23.427
740.41	21.329
740.72	25.912
741.04	23.810
741.35	24.675
741.66	28.241
741.98	23.333
742.29	23.005
742.61	24.599
742.92	31.776
743.23	24.561
743.55	24.775
743.86	30.667
744.18	20.952
744.49	30.542
744.80	27.411
745.12	28.866
745.43	24.623
745.74	24.272
746.06	26.341
746.37	29.075
746.68	25.373
747.00	31.414
747.31	26.923
747.62	18.894
747.94	24.454
748.25	24.186
748.56	23.810
748.88	23.370
749.19	24.883
749.50	28.431
749.82	26.667
750.13	27.313
750.44	26.829
750.75	26.800
751.07	27.143
751.38	22.140
751.69	20.992
752.01	26.538
752.32	16.342
752.63	20.000
752.94	23.016
753.26	20.000
753.57	22.768
753.88	19.828
754.19	22.822
754.51	21.484
754.82	20.158
755.13	23.868
755.44	23.554
755.75	22.222
756.07	14.859
756.38	19.141
756.69	23.466
757.00	19.512
757.31	25.168
757.63	22.741
757.94	19.075
758.25	18.895
758.56	24.798
758.87	21.023
759.18	21.333
759.50	22.420
759.81	17.518
760.12	20.946
760.43	23.948
760.74	23.750
761.05	22.191
761.36	24.551
761.67	21.302
761.99	18.065
762.30	23.188
762.61	25.283
762.92	26.009
763.23	25.118
763.54	25.778
763.85	24.473
764.16	24.082
764.47	25.424
764.78	26.592
765.10	26.619
765.41	19.032
765.72	21.384
766.03	16.254
766.34	22.180
766.65	23.482
766.96	14.500
767.27	27.083
767.58	22.093
767.89	21.935
768.20	22.699
768.51	25.137
768.82	20.541
769.13	20.500
769.44	19.298
769.75	21.212
770.06	25.229
770.37	21.127
770.68	19.792
770.99	25.743
771.30	17.961
771.61	23.611
771.92	19.913
772.23	23.364
772.54	21.277
772.85	17.160
773.16	20.732
773.47	19.880
773.78	29.121
774.09	21.333
774.39	18.519
774.70	18.121
775.01	15.217
775.32	22.388
775.63	23.967
775.94	24.812
776.25	23.571
776.56	22.131
776.87	27.434
777.18	24.779
777.48	21.818
777.79	11.304
778.10	26.606
778.41	17.797
778.72	18.182
779.03	22.388
779.34	24.060
779.65	18.954
779.95	26.087
780.26	14.966
780.57	5.172
780.88	18.519
781.19	16.162
781.50	20.800
781.80	18.301
782.11	17.949
782.42	25.301
782.73	13.139
783.04	22.297
783.34	9.848
783.65	18.605
783.96	22.764
784.27	19.658
784.57	20.325
784.88	19.512
785.19	23.684
785.50	5.155
785.81	7.619
786.11	24.510
786.42	14.545
786.73	9.910
787.04	22.772
787.34	14.286
787.65	14.286
787.96	10.784
788.26	19.820
788.57	26.613
788.88	20.312
789.19	3.419
789.49	13.445
789.80	20.513
790.11	20.354
790.41	13.131
790.72	14.151
791.03	1.389
791.33	18.421
791.64	23.656
791.95	24.000
792.25	14.286
792.56	15.854
792.87	28.571
793.17	21.053
793.48	2.703
793.79	8.451
794.09	1.266
794.40	17.021
794.70	7.477
795.01	7.895
795.32	7.273
795.62	6.250
795.93	2.062
796.23	14.286
796.54	27.368
796.85	0.000
797.15	-4.167
797.46	9.589
797.76	15.493
798.07	11.250
798.37	13.235
798.68	21.429
798.99	2.857
799.29	27.632
799.60	10.000
799.90	-1.389
800.21	-7.813
800.51	6.349
800.82	22.951
801.12	8.772
801.43	0.000
801.73	-5.085
802.04	32.787
802.34	-14.545
802.65	26.923
802.95	29.630
803.26	-12.500
803.56	-21.154
803.87	-2.632
804.17	19.355
804.48	21.538
804.78	-12.821
805.09	-6.977
805.39	-12.500
805.70	-20.755
806.00	31.579
806.30	6.757
806.61	29.412
806.91	24.691
807.22	21.333
807.52	2.985
807.83	6.452
808.13	-1.587
808.43	-1.818
808.74	18.182
809.04	18.868
809.35	12.329
809.65	14.035
809.95	10.294
810.26	17.647
810.56	-20.000
810.86	-2.041
811.17	11.429
811.47	3.846
811.77	9.677
812.08	-18.421
812.38	-19.048
812.69	-15.217
812.99	19.355
813.29	7.143
813.59	-51.852
813.90	-10.638
814.20	-18.605
814.50	8.333
814.81	5.000
815.11	-4.878
815.41	-40.000
815.72	0.000
816.02	-11.111
816.32	-5.128
816.62	24.324
816.93	-17.647
817.23	28.261
817.53	17.647
817.84	14.706
818.14	-31.250
818.44	-10.345
818.74	-12.903
819.04	-7.407
819.35	-13.333
819.65	-28.000
819.95	6.667
820.25	-28.000
820.56	-7.895
820.86	-17.500
821.16	0.000
821.46	5.172
821.76	-5.128
822.07	-37.500
822.37	11.628
822.67	-40.000
822.97	-10.811
823.27	-8.108
823.57	44.000
823.88	18.919
824.18	-61.905
824.48	-15.385
824.78	-146.154
825.08	-26.087
825.38	-33.333
825.69	-29.167
825.99	-45.000
826.29	-48.649
826.59	-23.529
826.89	44.000
827.19	-2.857
827.49	13.158
827.79	-6.250
828.09	-43.333
828.39	43.478
828.70	-27.586
829.00	6.897
829.30	2.778
829.60	56.250
829.90	-44.444
830.20	-19.231
830.50	-76.190
830.80	-60.714
831.10	5.128
831.40	-23.810
831.70	32.353
832.00	-4.167
832.30	-10.526
832.60	-12.500
832.90	-100.000
833.20	-47.059
833.50	-40.000
833.80	-40.000
834.10	-20.000
834.40	0.000
834.70	-50.000
835.00	19.231
835.30	-12.500
835.60	6.897
835.90	-50.000
836.20	-36.364
836.50	-191.667
836.80	17.143
837.10	8.571
837.40	-64.706
837.70	-172.727
838.00	-12.500
838.30	-25.000
838.60	-38.095
838.90	-40.000
839.19	-8.696
839.49	8.696
839.79	-33.333
840.09	-86.957
840.39	-45.455
840.69	-62.500
840.99	-15.789
841.29	-43.750
841.59	-114.286
841.88	5.556
842.18	-16.667
842.48	-41.176
842.78	0.000
843.08	-57.143
843.38	-7.692
843.68	-155.556
843.97	-115.385
844.27	-54.545
844.57	-200.000
844.87	16.000
845.17	-260.000
845.47	-57.143
845.76	-88.889
846.06	0.000
846.36	-450.000
846.66	-40.000
846.96	-52.632
847.25	-20.833
847.55	-166.667
847.85	13.333
848.15	-130.000
848.44	-3.846
848.74	-26.316
849.04	400.000
849.34	-177.778
849.63	-42.105
849.93	0.000
850.23	-40.000
850.53	-85.714
850.82	-12.000
851.12	-68.421
851.42	-1350.000
851.71	-14.286
852.01	-91.667
852.31	-17.647
852.61	13.333
852.90	-71.429
853.20	-250.000
853.50	-22.222
853.79	-15.789
854.09	-86.667
854.39	3.571
854.68	-26.087
854.98	-175.000
855.28	-17.241
855.57	-18.750
855.87	-15.000
856.17	-120.000
856.46	-27.586
856.76	-40.000
857.05	-35.294
857.35	-123.077
857.65	-109.091
857.94	22.222
858.24	-92.857
858.53	-57.143
858.83	-8.333
859.13	-200.000
859.42	9.524
859.72	-200.000
860.01	-400.000
860.31	-12.500
860.60	-320.000
860.90	-177.778
861.20	-275.000
861.49	-228.571
861.79	5.882
862.08	-700.000
862.38	-50.000
862.67	-69.231
862.97	-35.294
863.26	20.000
863.56	-41.176
863.85	200.000
864.15	-80.000
864.44	-161.538
864.74	0.000
865.03	-187.500
865.33	-350.000
865.62	-64.706
865.92	-625.000
866.21	-100.000
866.51	-133.333
866.80	-1400.000
867.10	133.333
867.39	-64.706
867.69	13.043
867.98	-142.857
868.27	-160.000
868.57	-43.750
868.86	-154.545
869.16	-5.882
869.45	-200.000
869.75	-157.143
870.04	1600.000
870.33	-108.333
870.63	-100.000
870.92	-22.222
871.22	-58.333
871.51	-81.818
871.80	50.000
872.10	-50.000
>>>>>End Processed Spectral Data<<<<<
