SpectraSuite Data File
++++++++++++++++++++++++++++++++++++
Date: Sat May 16 11:33:01 PDT 2015
User: schluterlab
Dark Spectrum Present: Yes
Reference Spectrum Present: Yes
Number of Sampled Component Spectra: 1
Spectrometers: USB2E3373
Integration Time (usec): 3000 (USB2E3373)
Spectra Averaged: 3 (USB2E3373)
Boxcar Smoothing: 0 (USB2E3373)
Correct for Electrical Dark: No (USB2E3373)
Strobe/Lamp Enabled: No (USB2E3373)
Correct for Detector Non-linearity: No (USB2E3373)
Correct for Stray Light: No (USB2E3373)
Number of Pixels in Processed Spectrum: 2048
>>>>>Begin Processed Spectral Data<<<<<
178.53	0.000
178.91	120.000
179.29	600.000
179.67	-1600.000
180.04	-76.923
180.42	300.000
180.80	375.000
181.18	475.000
181.56	-50.000
181.94	1500.000
182.31	325.000
182.69	-76.923
183.07	-366.667
183.45	1550.000
183.83	700.000
184.20	-171.429
184.58	-112.500
184.96	-450.000
185.34	193.750
185.72	-525.000
186.09	66.667
186.47	-212.500
186.85	-287.500
187.23	25.000
187.61	-25.000
187.98	-337.500
188.36	-100.000
188.74	-150.000
189.12	1500.000
189.49	257.143
189.87	-100.000
190.25	225.000
190.63	14.286
191.00	-66.667
191.38	400.000
191.76	-13.333
192.14	500.000
192.51	-180.000
192.89	-133.333
193.27	0.000
193.65	-188.889
194.02	-214.286
194.40	400.000
194.78	-130.000
195.15	-1500.000
195.53	-118.182
195.91	-516.667
196.29	320.000
196.66	-366.667
197.04	2100.000
197.42	-350.000
197.79	-6.667
198.17	-366.667
198.55	-250.000
198.92	-1300.000
199.30	200.000
199.68	-350.000
200.05	-77.778
200.43	-200.000
200.81	-1100.000
201.18	-116.667
201.56	271.429
201.94	-26.667
202.31	40.909
202.69	30.000
203.07	-40.000
203.44	800.000
203.82	-300.000
204.19	-500.000
204.57	-125.000
204.95	-1700.000
205.32	18.750
205.70	100.000
206.08	-800.000
206.45	-88.889
206.83	-700.000
207.20	-50.000
207.58	-1100.000
207.96	-433.333
208.33	-87.500
208.71	-133.333
209.08	220.000
209.46	-257.143
209.84	400.000
210.21	0.000
210.59	5.000
210.96	1900.000
211.34	-350.000
211.71	-466.667
212.09	300.000
212.46	1100.000
212.84	-2700.000
213.22	666.667
213.59	66.667
213.97	-77.778
214.34	200.000
214.72	-50.000
215.09	-566.667
215.47	-33.333
215.84	-130.000
216.22	-20.000
216.59	-20.000
216.97	-475.000
217.34	950.000
217.72	-128.571
218.09	-366.667
218.47	-200.000
218.84	171.429
219.22	57.143
219.59	0.000
219.97	271.429
220.34	300.000
220.72	187.500
221.09	-53.846
221.47	0.000
221.84	700.000
222.22	-750.000
222.59	1300.000
222.97	-187.500
223.34	-750.000
223.72	-366.667
224.09	42.857
224.46	-250.000
224.84	-64.286
225.21	-114.286
225.59	-127.273
225.96	-287.500
226.34	0.000
226.71	-133.333
227.08	30.000
227.46	900.000
227.83	-157.143
228.21	-187.500
228.58	600.000
228.95	-62.500
229.33	-800.000
229.70	-220.000
230.08	-600.000
230.45	25.000
230.82	-116.667
231.20	-1300.000
231.57	-500.000
231.95	900.000
232.32	-47.619
232.69	-166.667
233.07	-257.143
233.44	-850.000
233.81	-53.333
234.19	-166.667
234.56	-87.500
234.93	-3.125
235.31	-242.857
235.68	-92.857
236.05	0.000
236.43	-36.364
236.80	-25.806
237.17	0.000
237.55	-47.619
237.92	-90.909
238.29	-14.286
238.67	14.706
239.04	-8.333
239.41	-19.355
239.79	-10.256
240.16	-7.143
240.53	-16.364
240.91	15.385
241.28	-14.545
241.65	24.615
242.02	-3.279
242.40	-3.279
242.77	28.788
243.14	-18.644
243.51	-4.286
243.89	3.797
244.26	-4.494
244.63	11.579
245.00	12.632
245.38	8.475
245.75	15.044
246.12	9.600
246.49	9.449
246.87	1.626
247.24	10.169
247.61	3.390
247.98	11.972
248.36	9.790
248.73	9.494
249.10	6.369
249.47	9.357
249.84	16.477
250.22	-0.595
250.59	16.384
250.96	14.660
251.33	14.692
251.70	10.577
252.08	10.900
252.45	6.161
252.82	6.667
253.19	14.043
253.56	13.306
253.94	13.502
254.31	15.451
254.68	15.854
255.05	8.468
255.42	15.476
255.79	12.186
256.16	18.039
256.54	15.441
256.91	13.636
257.28	11.722
257.65	13.121
258.02	17.296
258.39	14.381
258.76	10.135
259.14	11.728
259.51	14.754
259.88	13.415
260.25	15.217
260.62	12.540
260.99	13.353
261.36	16.768
261.73	15.896
262.10	16.944
262.47	13.675
262.85	16.857
263.22	14.900
263.59	12.615
263.96	16.522
264.33	14.092
264.70	12.983
265.07	14.835
265.44	14.212
265.81	11.628
266.18	13.418
266.55	15.686
266.92	16.877
267.29	14.528
267.66	17.531
268.03	14.976
268.40	14.789
268.77	14.940
269.14	13.921
269.51	18.391
269.88	13.761
270.25	14.452
270.62	12.586
270.99	12.838
271.36	17.016
271.73	16.143
272.10	14.188
272.47	14.000
272.84	17.333
273.21	14.220
273.58	14.945
273.95	15.570
274.32	16.968
274.69	19.256
275.06	14.724
275.43	14.732
275.80	18.534
276.17	14.854
276.54	15.682
276.91	15.432
277.28	11.968
277.65	16.322
278.02	15.866
278.39	15.717
278.76	14.542
279.13	17.391
279.50	15.308
279.87	16.702
280.23	15.992
280.60	14.115
280.97	14.563
281.34	13.346
281.71	16.346
282.08	13.710
282.45	13.849
282.82	13.178
283.19	18.182
283.56	18.315
283.92	14.841
284.29	12.825
284.66	14.388
285.03	16.578
285.40	13.653
285.77	17.193
286.14	14.440
286.51	14.032
286.87	16.515
287.24	16.553
287.61	15.537
287.98	13.345
288.35	14.215
288.72	12.054
289.08	14.915
289.45	13.636
289.82	13.668
290.19	15.107
290.56	14.545
290.93	13.037
291.29	14.100
291.66	12.560
292.03	13.501
292.40	14.608
292.77	13.665
293.13	12.520
293.50	15.156
293.87	12.883
294.24	12.368
294.60	11.515
294.97	16.085
295.34	13.630
295.71	12.798
296.08	11.674
296.44	11.731
296.81	12.963
297.18	12.535
297.55	12.571
297.91	14.086
298.28	12.192
298.65	12.134
299.02	12.567
299.38	11.898
299.75	11.957
300.12	12.564
300.48	12.404
300.85	10.092
301.22	11.384
301.59	11.964
301.95	14.106
302.32	11.082
302.69	12.607
303.05	10.867
303.42	10.500
303.79	12.440
304.15	12.085
304.52	12.485
304.89	11.924
305.25	9.768
305.62	12.221
305.99	13.192
306.35	12.653
306.72	10.934
307.09	11.805
307.45	10.670
307.82	10.615
308.19	11.186
308.55	11.547
308.92	11.063
309.29	12.108
309.65	11.453
310.02	11.771
310.38	10.270
310.75	11.783
311.12	13.223
311.48	11.482
311.85	10.402
312.22	13.491
312.58	11.801
312.95	11.723
313.31	12.587
313.68	11.960
314.05	11.869
314.41	11.469
314.78	10.889
315.14	13.327
315.51	11.854
315.87	13.359
316.24	13.605
316.61	13.628
316.97	14.428
317.34	12.909
317.70	14.007
318.07	14.272
318.43	13.109
318.80	14.085
319.16	14.447
319.53	13.346
319.89	14.393
320.26	14.216
320.62	15.192
320.99	15.821
321.35	12.906
321.72	15.251
322.08	17.211
322.45	16.238
322.81	16.619
323.18	17.387
323.54	17.190
323.91	17.516
324.27	17.776
324.64	17.367
325.00	17.714
325.37	18.733
325.73	18.810
326.10	18.158
326.46	18.301
326.83	18.128
327.19	19.349
327.56	19.336
327.92	19.286
328.29	19.740
328.65	19.364
329.01	21.378
329.38	20.785
329.74	21.703
330.11	20.671
330.47	20.163
330.84	20.715
331.20	20.668
331.56	20.602
331.93	21.314
332.29	21.735
332.66	21.598
333.02	21.629
333.38	21.595
333.75	21.371
334.11	21.689
334.48	20.918
334.84	22.135
335.20	21.454
335.57	21.480
335.93	22.202
336.29	21.612
336.66	22.291
337.02	21.892
337.38	22.282
337.75	22.037
338.11	21.467
338.47	21.975
338.84	21.779
339.20	21.353
339.56	23.084
339.93	22.399
340.29	22.675
340.65	21.678
341.02	21.754
341.38	22.157
341.74	22.608
342.11	23.720
342.47	22.060
342.83	21.746
343.20	22.289
343.56	21.878
343.92	22.287
344.28	22.792
344.65	21.617
345.01	22.353
345.37	23.339
345.73	21.768
346.10	22.731
346.46	21.446
346.82	21.812
347.19	23.172
347.55	21.348
347.91	22.362
348.27	21.321
348.63	23.021
349.00	22.991
349.36	20.843
349.72	23.248
350.08	23.256
350.45	22.143
350.81	22.930
351.17	23.392
351.53	23.071
351.89	22.474
352.26	23.023
352.62	24.117
352.98	23.418
353.34	22.542
353.70	21.236
354.07	22.974
354.43	23.478
354.79	22.662
355.15	22.125
355.51	21.641
355.87	22.055
356.24	22.796
356.60	23.771
356.96	24.018
357.32	23.120
357.68	22.682
358.04	23.634
358.40	21.732
358.77	22.488
359.13	22.112
359.49	23.205
359.85	23.476
360.21	22.755
360.57	24.172
360.93	24.741
361.29	24.738
361.66	21.799
362.02	22.781
362.38	23.991
362.74	23.663
363.10	23.171
363.46	23.932
363.82	24.344
364.18	24.385
364.54	25.375
364.90	24.598
365.26	24.037
365.62	24.804
365.98	25.178
366.35	23.803
366.71	24.172
367.07	25.335
367.43	25.395
367.79	24.674
368.15	23.826
368.51	24.755
368.87	25.755
369.23	24.772
369.59	25.069
369.95	24.595
370.31	25.879
370.67	24.295
371.03	24.781
371.39	23.975
371.75	26.109
372.11	25.610
372.47	25.958
372.83	26.078
373.19	26.643
373.55	26.108
373.91	24.964
374.27	25.667
374.63	26.225
374.99	26.356
375.35	25.101
375.71	27.414
376.07	26.626
376.42	26.755
376.78	27.320
377.14	27.797
377.50	27.273
377.86	28.088
378.22	27.889
378.58	26.807
378.94	27.374
379.30	27.422
379.66	27.201
380.02	27.689
380.38	27.372
380.74	27.784
381.09	28.120
381.45	28.103
381.81	28.010
382.17	29.073
382.53	27.781
382.89	28.947
383.25	29.139
383.61	29.009
383.97	30.067
384.32	29.474
384.68	28.960
385.04	29.650
385.40	30.128
385.76	29.817
386.12	29.919
386.48	29.889
386.83	30.859
387.19	30.305
387.55	30.588
387.91	30.587
388.27	28.890
388.62	30.048
388.98	29.740
389.34	29.315
389.70	29.963
390.06	30.578
390.42	31.667
390.77	29.905
391.13	31.988
391.49	31.566
391.85	30.923
392.20	31.311
392.56	30.422
392.92	31.660
393.28	31.975
393.64	32.592
393.99	32.923
394.35	32.056
394.71	32.613
395.07	33.019
395.42	32.181
395.78	32.244
396.14	32.274
396.50	32.661
396.85	32.634
397.21	33.840
397.57	33.009
397.92	33.021
398.28	33.333
398.64	33.076
399.00	33.764
399.35	33.766
399.71	33.043
400.07	33.672
400.42	32.786
400.78	33.572
401.14	32.635
401.49	33.432
401.85	33.435
402.21	34.148
402.57	33.495
402.92	33.291
403.28	34.804
403.63	32.654
403.99	34.991
404.35	32.850
404.70	34.055
405.06	34.141
405.42	33.887
405.77	33.314
406.13	34.639
406.49	34.632
406.84	34.913
407.20	35.218
407.55	35.655
407.91	33.873
408.27	35.172
408.62	34.817
408.98	34.809
409.34	34.552
409.69	35.602
410.05	35.173
410.40	34.825
410.76	35.329
411.11	34.913
411.47	34.399
411.83	36.675
412.18	35.396
412.54	35.692
412.89	36.938
413.25	34.770
413.60	35.298
413.96	36.106
414.31	36.758
414.67	36.635
415.03	36.158
415.38	38.582
415.74	36.018
416.09	36.701
416.45	37.434
416.80	37.841
417.16	37.409
417.51	37.886
417.87	37.023
418.22	38.685
418.58	38.318
418.93	39.362
419.29	38.269
419.64	38.631
420.00	38.335
420.35	38.261
420.71	38.415
421.06	39.408
421.42	38.759
421.77	38.749
422.12	39.284
422.48	39.765
422.83	39.180
423.19	38.864
423.54	39.942
423.90	40.023
424.25	40.271
424.61	40.591
424.96	40.609
425.31	39.855
425.67	40.229
426.02	41.652
426.38	41.137
426.73	41.672
427.09	42.831
427.44	41.648
427.79	42.093
428.15	42.250
428.50	41.760
428.85	42.806
429.21	42.169
429.56	43.750
429.92	42.585
430.27	42.223
430.62	43.417
430.98	42.603
431.33	43.223
431.68	43.592
432.04	44.432
432.39	43.362
432.74	44.305
433.10	43.950
433.45	44.675
433.80	44.345
434.16	44.868
434.51	45.041
434.86	45.694
435.22	43.764
435.57	44.920
435.92	45.018
436.28	46.231
436.63	45.619
436.98	45.475
437.34	46.545
437.69	45.858
438.04	46.852
438.39	47.714
438.75	45.169
439.10	47.085
439.45	46.288
439.81	46.446
440.16	45.258
440.51	48.294
440.86	46.732
441.22	47.208
441.57	47.737
441.92	48.082
442.27	46.916
442.63	48.391
442.98	46.896
443.33	48.105
443.68	48.150
444.03	46.857
444.39	47.920
444.74	48.568
445.09	48.026
445.44	47.552
445.79	48.190
446.15	48.028
446.50	48.557
446.85	48.846
447.20	47.549
447.55	49.171
447.91	49.298
448.26	48.045
448.61	49.745
448.96	50.028
449.31	48.534
449.66	49.342
450.02	48.366
450.37	50.145
450.72	48.814
451.07	49.717
451.42	48.947
451.77	50.808
452.12	50.298
452.47	50.252
452.83	49.388
453.18	50.980
453.53	50.311
453.88	50.778
454.23	49.637
454.58	51.896
454.93	51.322
455.28	50.542
455.63	50.184
455.98	51.325
456.34	50.953
456.69	51.470
457.04	51.137
457.39	50.359
457.74	50.975
458.09	50.696
458.44	51.674
458.79	51.457
459.14	52.767
459.49	52.279
459.84	51.827
460.19	50.835
460.54	51.119
460.89	52.915
461.24	51.913
461.59	52.403
461.94	53.342
462.29	52.591
462.64	52.503
462.99	52.677
463.34	52.735
463.69	52.608
464.04	51.670
464.39	51.971
464.74	51.891
465.09	51.774
465.44	51.889
465.79	52.002
466.14	53.222
466.49	52.907
466.84	52.401
467.19	52.369
467.54	51.709
467.89	54.069
468.24	52.138
468.59	52.717
468.94	53.441
469.29	52.437
469.64	52.224
469.99	53.815
470.34	53.841
470.68	54.288
471.03	54.233
471.38	52.847
471.73	54.895
472.08	55.154
472.43	52.896
472.78	53.867
473.13	54.473
473.48	53.925
473.83	53.722
474.17	54.204
474.52	54.731
474.87	53.030
475.22	52.979
475.57	53.389
475.92	53.618
476.27	52.800
476.61	54.197
476.96	54.779
477.31	54.413
477.66	53.625
478.01	53.431
478.36	53.693
478.70	53.764
479.05	53.867
479.40	52.953
479.75	55.250
480.10	52.827
480.45	52.515
480.79	54.541
481.14	55.645
481.49	55.566
481.84	54.554
482.19	54.043
482.53	54.877
482.88	54.058
483.23	53.005
483.58	53.700
483.92	55.280
484.27	52.858
484.62	52.613
484.97	53.118
485.31	51.072
485.66	49.610
486.01	50.368
486.36	52.265
486.70	53.122
487.05	52.323
487.40	52.270
487.75	51.713
488.09	52.409
488.44	51.928
488.79	52.423
489.13	52.415
489.48	53.303
489.83	54.410
490.17	53.679
490.52	55.616
490.87	55.058
491.22	54.180
491.56	53.750
491.91	54.008
492.26	54.057
492.60	54.757
492.95	54.069
493.30	54.312
493.64	54.631
493.99	54.493
494.34	55.571
494.68	55.618
495.03	54.780
495.37	56.293
495.72	54.912
496.07	55.373
496.41	54.933
496.76	55.205
497.11	54.828
497.45	55.843
497.80	55.078
498.14	55.255
498.49	55.450
498.84	54.466
499.18	56.287
499.53	54.603
499.87	55.502
500.22	55.245
500.56	56.078
500.91	55.813
501.26	55.022
501.60	54.646
501.95	55.942
502.29	54.275
502.64	54.597
502.98	54.768
503.33	55.169
503.67	53.879
504.02	54.756
504.36	55.980
504.71	55.268
505.06	54.269
505.40	56.088
505.75	55.996
506.09	54.954
506.44	55.238
506.78	55.645
507.13	55.716
507.47	56.547
507.82	55.085
508.16	56.943
508.51	55.229
508.85	55.331
509.19	55.939
509.54	56.342
509.88	55.372
510.23	57.023
510.57	56.984
510.92	56.713
511.26	55.981
511.61	56.048
511.95	56.519
512.30	56.734
512.64	56.205
512.98	56.051
513.33	56.782
513.67	57.175
514.02	56.152
514.36	56.842
514.70	55.461
515.05	58.033
515.39	56.574
515.74	57.766
516.08	57.003
516.42	56.261
516.77	57.943
517.11	57.208
517.46	59.569
517.80	58.724
518.14	56.703
518.49	57.382
518.83	56.914
519.17	57.904
519.52	56.160
519.86	58.961
520.20	59.046
520.55	59.077
520.89	56.857
521.23	57.814
521.58	58.433
521.92	57.758
522.26	57.841
522.61	58.365
522.95	57.371
523.29	59.498
523.64	56.902
523.98	59.580
524.32	57.511
524.66	57.205
525.01	58.060
525.35	58.634
525.69	58.621
526.04	59.008
526.38	58.752
526.72	58.110
527.06	58.984
527.41	58.746
527.75	58.152
528.09	59.166
528.43	57.705
528.78	57.977
529.12	58.963
529.46	58.247
529.80	57.586
530.15	57.759
530.49	58.021
530.83	59.136
531.17	58.384
531.51	57.736
531.86	57.011
532.20	57.355
532.54	58.289
532.88	58.169
533.22	58.356
533.57	59.269
533.91	55.056
534.25	56.820
534.59	56.590
534.93	56.005
535.27	57.395
535.62	57.225
535.96	57.078
536.30	56.021
536.64	57.105
536.98	58.404
537.32	57.429
537.66	57.230
538.01	58.351
538.35	58.851
538.69	57.219
539.03	57.278
539.37	58.084
539.71	57.772
540.05	57.505
540.39	58.310
540.73	58.673
541.07	58.675
541.42	58.069
541.76	56.013
542.10	58.406
542.44	57.229
542.78	57.463
543.12	57.773
543.46	56.096
543.80	56.455
544.14	56.951
544.48	55.774
544.82	56.495
545.16	58.015
545.50	56.326
545.84	57.510
546.18	56.311
546.52	57.041
546.86	56.410
547.20	57.876
547.54	56.198
547.88	57.001
548.22	55.832
548.56	56.313
548.90	56.199
549.24	57.253
549.58	56.881
549.92	58.163
550.26	57.298
550.60	56.615
550.94	57.518
551.28	58.089
551.62	57.681
551.96	56.946
552.30	56.794
552.64	57.002
552.98	57.884
553.32	57.576
553.66	58.832
554.00	56.787
554.34	57.112
554.68	56.506
555.02	57.019
555.36	56.722
555.69	56.734
556.03	55.719
556.37	57.468
556.71	55.977
557.05	58.241
557.39	58.055
557.73	58.133
558.07	58.930
558.41	58.340
558.75	58.023
559.08	58.755
559.42	57.044
559.76	58.819
560.10	58.464
560.44	57.731
560.78	56.994
561.12	56.936
561.45	57.808
561.79	58.188
562.13	56.662
562.47	56.162
562.81	57.214
563.15	57.243
563.48	57.360
563.82	56.051
564.16	56.187
564.50	56.452
564.84	56.614
565.17	56.565
565.51	55.541
565.85	57.404
566.19	59.091
566.52	57.469
566.86	57.206
567.20	56.780
567.54	56.822
567.88	55.723
568.21	55.593
568.55	56.045
568.89	54.722
569.23	54.604
569.56	52.291
569.90	52.793
570.24	52.837
570.57	51.705
570.91	51.513
571.25	52.756
571.59	51.577
571.92	51.667
572.26	50.569
572.60	50.977
572.93	50.604
573.27	49.939
573.61	50.502
573.95	50.426
574.28	49.379
574.62	50.203
574.96	49.601
575.29	50.178
575.63	50.757
575.97	49.838
576.30	50.014
576.64	49.948
576.98	49.042
577.31	50.155
577.65	49.922
577.98	49.512
578.32	49.779
578.66	49.237
578.99	49.439
579.33	49.711
579.67	50.393
580.00	49.058
580.34	49.437
580.67	49.473
581.01	48.263
581.35	49.674
581.68	49.046
582.02	49.165
582.35	49.405
582.69	50.292
583.02	50.486
583.36	50.167
583.70	49.693
584.03	50.269
584.37	50.582
584.70	50.436
585.04	49.418
585.37	49.212
585.71	49.444
586.04	49.899
586.38	50.094
586.72	50.986
587.05	50.637
587.39	49.932
587.72	50.279
588.06	50.399
588.39	50.641
588.73	50.966
589.06	50.991
589.40	52.284
589.73	51.700
590.07	51.238
590.40	50.923
590.73	52.059
591.07	52.459
591.40	52.600
591.74	53.388
592.07	52.973
592.41	52.059
592.74	52.191
593.08	51.322
593.41	51.217
593.75	50.577
594.08	52.660
594.41	51.460
594.75	52.359
595.08	53.195
595.42	52.204
595.75	50.533
596.09	52.309
596.42	53.232
596.75	52.005
597.09	53.473
597.42	52.073
597.75	52.967
598.09	52.915
598.42	52.364
598.76	51.703
599.09	52.328
599.42	52.018
599.76	51.529
600.09	51.985
600.42	50.893
600.76	52.580
601.09	51.462
601.42	51.840
601.76	51.441
602.09	52.515
602.42	52.263
602.76	52.389
603.09	52.419
603.42	52.337
603.76	52.014
604.09	52.463
604.42	52.456
604.76	52.508
605.09	52.215
605.42	53.324
605.75	52.393
606.09	52.428
606.42	53.624
606.75	51.739
607.09	52.713
607.42	52.685
607.75	52.715
608.08	52.869
608.42	54.257
608.75	52.243
609.08	52.898
609.41	54.260
609.75	52.560
610.08	53.480
610.41	53.590
610.74	53.917
611.07	54.006
611.41	51.639
611.74	53.985
612.07	55.317
612.40	53.518
612.73	54.443
613.07	54.430
613.40	55.172
613.73	54.005
614.06	54.091
614.39	55.750
614.72	54.246
615.06	54.239
615.39	52.957
615.72	54.753
616.05	53.672
616.38	56.123
616.71	56.096
617.05	53.619
617.38	55.108
617.71	54.791
618.04	56.335
618.37	56.101
618.70	57.497
619.03	56.060
619.36	56.307
619.69	57.574
620.03	55.510
620.36	56.540
620.69	57.574
621.02	59.361
621.35	57.419
621.68	58.525
622.01	57.767
622.34	57.453
622.67	57.109
623.00	57.230
623.33	57.388
623.66	55.687
623.99	57.444
624.32	58.705
624.65	56.880
624.99	58.626
625.32	56.961
625.65	58.974
625.98	57.668
626.31	56.525
626.64	57.992
626.97	59.161
627.30	59.319
627.63	58.117
627.96	60.836
628.29	59.835
628.62	60.649
628.95	60.827
629.28	58.553
629.61	60.648
629.94	58.412
630.26	62.525
630.59	60.503
630.92	62.462
631.25	61.895
631.58	60.635
631.91	59.468
632.24	62.889
632.57	62.111
632.90	63.448
633.23	62.033
633.56	62.105
633.89	63.679
634.22	62.102
634.55	63.582
634.88	62.152
635.20	61.798
635.53	63.359
635.86	62.720
636.19	61.172
636.52	61.410
636.85	60.168
637.18	62.750
637.51	64.560
637.83	66.045
638.16	63.158
638.49	63.862
638.82	61.776
639.15	64.332
639.48	60.182
639.81	62.241
640.13	63.649
640.46	62.821
640.79	65.406
641.12	64.316
641.45	63.558
641.77	65.719
642.10	63.746
642.43	67.223
642.76	65.984
643.09	65.873
643.41	66.508
643.74	67.409
644.07	65.055
644.40	66.775
644.73	68.977
645.05	65.109
645.38	68.543
645.71	71.649
646.04	65.042
646.36	67.016
646.69	66.436
647.02	65.523
647.35	67.690
647.67	68.796
648.00	67.487
648.33	67.285
648.66	66.452
648.98	66.083
649.31	62.923
649.64	65.000
649.96	63.265
650.29	64.590
650.62	67.298
650.94	65.936
651.27	66.205
651.60	62.976
651.92	66.610
652.25	64.274
652.58	65.758
652.90	64.205
653.23	62.581
653.56	63.545
653.88	63.770
654.21	63.926
654.54	65.449
654.86	64.848
655.19	61.605
655.52	57.596
655.84	51.049
656.17	54.104
656.49	73.390
656.82	75.817
657.15	57.241
657.47	42.642
657.80	32.631
658.13	37.233
658.45	50.698
658.78	50.423
659.10	49.440
659.43	48.438
659.75	50.157
660.08	51.250
660.41	49.744
660.73	56.326
661.06	62.899
661.38	65.536
661.71	64.818
662.03	67.339
662.36	66.311
662.68	68.565
663.01	69.427
663.33	70.975
663.66	71.245
663.98	66.964
664.31	70.470
664.63	71.681
664.96	67.028
665.28	65.510
665.61	66.173
665.93	69.342
666.26	65.182
666.58	69.023
666.91	68.151
667.23	69.737
667.56	69.388
667.88	70.136
668.21	68.664
668.53	71.729
668.86	68.129
669.18	69.178
669.50	67.991
669.83	69.100
670.15	67.937
670.48	71.262
670.80	67.882
671.13	63.657
671.45	68.694
671.77	67.238
672.10	65.878
672.42	61.993
672.75	62.364
673.07	61.802
673.39	62.659
673.72	63.976
674.04	68.790
674.37	67.216
674.69	65.369
675.01	64.894
675.34	64.208
675.66	68.898
675.98	69.604
676.31	68.100
676.63	68.736
676.95	66.593
677.28	70.302
677.60	67.647
677.92	69.163
678.25	65.208
678.57	65.021
678.89	64.780
679.22	68.763
679.54	65.089
679.86	63.800
680.18	63.498
680.51	62.011
680.83	64.762
681.15	62.813
681.48	66.329
681.80	64.113
682.12	66.398
682.44	61.886
682.77	61.905
683.09	67.086
683.41	65.265
683.73	63.470
684.06	65.806
684.38	64.854
684.70	65.021
685.02	62.598
685.34	63.743
685.67	64.015
685.99	64.083
686.31	64.632
686.63	64.184
686.96	59.889
687.28	62.813
687.60	61.523
687.92	61.673
688.24	63.386
688.56	62.926
688.89	63.675
689.21	64.989
689.53	68.276
689.85	66.147
690.17	62.556
690.49	66.975
690.82	65.301
691.14	62.972
691.46	64.080
691.78	66.079
692.10	65.890
692.42	64.222
692.74	64.163
693.06	67.865
693.39	65.101
693.71	64.560
694.03	64.147
694.35	62.754
694.67	63.357
694.99	65.985
695.31	64.541
695.63	66.582
695.95	68.983
696.27	65.586
696.59	66.310
696.91	68.539
697.23	66.927
697.56	63.462
697.88	66.216
698.20	61.242
698.52	61.435
698.84	65.777
699.16	64.048
699.48	65.750
699.80	65.414
700.12	65.743
700.44	68.156
700.76	67.347
701.08	65.407
701.40	62.538
701.72	67.284
702.04	70.513
702.36	68.072
702.68	67.066
703.00	66.377
703.32	62.751
703.64	70.000
703.96	67.733
704.28	68.343
704.60	66.772
704.91	70.476
705.23	67.961
705.55	63.514
705.87	70.990
706.19	69.444
706.51	68.403
706.83	68.852
707.15	65.605
707.47	61.983
707.79	62.629
708.11	61.832
708.43	66.584
708.74	64.156
709.06	62.953
709.38	64.368
709.70	65.000
710.02	69.632
710.34	69.637
710.66	62.857
710.98	66.246
711.29	64.194
711.61	62.300
711.93	63.279
712.25	65.781
712.57	60.627
712.89	70.863
713.20	66.667
713.52	69.030
713.84	69.751
714.16	61.967
714.48	65.714
714.80	65.846
715.11	61.960
715.43	66.265
715.75	65.421
716.07	65.574
716.39	61.204
716.70	70.383
717.02	68.148
717.34	67.176
717.66	70.954
717.97	68.852
718.29	68.908
718.61	67.063
718.93	65.950
719.24	63.603
719.56	65.660
719.88	64.727
720.20	68.539
720.51	71.429
720.83	68.273
721.15	71.721
721.46	71.373
721.78	65.517
722.10	64.000
722.42	66.942
722.73	66.135
723.05	67.068
723.37	63.137
723.68	63.968
724.00	69.919
724.32	65.844
724.63	65.560
724.95	69.008
725.27	63.596
725.58	62.500
725.90	64.683
726.22	65.314
726.53	69.202
726.85	63.137
727.16	64.286
727.48	64.231
727.80	61.066
728.11	69.328
728.43	66.942
728.74	66.406
729.06	65.530
729.38	66.537
729.69	66.535
730.01	70.472
730.32	66.932
730.64	68.864
730.96	69.776
731.27	60.714
731.59	60.772
731.90	58.589
732.22	58.589
732.53	64.570
732.85	66.107
733.16	65.580
733.48	62.718
733.80	61.566
734.11	62.069
734.43	67.687
734.74	59.050
735.06	62.069
735.37	62.385
735.69	59.355
736.00	63.300
736.32	59.603
736.63	61.724
736.95	64.130
737.26	60.596
737.58	68.345
737.89	62.724
738.21	60.902
738.52	62.692
738.83	61.719
739.15	65.812
739.46	67.339
739.78	62.587
740.09	62.937
740.41	56.643
740.72	65.328
741.04	61.508
741.35	60.606
741.66	63.426
741.98	59.048
742.29	66.667
742.61	72.727
742.92	67.290
743.23	64.474
743.55	69.369
743.86	67.556
744.18	62.381
744.49	68.473
744.80	72.081
745.12	73.711
745.43	62.312
745.74	69.417
746.06	64.878
746.37	70.044
746.68	72.637
747.00	68.063
747.31	67.308
747.62	61.751
747.94	61.135
748.25	65.581
748.56	67.619
748.88	63.043
749.19	63.380
749.50	67.647
749.82	67.556
750.13	74.890
750.44	69.919
750.75	64.000
751.07	65.357
751.38	64.945
751.69	60.305
752.01	62.308
752.32	59.144
752.63	64.615
752.94	66.270
753.26	72.609
753.57	71.429
753.88	65.948
754.19	68.465
754.51	62.891
754.82	66.403
755.13	68.724
755.44	64.876
755.75	65.844
756.07	59.839
756.38	65.234
756.69	63.538
757.00	61.672
757.31	66.443
757.63	63.551
757.94	57.803
758.25	59.593
758.56	60.647
758.87	57.386
759.18	58.333
759.50	61.922
759.81	59.489
760.12	61.824
760.43	65.049
760.74	64.062
761.05	59.270
761.36	61.677
761.67	59.763
761.99	60.968
762.30	60.870
762.61	63.019
762.92	71.300
763.23	73.934
763.54	58.222
763.85	68.354
764.16	62.041
764.47	65.254
764.78	59.551
765.10	65.827
765.41	56.452
765.72	59.119
766.03	57.951
766.34	62.030
766.65	62.753
766.96	54.500
767.27	66.146
767.58	67.442
767.89	70.323
768.20	73.620
768.51	68.306
768.82	69.730
769.13	66.000
769.44	58.772
769.75	62.771
770.06	64.220
770.37	59.624
770.68	64.062
770.99	61.386
771.30	64.563
771.61	62.963
771.92	61.039
772.23	65.888
772.54	56.915
772.85	60.355
773.16	70.122
773.47	68.072
773.78	66.484
774.09	63.333
774.39	64.815
774.70	62.416
775.01	68.841
775.32	67.164
775.63	62.810
775.94	63.158
776.25	60.714
776.56	60.656
776.87	73.451
777.18	66.372
777.48	70.000
777.79	61.739
778.10	63.303
778.41	64.407
778.72	66.116
779.03	64.179
779.34	66.165
779.65	64.052
779.95	64.493
780.26	57.823
780.57	68.966
780.88	66.667
781.19	63.636
781.50	52.800
781.80	60.784
782.11	59.615
782.42	49.398
782.73	59.124
783.04	56.757
783.34	68.939
783.65	65.891
783.96	59.350
784.27	63.248
784.57	61.789
784.88	61.789
785.19	59.649
785.50	47.423
785.81	56.190
786.11	62.745
786.42	59.091
786.73	61.261
787.04	69.307
787.34	64.762
787.65	52.381
787.96	58.824
788.26	59.459
788.57	62.903
788.88	50.781
789.19	58.120
789.49	57.143
789.80	53.846
790.11	63.717
790.41	52.525
790.72	52.830
791.03	69.444
791.33	65.789
791.64	51.613
791.95	64.000
792.25	58.571
792.56	65.854
792.87	59.184
793.17	48.684
793.48	45.946
793.79	38.028
794.09	46.835
794.40	67.021
794.70	56.075
795.01	48.246
795.32	60.000
795.62	56.250
795.93	56.701
796.23	52.747
796.54	55.789
796.85	53.425
797.15	43.056
797.46	54.795
797.76	63.380
798.07	51.250
798.37	57.353
798.68	62.857
798.99	64.286
799.29	52.632
799.60	46.667
799.90	56.944
800.21	46.875
800.51	65.079
800.82	47.541
801.12	68.421
801.43	50.704
801.73	37.288
802.04	62.295
802.34	50.909
802.65	73.077
802.95	46.296
803.26	35.000
803.56	44.231
803.87	52.632
804.17	70.968
804.48	41.538
804.78	53.846
805.09	51.163
805.39	43.750
805.70	28.302
806.00	68.421
806.30	60.811
806.61	57.353
806.91	51.852
807.22	66.667
807.52	50.746
807.83	46.774
808.13	36.508
808.43	25.455
808.74	62.121
809.04	56.604
809.35	49.315
809.65	70.175
809.95	50.000
810.26	52.941
810.56	42.000
810.86	63.265
811.17	80.000
811.47	50.000
811.77	74.194
812.08	0.000
812.38	52.381
812.69	36.957
812.99	61.290
813.29	38.095
813.59	55.556
813.90	36.170
814.20	34.884
814.50	64.583
814.81	41.667
815.11	60.976
815.41	50.000
815.72	88.571
816.02	27.778
816.32	74.359
816.62	72.973
816.93	35.294
817.23	32.609
817.53	50.000
817.84	76.471
818.14	37.500
818.44	37.931
818.74	29.032
819.04	29.630
819.35	50.000
819.65	0.000
819.95	26.667
820.25	8.000
820.56	44.737
820.86	17.500
821.16	44.681
821.46	39.655
821.76	35.897
822.07	40.000
822.37	30.233
822.67	56.667
822.97	40.541
823.27	40.541
823.57	84.000
823.88	89.189
824.18	-19.048
824.48	38.462
824.78	-30.769
825.08	52.174
825.38	33.333
825.69	37.500
825.99	65.000
826.29	40.541
826.59	23.529
826.89	60.000
827.19	42.857
827.49	57.895
827.79	12.500
828.09	36.667
828.39	47.826
828.70	27.586
829.00	24.138
829.30	22.222
829.60	53.125
829.90	100.000
830.20	76.923
830.50	9.524
830.80	7.143
831.10	5.128
831.40	4.762
831.70	35.294
832.00	37.500
832.30	15.789
832.60	37.500
832.90	0.000
833.20	-47.059
833.50	-26.667
833.80	0.000
834.10	20.000
834.40	-25.000
834.70	5.556
835.00	38.462
835.30	12.500
835.60	37.931
835.90	-50.000
836.20	-163.636
836.50	58.333
836.80	45.714
837.10	65.714
837.40	-11.765
837.70	-45.455
838.00	50.000
838.30	0.000
838.60	-4.762
838.90	45.000
839.19	-8.696
839.49	-4.348
839.79	-33.333
840.09	-8.696
840.39	4.545
840.69	-12.500
840.99	5.263
841.29	6.250
841.59	-92.857
841.88	55.556
842.18	16.667
842.48	-76.471
842.78	20.690
843.08	-28.571
843.38	-23.077
843.68	-122.222
843.97	-38.462
844.27	-63.636
844.57	-80.000
844.87	48.000
845.17	160.000
845.47	28.571
845.76	-44.444
846.06	0.000
846.36	-200.000
846.66	-30.000
846.96	26.316
847.25	-8.333
847.55	-66.667
847.85	80.000
848.15	-330.000
848.44	34.615
848.74	21.053
849.04	300.000
849.34	-66.667
849.63	-47.368
849.93	0.000
850.23	10.000
850.53	-4.762
850.82	20.000
851.12	26.316
851.42	-450.000
851.71	21.429
852.01	58.333
852.31	-23.529
852.61	-33.333
852.90	-14.286
853.20	-100.000
853.50	-16.667
853.79	15.789
854.09	-46.667
854.39	-7.143
854.68	43.478
854.98	-116.667
855.28	17.241
855.57	50.000
855.87	30.000
856.17	60.000
856.46	-3.448
856.76	13.333
857.05	0.000
857.35	-38.462
857.65	-109.091
857.94	-18.519
858.24	-71.429
858.53	-35.714
858.83	-25.000
859.13	33.333
859.42	19.048
859.72	-125.000
860.01	166.667
860.31	100.000
860.60	-360.000
860.90	-133.333
861.20	-137.500
861.49	-100.000
861.79	23.529
862.08	-700.000
862.38	-66.667
862.67	-15.385
862.97	11.765
863.26	-5.000
863.56	-35.294
863.85	300.000
864.15	-120.000
864.44	-61.538
864.74	25.000
865.03	-112.500
865.33	-66.667
865.62	-11.765
865.92	-425.000
866.21	-71.429
866.51	-58.333
866.80	-1300.000
867.10	-200.000
867.39	41.176
867.69	60.870
867.98	-57.143
868.27	-400.000
868.57	-81.250
868.86	-136.364
869.16	47.059
869.45	-150.000
869.75	-128.571
870.04	1000.000
870.33	25.000
870.63	40.000
870.92	-100.000
871.22	-141.667
871.51	-81.818
871.80	-83.333
872.10	40.000
>>>>>End Processed Spectral Data<<<<<
