SpectraSuite Data File
++++++++++++++++++++++++++++++++++++
Date: Sat May 16 11:47:28 PDT 2015
User: schluterlab
Dark Spectrum Present: Yes
Reference Spectrum Present: Yes
Number of Sampled Component Spectra: 1
Spectrometers: USB2E3373
Integration Time (usec): 3000 (USB2E3373)
Spectra Averaged: 3 (USB2E3373)
Boxcar Smoothing: 0 (USB2E3373)
Correct for Electrical Dark: No (USB2E3373)
Strobe/Lamp Enabled: No (USB2E3373)
Correct for Detector Non-linearity: No (USB2E3373)
Correct for Stray Light: No (USB2E3373)
Number of Pixels in Processed Spectrum: 2048
>>>>>Begin Processed Spectral Data<<<<<
178.53	0.000
178.91	133.333
179.29	466.667
179.67	-1400.000
180.04	-100.000
180.42	1000.000
180.80	375.000
181.18	425.000
181.56	-62.500
181.94	100.000
182.31	425.000
182.69	-76.923
183.07	-300.000
183.45	1800.000
183.83	766.667
184.20	-242.857
184.58	-100.000
184.96	-350.000
185.34	100.000
185.72	-425.000
186.09	233.333
186.47	-187.500
186.85	-100.000
187.23	-12.500
187.61	-300.000
187.98	-237.500
188.36	-87.500
188.74	-100.000
189.12	1000.000
189.49	242.857
189.87	-41.667
190.25	275.000
190.63	-57.143
191.00	-144.444
191.38	440.000
191.76	20.000
192.14	660.000
192.51	-300.000
192.89	-266.667
193.27	0.000
193.65	-144.444
194.02	-200.000
194.40	500.000
194.78	-80.000
195.15	-1400.000
195.53	-81.818
195.91	-383.333
196.29	60.000
196.66	-400.000
197.04	3000.000
197.42	-350.000
197.79	33.333
198.17	-266.667
198.55	-250.000
198.92	-400.000
199.30	187.500
199.68	-400.000
200.05	-133.333
200.43	-166.667
200.81	-1300.000
201.18	-133.333
201.56	185.714
201.94	-153.333
202.31	-13.636
202.69	40.000
203.07	-20.000
203.44	433.333
203.82	-200.000
204.19	-500.000
204.57	-275.000
204.95	-2300.000
205.32	0.000
205.70	800.000
206.08	-2400.000
206.45	11.111
206.83	-1300.000
207.20	-250.000
207.58	-633.333
207.96	-233.333
208.33	-100.000
208.71	-88.889
209.08	280.000
209.46	-242.857
209.84	350.000
210.21	0.000
210.59	5.000
210.96	1700.000
211.34	-216.667
211.71	-666.667
212.09	50.000
212.46	1100.000
212.84	-2700.000
213.22	533.333
213.59	216.667
213.97	-33.333
214.34	270.000
214.72	-40.000
215.09	-466.667
215.47	-83.333
215.84	-120.000
216.22	-120.000
216.59	-13.333
216.97	-575.000
217.34	950.000
217.72	-171.429
218.09	-300.000
218.47	-142.857
218.84	257.143
219.22	28.571
219.59	0.000
219.97	342.857
220.34	550.000
220.72	200.000
221.09	-30.769
221.47	0.000
221.84	200.000
222.22	-400.000
222.59	800.000
222.97	-50.000
223.34	-950.000
223.72	-566.667
224.09	-71.429
224.46	-225.000
224.84	-78.571
225.21	-171.429
225.59	-81.818
225.96	-100.000
226.34	-100.000
226.71	-88.889
227.08	-25.000
227.46	1700.000
227.83	-142.857
228.21	-175.000
228.58	700.000
228.95	-56.250
229.33	-1300.000
229.70	-60.000
230.08	-900.000
230.45	16.667
230.82	-200.000
231.20	-1200.000
231.57	-850.000
231.95	1000.000
232.32	28.571
232.69	-200.000
233.07	-214.286
233.44	-1250.000
233.81	-40.000
234.19	-66.667
234.56	-25.000
234.93	28.125
235.31	-85.714
235.68	-114.286
236.05	-58.824
236.43	-45.455
236.80	-19.355
237.17	-45.833
237.55	-52.381
237.92	-36.364
238.29	-11.429
238.67	32.353
239.04	-8.333
239.41	-16.129
239.79	5.128
240.16	9.524
240.53	23.636
240.91	12.821
241.28	14.545
241.65	18.462
242.02	9.836
242.40	8.197
242.77	24.242
243.14	15.254
243.51	2.857
243.89	20.253
244.26	19.101
244.63	24.211
245.00	18.947
245.38	22.034
245.75	30.088
246.12	32.000
246.49	15.748
246.87	7.317
247.24	21.186
247.61	27.966
247.98	23.239
248.36	32.168
248.73	26.582
249.10	21.656
249.47	24.561
249.84	28.977
250.22	25.595
250.59	28.814
250.96	26.702
251.33	30.806
251.70	25.481
252.08	28.910
252.45	20.853
252.82	25.714
253.19	28.085
253.56	23.790
253.94	26.582
254.31	24.034
254.68	28.455
255.05	20.565
255.42	28.571
255.79	27.957
256.16	27.843
256.54	33.456
256.91	29.167
257.28	23.443
257.65	29.787
258.02	29.560
258.39	25.753
258.76	23.311
259.14	27.160
259.51	30.164
259.88	29.268
260.25	28.261
260.62	29.260
260.99	27.300
261.36	29.573
261.73	28.613
262.10	28.611
262.47	26.781
262.85	30.286
263.22	25.788
263.59	26.769
263.96	28.986
264.33	29.268
264.70	31.768
265.07	30.220
265.44	29.457
265.81	26.098
266.18	25.316
266.55	27.941
266.92	32.242
267.29	29.298
267.66	27.407
268.03	29.469
268.40	30.516
268.77	29.157
269.14	29.466
269.51	30.805
269.88	23.165
270.25	24.709
270.62	28.375
270.99	28.153
271.36	30.769
271.73	28.475
272.10	28.604
272.47	29.111
272.84	32.000
273.21	31.881
273.58	27.692
273.95	30.044
274.32	32.579
274.69	29.759
275.06	30.879
275.43	27.679
275.80	29.328
276.17	30.335
276.54	29.532
276.91	27.778
277.28	29.209
277.65	27.479
278.02	28.810
278.39	27.505
278.76	27.291
279.13	27.668
279.50	27.237
279.87	30.021
280.23	29.150
280.60	28.429
280.97	29.320
281.34	31.335
281.71	29.615
282.08	30.040
282.45	31.365
282.82	28.101
283.19	28.364
283.56	30.403
283.92	28.799
284.29	27.881
284.66	26.439
285.03	30.303
285.40	29.336
285.77	30.175
286.14	26.895
286.51	28.064
286.87	30.309
287.24	29.181
287.61	27.107
287.98	25.477
288.35	24.959
288.72	28.693
289.08	28.983
289.45	26.094
289.82	26.298
290.19	29.064
290.56	26.446
290.93	24.642
291.29	24.959
291.66	26.087
292.03	26.845
292.40	24.548
292.77	25.000
293.13	26.504
293.50	26.449
293.87	24.693
294.24	27.149
294.60	24.394
294.97	26.100
295.34	22.370
295.71	25.298
296.08	21.813
296.44	24.320
296.81	23.789
297.18	22.535
297.55	25.000
297.91	25.105
298.28	21.233
298.65	22.036
299.02	23.529
299.38	21.257
299.75	22.826
300.12	22.179
300.48	22.379
300.85	22.674
301.22	23.803
301.59	22.757
301.95	22.418
302.32	20.469
302.69	21.297
303.05	20.879
303.42	20.750
303.79	21.172
304.15	21.327
304.52	21.704
304.89	22.078
305.25	22.589
305.62	20.329
305.99	23.793
306.35	21.421
306.72	19.704
307.09	20.772
307.45	21.226
307.82	19.777
308.19	20.470
308.55	21.678
308.92	20.623
309.29	19.135
309.65	19.724
310.02	19.546
310.38	18.162
310.75	20.799
311.12	19.835
311.48	20.772
311.85	18.744
312.22	19.464
312.58	21.261
312.95	18.858
313.31	18.382
313.68	20.804
314.05	20.079
314.41	17.505
314.78	19.780
315.14	19.842
315.51	18.845
315.87	21.104
316.24	19.922
316.61	19.770
316.97	20.796
317.34	19.750
317.70	19.852
318.07	19.403
318.43	19.944
318.80	20.000
319.16	19.887
319.53	18.233
319.89	17.968
320.26	19.608
320.62	17.308
320.99	19.602
321.35	18.030
321.72	17.912
322.08	19.090
322.45	18.416
322.81	19.597
323.18	19.308
323.54	19.039
323.91	18.814
324.27	19.487
324.64	18.282
325.00	18.412
325.37	19.638
325.73	18.723
326.10	17.006
326.46	18.301
326.83	18.213
327.19	18.849
327.56	19.761
327.92	19.371
328.29	18.874
328.65	17.909
329.01	18.816
329.38	17.752
329.74	19.048
330.11	18.042
330.47	18.710
330.84	19.707
331.20	18.141
331.56	16.317
331.93	17.940
332.29	18.813
332.66	17.296
333.02	17.647
333.38	16.846
333.75	17.275
334.11	17.156
334.48	17.741
334.84	19.073
335.20	17.908
335.57	18.051
335.93	18.442
336.29	18.069
336.66	16.916
337.02	18.649
337.38	17.201
337.75	16.418
338.11	18.515
338.47	17.527
338.84	17.695
339.20	17.838
339.56	18.895
339.93	17.284
340.29	16.918
340.65	17.308
341.02	19.140
341.38	17.439
341.74	17.443
342.11	17.065
342.47	17.511
342.83	16.877
343.20	15.798
343.56	15.837
343.92	18.698
344.28	18.167
344.65	16.007
345.01	15.714
345.37	18.106
345.73	15.466
346.10	16.435
346.46	16.247
346.82	16.119
347.19	15.612
347.55	16.693
347.91	16.535
348.27	16.070
348.63	16.801
349.00	17.025
349.36	15.457
349.72	17.277
350.08	17.322
350.45	16.864
350.81	17.277
351.17	16.158
351.53	15.990
351.89	16.249
352.26	17.287
352.62	17.281
352.98	16.851
353.34	16.547
353.70	16.525
354.07	16.444
354.43	17.708
354.79	16.561
355.15	15.735
355.51	16.484
355.87	16.285
356.24	16.044
356.60	17.728
356.96	16.705
357.32	15.519
357.68	16.169
358.04	15.704
358.40	15.700
358.77	15.301
359.13	16.450
359.49	15.117
359.85	15.701
360.21	15.221
360.57	16.792
360.93	16.148
361.29	16.517
361.66	15.777
362.02	15.015
362.38	16.728
362.74	15.458
363.10	15.782
363.46	16.952
363.82	15.233
364.18	16.136
364.54	17.012
364.90	15.793
365.26	15.835
365.62	16.393
365.98	16.145
366.35	14.859
366.71	14.870
367.07	16.937
367.43	16.472
367.79	16.151
368.15	15.576
368.51	16.294
368.87	16.758
369.23	16.070
369.59	15.903
369.95	15.574
370.31	16.667
370.67	14.389
371.03	15.743
371.39	14.639
371.75	14.878
372.11	15.782
372.47	15.835
372.83	15.716
373.19	15.714
373.55	16.256
373.91	15.434
374.27	15.743
374.63	15.459
374.99	16.273
375.35	15.478
375.71	16.813
376.07	15.674
376.42	14.371
376.78	15.425
377.14	15.458
377.50	15.667
377.86	15.280
378.22	15.829
378.58	14.824
378.94	14.735
379.30	16.027
379.66	16.272
380.02	15.270
380.38	15.650
380.74	15.123
381.09	15.466
381.45	15.931
381.81	15.366
382.17	15.664
382.53	16.170
382.89	15.969
383.25	15.593
383.61	15.212
383.97	15.738
384.32	14.643
384.68	15.659
385.04	15.459
385.40	14.912
385.76	14.695
386.12	14.991
386.48	16.027
386.83	15.706
387.19	14.525
387.55	14.961
387.91	14.997
388.27	14.294
388.62	15.144
388.98	14.961
389.34	14.810
389.70	14.677
390.06	15.413
390.42	15.256
390.77	14.448
391.13	15.590
391.49	15.658
391.85	14.838
392.20	14.745
392.56	14.050
392.92	14.432
393.28	15.270
393.64	15.334
393.99	15.200
394.35	15.024
394.71	14.824
395.07	14.878
395.42	14.064
395.78	13.828
396.14	14.891
396.50	15.107
396.85	14.991
397.21	14.459
397.57	14.468
397.92	15.808
398.28	15.556
398.64	14.991
399.00	15.449
399.35	13.980
399.71	15.389
400.07	14.806
400.42	15.511
400.78	14.848
401.14	15.090
401.49	14.917
401.85	14.887
402.21	15.495
402.57	14.502
402.92	14.600
403.28	14.216
403.63	14.140
403.99	15.227
404.35	14.372
404.70	14.804
405.06	14.302
405.42	13.592
405.77	14.367
406.13	14.310
406.49	14.320
406.84	14.397
407.20	14.959
407.55	14.820
407.91	14.249
408.27	14.951
408.62	14.251
408.98	14.554
409.34	14.016
409.69	14.745
410.05	14.312
410.40	15.021
410.76	14.286
411.11	14.090
411.47	15.665
411.83	14.487
412.18	14.109
412.54	13.911
412.89	14.277
413.25	14.286
413.60	14.095
413.96	13.555
414.31	13.823
414.67	14.159
415.03	14.683
415.38	14.379
415.74	14.433
416.09	14.194
416.45	13.624
416.80	14.824
417.16	12.558
417.51	15.167
417.87	14.434
418.22	14.223
418.58	14.442
418.93	14.531
419.29	14.429
419.64	14.259
420.00	13.913
420.35	13.365
420.71	13.986
421.06	14.320
421.42	14.052
421.77	14.126
422.12	14.550
422.48	14.751
422.83	14.863
423.19	14.198
423.54	14.352
423.90	14.864
424.25	14.140
424.61	14.053
424.96	14.921
425.31	13.918
425.67	14.728
426.02	13.712
426.38	14.761
426.73	13.676
427.09	14.645
427.44	14.773
427.79	14.477
428.15	14.063
428.50	15.073
428.85	13.909
429.21	14.444
429.56	14.792
429.92	14.329
430.27	13.958
430.62	14.159
430.98	14.219
431.33	14.248
431.68	14.370
432.04	14.661
432.39	14.074
432.74	13.729
433.10	13.900
433.45	13.932
433.80	13.998
434.16	13.702
434.51	14.521
434.86	15.524
435.22	14.978
435.57	14.076
435.92	14.361
436.28	15.371
436.63	14.924
436.98	14.605
437.34	15.180
437.69	14.586
438.04	14.237
438.39	15.042
438.75	14.494
439.10	14.992
439.45	14.182
439.81	15.964
440.16	14.140
440.51	15.294
440.86	14.286
441.22	14.207
441.57	14.895
441.92	14.220
442.27	14.177
442.63	14.753
442.98	14.165
443.33	14.388
443.68	15.425
444.03	14.735
444.39	14.831
444.74	15.584
445.09	14.912
445.44	14.406
445.79	14.941
446.15	14.677
446.50	14.262
446.85	14.982
447.20	15.117
447.55	14.088
447.91	14.374
448.26	14.860
448.61	14.035
448.96	14.566
449.31	14.431
449.66	14.596
450.02	14.127
450.37	13.565
450.72	14.294
451.07	14.896
451.42	14.684
451.77	14.542
452.12	14.899
452.47	15.050
452.83	14.211
453.18	14.991
453.53	14.801
453.88	15.311
454.23	13.724
454.58	15.848
454.93	14.547
455.28	14.213
455.63	15.295
455.98	14.940
456.34	14.485
456.69	15.322
457.04	15.120
457.39	13.935
457.74	14.649
458.09	15.603
458.44	15.473
458.79	14.630
459.14	15.060
459.49	15.157
459.84	14.671
460.19	14.797
460.54	15.306
460.89	14.126
461.24	15.240
461.59	14.654
461.94	15.086
462.29	14.830
462.64	15.415
462.99	14.793
463.34	14.315
463.69	15.013
464.04	14.821
464.39	14.695
464.74	14.303
465.09	14.251
465.44	14.439
465.79	14.664
466.14	15.362
466.49	14.911
466.84	14.586
467.19	14.963
467.54	14.747
467.89	14.303
468.24	15.083
468.59	14.054
468.94	14.727
469.29	14.035
469.64	14.218
469.99	14.652
470.34	15.164
470.68	14.753
471.03	15.692
471.38	14.306
471.73	14.755
472.08	15.127
472.43	13.900
472.78	15.067
473.13	14.182
473.48	14.040
473.83	14.640
474.17	14.968
474.52	14.834
474.87	14.627
475.22	14.454
475.57	14.389
475.92	14.309
476.27	14.857
476.61	14.423
476.96	14.366
477.31	14.909
477.66	14.665
478.01	14.479
478.36	14.458
478.70	14.415
479.05	15.792
479.40	14.041
479.75	14.577
480.10	15.228
480.45	14.168
480.79	14.610
481.14	15.253
481.49	14.424
481.84	14.563
482.19	14.664
482.53	15.152
482.88	14.855
483.23	14.601
483.58	15.402
483.92	14.333
484.27	14.843
484.62	14.687
484.97	15.121
485.31	14.592
485.66	14.603
486.01	14.945
486.36	15.622
486.70	15.797
487.05	15.690
487.40	15.224
487.75	15.244
488.09	14.546
488.44	15.054
488.79	15.600
489.13	15.405
489.48	15.090
489.83	15.197
490.17	14.976
490.52	14.810
490.87	14.134
491.22	14.853
491.56	14.907
491.91	14.170
492.26	14.575
492.60	14.415
492.95	15.040
493.30	13.816
493.64	14.528
493.99	14.532
494.34	14.429
494.68	14.888
495.03	13.671
495.37	14.110
495.72	15.422
496.07	15.016
496.41	15.239
496.76	13.836
497.11	14.649
497.45	14.799
497.80	13.957
498.14	14.538
498.49	13.913
498.84	14.563
499.18	15.302
499.53	14.759
499.87	14.044
500.22	14.657
500.56	14.807
500.91	14.680
501.26	14.750
501.60	14.059
501.95	15.556
502.29	14.171
502.64	14.663
502.98	14.423
503.33	14.615
503.67	14.511
504.02	13.955
504.36	14.265
504.71	14.083
505.06	14.229
505.40	14.671
505.75	14.228
506.09	14.510
506.44	14.536
506.78	14.701
507.13	14.779
507.47	15.076
507.82	14.146
508.16	15.389
508.51	13.910
508.85	14.286
509.19	14.704
509.54	14.323
509.88	14.362
510.23	14.623
510.57	15.132
510.92	14.608
511.26	14.407
511.61	14.417
511.95	14.278
512.30	14.019
512.64	12.577
512.98	14.686
513.33	14.113
513.67	13.456
514.02	13.479
514.36	14.903
514.70	14.658
515.05	13.551
515.39	14.014
515.74	14.485
516.08	14.179
516.42	14.278
516.77	14.500
517.11	14.188
517.46	13.995
517.80	14.200
518.14	12.923
518.49	13.150
518.83	14.184
519.17	15.394
519.52	13.939
519.86	14.277
520.20	14.548
520.55	14.338
520.89	12.774
521.23	14.042
521.58	13.856
521.92	14.566
522.26	13.651
522.61	13.245
522.95	13.019
523.29	13.605
523.64	13.554
523.98	13.940
524.32	14.079
524.66	12.236
525.01	13.552
525.35	13.724
525.69	13.403
526.04	13.642
526.38	13.686
526.72	14.112
527.06	13.802
527.41	13.399
527.75	12.937
528.09	13.832
528.43	14.164
528.78	14.133
529.12	14.917
529.46	13.918
529.80	14.203
530.15	14.424
530.49	13.777
530.83	14.014
531.17	13.535
531.51	13.262
531.86	13.957
532.20	12.416
532.54	14.104
532.88	13.900
533.22	13.971
533.57	13.838
533.91	12.984
534.25	13.262
534.59	13.429
534.93	13.503
535.27	14.412
535.62	14.066
535.96	14.286
536.30	13.547
536.64	15.007
536.98	13.771
537.32	12.992
537.66	13.170
538.01	12.577
538.35	13.041
538.69	12.968
539.03	13.541
539.37	13.373
539.71	13.542
540.05	14.256
540.39	14.474
540.73	15.411
541.07	14.208
541.42	13.302
541.76	12.027
542.10	14.315
542.44	13.791
542.78	14.179
543.12	14.121
543.46	11.575
543.80	13.244
544.14	12.424
544.48	14.633
544.82	13.194
545.16	13.280
545.50	13.122
545.84	13.074
546.18	14.008
546.52	13.016
546.86	13.889
547.20	13.854
547.54	12.534
547.88	13.935
548.22	12.516
548.56	13.427
548.90	14.218
549.24	14.576
549.58	13.620
549.92	13.286
550.26	14.234
550.60	13.158
550.94	13.723
551.28	13.318
551.62	12.851
551.96	14.110
552.30	13.589
552.64	13.793
552.98	13.735
553.32	12.698
553.66	13.554
554.00	13.717
554.34	13.141
554.68	13.670
555.02	14.182
555.36	13.515
555.69	12.966
556.03	13.544
556.37	14.296
556.71	14.531
557.05	13.008
557.39	13.066
557.73	13.931
558.07	13.188
558.41	13.687
558.75	13.308
559.08	12.607
559.42	13.629
559.76	13.420
560.10	12.901
560.44	13.945
560.78	13.918
561.12	13.527
561.45	13.836
561.79	13.310
562.13	12.623
562.47	13.165
562.81	13.154
563.15	13.436
563.48	13.545
563.82	14.266
564.16	13.320
564.50	13.374
564.84	14.087
565.17	13.329
565.51	13.429
565.85	14.740
566.19	14.625
566.52	14.286
566.86	12.895
567.20	14.286
567.54	14.412
567.88	14.629
568.21	14.709
568.55	14.051
568.89	14.215
569.23	14.299
569.56	13.955
569.90	14.673
570.24	14.205
570.57	13.743
570.91	14.315
571.25	14.786
571.59	14.549
571.92	14.792
572.26	14.739
572.60	14.707
572.93	14.927
573.27	14.726
573.61	14.540
573.95	14.795
574.28	14.500
574.62	15.099
574.96	14.357
575.29	15.066
575.63	15.397
575.97	14.266
576.30	14.525
576.64	14.883
576.98	14.680
577.31	14.660
577.65	15.209
577.98	14.760
578.32	14.734
578.66	14.703
578.99	14.736
579.33	14.418
579.67	15.014
580.00	14.435
580.34	14.677
580.67	14.734
581.01	14.442
581.35	14.707
581.68	14.714
582.02	14.760
582.35	15.014
582.69	15.013
583.02	15.141
583.36	15.181
583.70	15.182
584.03	15.356
584.37	15.020
584.70	15.067
585.04	15.013
585.37	14.773
585.71	15.288
586.04	15.147
586.38	15.023
586.72	15.220
587.05	15.038
587.39	15.023
587.72	14.946
588.06	15.571
588.39	15.181
588.73	14.937
589.06	15.377
589.40	15.390
589.73	14.908
590.07	14.457
590.40	14.354
590.73	14.594
591.07	14.590
591.40	14.991
591.74	14.639
592.07	14.459
592.41	14.607
592.74	14.796
593.08	14.727
593.41	14.901
593.75	14.639
594.08	14.558
594.41	14.861
594.75	14.685
595.08	14.737
595.42	15.715
595.75	14.664
596.09	14.940
596.42	15.671
596.75	14.705
597.09	15.361
597.42	15.190
597.75	14.748
598.09	14.641
598.42	14.494
598.76	14.701
599.09	14.601
599.42	14.418
599.76	14.874
600.09	15.115
600.42	15.268
600.76	15.066
601.09	14.926
601.42	15.156
601.76	14.914
602.09	15.215
602.42	15.021
602.76	14.873
603.09	15.242
603.42	15.431
603.76	14.719
604.09	14.497
604.42	15.029
604.76	14.086
605.09	14.873
605.42	14.716
605.75	14.317
606.09	15.193
606.42	14.411
606.75	15.028
607.09	14.910
607.42	14.569
607.75	14.879
608.08	15.770
608.42	14.570
608.75	14.252
609.08	14.759
609.41	14.699
609.75	14.676
610.08	15.000
610.41	14.988
610.74	15.280
611.07	14.604
611.41	14.070
611.74	15.013
612.07	14.876
612.40	14.126
612.73	14.755
613.07	15.080
613.40	14.669
613.73	14.332
614.06	14.113
614.39	15.051
614.72	14.358
615.06	14.457
615.39	14.162
615.72	14.557
616.05	14.412
616.38	14.335
616.71	14.054
617.05	14.415
617.38	14.427
617.71	13.943
618.04	14.472
618.37	13.836
618.70	13.885
619.03	14.353
619.36	14.799
619.69	14.860
620.03	13.223
620.36	13.924
620.69	14.142
621.02	14.155
621.35	13.145
621.68	13.689
622.01	14.887
622.34	13.432
622.67	13.672
623.00	14.308
623.33	14.403
623.66	14.106
623.99	13.910
624.32	14.211
624.65	14.570
624.99	13.368
625.32	13.772
625.65	14.530
625.98	13.615
626.31	14.111
626.64	12.636
626.97	13.185
627.30	13.702
627.63	11.831
627.96	14.273
628.29	13.879
628.62	12.894
628.95	12.402
629.28	12.500
629.61	11.874
629.94	14.083
630.26	13.519
630.59	14.874
630.92	12.412
631.25	13.508
631.58	13.333
631.91	12.766
632.24	13.111
632.57	12.778
632.90	13.563
633.23	14.252
633.56	11.345
633.89	13.208
634.22	11.924
634.55	12.861
634.88	11.729
635.20	12.859
635.53	12.850
635.86	11.839
636.19	12.332
636.52	13.381
636.85	10.229
637.18	10.625
637.51	12.887
637.83	12.650
638.16	12.895
638.49	12.000
638.82	13.127
639.15	12.840
639.48	12.322
639.81	13.001
640.13	12.432
640.46	13.960
640.79	11.625
641.12	14.951
641.45	12.339
641.77	11.228
642.10	12.387
642.43	11.988
642.76	11.496
643.09	11.429
643.41	13.810
643.74	10.970
644.07	10.920
644.40	10.049
644.73	12.706
645.05	10.851
645.38	14.238
645.71	12.027
646.04	13.950
646.36	12.391
646.69	12.284
647.02	12.274
647.35	11.372
647.67	13.504
648.00	12.654
648.33	14.165
648.66	11.613
648.98	11.306
649.31	12.154
649.64	12.344
649.96	12.402
650.29	10.328
650.62	14.802
650.94	12.648
651.27	9.705
651.60	11.419
651.92	14.041
652.25	11.018
652.58	10.051
652.90	13.804
653.23	10.806
653.56	12.040
653.88	10.656
654.21	13.423
654.54	12.458
654.86	12.360
655.19	12.607
655.52	13.908
655.84	14.717
656.17	16.330
656.49	22.945
656.82	24.362
657.15	18.749
657.47	13.663
657.80	10.506
658.13	12.006
658.45	16.673
658.78	16.207
659.10	16.762
659.43	16.228
659.75	16.208
660.08	15.990
660.41	15.267
660.73	13.971
661.06	14.493
661.38	12.500
661.71	13.576
662.03	12.903
662.36	10.021
662.68	9.494
663.01	11.040
663.33	10.431
663.66	10.515
663.98	9.598
664.31	11.409
664.63	11.947
664.96	12.798
665.28	12.148
665.61	11.416
665.93	12.963
666.26	12.146
666.58	14.761
666.91	10.468
667.23	11.404
667.56	8.617
667.88	11.538
668.21	9.908
668.53	10.981
668.86	12.702
669.18	12.329
669.50	9.813
669.83	9.976
670.15	12.780
670.48	7.009
670.80	10.478
671.13	7.901
671.45	8.784
671.77	11.563
672.10	11.243
672.42	12.177
672.75	12.364
673.07	12.252
673.39	11.111
673.72	12.402
674.04	10.828
674.37	10.103
674.69	12.500
675.01	11.489
675.34	9.761
675.66	12.959
675.98	9.692
676.31	11.538
676.63	10.345
676.95	11.062
677.28	12.529
677.60	11.538
677.92	11.894
678.25	12.035
678.57	12.346
678.89	10.901
679.22	10.901
679.54	13.609
679.86	10.000
680.18	10.646
680.51	11.359
680.83	10.667
681.15	12.909
681.48	13.185
681.80	12.903
682.12	8.451
682.44	11.788
682.77	9.740
683.09	14.046
683.41	12.611
683.73	9.817
684.06	10.968
684.38	10.251
684.70	10.905
685.02	11.024
685.34	13.060
685.67	10.985
685.99	10.964
686.31	12.029
686.63	9.929
686.96	10.536
687.28	6.936
687.60	11.523
687.92	10.506
688.24	12.598
688.56	11.423
688.89	9.829
689.21	11.816
689.53	12.644
689.85	11.804
690.17	9.641
690.49	12.933
690.82	10.120
691.14	10.613
691.46	11.086
691.78	11.894
692.10	11.864
692.42	10.222
692.74	11.373
693.06	11.236
693.39	11.409
693.71	10.835
694.03	14.039
694.35	11.512
694.67	10.875
694.99	7.673
695.31	11.735
695.63	9.439
695.95	10.918
696.27	10.474
696.59	13.369
696.91	10.674
697.23	9.375
697.56	12.019
697.88	11.036
698.20	11.135
698.52	10.987
698.84	10.437
699.16	9.048
699.48	12.500
699.80	9.524
700.12	10.831
700.44	7.263
700.76	9.329
701.08	9.884
701.40	9.063
701.72	9.877
702.04	11.538
702.36	12.349
702.68	10.778
703.00	8.406
703.32	8.023
703.64	12.059
703.96	12.791
704.28	10.651
704.60	3.797
704.91	7.302
705.23	11.327
705.55	9.122
705.87	9.556
706.19	6.250
706.51	5.208
706.83	8.525
707.15	8.599
707.47	12.948
707.79	11.856
708.11	8.397
708.43	12.469
708.74	9.610
709.06	9.749
709.38	10.920
709.70	6.875
710.02	10.429
710.34	10.561
710.66	9.841
710.98	11.987
711.29	5.806
711.61	7.668
711.93	9.508
712.25	10.963
712.57	9.756
712.89	8.273
713.20	14.777
713.52	6.716
713.84	10.320
714.16	10.492
714.48	7.302
714.80	10.769
715.11	9.510
715.43	15.060
715.75	8.100
716.07	6.885
716.39	8.696
716.70	10.801
717.02	10.370
717.34	11.832
717.66	11.203
717.97	8.197
718.29	11.765
718.61	11.111
718.93	8.244
719.24	9.559
719.56	4.151
719.88	6.909
720.20	5.993
720.51	12.030
720.83	8.835
721.15	8.607
721.46	10.196
721.78	4.981
722.10	10.400
722.42	6.612
722.73	5.976
723.05	6.827
723.37	8.235
723.68	4.049
724.00	10.569
724.32	13.992
724.63	3.320
724.95	10.744
725.27	9.211
725.58	5.172
725.90	8.730
726.22	11.439
726.53	10.266
726.85	5.098
727.16	10.150
727.48	10.000
727.80	1.230
728.11	13.025
728.43	3.306
728.74	7.031
729.06	9.848
729.38	9.728
729.69	13.780
730.01	10.236
730.32	-0.398
730.64	11.355
730.96	7.463
731.27	9.286
731.59	10.611
731.90	9.509
732.22	14.417
732.53	16.225
732.85	11.074
733.16	7.971
733.48	7.317
733.80	7.117
734.11	11.034
734.43	7.823
734.74	12.760
735.06	9.404
735.37	10.703
735.69	7.742
736.00	7.744
736.32	10.596
736.63	4.138
736.95	9.058
737.26	9.603
737.58	8.273
737.89	12.186
738.21	6.015
738.52	8.846
738.83	14.062
739.15	7.692
739.46	11.290
739.78	6.993
740.09	8.042
740.41	8.392
740.72	15.328
741.04	2.778
741.35	6.061
741.66	10.185
741.98	0.952
742.29	8.920
742.61	6.952
742.92	11.682
743.23	9.649
743.55	8.108
743.86	9.333
744.18	7.619
744.49	11.330
744.80	4.569
745.12	7.216
745.43	5.025
745.74	5.340
746.06	4.878
746.37	7.489
746.68	3.483
747.00	7.853
747.31	6.731
747.62	10.138
747.94	9.607
748.25	11.163
748.56	11.429
748.88	3.261
749.19	6.103
749.50	14.706
749.82	9.778
750.13	13.656
750.44	9.756
750.75	10.000
751.07	12.857
751.38	6.642
751.69	8.015
752.01	11.923
752.32	4.280
752.63	3.077
752.94	7.937
753.26	6.957
753.57	11.607
753.88	3.448
754.19	7.469
754.51	7.031
754.82	11.462
755.13	4.527
755.44	7.025
755.75	8.642
756.07	4.418
756.38	10.937
756.69	11.191
757.00	9.756
757.31	11.745
757.63	12.150
757.94	11.850
758.25	8.430
758.56	10.243
758.87	8.523
759.18	7.667
759.50	9.964
759.81	3.285
760.12	4.730
760.43	11.327
760.74	11.563
761.05	12.079
761.36	11.377
761.67	11.243
761.99	7.419
762.30	13.406
762.61	11.321
762.92	8.520
763.23	11.374
763.54	5.333
763.85	14.768
764.16	12.245
764.47	11.441
764.78	10.487
765.10	11.871
765.41	8.065
765.72	10.692
766.03	6.360
766.34	8.647
766.65	12.146
766.96	5.000
767.27	8.333
767.58	8.721
767.89	9.032
768.20	9.202
768.51	8.197
768.82	10.270
769.13	8.000
769.44	8.333
769.75	11.688
770.06	14.220
770.37	9.859
770.68	5.729
770.99	7.426
771.30	8.252
771.61	5.093
771.92	3.030
772.23	6.542
772.54	3.723
772.85	8.284
773.16	4.878
773.47	9.036
773.78	18.681
774.09	8.000
774.39	9.877
774.70	5.369
775.01	3.623
775.32	5.970
775.63	-6.612
775.94	5.263
776.25	0.714
776.56	13.115
776.87	9.735
777.18	13.274
777.48	-10.909
777.79	2.609
778.10	-1.835
778.41	0.000
778.72	10.744
779.03	2.239
779.34	4.511
779.65	4.575
779.95	4.348
780.26	0.680
780.57	-7.759
780.88	-5.556
781.19	-11.111
781.50	-4.000
781.80	5.882
782.11	11.538
782.42	10.843
782.73	-8.029
783.04	8.784
783.34	8.333
783.65	-2.326
783.96	10.569
784.27	-2.564
784.57	0.000
784.88	2.439
785.19	4.386
785.50	-17.526
785.81	7.619
786.11	-6.863
786.42	-3.636
786.73	-1.802
787.04	-2.970
787.34	-5.714
787.65	0.000
787.96	-2.941
788.26	-0.901
788.57	16.129
788.88	2.344
789.19	-5.128
789.49	-0.840
789.80	5.128
790.11	7.080
790.41	7.071
790.72	14.151
791.03	-16.667
791.33	-9.211
791.64	3.226
791.95	6.667
792.25	-7.143
792.56	4.878
792.87	15.306
793.17	-6.579
793.48	-8.108
793.79	-12.676
794.09	-13.924
794.40	-1.064
794.70	2.804
795.01	-0.877
795.32	1.818
795.62	1.786
795.93	-4.124
796.23	-10.989
796.54	9.474
796.85	-16.438
797.15	-4.167
797.46	10.959
797.76	-4.225
798.07	10.000
798.37	-5.882
798.68	12.857
798.99	-8.571
799.29	-1.316
799.60	-6.667
799.90	-18.056
800.21	-15.625
800.51	14.286
800.82	-3.279
801.12	-12.281
801.43	-11.268
801.73	-20.339
802.04	3.279
802.34	-10.909
802.65	-23.077
802.95	-9.259
803.26	-35.000
803.56	-28.846
803.87	-31.579
804.17	16.129
804.48	-1.538
804.78	-30.769
805.09	-20.930
805.39	-71.875
805.70	-26.415
806.00	17.544
806.30	4.054
806.61	-2.941
806.91	8.642
807.22	2.667
807.52	-2.985
807.83	-11.290
808.13	-23.810
808.43	-23.636
808.74	-7.576
809.04	1.887
809.35	-2.740
809.65	7.018
809.95	-1.471
810.26	-5.882
810.56	-40.000
810.86	0.000
811.17	-34.286
811.47	-15.385
811.77	-16.129
812.08	-78.947
812.38	-9.524
812.69	-4.348
812.99	-6.452
813.29	-21.429
813.59	-81.481
813.90	-27.660
814.20	-30.233
814.50	-22.917
814.81	-15.000
815.11	-9.756
815.41	-70.000
815.72	5.714
816.02	-33.333
816.32	-12.821
816.62	-45.946
816.93	-55.882
817.23	-28.261
817.53	-2.941
817.84	-23.529
818.14	-6.250
818.44	-79.310
818.74	-45.161
819.04	-40.741
819.35	-23.333
819.65	-48.000
819.95	-23.333
820.25	-48.000
820.56	-47.368
820.86	-7.500
821.16	-10.638
821.46	-5.172
821.76	-35.897
822.07	-37.500
822.37	16.279
822.67	-53.333
822.97	-24.324
823.27	-13.514
823.57	4.000
823.88	-16.216
824.18	-23.810
824.48	-23.077
824.78	-92.308
825.08	-34.783
825.38	-20.833
825.69	-29.167
825.99	-60.000
826.29	-16.216
826.59	-41.176
826.89	-44.000
827.19	-45.714
827.49	21.053
827.79	-34.375
828.09	-40.000
828.39	-34.783
828.70	-72.414
829.00	-13.793
829.30	8.333
829.60	-12.500
829.90	-66.667
830.20	-69.231
830.50	-95.238
830.80	-67.857
831.10	12.821
831.40	-76.190
831.70	0.000
832.00	-58.333
832.30	-100.000
832.60	-106.250
832.90	-191.667
833.20	-141.176
833.50	-160.000
833.80	-126.667
834.10	-95.000
834.40	-50.000
834.70	-50.000
835.00	-11.538
835.30	-33.333
835.60	-13.793
835.90	-72.222
836.20	-145.455
836.50	-150.000
836.80	-17.143
837.10	22.857
837.40	-11.765
837.70	-163.636
838.00	-37.500
838.30	-43.750
838.60	-76.190
838.90	-70.000
839.19	-56.522
839.49	-60.870
839.79	-116.667
840.09	-82.609
840.39	-72.727
840.69	-87.500
840.99	-57.895
841.29	-75.000
841.59	-7.143
841.88	-88.889
842.18	-29.167
842.48	-147.059
842.78	13.793
843.08	-121.429
843.38	0.000
843.68	-177.778
843.97	-138.462
844.27	-90.909
844.57	-260.000
844.87	12.000
845.17	-80.000
845.47	-64.286
845.76	-177.778
846.06	0.000
846.36	-300.000
846.66	-240.000
846.96	-100.000
847.25	4.167
847.55	-100.000
847.85	-113.333
848.15	-230.000
848.44	26.923
848.74	-5.263
849.04	500.000
849.34	-222.222
849.63	-57.895
849.93	0.000
850.23	-60.000
850.53	-19.048
850.82	-12.000
851.12	0.000
851.42	-900.000
851.71	-42.857
852.01	-141.667
852.31	-17.647
852.61	-26.667
852.90	-61.905
853.20	-100.000
853.50	-33.333
853.79	-89.474
854.09	-126.667
854.39	-50.000
854.68	-56.522
854.98	-175.000
855.28	-20.690
855.57	-25.000
855.87	-25.000
856.17	-126.667
856.46	-3.448
856.76	-53.333
857.05	-94.118
857.35	-246.154
857.65	-100.000
857.94	-37.037
858.24	-78.571
858.53	-100.000
858.83	-125.000
859.13	-255.556
859.42	23.810
859.72	-275.000
860.01	-466.667
860.31	-100.000
860.60	-280.000
860.90	-177.778
861.20	-112.500
861.49	-271.429
861.79	-41.176
862.08	-650.000
862.38	-183.333
862.67	-53.846
862.97	-82.353
863.26	0.000
863.56	-76.471
863.85	600.000
864.15	-140.000
864.44	-100.000
864.74	-65.000
865.03	-250.000
865.33	-333.333
865.62	-64.706
865.92	-900.000
866.21	-121.429
866.51	-100.000
866.80	-1400.000
867.10	-200.000
867.39	-111.765
867.69	-43.478
867.98	0.000
868.27	-280.000
868.57	-50.000
868.86	-218.182
869.16	-11.765
869.45	-266.667
869.75	-185.714
870.04	2200.000
870.33	-116.667
870.63	-300.000
870.92	-200.000
871.22	-83.333
871.51	-136.364
871.80	-75.000
872.10	-40.000
>>>>>End Processed Spectral Data<<<<<
