SpectraSuite Data File
++++++++++++++++++++++++++++++++++++
Date: Sat May 16 11:21:48 PDT 2015
User: schluterlab
Dark Spectrum Present: Yes
Reference Spectrum Present: Yes
Number of Sampled Component Spectra: 1
Spectrometers: USB2E3373
Integration Time (usec): 3000 (USB2E3373)
Spectra Averaged: 3 (USB2E3373)
Boxcar Smoothing: 0 (USB2E3373)
Correct for Electrical Dark: No (USB2E3373)
Strobe/Lamp Enabled: No (USB2E3373)
Correct for Detector Non-linearity: No (USB2E3373)
Correct for Stray Light: No (USB2E3373)
Number of Pixels in Processed Spectrum: 2048
>>>>>Begin Processed Spectral Data<<<<<
178.53	0.000
178.91	173.333
179.29	600.000
179.67	-200.000
180.04	-84.615
180.42	2000.000
180.80	75.000
181.18	300.000
181.56	-150.000
181.94	1400.000
182.31	300.000
182.69	-15.385
183.07	-600.000
183.45	1100.000
183.83	133.333
184.20	-357.143
184.58	-162.500
184.96	-325.000
185.34	156.250
185.72	-450.000
186.09	183.333
186.47	-175.000
186.85	-237.500
187.23	-25.000
187.61	-225.000
187.98	-275.000
188.36	-87.500
188.74	-162.500
189.12	1200.000
189.49	342.857
189.87	-41.667
190.25	25.000
190.63	-71.429
191.00	-155.556
191.38	400.000
191.76	-20.000
192.14	380.000
192.51	-60.000
192.89	-433.333
193.27	0.000
193.65	-144.444
194.02	-142.857
194.40	600.000
194.78	-60.000
195.15	-100.000
195.53	-109.091
195.91	-366.667
196.29	140.000
196.66	-700.000
197.04	2800.000
197.42	-75.000
197.79	0.000
198.17	-166.667
198.55	-1000.000
198.92	-1400.000
199.30	262.500
199.68	-450.000
200.05	-133.333
200.43	-222.222
200.81	-2300.000
201.18	-8.333
201.56	128.571
201.94	-46.667
202.31	27.273
202.69	60.000
203.07	20.000
203.44	700.000
203.82	-400.000
204.19	-325.000
204.57	-225.000
204.95	-900.000
205.32	37.500
205.70	1500.000
206.08	-1600.000
206.45	-22.222
206.83	-550.000
207.20	500.000
207.58	-600.000
207.96	33.333
208.33	-175.000
208.71	-144.444
209.08	170.000
209.46	-142.857
209.84	850.000
210.21	0.000
210.59	15.000
210.96	1200.000
211.34	-283.333
211.71	133.333
212.09	225.000
212.46	600.000
212.84	-2000.000
213.22	766.667
213.59	225.000
213.97	-22.222
214.34	200.000
214.72	-60.000
215.09	-433.333
215.47	-133.333
215.84	-200.000
216.22	-80.000
216.59	66.667
216.97	-400.000
217.34	400.000
217.72	-85.714
218.09	-250.000
218.47	-285.714
218.84	271.429
219.22	28.571
219.59	0.000
219.97	328.571
220.34	400.000
220.72	150.000
221.09	-23.077
221.47	0.000
221.84	700.000
222.22	-400.000
222.59	100.000
222.97	-137.500
223.34	-450.000
223.72	-366.667
224.09	-85.714
224.46	-400.000
224.84	-100.000
225.21	-257.143
225.59	-45.455
225.96	-187.500
226.34	-57.143
226.71	-166.667
227.08	-35.000
227.46	1700.000
227.83	-185.714
228.21	-150.000
228.58	550.000
228.95	-56.250
229.33	-2400.000
229.70	-280.000
230.08	-900.000
230.45	-41.667
230.82	-216.667
231.20	-500.000
231.57	-850.000
231.95	1200.000
232.32	-19.048
232.69	-200.000
233.07	-185.714
233.44	-900.000
233.81	-60.000
234.19	11.111
234.56	-62.500
234.93	0.000
235.31	-214.286
235.68	-107.143
236.05	-29.412
236.43	-72.727
236.80	0.000
237.17	-12.500
237.55	-66.667
237.92	-100.000
238.29	-42.857
238.67	-20.588
239.04	-41.667
239.41	-45.161
239.79	-79.487
240.16	-38.095
240.53	-40.000
240.91	-35.897
241.28	-7.273
241.65	9.231
242.02	9.836
242.40	-13.115
242.77	-10.606
243.14	-11.864
243.51	-27.143
243.89	3.797
244.26	-11.236
244.63	-7.368
245.00	-10.526
245.38	-5.085
245.75	-4.425
246.12	-4.800
246.49	-6.299
246.87	-8.130
247.24	-18.644
247.61	-10.169
247.98	-9.155
248.36	-9.790
248.73	-12.025
249.10	-8.280
249.47	-4.094
249.84	-1.136
250.22	-11.310
250.59	-9.605
250.96	-2.618
251.33	0.948
251.70	-8.654
252.08	-1.422
252.45	-9.953
252.82	-5.714
253.19	-6.809
253.56	-9.274
253.94	-6.751
254.31	-1.288
254.68	-1.220
255.05	-7.258
255.42	-2.381
255.79	-3.943
256.16	1.176
256.54	-3.309
256.91	-2.273
257.28	-3.297
257.65	-1.064
258.02	-0.943
258.39	-2.007
258.76	-5.068
259.14	-2.778
259.51	-3.279
259.88	-5.488
260.25	-2.174
260.62	-4.180
260.99	-3.264
261.36	-1.829
261.73	-2.312
262.10	-0.833
262.47	-4.558
262.85	2.000
263.22	-6.877
263.59	-5.538
263.96	-2.029
264.33	-0.813
264.70	-0.552
265.07	-2.473
265.44	-2.584
265.81	-1.550
266.18	-1.013
266.55	-0.980
266.92	0.756
267.29	-0.484
267.66	-4.938
268.03	0.000
268.40	-2.347
268.77	-0.723
269.14	-3.016
269.51	-0.460
269.88	-5.046
270.25	-3.030
270.62	-2.059
270.99	-4.505
271.36	-0.932
271.73	1.121
272.10	-1.831
272.47	-2.667
272.84	0.222
273.21	0.688
273.58	0.220
273.95	-2.851
274.32	-2.715
274.69	1.313
275.06	-2.249
275.43	-3.795
275.80	-0.204
276.17	-1.255
276.54	-1.222
276.91	-1.235
277.28	-1.014
277.65	-1.240
278.02	-0.626
278.39	-1.179
278.76	-0.598
279.13	-1.779
279.50	-0.398
279.87	-2.326
280.23	-0.405
280.60	-1.789
280.97	-3.301
281.34	-0.967
281.71	-1.346
282.08	-2.016
282.45	-2.648
282.82	-1.744
283.19	-0.545
283.56	0.733
283.92	-2.650
284.29	-2.602
284.66	-0.360
285.03	1.070
285.40	1.476
285.77	1.053
286.14	0.542
286.51	-1.776
286.87	0.181
287.24	-0.171
287.61	-0.496
287.98	-1.040
288.35	0.331
288.72	-1.698
289.08	-2.373
289.45	-1.178
289.82	-1.730
290.19	0.000
290.56	-2.810
290.93	-0.795
291.29	-2.107
291.66	-1.127
292.03	2.041
292.40	-0.301
292.77	-1.553
293.13	-2.276
293.50	-1.634
293.87	-2.301
294.24	0.000
294.60	-3.333
294.97	-0.152
295.34	-1.630
295.71	-1.339
296.08	-0.154
296.44	-3.004
296.81	-0.712
297.18	-1.268
297.55	-0.424
297.91	1.395
298.28	-0.685
298.65	-0.976
299.02	1.070
299.38	-0.267
299.75	-0.679
300.12	0.641
300.48	1.023
300.85	-0.655
301.22	0.388
301.59	-0.260
301.95	0.126
302.32	-0.130
302.69	-0.979
303.05	-0.122
303.42	0.125
303.79	-2.392
304.15	-0.355
304.52	1.050
304.89	-0.472
305.25	-1.221
305.62	-0.588
305.99	0.589
306.35	0.111
306.72	-1.822
307.09	0.681
307.45	-0.341
307.82	-0.670
308.19	-0.559
308.55	-0.980
308.92	-0.537
309.29	0.432
309.65	-0.636
310.02	-0.432
310.38	-0.757
310.75	1.025
311.12	0.000
311.48	1.148
311.85	-0.309
312.22	0.412
312.58	1.831
312.95	0.000
313.31	1.099
313.68	0.503
314.05	1.385
314.41	0.604
314.78	-1.199
315.14	0.790
315.51	-0.304
315.87	1.258
316.24	0.875
316.61	0.768
316.97	0.896
317.34	0.096
317.70	0.278
318.07	1.399
318.43	1.030
318.80	2.441
319.16	0.375
319.53	0.564
319.89	0.470
320.26	1.078
320.62	0.288
320.99	2.189
321.35	-0.197
321.72	0.409
322.08	0.890
322.45	0.891
322.81	0.865
323.18	1.249
323.54	2.126
323.91	1.668
324.27	1.711
324.64	0.091
325.00	2.269
325.37	1.900
325.73	3.150
326.10	0.797
326.46	1.839
326.83	0.851
327.19	2.419
327.56	3.578
327.92	2.294
328.29	2.857
328.65	0.818
329.01	2.473
329.38	2.944
329.74	2.656
330.11	2.629
330.47	2.452
330.84	3.483
331.20	1.986
331.56	2.370
331.93	2.398
332.29	2.192
332.66	2.283
333.02	2.262
333.38	3.763
333.75	3.651
334.11	1.956
334.48	2.736
334.84	4.112
335.20	3.014
335.57	3.069
335.93	2.954
336.29	2.746
336.66	2.819
337.02	3.964
337.38	1.961
337.75	2.809
338.11	4.114
338.47	3.025
338.84	2.450
339.20	2.812
339.56	3.119
339.93	2.734
340.29	3.100
340.65	2.273
341.02	3.794
341.38	3.033
341.74	3.556
342.11	3.413
342.47	2.918
342.83	2.435
343.20	2.647
343.56	2.531
343.92	3.756
344.28	3.869
344.65	2.310
345.01	2.185
345.37	3.821
345.73	2.209
346.10	2.208
346.46	2.193
346.82	2.727
347.19	1.233
347.55	2.809
347.91	2.677
348.27	2.466
348.63	4.523
349.00	3.580
349.36	1.639
349.72	4.061
350.08	2.807
350.45	3.546
350.81	3.264
351.17	2.733
351.53	1.432
351.89	2.668
352.26	3.256
352.62	4.531
352.98	2.532
353.34	2.798
353.70	3.166
354.07	2.832
354.43	3.953
354.79	2.298
355.15	3.275
355.51	3.125
355.87	2.609
356.24	3.813
356.60	4.110
356.96	4.234
357.32	2.930
357.68	2.835
358.04	3.541
358.40	2.784
358.77	3.478
359.13	3.826
359.49	3.930
359.85	2.973
360.21	4.338
360.57	4.217
360.93	4.889
361.29	3.886
361.66	1.677
362.02	2.441
362.38	4.109
362.74	3.956
363.10	3.228
363.46	4.630
363.82	2.988
364.18	3.763
364.54	4.360
364.90	2.725
365.26	3.352
365.62	3.849
365.98	3.983
366.35	3.592
366.71	3.383
367.07	3.740
367.43	4.530
367.79	3.505
368.15	2.916
368.51	4.056
368.87	4.602
369.23	4.351
369.59	4.375
369.95	4.017
370.31	4.782
370.67	3.326
371.03	4.373
371.39	2.758
371.75	3.934
372.11	3.945
372.47	3.688
372.83	4.033
373.19	3.929
373.55	4.856
373.91	4.481
374.27	4.244
374.63	4.210
374.99	4.659
375.35	4.307
375.71	4.862
376.07	4.038
376.42	2.980
376.78	4.706
377.14	3.661
377.50	4.449
377.86	4.291
378.22	4.397
378.58	5.003
378.94	4.131
379.30	4.753
379.66	5.586
380.02	4.397
380.38	4.955
380.74	4.220
381.09	5.272
381.45	4.236
381.81	4.658
382.17	4.887
382.53	4.498
382.89	4.844
383.25	5.298
383.61	5.601
383.97	5.205
384.32	4.756
384.68	4.958
385.04	4.952
385.40	4.869
385.76	5.549
386.12	5.309
386.48	5.012
386.83	5.644
387.19	5.320
387.55	4.846
387.91	5.276
388.27	4.644
388.62	5.048
388.98	5.633
389.34	4.590
389.70	5.359
390.06	4.786
390.42	5.577
390.77	4.795
391.13	5.901
391.49	5.115
391.85	5.299
392.20	5.340
392.56	5.254
392.92	5.705
393.28	6.028
393.64	6.133
393.99	6.092
394.35	5.596
394.71	6.115
395.07	5.650
395.42	5.244
395.78	4.840
396.14	5.732
396.50	5.321
396.85	5.799
397.21	5.043
397.57	5.410
397.92	6.089
398.28	6.056
398.64	5.294
399.00	6.011
399.35	5.186
399.71	6.156
400.07	5.851
400.42	6.022
400.78	5.307
401.14	5.629
401.49	6.250
401.85	6.040
402.21	5.542
402.57	6.250
402.92	6.167
403.28	5.576
403.63	4.673
403.99	5.345
404.35	5.495
404.70	5.968
405.06	6.690
405.42	5.412
405.77	5.882
406.13	4.997
406.49	5.932
406.84	5.459
407.20	6.125
407.55	5.636
407.91	5.829
408.27	5.760
408.62	5.953
408.98	6.428
409.34	5.241
409.69	5.797
410.05	5.943
410.40	5.579
410.76	6.165
411.11	5.112
411.47	6.330
411.83	6.907
412.18	5.446
412.54	5.552
412.89	5.650
413.25	5.195
413.60	5.468
413.96	5.114
414.31	5.933
414.67	5.016
415.03	6.080
415.38	5.465
415.74	6.250
416.09	4.987
416.45	5.159
416.80	5.787
417.16	5.050
417.51	6.500
417.87	5.955
418.22	5.879
418.58	5.712
418.93	6.622
419.29	6.274
419.64	5.653
420.00	6.622
420.35	5.855
420.71	5.942
421.06	5.799
421.42	5.562
421.77	6.644
422.12	6.212
422.48	6.360
422.83	6.264
423.19	5.958
423.54	6.398
423.90	5.726
424.25	5.826
424.61	6.936
424.96	6.905
425.31	6.596
425.67	6.705
426.02	5.336
426.38	7.441
426.73	6.195
427.09	6.679
427.44	6.761
427.79	5.930
428.15	7.002
428.50	6.393
428.85	6.355
429.21	6.364
429.56	6.406
429.92	6.663
430.27	6.331
430.62	6.792
430.98	7.371
431.33	6.617
431.68	6.917
432.04	7.387
432.39	7.066
432.74	6.715
433.10	6.753
433.45	6.160
433.80	6.271
434.16	6.717
434.51	6.521
434.86	7.323
435.22	7.684
435.57	6.548
435.92	6.975
436.28	6.706
436.63	6.444
436.98	6.071
437.34	6.911
437.69	6.768
438.04	6.466
438.39	7.100
438.75	7.218
439.10	7.496
439.45	6.880
439.81	7.048
440.16	7.041
440.51	7.706
440.86	7.808
441.22	6.136
441.57	6.947
441.92	7.366
442.27	7.197
442.63	7.618
442.98	6.716
443.33	7.304
443.68	6.670
444.03	6.778
444.39	7.342
444.74	7.379
445.09	7.401
445.44	7.710
445.79	6.935
446.15	7.558
446.50	5.825
446.85	7.748
447.20	6.844
447.55	7.293
447.91	7.075
448.26	6.872
448.61	7.357
448.96	7.899
449.31	7.610
449.66	6.697
450.02	7.202
450.37	6.841
450.72	7.006
451.07	7.354
451.42	7.187
451.77	7.361
452.12	6.794
452.47	7.746
452.83	7.630
453.18	7.464
453.53	8.085
453.88	7.476
454.23	7.013
454.58	7.520
454.93	7.809
455.28	7.266
455.63	7.125
455.98	8.072
456.34	6.099
456.69	8.568
457.04	8.236
457.39	7.237
457.74	7.324
458.09	7.483
458.44	8.199
458.79	6.726
459.14	7.815
459.49	7.342
459.84	7.645
460.19	7.995
460.54	7.260
460.89	6.951
461.24	7.954
461.59	7.913
461.94	7.129
462.29	7.802
462.64	7.378
462.99	7.898
463.34	6.752
463.69	6.870
464.04	8.202
464.39	6.930
464.74	7.624
465.09	7.937
465.44	7.671
465.79	8.235
466.14	7.998
466.49	8.290
466.84	7.803
467.19	7.731
467.54	7.532
467.89	8.138
468.24	7.779
468.59	7.620
468.94	7.074
469.29	7.862
469.64	7.749
469.99	8.440
470.34	7.749
470.68	8.503
471.03	9.222
471.38	7.222
471.73	8.112
472.08	7.095
472.43	8.301
472.78	8.867
473.13	8.019
473.48	8.232
473.83	7.692
474.17	7.516
474.52	9.335
474.87	9.149
475.22	8.319
475.57	7.889
475.92	8.315
476.27	8.171
476.61	8.563
476.96	8.776
477.31	8.504
477.66	8.356
478.01	8.428
478.36	8.800
478.70	8.329
479.05	8.491
479.40	7.772
479.75	8.206
480.10	8.532
480.45	8.656
480.79	8.687
481.14	8.931
481.49	8.809
481.84	8.414
482.19	8.634
482.53	8.428
482.88	8.068
483.23	8.545
483.58	9.019
483.92	8.505
484.27	8.507
484.62	8.726
484.97	8.963
485.31	8.000
485.66	8.184
486.01	7.923
486.36	8.228
486.70	8.525
487.05	8.465
487.40	7.986
487.75	8.619
488.09	8.369
488.44	8.288
488.79	8.985
489.13	8.711
489.48	8.728
489.83	9.083
490.17	9.055
490.52	9.284
490.87	8.499
491.22	8.688
491.56	8.796
491.91	8.731
492.26	8.726
492.60	8.611
492.95	9.757
493.30	8.766
493.64	8.275
493.99	8.987
494.34	9.000
494.68	9.223
495.03	9.321
495.37	8.407
495.72	9.234
496.07	8.728
496.41	9.403
496.76	8.950
497.11	9.279
497.45	9.052
497.80	8.754
498.14	8.939
498.49	8.187
498.84	8.932
499.18	9.113
499.53	8.914
499.87	8.542
500.22	9.265
500.56	8.754
500.91	8.966
501.26	9.995
501.60	8.714
501.95	9.662
502.29	8.692
502.64	10.042
502.98	9.439
503.33	9.305
503.67	9.339
504.02	9.126
504.36	9.314
504.71	8.612
505.06	9.436
505.40	10.080
505.75	8.333
506.09	9.454
506.44	9.624
506.78	9.433
507.13	9.423
507.47	10.329
507.82	10.067
508.16	9.896
508.51	9.325
508.85	9.524
509.19	9.733
509.54	10.148
509.88	9.362
510.23	10.377
510.57	10.582
510.92	10.580
511.26	10.048
511.61	9.611
511.95	9.537
512.30	9.951
512.64	9.405
512.98	10.231
513.33	9.830
513.67	10.497
514.02	9.787
514.36	10.803
514.70	9.677
515.05	10.292
515.39	10.150
515.74	11.751
516.08	10.548
516.42	10.878
516.77	10.861
517.11	11.041
517.46	10.885
517.80	10.469
518.14	10.447
518.49	11.058
518.83	10.326
519.17	11.782
519.52	10.411
519.86	10.573
520.20	11.125
520.55	10.769
520.89	10.645
521.23	12.088
521.58	10.909
521.92	11.716
522.26	11.683
522.61	10.266
522.95	11.678
523.29	11.599
523.64	10.743
523.98	10.503
524.32	10.999
524.66	10.435
525.01	10.918
525.35	12.113
525.69	11.386
526.04	11.292
526.38	11.712
526.72	10.856
527.06	11.068
527.41	11.617
527.75	10.759
528.09	11.648
528.43	11.148
528.78	11.118
529.12	12.228
529.46	10.825
529.80	11.168
530.15	12.041
530.49	11.902
530.83	11.657
531.17	11.044
531.51	11.520
531.86	11.784
532.20	12.213
532.54	11.698
532.88	11.462
533.22	12.567
533.57	12.206
533.91	11.735
534.25	11.691
534.59	11.743
534.93	12.508
535.27	10.824
535.62	12.148
535.96	12.540
536.30	11.322
536.64	12.151
536.98	11.864
537.32	11.126
537.66	12.084
538.01	11.546
538.35	12.365
538.69	11.230
539.03	11.848
539.37	11.178
539.71	12.608
540.05	11.652
540.39	12.050
540.73	12.509
541.07	12.022
541.42	11.344
541.76	11.761
542.10	12.154
542.44	12.258
542.78	12.415
543.12	11.270
543.46	10.822
543.80	11.639
544.14	11.686
544.48	12.073
544.82	11.367
545.16	12.408
545.50	11.709
545.84	12.517
546.18	11.859
546.52	11.735
546.86	11.254
547.20	12.096
547.54	12.397
547.88	11.878
548.22	11.337
548.56	11.690
548.90	12.803
549.24	10.301
549.58	12.279
549.92	12.085
550.26	13.078
550.60	12.376
550.94	11.971
551.28	12.340
551.62	12.925
551.96	12.229
552.30	12.753
552.64	10.908
552.98	11.773
553.32	11.760
553.66	12.401
554.00	12.651
554.34	11.769
554.68	11.550
555.02	12.156
555.36	11.071
555.69	11.461
556.03	12.491
556.37	12.233
556.71	12.384
557.05	12.491
557.39	12.175
557.73	13.129
558.07	11.605
558.41	12.416
558.75	11.483
559.08	10.506
559.42	12.864
559.76	12.577
560.10	12.379
560.44	12.355
560.78	11.621
561.12	12.077
561.45	12.740
561.79	11.638
562.13	12.202
562.47	12.465
562.81	12.164
563.15	12.176
563.48	11.748
563.82	11.697
564.16	11.494
564.50	12.298
564.84	11.442
565.17	12.135
565.51	12.516
565.85	12.170
566.19	13.109
566.52	12.329
566.86	11.315
567.20	12.712
567.54	12.936
567.88	11.781
568.21	11.577
568.55	12.195
568.89	10.984
569.23	11.337
569.56	10.761
569.90	11.448
570.24	11.124
570.57	11.037
570.91	11.085
571.25	11.089
571.59	11.208
571.92	11.101
572.26	11.174
572.60	10.704
572.93	10.468
573.27	10.518
573.61	10.812
573.95	10.777
574.28	10.720
574.62	10.702
574.96	10.668
575.29	10.696
575.63	10.645
575.97	10.329
576.30	10.770
576.64	10.392
576.98	10.351
577.31	10.489
577.65	10.736
577.98	10.629
578.32	10.250
578.66	10.789
578.99	10.365
579.33	10.349
579.67	10.424
580.00	10.764
580.34	10.812
580.67	10.419
581.01	10.283
581.35	10.436
581.68	10.286
582.02	10.520
582.35	10.595
582.69	10.706
583.02	10.411
583.36	10.486
583.70	10.932
584.03	10.830
584.37	10.528
584.70	10.732
585.04	10.481
585.37	10.668
585.71	10.643
586.04	10.613
586.38	10.799
586.72	10.485
587.05	10.649
587.39	10.544
587.72	10.937
588.06	11.032
588.39	11.051
588.73	11.074
589.06	11.093
589.40	11.542
589.73	11.544
590.07	11.034
590.40	11.476
590.73	11.076
591.07	11.762
591.40	11.265
591.74	11.512
592.07	10.811
592.41	11.847
592.74	11.414
593.08	11.432
593.41	11.250
593.75	10.880
594.08	10.999
594.41	11.165
594.75	11.476
595.08	10.977
595.42	11.019
595.75	11.062
596.09	11.176
596.42	11.702
596.75	10.910
597.09	11.220
597.42	11.087
597.75	11.470
598.09	11.297
598.42	12.064
598.76	10.507
599.09	11.405
599.42	10.996
599.76	11.250
600.09	11.641
600.42	11.280
600.76	11.450
601.09	11.318
601.42	10.408
601.76	11.215
602.09	11.452
602.42	10.988
602.76	10.553
603.09	11.250
603.42	11.402
603.76	10.929
604.09	10.933
604.42	10.783
604.76	11.557
605.09	11.438
605.42	11.525
605.75	10.953
606.09	11.457
606.42	11.227
606.75	11.292
607.09	11.469
607.42	11.312
607.75	10.861
608.08	11.478
608.42	10.501
608.75	10.701
609.08	11.154
609.41	11.211
609.75	10.629
610.08	11.225
610.41	11.614
610.74	11.750
611.07	11.258
611.41	11.447
611.74	12.339
612.07	11.815
612.40	10.874
612.73	11.416
613.07	10.732
613.40	12.151
613.73	11.553
614.06	11.532
614.39	11.612
614.72	10.894
615.06	11.141
615.39	11.069
615.72	11.841
616.05	11.044
616.38	11.608
616.71	12.072
617.05	12.183
617.38	12.570
617.71	10.995
618.04	11.429
618.37	11.258
618.70	12.190
619.03	11.848
619.36	12.403
619.69	12.563
620.03	10.950
620.36	11.814
620.69	12.132
621.02	11.644
621.35	10.887
621.68	12.295
622.01	12.540
622.34	12.655
622.67	11.016
623.00	11.859
623.33	11.716
623.66	11.374
623.99	12.256
624.32	12.202
624.65	12.656
624.99	11.128
625.32	11.826
625.65	11.733
625.98	11.581
626.31	11.990
626.64	12.134
626.97	12.757
627.30	13.787
627.63	10.881
627.96	12.185
628.29	12.316
628.62	13.181
628.95	13.484
629.28	12.876
629.61	11.384
629.94	13.422
630.26	14.016
630.59	13.467
630.92	13.313
631.25	14.113
631.58	12.275
631.91	11.383
632.24	13.222
632.57	12.444
632.90	13.678
633.23	13.084
633.56	11.696
633.89	13.679
634.22	12.751
634.55	13.221
634.88	13.785
635.20	12.984
635.53	14.249
635.86	13.350
636.19	13.309
636.52	12.306
636.85	12.274
637.18	9.875
637.51	14.374
637.83	11.585
638.16	12.895
638.49	12.276
638.82	12.484
639.15	14.267
639.48	11.543
639.81	13.555
640.13	12.838
640.46	14.815
640.79	14.426
641.12	13.963
641.45	13.056
641.77	13.922
642.10	10.725
642.43	13.657
642.76	12.913
643.09	13.333
643.41	14.921
643.74	13.672
644.07	13.729
644.40	13.452
644.73	12.046
645.05	11.686
645.38	13.907
645.71	13.058
646.04	13.109
646.36	12.565
646.69	13.841
647.02	12.816
647.35	12.094
647.67	12.591
648.00	14.938
648.33	15.008
648.66	12.419
648.98	14.490
649.31	12.769
649.64	13.750
649.96	13.815
650.29	11.311
650.62	12.048
650.94	10.455
651.27	12.825
651.60	13.322
651.92	15.068
652.25	12.354
652.58	13.288
652.90	13.483
653.23	13.710
653.56	10.870
653.88	12.295
654.21	14.765
654.54	13.123
654.86	12.199
655.19	12.178
655.52	11.943
655.84	10.442
656.17	10.795
656.49	14.914
656.82	15.443
657.15	11.778
657.47	8.843
657.80	6.687
658.13	7.909
658.45	10.694
658.78	10.328
659.10	10.436
659.43	11.023
659.75	10.936
660.08	11.406
660.41	11.833
660.73	11.111
661.06	15.072
661.38	13.750
661.71	12.237
662.03	12.903
662.36	14.925
662.68	13.502
663.01	16.136
663.33	10.884
663.66	15.665
663.98	10.714
664.31	10.515
664.63	15.487
664.96	12.798
665.28	12.581
665.61	11.416
665.93	12.346
666.26	16.194
666.58	12.890
666.91	13.140
667.23	17.544
667.56	12.472
667.88	13.801
668.21	15.207
668.53	11.449
668.86	15.704
669.18	12.100
669.50	12.850
669.83	11.192
670.15	13.677
670.48	13.551
670.80	11.162
671.13	12.415
671.45	11.937
671.77	14.133
672.10	13.412
672.42	13.284
672.75	11.455
673.07	12.793
673.39	12.933
673.72	11.811
674.04	12.527
674.37	11.134
674.69	14.344
675.01	14.255
675.34	11.280
675.66	13.823
675.98	13.656
676.31	10.860
676.63	13.333
676.95	13.496
677.28	11.137
677.60	13.575
677.92	14.758
678.25	12.473
678.57	15.638
678.89	12.998
679.22	13.836
679.54	12.426
679.86	10.000
680.18	12.738
680.51	10.056
680.83	13.905
681.15	11.368
681.48	14.199
681.80	11.089
682.12	13.078
682.44	12.967
682.77	9.740
683.09	13.417
683.41	13.717
683.73	10.274
684.06	12.258
684.38	13.180
684.70	12.140
685.02	11.024
685.34	11.306
685.67	10.227
685.99	11.531
686.31	12.926
686.63	11.348
686.96	13.494
687.28	10.019
687.60	10.156
687.92	9.728
688.24	13.386
688.56	11.824
688.89	9.615
689.21	11.597
689.53	11.724
689.85	11.581
690.17	10.538
690.49	11.778
690.82	8.193
691.14	12.736
691.46	13.525
691.78	12.555
692.10	13.983
692.42	11.556
692.74	12.876
693.06	11.236
693.39	10.738
693.71	12.867
694.03	10.367
694.35	8.578
694.67	9.929
694.99	8.951
695.31	13.520
695.63	10.969
695.95	15.136
696.27	13.466
696.59	10.963
696.91	10.393
697.23	13.021
697.56	9.615
697.88	9.009
698.20	10.921
698.52	8.296
698.84	13.592
699.16	11.905
699.48	10.250
699.80	10.025
700.12	13.602
700.44	7.821
700.76	9.038
701.08	9.884
701.40	7.855
701.72	14.506
702.04	10.256
702.36	11.747
702.68	12.275
703.00	10.435
703.32	8.309
703.64	12.941
703.96	10.174
704.28	11.538
704.60	9.810
704.91	7.937
705.23	12.298
705.55	7.432
705.87	11.263
706.19	7.986
706.51	9.722
706.83	11.803
707.15	9.554
707.47	11.846
707.79	12.113
708.11	8.142
708.43	10.474
708.74	9.610
709.06	10.028
709.38	10.632
709.70	11.562
710.02	14.417
710.34	6.271
710.66	8.571
710.98	10.410
711.29	7.419
711.61	7.987
711.93	6.885
712.25	13.621
712.57	10.105
712.89	11.511
713.20	11.340
713.52	5.970
713.84	9.253
714.16	13.115
714.48	10.794
714.80	10.154
715.11	8.357
715.43	16.265
715.75	10.592
716.07	6.557
716.39	8.696
716.70	9.408
717.02	9.259
717.34	7.252
717.66	12.863
717.97	11.475
718.29	12.605
718.61	11.508
718.93	13.262
719.24	12.132
719.56	7.170
719.88	8.364
720.20	7.116
720.51	13.158
720.83	8.032
721.15	9.016
721.46	11.373
721.78	7.663
722.10	10.000
722.42	12.397
722.73	11.952
723.05	10.040
723.37	15.294
723.68	10.121
724.00	19.106
724.32	14.403
724.63	12.033
724.95	14.876
725.27	3.070
725.58	11.638
725.90	11.905
726.22	12.915
726.53	9.506
726.85	3.529
727.16	7.895
727.48	8.462
727.80	6.148
728.11	9.664
728.43	8.678
728.74	12.891
729.06	13.636
729.38	8.171
729.69	3.937
730.01	7.874
730.32	7.171
730.64	11.355
730.96	14.925
731.27	10.000
731.59	9.003
731.90	10.736
732.22	11.350
732.53	14.238
732.85	8.725
733.16	8.333
733.48	8.711
733.80	5.338
734.11	11.034
734.43	10.884
734.74	9.199
735.06	9.091
735.37	13.150
735.69	3.548
736.00	9.091
736.32	10.596
736.63	7.586
736.95	5.435
737.26	10.927
737.58	9.712
737.89	12.186
738.21	8.271
738.52	12.692
738.83	10.547
739.15	8.974
739.46	12.097
739.78	11.189
740.09	9.091
740.41	9.091
740.72	13.139
741.04	9.921
741.35	6.061
741.66	10.185
741.98	10.476
742.29	13.146
742.61	11.765
742.92	18.692
743.23	5.702
743.55	12.162
743.86	13.333
744.18	6.667
744.49	9.852
744.80	11.168
745.12	11.856
745.43	14.573
745.74	12.621
746.06	8.293
746.37	10.573
746.68	9.950
747.00	5.236
747.31	6.250
747.62	7.373
747.94	13.537
748.25	12.093
748.56	10.000
748.88	4.348
749.19	11.737
749.50	15.686
749.82	11.111
750.13	11.454
750.44	6.098
750.75	6.400
751.07	13.929
751.38	8.856
751.69	5.725
752.01	10.769
752.32	7.393
752.63	9.231
752.94	5.556
753.26	11.739
753.57	12.946
753.88	8.621
754.19	4.564
754.51	7.812
754.82	6.719
755.13	11.523
755.44	9.091
755.75	6.173
756.07	5.221
756.38	3.906
756.69	7.581
757.00	8.711
757.31	9.732
757.63	12.150
757.94	9.827
758.25	9.593
758.56	11.051
758.87	12.784
759.18	5.000
759.50	8.897
759.81	5.109
760.12	6.081
760.43	9.709
760.74	8.750
761.05	11.798
761.36	10.180
761.67	9.467
761.99	7.097
762.30	15.580
762.61	12.453
762.92	8.520
763.23	6.161
763.54	5.333
763.85	10.549
764.16	9.388
764.47	9.322
764.78	11.236
765.10	11.871
765.41	7.419
765.72	10.063
766.03	4.240
766.34	10.150
766.65	11.336
766.96	3.000
767.27	11.979
767.58	2.907
767.89	2.581
768.20	10.429
768.51	8.743
768.82	11.351
769.13	6.500
769.44	7.456
769.75	8.658
770.06	8.716
770.37	6.573
770.68	13.542
770.99	8.911
771.30	6.311
771.61	15.278
771.92	4.329
772.23	3.738
772.54	4.255
772.85	0.592
773.16	9.146
773.47	3.614
773.78	15.934
774.09	3.333
774.39	12.346
774.70	6.711
775.01	3.623
775.32	1.493
775.63	5.785
775.94	16.541
776.25	7.857
776.56	4.098
776.87	3.540
777.18	10.619
777.48	-7.273
777.79	-0.870
778.10	6.422
778.41	7.627
778.72	7.438
779.03	12.687
779.34	0.752
779.65	4.575
779.95	10.145
780.26	-0.680
780.57	-6.897
780.88	-4.630
781.19	-2.020
781.50	-4.000
781.80	9.150
782.11	1.923
782.42	4.217
782.73	-5.839
783.04	11.486
783.34	-0.758
783.65	3.101
783.96	10.569
784.27	4.274
784.57	-2.439
784.88	4.878
785.19	17.544
785.50	-7.216
785.81	2.857
786.11	-1.961
786.42	-3.636
786.73	11.712
787.04	10.891
787.34	13.333
787.65	-9.524
787.96	-0.980
788.26	2.703
788.57	8.065
788.88	-4.688
789.19	12.821
789.49	9.244
789.80	5.128
790.11	7.080
790.41	2.020
790.72	4.717
791.03	1.389
791.33	-2.632
791.64	6.452
791.95	-1.333
792.25	-14.286
792.56	-1.220
792.87	13.265
793.17	-7.895
793.48	-13.514
793.79	-14.085
794.09	6.329
794.40	4.255
794.70	2.804
795.01	-7.018
795.32	-3.636
795.62	3.571
795.93	-11.340
796.23	-6.593
796.54	0.000
796.85	-2.740
797.15	-5.556
797.46	6.849
797.76	-7.042
798.07	1.250
798.37	4.412
798.68	-4.286
798.99	-1.429
799.29	7.895
799.60	-1.667
799.90	-16.667
800.21	-17.188
800.51	0.000
800.82	-3.279
801.12	0.000
801.43	-5.634
801.73	-13.559
802.04	0.000
802.34	0.000
802.65	-11.538
802.95	-9.259
803.26	-30.000
803.56	-21.154
803.87	-21.053
804.17	3.226
804.48	6.154
804.78	-23.077
805.09	-11.628
805.39	-21.875
805.70	20.755
806.00	5.263
806.30	8.108
806.61	8.824
806.91	8.642
807.22	-2.667
807.52	13.433
807.83	-1.613
808.13	-6.349
808.43	-21.818
808.74	-7.576
809.04	-11.321
809.35	17.808
809.65	3.509
809.95	14.706
810.26	19.608
810.56	-20.000
810.86	-12.245
811.17	-5.714
811.47	-23.077
811.77	-22.581
812.08	-28.947
812.38	-9.524
812.69	2.174
812.99	16.129
813.29	-16.667
813.59	-70.370
813.90	-17.021
814.20	-20.930
814.50	14.583
814.81	-8.333
815.11	-36.585
815.41	-13.333
815.72	20.000
816.02	-22.222
816.32	-10.256
816.62	-21.622
816.93	-47.059
817.23	-15.217
817.53	2.941
817.84	-5.882
818.14	-37.500
818.44	-65.517
818.74	-48.387
819.04	-7.407
819.35	-26.667
819.65	-40.000
819.95	-43.333
820.25	-48.000
820.56	-42.105
820.86	-2.500
821.16	-23.404
821.46	-3.448
821.76	-43.590
822.07	-60.000
822.37	-6.977
822.67	-53.333
822.97	-18.919
823.27	2.703
823.57	28.000
823.88	10.811
824.18	-90.476
824.48	-26.923
824.78	-176.923
825.08	-47.826
825.38	-45.833
825.69	-4.167
825.99	-125.000
826.29	-29.730
826.59	-50.000
826.89	-16.000
827.19	-48.571
827.49	7.895
827.79	-37.500
828.09	-40.000
828.39	8.696
828.70	-24.138
829.00	-24.138
829.30	-13.889
829.60	-6.250
829.90	-50.000
830.20	-38.462
830.50	-71.429
830.80	-46.429
831.10	17.949
831.40	-23.810
831.70	-8.824
832.00	-16.667
832.30	-84.211
832.60	-18.750
832.90	-158.333
833.20	-105.882
833.50	-86.667
833.80	-100.000
834.10	-50.000
834.40	-29.167
834.70	-33.333
835.00	-7.692
835.30	-66.667
835.60	-17.241
835.90	-83.333
836.20	-181.818
836.50	-166.667
836.80	-11.429
837.10	28.571
837.40	-47.059
837.70	-190.909
838.00	-4.167
838.30	-118.750
838.60	-23.810
838.90	-15.000
839.19	-43.478
839.49	-26.087
839.79	-88.889
840.09	-82.609
840.39	4.545
840.69	-93.750
840.99	-105.263
841.29	-12.500
841.59	-28.571
841.88	-105.556
842.18	-8.333
842.48	-52.941
842.78	13.793
843.08	-50.000
843.38	-100.000
843.68	-155.556
843.97	-100.000
844.27	-109.091
844.57	-240.000
844.87	-8.000
845.17	-320.000
845.47	-85.714
845.76	-133.333
846.06	0.000
846.36	-550.000
846.66	-140.000
846.96	-52.632
847.25	-33.333
847.55	-166.667
847.85	-53.333
848.15	-100.000
848.44	11.538
848.74	-5.263
849.04	766.667
849.34	11.111
849.63	-110.526
849.93	0.000
850.23	-100.000
850.53	-57.143
850.82	-24.000
851.12	-63.158
851.42	-550.000
851.71	-78.571
852.01	-175.000
852.31	-29.412
852.61	26.667
852.90	-61.905
853.20	0.000
853.50	-72.222
853.79	-52.632
854.09	-40.000
854.39	-42.857
854.68	-30.435
854.98	-183.333
855.28	-17.241
855.57	-81.250
855.87	-35.000
856.17	-66.667
856.46	-24.138
856.76	-53.333
857.05	-94.118
857.35	-146.154
857.65	-127.273
857.94	-59.259
858.24	-42.857
858.53	-107.143
858.83	-91.667
859.13	-166.667
859.42	23.810
859.72	-162.500
860.01	-433.333
860.31	25.000
860.60	-300.000
860.90	-122.222
861.20	-75.000
861.49	-185.714
861.79	0.000
862.08	-500.000
862.38	-125.000
862.67	-53.846
862.97	-11.765
863.26	-25.000
863.56	-82.353
863.85	633.333
864.15	-170.000
864.44	-30.769
864.74	20.000
865.03	-150.000
865.33	-233.333
865.62	-11.765
865.92	-575.000
866.21	-178.571
866.51	-208.333
866.80	-1100.000
867.10	-533.333
867.39	-52.941
867.69	26.087
867.98	-114.286
868.27	-340.000
868.57	-75.000
868.86	-109.091
869.16	-17.647
869.45	-250.000
869.75	-214.286
870.04	1300.000
870.33	-58.333
870.63	-220.000
870.92	-144.444
871.22	-50.000
871.51	-45.455
871.80	50.000
872.10	10.000
>>>>>End Processed Spectral Data<<<<<
