SpectraSuite Data File
++++++++++++++++++++++++++++++++++++
Date: Sat May 16 11:07:26 PDT 2015
User: schluterlab
Dark Spectrum Present: Yes
Reference Spectrum Present: Yes
Number of Sampled Component Spectra: 1
Spectrometers: USB2E3373
Integration Time (usec): 3000 (USB2E3373)
Spectra Averaged: 3 (USB2E3373)
Boxcar Smoothing: 0 (USB2E3373)
Correct for Electrical Dark: No (USB2E3373)
Strobe/Lamp Enabled: No (USB2E3373)
Correct for Detector Non-linearity: No (USB2E3373)
Correct for Stray Light: No (USB2E3373)
Number of Pixels in Processed Spectrum: 2048
>>>>>Begin Processed Spectral Data<<<<<
178.53	0.000
178.91	13.333
179.29	266.667
179.67	0.000
180.04	23.077
180.42	-500.000
180.80	75.000
181.18	-0.000
181.56	137.500
181.94	-0.000
182.31	75.000
182.69	100.000
183.07	-233.333
183.45	1300.000
183.83	33.333
184.20	85.714
184.58	100.000
184.96	-75.000
185.34	-37.500
185.72	50.000
186.09	83.333
186.47	0.000
186.85	75.000
187.23	125.000
187.61	75.000
187.98	-112.500
188.36	87.500
188.74	50.000
189.12	400.000
189.49	200.000
189.87	25.000
190.25	375.000
190.63	-14.286
191.00	-77.778
191.38	360.000
191.76	86.667
192.14	280.000
192.51	200.000
192.89	100.000
193.27	0.000
193.65	0.000
194.02	57.143
194.40	266.667
194.78	40.000
195.15	-100.000
195.53	100.000
195.91	-216.667
196.29	-100.000
196.66	-33.333
197.04	1400.000
197.42	100.000
197.79	46.667
198.17	-33.333
198.55	-100.000
198.92	200.000
199.30	-0.000
199.68	300.000
200.05	11.111
200.43	-88.889
200.81	-200.000
201.18	16.667
201.56	14.286
201.94	73.333
202.31	77.273
202.69	150.000
203.07	40.000
203.44	433.333
203.82	-100.000
204.19	-75.000
204.57	-150.000
204.95	-100.000
205.32	93.750
205.70	-100.000
206.08	-700.000
206.45	38.889
206.83	-650.000
207.20	450.000
207.58	-600.000
207.96	-66.667
208.33	-87.500
208.71	-77.778
209.08	40.000
209.46	57.143
209.84	50.000
210.21	0.000
210.59	80.000
210.96	-1300.000
211.34	-66.667
211.71	-300.000
212.09	50.000
212.46	50.000
212.84	-1300.000
213.22	-233.333
213.59	108.333
213.97	177.778
214.34	-0.000
214.72	40.000
215.09	-33.333
215.47	66.667
215.84	150.000
216.22	-10.000
216.59	46.667
216.97	-75.000
217.34	200.000
217.72	57.143
218.09	-83.333
218.47	-42.857
218.84	28.571
219.22	42.857
219.59	0.000
219.97	-14.286
220.34	225.000
220.72	150.000
221.09	38.462
221.47	0.000
221.84	166.667
222.22	0.000
222.59	-700.000
222.97	-37.500
223.34	-850.000
223.72	-66.667
224.09	71.429
224.46	-25.000
224.84	-14.286
225.21	-85.714
225.59	54.545
225.96	-100.000
226.34	-14.286
226.71	88.889
227.08	85.000
227.46	800.000
227.83	-171.429
228.21	-137.500
228.58	-50.000
228.95	25.000
229.33	-400.000
229.70	-140.000
230.08	-400.000
230.45	83.333
230.82	116.667
231.20	400.000
231.57	50.000
231.95	1600.000
232.32	80.952
232.69	-55.556
233.07	-85.714
233.44	-400.000
233.81	53.333
234.19	-77.778
234.56	37.500
234.93	50.000
235.31	-114.286
235.68	-28.571
236.05	-11.765
236.43	22.727
236.80	-22.581
237.17	4.167
237.55	14.286
237.92	-36.364
238.29	-2.857
238.67	14.706
239.04	52.778
239.41	-6.452
239.79	-12.821
240.16	4.762
240.53	23.636
240.91	12.821
241.28	9.091
241.65	30.769
242.02	1.639
242.40	6.557
242.77	18.182
243.14	22.034
243.51	-8.571
243.89	11.392
244.26	6.742
244.63	16.842
245.00	12.632
245.38	14.407
245.75	12.389
246.12	12.000
246.49	15.748
246.87	4.878
247.24	6.780
247.61	11.864
247.98	10.563
248.36	10.490
248.73	11.392
249.10	4.459
249.47	15.789
249.84	16.477
250.22	6.548
250.59	14.689
250.96	12.565
251.33	21.801
251.70	8.173
252.08	13.270
252.45	2.844
252.82	9.524
253.19	12.340
253.56	6.855
253.94	10.970
254.31	11.159
254.68	10.163
255.05	9.274
255.42	12.302
255.79	11.111
256.16	14.902
256.54	8.824
256.91	12.879
257.28	6.593
257.65	9.574
258.02	14.780
258.39	11.706
258.76	8.108
259.14	8.025
259.51	13.443
259.88	10.976
260.25	13.665
260.62	11.576
260.99	12.166
261.36	11.280
261.73	9.249
262.10	12.222
262.47	11.966
262.85	12.857
263.22	9.169
263.59	9.538
263.96	11.014
264.33	10.840
264.70	13.260
265.07	10.714
265.44	9.819
265.81	10.594
266.18	7.848
266.55	10.539
266.92	10.831
267.29	10.654
267.66	9.630
268.03	12.802
268.40	11.737
268.77	12.289
269.14	14.153
269.51	12.874
269.88	8.945
270.25	9.557
270.62	12.586
270.99	12.613
271.36	14.219
271.73	10.314
272.10	10.297
272.47	11.111
272.84	13.556
273.21	11.697
273.58	10.110
273.95	12.500
274.32	11.765
274.69	11.160
275.06	12.065
275.43	11.161
275.80	11.609
276.17	12.343
276.54	12.424
276.91	9.671
277.28	8.519
277.65	12.397
278.02	11.065
278.39	11.788
278.76	11.355
279.13	13.043
279.50	12.127
279.87	9.937
280.23	12.348
280.60	11.730
280.97	10.097
281.34	11.992
281.71	10.769
282.08	11.089
282.45	10.998
282.82	11.822
283.19	11.273
283.56	13.736
283.92	12.367
284.29	11.710
284.66	9.532
285.03	13.191
285.40	10.701
285.77	12.807
286.14	10.650
286.51	12.433
286.87	11.978
287.24	13.481
287.61	10.083
287.98	9.705
288.35	8.099
288.72	10.866
289.08	8.983
289.45	9.428
289.82	8.824
290.19	12.808
290.56	9.752
290.93	8.903
291.29	8.428
291.66	10.628
292.03	10.989
292.40	10.090
292.77	10.714
293.13	9.106
293.50	8.321
293.87	10.736
294.24	9.050
294.60	8.636
294.97	11.381
295.34	9.481
295.71	8.780
296.08	7.527
296.44	8.727
296.81	9.259
297.18	8.028
297.55	7.486
297.91	9.763
298.28	7.808
298.65	8.089
299.02	10.963
299.38	7.620
299.75	7.745
300.12	9.744
300.48	9.847
300.85	8.126
301.22	7.503
301.59	8.713
301.95	10.831
302.32	7.040
302.69	9.792
303.05	8.547
303.42	8.375
303.79	7.536
304.15	7.820
304.52	8.051
304.89	7.792
305.25	7.448
305.62	7.286
305.99	9.658
306.35	8.990
306.72	8.884
307.09	9.875
307.45	7.946
307.82	8.492
308.19	8.837
308.55	7.516
308.92	8.056
309.29	8.108
309.65	7.105
310.02	7.991
310.38	7.784
310.75	8.094
311.12	8.884
311.48	8.664
311.85	7.930
312.22	8.960
312.58	8.749
312.95	8.053
313.31	8.192
313.68	10.553
314.05	9.496
314.41	7.143
314.78	8.292
315.14	9.477
315.51	9.119
315.87	9.197
316.24	8.260
316.61	9.117
316.97	10.249
317.34	9.056
317.70	8.349
318.07	9.515
318.43	8.708
318.80	10.986
319.16	9.287
319.53	9.962
319.89	9.501
320.26	10.588
320.62	9.519
320.99	10.149
321.35	9.852
321.72	10.440
322.08	12.067
322.45	11.584
322.81	12.776
323.18	12.680
323.54	12.477
323.91	13.068
324.27	12.452
324.64	12.523
325.00	13.874
325.37	14.208
325.73	15.486
326.10	13.109
326.46	15.674
326.83	16.255
327.19	17.264
327.56	17.036
327.92	17.587
328.29	18.615
328.65	18.364
329.01	18.375
329.38	18.376
329.74	20.238
330.11	18.676
330.47	20.708
330.84	20.532
331.20	20.578
331.56	20.693
331.93	21.670
332.29	22.374
332.66	22.300
333.02	20.995
333.38	21.774
333.75	22.974
334.11	23.911
334.48	22.330
334.84	24.934
335.20	24.823
335.57	24.188
335.93	24.440
336.29	23.826
336.66	22.291
337.02	24.685
337.38	23.440
337.75	24.495
338.11	24.329
338.47	24.911
338.84	25.862
339.20	23.550
339.56	26.203
339.93	25.838
340.29	25.864
340.65	25.262
341.02	25.632
341.38	25.358
341.74	25.910
342.11	25.512
342.47	26.438
342.83	26.448
343.20	26.132
343.56	24.816
343.92	25.710
344.28	27.418
344.65	26.320
345.01	25.966
345.37	25.664
345.73	24.877
346.10	25.838
346.46	25.833
346.82	24.860
347.19	25.801
347.55	25.843
347.91	26.535
348.27	25.935
348.63	26.979
349.00	27.605
349.36	24.512
349.72	26.513
350.08	26.303
350.45	25.138
350.81	26.354
351.17	25.322
351.53	27.128
351.89	26.112
352.26	26.202
352.62	27.189
352.98	25.949
353.34	27.498
353.70	24.788
354.07	26.515
354.43	26.798
354.79	27.179
355.15	26.118
355.51	26.484
355.87	26.087
356.24	26.370
356.60	28.284
356.96	27.714
357.32	25.178
357.68	25.517
358.04	27.791
358.40	25.522
358.77	26.584
359.13	25.937
359.49	27.589
359.85	26.982
360.21	26.712
360.57	28.614
360.93	29.185
361.29	26.607
361.66	25.229
362.02	27.071
362.38	27.513
362.74	27.106
363.10	26.901
363.46	28.276
363.82	27.114
364.18	27.858
364.54	29.021
364.90	26.834
365.26	27.960
365.62	26.728
365.98	28.947
366.35	27.183
366.71	27.132
367.07	28.017
367.43	28.552
367.79	27.629
368.15	26.885
368.51	28.252
368.87	28.846
369.23	28.281
369.59	28.333
369.95	27.977
370.31	28.129
370.67	26.970
371.03	29.009
371.39	27.793
371.75	29.041
372.11	29.914
372.47	27.838
372.83	29.207
373.19	29.429
373.55	28.501
373.91	28.236
374.27	28.131
374.63	28.916
374.99	29.068
375.35	28.869
375.71	29.102
376.07	29.295
376.42	28.675
376.78	30.523
377.14	29.627
377.50	30.110
377.86	28.869
378.22	28.455
378.58	29.216
378.94	29.408
379.30	29.616
379.66	30.540
380.02	29.649
380.38	30.272
380.74	29.601
381.09	29.643
381.45	30.131
381.81	29.643
382.17	30.514
382.53	30.274
382.89	29.725
383.25	30.524
383.61	29.894
383.97	30.680
384.32	29.349
384.68	30.774
385.04	30.012
385.40	29.945
385.76	30.793
386.12	30.543
386.48	30.879
386.83	30.184
387.19	31.381
387.55	31.072
387.91	30.883
388.27	29.614
388.62	30.228
388.98	30.466
389.34	30.845
389.70	30.390
390.06	30.578
390.42	31.218
390.77	31.167
391.13	32.174
391.49	31.004
391.85	30.923
392.20	30.158
392.56	29.933
392.92	30.747
393.28	31.573
393.64	31.209
393.99	30.769
394.35	31.934
394.71	30.266
395.07	31.199
395.42	31.228
395.78	30.233
396.14	30.343
396.50	30.765
396.85	31.585
397.21	31.835
397.57	30.821
397.92	31.030
398.28	30.444
398.64	30.042
399.00	30.562
399.35	31.511
399.71	31.707
400.07	31.284
400.42	30.900
400.78	29.815
401.14	30.299
401.49	30.248
401.85	30.628
402.21	30.632
402.57	30.583
402.92	31.529
403.28	30.208
403.63	30.078
403.99	31.448
404.35	30.495
404.70	29.608
405.06	30.161
405.42	29.889
405.77	29.977
406.13	30.437
406.49	30.677
406.84	30.354
407.20	30.801
407.55	30.336
407.91	29.534
408.27	31.066
408.62	31.329
408.98	30.079
409.34	30.835
409.69	29.616
410.05	29.109
410.40	30.656
410.76	30.231
411.11	30.299
411.47	29.668
411.83	30.134
412.18	29.270
412.54	28.981
412.89	29.526
413.25	28.985
413.60	29.405
413.96	29.821
414.31	30.398
414.67	29.968
415.03	30.789
415.38	30.774
415.74	29.381
416.09	29.092
416.45	28.505
416.80	29.974
417.16	28.837
417.51	30.138
417.87	30.421
418.22	29.520
418.58	30.039
418.93	30.717
419.29	30.113
419.64	30.339
420.00	29.283
420.35	29.864
420.71	29.232
421.06	30.355
421.42	29.977
421.77	29.983
422.12	30.498
422.48	29.289
422.83	30.752
423.19	30.011
423.54	30.548
423.90	29.670
424.25	30.373
424.61	30.519
424.96	31.305
425.31	30.799
425.67	30.659
426.02	29.203
426.38	30.490
426.73	30.742
427.09	31.066
427.44	30.682
427.79	30.814
428.15	31.059
428.50	31.320
428.85	31.775
429.21	31.157
429.56	31.094
429.92	30.611
430.27	30.459
430.62	31.243
430.98	31.260
431.33	30.576
431.68	31.314
432.04	32.233
432.39	30.940
432.74	30.995
433.10	30.951
433.45	30.628
433.80	31.187
434.16	31.596
434.51	31.342
434.86	31.576
435.22	31.292
435.57	31.151
435.92	31.419
436.28	31.513
436.63	30.865
436.98	30.813
437.34	31.719
437.69	31.797
438.04	31.934
438.39	32.732
438.75	31.083
439.10	32.260
439.45	31.201
439.81	31.928
440.16	31.800
440.51	31.765
440.86	32.447
441.22	31.896
441.57	32.158
441.92	31.662
442.27	31.656
442.63	32.564
442.98	31.321
443.33	32.400
443.68	31.944
444.03	32.318
444.39	32.795
444.74	32.324
445.09	31.963
445.44	33.258
445.79	32.432
446.15	32.804
446.50	32.771
446.85	31.606
447.20	31.971
447.55	33.260
447.91	33.464
448.26	33.184
448.61	32.032
448.96	33.501
449.31	31.511
449.66	33.715
450.02	32.133
450.37	32.638
450.72	32.768
451.07	33.752
451.42	32.962
451.77	33.513
452.12	33.790
452.47	32.305
452.83	33.955
453.18	33.650
453.53	32.463
453.88	33.612
454.23	32.588
454.58	34.369
454.93	33.312
455.28	34.417
455.63	33.170
455.98	34.458
456.34	33.418
456.69	34.084
457.04	33.682
457.39	33.254
457.74	33.727
458.09	33.063
458.44	33.314
458.79	33.520
459.14	33.542
459.49	34.044
459.84	33.952
460.19	33.473
460.54	32.970
460.89	33.128
461.24	33.940
461.59	34.115
461.94	33.927
462.29	34.187
462.64	34.783
462.99	35.141
463.34	32.681
463.69	34.033
464.04	32.103
464.39	33.931
464.74	33.215
465.09	34.696
465.44	33.672
465.79	33.785
466.14	34.580
466.49	34.312
466.84	33.914
467.19	34.788
467.54	33.038
467.89	33.785
468.24	33.789
468.59	33.542
468.94	34.277
469.29	33.528
469.64	33.693
469.99	34.774
470.34	33.667
470.68	34.302
471.03	33.723
471.38	33.472
471.73	34.755
472.08	33.534
472.43	34.427
472.78	33.000
473.13	33.201
473.48	34.397
473.83	34.181
474.17	34.013
474.52	35.230
474.87	34.382
475.22	33.805
475.57	33.556
475.92	34.017
476.27	33.886
476.61	33.915
476.96	34.433
477.31	33.423
477.66	34.698
478.01	34.522
478.36	33.944
478.70	34.010
479.05	34.181
479.40	34.870
479.75	34.200
480.10	33.532
480.45	33.559
480.79	35.094
481.14	34.521
481.49	34.269
481.84	34.350
482.19	33.531
482.53	34.328
482.88	34.457
483.23	34.131
483.58	34.228
483.92	34.878
484.27	33.762
484.62	33.477
484.97	33.320
485.31	33.024
485.66	31.843
486.01	31.728
486.36	32.165
486.70	32.991
487.05	32.523
487.40	32.692
487.75	32.734
488.09	32.736
488.44	33.559
488.79	33.180
489.13	34.310
489.48	35.522
489.83	34.672
490.17	34.610
490.52	34.828
490.87	33.811
491.22	34.143
491.56	34.444
491.91	34.494
492.26	34.057
492.60	33.730
492.95	34.745
493.30	33.921
493.64	33.568
493.99	35.038
494.34	33.762
494.68	34.551
495.03	34.799
495.37	34.612
495.72	34.578
496.07	34.303
496.41	34.692
496.76	35.160
497.11	34.197
497.45	34.626
497.80	34.567
498.14	34.921
498.49	35.460
498.84	34.369
499.18	34.308
499.53	34.048
499.87	34.170
500.22	35.147
500.56	34.717
500.91	34.631
501.26	35.226
501.60	34.328
501.95	35.217
502.29	34.058
502.64	34.512
502.98	33.876
503.33	34.211
503.67	34.052
504.02	34.524
504.36	34.853
504.71	34.043
505.06	34.299
505.40	34.631
505.75	34.756
506.09	34.884
506.44	35.288
506.78	34.772
507.13	33.934
507.47	35.368
507.82	34.538
508.16	34.974
508.51	34.570
508.85	35.714
509.19	35.060
509.54	35.359
509.88	35.904
510.23	34.591
510.57	35.397
510.92	34.748
511.26	34.822
511.61	34.449
511.95	35.291
512.30	35.679
512.64	35.225
512.98	35.534
513.33	35.585
513.67	35.623
514.02	34.620
514.36	36.288
514.70	35.144
515.05	35.620
515.39	34.717
515.74	36.358
516.08	34.467
516.42	36.204
516.77	35.124
517.11	35.584
517.46	36.065
517.80	35.981
518.14	34.843
518.49	37.179
518.83	35.134
519.17	36.175
519.52	34.644
519.86	36.619
520.20	36.369
520.55	36.123
520.89	36.819
521.23	37.057
521.58	35.361
521.92	36.162
522.26	37.079
522.61	37.326
522.95	36.439
523.29	36.552
523.64	36.352
523.98	36.601
524.32	36.581
524.66	36.025
525.01	36.031
525.35	35.825
525.69	34.873
526.04	36.554
526.38	36.792
526.72	35.632
527.06	36.458
527.41	36.106
527.75	35.182
528.09	35.738
528.43	35.541
528.78	35.553
529.12	36.492
529.46	36.147
529.80	35.830
530.15	35.930
530.49	36.093
530.83	37.263
531.17	36.633
531.51	36.169
531.86	35.813
532.20	36.842
532.54	35.294
532.88	36.232
533.22	36.230
533.57	36.162
533.91	35.144
534.25	36.581
534.59	34.666
534.93	35.345
535.27	35.179
535.62	36.381
535.96	35.294
536.30	34.555
536.64	36.454
536.98	37.500
537.32	35.522
537.66	36.456
538.01	36.151
538.35	36.486
538.69	36.029
539.03	35.680
539.37	35.396
539.71	35.824
540.05	35.572
540.39	35.111
540.73	35.522
541.07	35.724
541.42	34.639
541.76	35.017
542.10	35.584
542.44	35.576
542.78	36.364
543.12	36.456
543.46	34.384
543.80	34.649
544.14	35.594
544.48	37.073
544.82	36.130
545.16	36.150
545.50	34.791
545.84	35.744
546.18	35.368
546.52	35.491
546.86	36.111
547.20	36.076
547.54	34.091
547.88	34.837
548.22	34.273
548.56	35.204
548.90	36.321
549.24	34.758
549.58	35.568
549.92	36.184
550.26	37.428
550.60	34.851
550.94	36.642
551.28	35.741
551.62	36.263
551.96	36.252
552.30	35.958
552.64	36.312
552.98	35.459
553.32	36.291
553.66	36.698
554.00	35.750
554.34	35.740
554.68	36.111
555.02	36.252
555.36	35.011
555.69	34.814
556.03	36.000
556.37	36.273
556.71	37.366
557.05	36.659
557.39	35.783
557.73	36.397
558.07	36.398
558.41	35.453
558.75	36.046
559.08	34.864
559.42	35.988
559.76	36.963
560.10	35.570
560.44	36.633
560.78	35.073
561.12	35.818
561.45	36.233
561.79	35.819
562.13	34.642
562.47	35.224
562.81	35.007
563.15	35.409
563.48	34.692
563.82	36.782
564.16	35.362
564.50	36.290
564.84	35.582
565.17	34.947
565.51	36.115
565.85	35.294
566.19	35.046
566.52	33.529
566.86	34.640
567.20	35.109
567.54	35.913
567.88	33.836
568.21	34.172
568.55	34.305
568.89	34.046
569.23	33.642
569.56	32.198
569.90	32.691
570.24	33.634
570.57	31.388
570.91	32.982
571.25	31.939
571.59	32.220
571.92	31.250
572.26	31.845
572.60	32.175
572.93	31.434
573.27	31.250
573.61	31.517
573.95	32.198
574.28	30.684
574.62	31.317
574.96	30.957
575.29	31.377
575.63	31.086
575.97	31.526
576.30	31.762
576.64	31.201
576.98	31.351
577.31	31.395
577.65	30.955
577.98	30.517
578.32	30.815
578.66	31.196
578.99	31.240
579.33	31.550
579.67	31.575
580.00	31.300
580.34	31.140
580.67	31.552
581.01	30.713
581.35	31.222
581.68	30.649
582.02	30.990
582.35	30.482
582.69	30.791
583.02	31.742
583.36	31.625
583.70	31.234
584.03	31.870
584.37	32.260
584.70	31.747
585.04	31.342
585.37	30.811
585.71	31.326
586.04	31.560
586.38	31.516
586.72	31.003
587.05	31.776
587.39	31.385
587.72	31.643
588.06	31.554
588.39	32.128
588.73	32.649
589.06	31.969
589.40	33.356
589.73	32.472
590.07	33.212
590.40	32.694
590.73	33.067
591.07	32.705
591.40	33.406
591.74	33.536
592.07	33.018
592.41	32.484
592.74	32.475
593.08	32.853
593.41	31.842
593.75	31.586
594.08	32.998
594.41	32.606
594.75	33.447
595.08	32.895
595.42	32.442
595.75	31.606
596.09	32.596
596.42	33.797
596.75	33.549
597.09	33.882
597.42	33.042
597.75	33.525
598.09	32.851
598.42	33.540
598.76	32.890
599.09	32.044
599.42	32.103
599.76	32.427
600.09	32.977
600.42	32.548
600.76	33.258
601.09	32.852
601.42	32.331
601.76	32.905
602.09	32.556
602.42	32.551
602.76	32.405
603.09	32.823
603.42	33.280
603.76	33.666
604.09	32.439
604.42	31.973
604.76	33.014
605.09	33.273
605.42	32.713
605.75	32.988
606.09	32.669
606.42	32.468
606.75	33.061
607.09	33.216
607.42	32.394
607.75	32.627
608.08	33.077
608.42	33.396
608.75	33.084
609.08	32.879
609.41	33.533
609.75	32.716
610.08	33.578
610.41	32.916
610.74	33.752
611.07	33.266
611.41	32.728
611.74	33.625
612.07	35.231
612.40	32.836
612.73	33.172
613.07	34.397
613.40	34.319
613.73	35.041
614.06	33.388
614.39	34.667
614.72	33.464
615.06	34.293
615.39	33.152
615.72	33.949
616.05	33.683
616.38	34.359
616.71	33.514
617.05	35.826
617.38	35.046
617.71	34.644
618.04	33.665
618.37	35.094
618.70	35.398
619.03	33.988
619.36	37.139
619.69	35.966
620.03	34.986
620.36	33.896
620.69	35.391
621.02	35.997
621.35	35.968
621.68	36.803
622.01	36.327
622.34	35.248
622.67	34.609
623.00	35.578
623.33	35.299
623.66	34.564
623.99	35.414
624.32	35.640
624.65	34.511
624.99	35.549
625.32	35.329
625.65	34.421
625.98	34.977
626.31	36.542
626.64	37.490
626.97	36.986
627.30	36.511
627.63	35.320
627.96	36.205
628.29	36.857
628.62	37.918
628.95	38.189
629.28	36.090
629.61	36.801
629.94	37.807
630.26	39.165
630.59	38.492
630.92	37.738
631.25	35.887
631.58	37.989
631.91	35.745
632.24	40.000
632.57	38.111
632.90	37.816
633.23	39.836
633.56	37.778
633.89	38.208
634.22	37.426
634.55	38.101
634.88	37.243
635.20	37.703
635.53	40.076
635.86	37.783
636.19	37.607
636.52	38.232
636.85	37.665
637.18	36.625
637.51	38.290
637.83	39.680
638.16	39.605
638.49	38.759
638.82	36.165
639.15	39.429
639.48	36.316
639.81	41.217
640.13	37.973
640.46	40.171
640.79	37.255
641.12	40.480
641.45	38.164
641.77	38.922
642.10	40.181
642.43	39.454
642.76	37.165
643.09	39.365
643.41	39.206
643.74	41.176
644.07	39.470
644.40	39.546
644.73	39.604
645.05	39.900
645.38	41.556
645.71	42.440
646.04	40.504
646.36	42.059
646.69	39.273
647.02	40.794
647.35	40.253
647.67	41.788
648.00	41.125
648.33	44.013
648.66	38.226
648.98	43.790
649.31	37.846
649.64	39.375
649.96	39.403
650.29	39.836
650.62	41.824
650.94	39.123
651.27	38.995
651.60	38.062
651.92	41.610
652.25	39.399
652.58	39.523
652.90	37.239
653.23	39.355
653.56	37.793
653.88	39.016
654.21	41.275
654.54	41.196
654.86	40.128
655.19	38.682
655.52	34.165
655.84	28.894
656.17	31.331
656.49	42.688
656.82	44.479
657.15	33.607
657.47	25.075
657.80	19.385
658.13	22.347
658.45	30.856
658.78	31.026
659.10	31.606
659.43	32.241
659.75	33.360
660.08	34.844
660.41	34.405
660.73	37.404
661.06	40.725
661.38	39.107
661.71	39.197
662.03	41.331
662.36	41.578
662.68	41.139
663.01	43.100
663.33	42.630
663.66	40.558
663.98	40.625
664.31	43.177
664.63	42.035
664.96	41.432
665.28	38.612
665.61	38.901
665.93	43.210
666.26	42.308
666.58	41.372
666.91	42.316
667.23	43.860
667.56	41.723
667.88	45.249
668.21	39.401
668.53	42.757
668.86	39.954
669.18	43.379
669.50	41.121
669.83	44.039
670.15	40.583
670.48	40.421
670.80	38.497
671.13	41.535
671.45	40.090
671.77	40.043
672.10	40.237
672.42	36.531
672.75	40.000
673.07	37.477
673.39	37.341
673.72	40.551
674.04	40.552
674.37	37.938
674.69	40.369
675.01	40.213
675.34	42.082
675.66	43.413
675.98	39.868
676.31	42.308
676.63	38.391
676.95	38.938
677.28	38.747
677.60	37.557
677.92	41.630
678.25	42.013
678.57	41.564
678.89	38.365
679.22	38.784
679.54	41.026
679.86	37.000
680.18	39.924
680.51	35.196
680.83	36.381
681.15	36.994
681.48	39.554
681.80	38.710
682.12	38.028
682.44	37.328
682.77	37.662
683.09	36.897
683.41	40.265
683.73	39.954
684.06	36.774
684.38	40.586
684.70	37.243
685.02	37.205
685.34	36.842
685.67	34.848
685.99	35.728
686.31	36.445
686.63	36.525
686.96	35.305
687.28	34.297
687.60	36.914
687.92	34.241
688.24	37.205
688.56	36.874
688.89	36.111
689.21	37.637
689.53	40.690
689.85	36.748
690.17	37.668
690.49	39.261
690.82	39.518
691.14	38.443
691.46	38.803
691.78	38.106
692.10	39.831
692.42	36.667
692.74	34.979
693.06	38.202
693.39	38.479
693.71	37.246
694.03	37.797
694.35	38.375
694.67	36.643
694.99	37.596
695.31	39.541
695.63	36.480
695.95	39.206
696.27	40.150
696.59	37.968
696.91	41.011
697.23	36.458
697.56	35.817
697.88	35.811
698.20	34.261
698.52	32.960
698.84	39.320
699.16	35.714
699.48	35.000
699.80	36.842
700.12	38.035
700.44	35.196
700.76	37.609
701.08	38.953
701.40	38.973
701.72	34.568
702.04	39.744
702.36	40.361
702.68	41.617
703.00	34.203
703.32	36.390
703.64	47.059
703.96	39.826
704.28	40.828
704.60	35.759
704.91	39.683
705.23	39.159
705.55	42.230
705.87	38.225
706.19	32.639
706.51	37.153
706.83	42.623
707.15	36.306
707.47	37.466
707.79	35.309
708.11	34.606
708.43	38.404
708.74	36.623
709.06	35.376
709.38	37.356
709.70	38.125
710.02	46.626
710.34	36.634
710.66	37.460
710.98	37.855
711.29	36.452
711.61	37.380
711.93	39.016
712.25	38.870
712.57	37.631
712.89	45.683
713.20	40.206
713.52	35.448
713.84	36.655
714.16	40.656
714.48	39.365
714.80	36.923
715.11	38.040
715.43	40.663
715.75	37.072
716.07	37.377
716.39	38.127
716.70	40.070
717.02	40.741
717.34	41.985
717.66	41.494
717.97	38.934
718.29	33.193
718.61	38.492
718.93	31.183
719.24	36.029
719.56	33.208
719.88	36.727
720.20	37.453
720.51	40.226
720.83	38.554
721.15	34.836
721.46	38.039
721.78	39.080
722.10	38.400
722.42	39.256
722.73	39.044
723.05	40.964
723.37	36.863
723.68	35.628
724.00	47.561
724.32	42.387
724.63	34.025
724.95	41.736
725.27	36.842
725.58	41.379
725.90	37.698
726.22	40.959
726.53	36.122
726.85	33.333
727.16	38.722
727.48	35.000
727.80	38.115
728.11	36.134
728.43	38.430
728.74	35.938
729.06	37.121
729.38	31.128
729.69	33.465
730.01	36.614
730.32	31.873
730.64	32.967
730.96	39.552
731.27	35.000
731.59	31.833
731.90	34.969
732.22	32.209
732.53	38.411
732.85	31.879
733.16	32.971
733.48	34.495
733.80	31.673
734.11	37.931
734.43	33.333
734.74	34.718
735.06	33.229
735.37	34.251
735.69	31.935
736.00	32.323
736.32	36.755
736.63	30.345
736.95	31.522
737.26	37.417
737.58	37.770
737.89	39.068
738.21	31.203
738.52	36.538
738.83	32.422
739.15	30.769
739.46	37.903
739.78	34.965
740.09	34.266
740.41	36.713
740.72	32.117
741.04	35.317
741.35	29.004
741.66	35.648
741.98	34.762
742.29	34.742
742.61	34.759
742.92	42.991
743.23	35.088
743.55	36.486
743.86	41.333
744.18	33.333
744.49	37.438
744.80	35.533
745.12	41.237
745.43	40.704
745.74	43.204
746.06	37.561
746.37	40.529
746.68	38.308
747.00	40.838
747.31	30.288
747.62	34.101
747.94	35.371
748.25	40.930
748.56	35.714
748.88	33.152
749.19	33.803
749.50	42.157
749.82	37.333
750.13	36.564
750.44	30.488
750.75	36.400
751.07	38.571
751.38	32.103
751.69	28.244
752.01	32.692
752.32	34.241
752.63	34.615
752.94	30.952
753.26	34.348
753.57	36.607
753.88	34.483
754.19	31.120
754.51	33.203
754.82	30.435
755.13	34.979
755.44	32.645
755.75	35.391
756.07	31.325
756.38	33.984
756.69	36.462
757.00	32.056
757.31	30.537
757.63	33.022
757.94	30.925
758.25	30.814
758.56	35.849
758.87	29.545
759.18	31.000
759.50	29.181
759.81	32.117
760.12	27.365
760.43	33.333
760.74	37.187
761.05	32.303
761.36	31.138
761.67	32.840
761.99	28.387
762.30	33.696
762.61	33.208
762.92	34.529
763.23	36.967
763.54	34.667
763.85	32.068
764.16	31.837
764.47	32.203
764.78	28.839
765.10	38.489
765.41	32.903
765.72	29.245
766.03	27.208
766.34	30.827
766.65	35.223
766.96	27.500
767.27	34.896
767.58	38.953
767.89	32.258
768.20	46.626
768.51	39.344
768.82	38.378
769.13	32.000
769.44	29.386
769.75	32.468
770.06	36.697
770.37	31.455
770.68	32.812
770.99	34.158
771.30	31.553
771.61	30.556
771.92	29.870
772.23	27.570
772.54	37.766
772.85	29.586
773.16	36.585
773.47	39.759
773.78	36.264
774.09	34.000
774.39	41.975
774.70	42.953
775.01	32.609
775.32	38.806
775.63	29.752
775.94	38.346
776.25	35.714
776.56	42.623
776.87	39.823
777.18	43.363
777.48	26.364
777.79	28.696
778.10	31.193
778.41	27.966
778.72	24.793
779.03	39.552
779.34	34.586
779.65	36.601
779.95	36.957
780.26	35.374
780.57	23.276
780.88	45.370
781.19	33.333
781.50	28.000
781.80	29.412
782.11	38.462
782.42	37.952
782.73	28.467
783.04	31.081
783.34	34.848
783.65	31.783
783.96	40.650
784.27	26.496
784.57	33.333
784.88	23.577
785.19	38.596
785.50	16.495
785.81	40.000
786.11	27.451
786.42	30.909
786.73	43.243
787.04	45.545
787.34	33.333
787.65	24.762
787.96	31.373
788.26	35.135
788.57	42.742
788.88	39.844
789.19	29.060
789.49	31.933
789.80	32.479
790.11	46.018
790.41	41.414
790.72	44.340
791.03	30.556
791.33	39.474
791.64	38.710
791.95	33.333
792.25	34.286
792.56	47.561
792.87	31.633
793.17	28.947
793.48	25.676
793.79	19.718
794.09	34.177
794.40	25.532
794.70	22.430
795.01	20.175
795.32	29.091
795.62	30.357
795.93	30.928
796.23	27.473
796.54	35.789
796.85	16.438
797.15	36.111
797.46	49.315
797.76	45.070
798.07	35.000
798.37	29.412
798.68	35.714
798.99	31.429
799.29	38.158
799.60	33.333
799.90	16.667
800.21	39.062
800.51	49.206
800.82	52.459
801.12	40.351
801.43	14.085
801.73	15.254
802.04	45.902
802.34	38.182
802.65	46.154
802.95	29.630
803.26	37.500
803.56	51.923
803.87	26.316
804.17	37.097
804.48	43.077
804.78	48.718
805.09	37.209
805.39	28.125
805.70	22.642
806.00	61.404
806.30	55.405
806.61	26.471
806.91	35.802
807.22	37.333
807.52	28.358
807.83	29.032
808.13	23.810
808.43	3.636
808.74	30.303
809.04	22.642
809.35	26.027
809.65	40.351
809.95	35.294
810.26	50.980
810.56	26.000
810.86	42.857
811.17	20.000
811.47	44.231
811.77	35.484
812.08	13.158
812.38	40.476
812.69	21.739
812.99	51.613
813.29	30.952
813.59	18.519
813.90	38.298
814.20	6.977
814.50	45.833
814.81	45.000
815.11	41.463
815.41	40.000
815.72	20.000
816.02	25.000
816.32	66.667
816.62	48.649
816.93	26.471
817.23	26.087
817.53	17.647
817.84	38.235
818.14	-9.375
818.44	24.138
818.74	6.452
819.04	40.741
819.35	56.667
819.65	36.000
819.95	56.667
820.25	48.000
820.56	36.842
820.86	45.000
821.16	19.149
821.46	50.000
821.76	41.026
822.07	10.000
822.37	18.605
822.67	23.333
822.97	10.811
823.27	32.432
823.57	72.000
823.88	54.054
824.18	-23.810
824.48	38.462
824.78	-15.385
825.08	43.478
825.38	33.333
825.69	8.333
825.99	15.000
826.29	0.000
826.59	32.353
826.89	8.000
827.19	20.000
827.49	42.105
827.79	28.125
828.09	33.333
828.39	60.870
828.70	27.586
829.00	51.724
829.30	41.667
829.60	59.375
829.90	11.111
830.20	7.692
830.50	4.762
830.80	14.286
831.10	38.462
831.40	33.333
831.70	17.647
832.00	41.667
832.30	21.053
832.60	87.500
832.90	-25.000
833.20	5.882
833.50	33.333
833.80	60.000
834.10	45.000
834.40	37.500
834.70	-5.556
835.00	26.923
835.30	12.500
835.60	0.000
835.90	16.667
836.20	-18.182
836.50	75.000
836.80	40.000
837.10	54.286
837.40	35.294
837.70	-45.455
838.00	45.833
838.30	12.500
838.60	71.429
838.90	90.000
839.19	39.130
839.49	34.783
839.79	33.333
840.09	43.478
840.39	45.455
840.69	18.750
840.99	31.579
841.29	-12.500
841.59	78.571
841.88	61.111
842.18	29.167
842.48	52.941
842.78	41.379
843.08	7.143
843.38	30.769
843.68	-44.444
843.97	-15.385
844.27	54.545
844.57	120.000
844.87	60.000
845.17	-140.000
845.47	14.286
845.76	44.444
846.06	0.000
846.36	75.000
846.66	40.000
846.96	36.842
847.25	37.500
847.55	0.000
847.85	53.333
848.15	0.000
848.44	57.692
848.74	100.000
849.04	66.667
849.34	77.778
849.63	-26.316
849.93	0.000
850.23	-25.000
850.53	33.333
850.82	16.000
851.12	52.632
851.42	-300.000
851.71	71.429
852.01	41.667
852.31	64.706
852.61	100.000
852.90	57.143
853.20	-150.000
853.50	0.000
853.79	52.632
854.09	26.667
854.39	35.714
854.68	86.957
854.98	-150.000
855.28	41.379
855.57	56.250
855.87	15.000
856.17	6.667
856.46	6.897
856.76	13.333
857.05	11.765
857.35	-15.385
857.65	90.909
857.94	-7.407
858.24	-50.000
858.53	35.714
858.83	-8.333
859.13	-44.444
859.42	76.190
859.72	-50.000
860.01	100.000
860.31	12.500
860.60	-140.000
860.90	0.000
861.20	12.500
861.49	-14.286
861.79	47.059
862.08	500.000
862.38	33.333
862.67	38.462
862.97	76.471
863.26	75.000
863.56	23.529
863.85	-0.000
864.15	-30.000
864.44	-23.077
864.74	0.000
865.03	50.000
865.33	83.333
865.62	0.000
865.92	-350.000
866.21	-14.286
866.51	33.333
866.80	900.000
867.10	100.000
867.39	0.000
867.69	43.478
867.98	71.429
868.27	-180.000
868.57	-31.250
868.86	-63.636
869.16	29.412
869.45	66.667
869.75	85.714
870.04	-600.000
870.33	50.000
870.63	140.000
870.92	111.111
871.22	91.667
871.51	63.636
871.80	41.667
872.10	160.000
>>>>>End Processed Spectral Data<<<<<
