SpectraSuite Data File
++++++++++++++++++++++++++++++++++++
Date: Sat May 16 11:47:57 PDT 2015
User: schluterlab
Dark Spectrum Present: Yes
Reference Spectrum Present: Yes
Number of Sampled Component Spectra: 1
Spectrometers: USB2E3373
Integration Time (usec): 3000 (USB2E3373)
Spectra Averaged: 3 (USB2E3373)
Boxcar Smoothing: 0 (USB2E3373)
Correct for Electrical Dark: No (USB2E3373)
Strobe/Lamp Enabled: No (USB2E3373)
Correct for Detector Non-linearity: No (USB2E3373)
Correct for Stray Light: No (USB2E3373)
Number of Pixels in Processed Spectrum: 2048
>>>>>Begin Processed Spectral Data<<<<<
178.53	0.000
178.91	113.333
179.29	566.667
179.67	-700.000
180.04	-15.385
180.42	700.000
180.80	425.000
181.18	450.000
181.56	-125.000
181.94	1200.000
182.31	300.000
182.69	-46.154
183.07	-500.000
183.45	1000.000
183.83	500.000
184.20	-271.429
184.58	-175.000
184.96	-225.000
185.34	112.500
185.72	-525.000
186.09	350.000
186.47	-125.000
186.85	-175.000
187.23	-87.500
187.61	-325.000
187.98	-325.000
188.36	-187.500
188.74	-275.000
189.12	1500.000
189.49	200.000
189.87	33.333
190.25	500.000
190.63	-57.143
191.00	-144.444
191.38	300.000
191.76	-40.000
192.14	560.000
192.51	-440.000
192.89	-566.667
193.27	0.000
193.65	-133.333
194.02	-157.143
194.40	633.333
194.78	-20.000
195.15	-1600.000
195.53	9.091
195.91	-450.000
196.29	440.000
196.66	-866.667
197.04	2400.000
197.42	-400.000
197.79	-13.333
198.17	-300.000
198.55	-700.000
198.92	-1400.000
199.30	225.000
199.68	-600.000
200.05	-88.889
200.43	-222.222
200.81	-1600.000
201.18	-100.000
201.56	114.286
201.94	-13.333
202.31	13.636
202.69	-30.000
203.07	-60.000
203.44	766.667
203.82	-300.000
204.19	-600.000
204.57	-150.000
204.95	-1200.000
205.32	6.250
205.70	1200.000
206.08	-2000.000
206.45	-16.667
206.83	-950.000
207.20	-550.000
207.58	-833.333
207.96	-233.333
208.33	-37.500
208.71	-188.889
209.08	180.000
209.46	-228.571
209.84	600.000
210.21	0.000
210.59	25.000
210.96	-300.000
211.34	-300.000
211.71	-366.667
212.09	400.000
212.46	1000.000
212.84	-2500.000
213.22	566.667
213.59	233.333
213.97	-88.889
214.34	240.000
214.72	-60.000
215.09	-133.333
215.47	-250.000
215.84	-90.000
216.22	-110.000
216.59	53.333
216.97	-325.000
217.34	800.000
217.72	-100.000
218.09	-300.000
218.47	-171.429
218.84	157.143
219.22	0.000
219.59	0.000
219.97	328.571
220.34	575.000
220.72	87.500
221.09	-123.077
221.47	0.000
221.84	500.000
222.22	-900.000
222.59	1300.000
222.97	-262.500
223.34	-750.000
223.72	-300.000
224.09	-78.571
224.46	-225.000
224.84	-78.571
225.21	-171.429
225.59	-90.909
225.96	-100.000
226.34	-185.714
226.71	-111.111
227.08	15.000
227.46	1600.000
227.83	-200.000
228.21	-162.500
228.58	550.000
228.95	-68.750
229.33	-1600.000
229.70	-360.000
230.08	-450.000
230.45	0.000
230.82	-66.667
231.20	-1300.000
231.57	-250.000
231.95	1500.000
232.32	-4.762
232.69	-122.222
233.07	-300.000
233.44	-850.000
233.81	-53.333
234.19	-188.889
234.56	-68.750
234.93	-12.500
235.31	-300.000
235.68	-135.714
236.05	-82.353
236.43	-54.545
236.80	-38.710
237.17	-54.167
237.55	-38.095
237.92	-109.091
238.29	-28.571
238.67	-17.647
239.04	-33.333
239.41	-54.839
239.79	-25.641
240.16	-45.238
240.53	1.818
240.91	-30.769
241.28	-5.455
241.65	-3.077
242.02	-13.115
242.40	-21.311
242.77	-7.576
243.14	-18.644
243.51	-21.429
243.89	-16.456
244.26	-5.618
244.63	-2.105
245.00	3.158
245.38	-3.390
245.75	-3.540
246.12	0.800
246.49	0.000
246.87	4.878
247.24	-3.390
247.61	-4.237
247.98	-2.817
248.36	-0.699
248.73	0.000
249.10	1.274
249.47	2.924
249.84	3.977
250.22	-5.357
250.59	3.390
250.96	-4.188
251.33	7.583
251.70	-0.962
252.08	3.318
252.45	-0.474
252.82	-1.905
253.19	2.128
253.56	-0.403
253.94	-1.266
254.31	3.004
254.68	2.439
255.05	-1.210
255.42	1.984
255.79	0.358
256.16	3.137
256.54	2.206
256.91	0.000
257.28	0.366
257.65	0.355
258.02	3.459
258.39	4.682
258.76	1.689
259.14	1.235
259.51	4.590
259.88	2.134
260.25	3.727
260.62	4.823
260.99	0.297
261.36	2.439
261.73	4.046
262.10	3.333
262.47	2.849
262.85	5.714
263.22	2.579
263.59	0.308
263.96	2.319
264.33	1.626
264.70	7.735
265.07	1.923
265.44	3.359
265.81	2.584
266.18	3.797
266.55	1.716
266.92	4.282
267.29	4.358
267.66	2.963
268.03	2.657
268.40	5.399
268.77	5.060
269.14	2.784
269.51	4.598
269.88	1.147
270.25	1.865
270.62	3.890
270.99	3.153
271.36	4.429
271.73	2.915
272.10	2.288
272.47	3.778
272.84	6.000
273.21	3.670
273.58	3.297
273.95	4.605
274.32	2.941
274.69	5.252
275.06	5.112
275.43	1.563
275.80	6.925
276.17	3.556
276.54	6.110
276.91	5.350
277.28	4.462
277.65	3.926
278.02	2.505
278.39	5.697
278.76	1.394
279.13	3.162
279.50	6.362
279.87	3.383
280.23	3.441
280.60	3.777
280.97	4.660
281.34	2.515
281.71	5.577
282.08	4.637
282.45	3.055
282.82	3.101
283.19	2.909
283.56	6.593
283.92	5.477
284.29	3.532
284.66	4.317
285.03	4.100
285.40	3.321
285.77	5.614
286.14	3.069
286.51	3.375
286.87	6.171
287.24	2.730
287.61	4.132
287.98	2.080
288.35	3.306
288.72	4.754
289.08	2.542
289.45	4.882
289.82	1.384
290.19	4.105
290.56	2.645
290.93	2.544
291.29	3.566
291.66	2.093
292.03	4.867
292.40	5.723
292.77	2.484
293.13	4.228
293.50	3.418
293.87	4.294
294.24	4.977
294.60	2.576
294.97	5.766
295.34	2.370
295.71	3.571
296.08	2.919
296.44	3.577
296.81	4.131
297.18	2.817
297.55	4.661
297.91	5.997
298.28	3.562
298.65	2.789
299.02	5.615
299.38	4.813
299.75	2.446
300.12	3.333
300.48	4.476
300.85	2.097
301.22	4.140
301.59	4.551
301.95	5.542
302.32	2.086
302.69	4.162
303.05	3.785
303.42	3.250
303.79	4.665
304.15	4.502
304.52	4.434
304.89	4.841
305.25	3.175
305.62	4.583
305.99	4.122
306.35	3.996
306.72	3.075
307.09	6.129
307.45	3.292
307.82	2.235
308.19	3.244
308.55	4.466
308.92	3.330
309.29	4.541
309.65	4.136
310.02	4.860
310.38	3.243
310.75	5.225
311.12	4.649
311.48	4.802
311.85	3.811
312.22	4.119
312.58	5.086
312.95	3.874
313.31	4.895
313.68	5.628
314.05	5.935
314.41	4.125
314.78	3.796
315.14	5.528
315.51	5.471
315.87	7.260
316.24	4.762
316.61	6.526
316.97	6.368
317.34	6.166
317.70	5.937
318.07	6.437
318.43	6.086
318.80	7.887
319.16	5.347
319.53	6.015
319.89	5.550
320.26	5.490
320.62	5.769
320.99	5.672
321.35	5.616
321.72	6.551
322.08	5.143
322.45	6.139
322.81	7.301
323.18	7.205
323.54	7.763
323.91	6.302
324.27	7.605
324.64	6.490
325.00	7.853
325.37	8.416
325.73	7.962
326.10	6.554
326.46	7.093
326.83	7.660
327.19	8.507
327.56	9.199
327.92	8.496
328.29	8.139
328.65	7.091
329.01	8.746
329.38	8.029
329.74	9.799
330.11	7.616
330.47	8.084
330.84	10.357
331.20	9.386
331.56	9.207
331.93	10.036
332.29	8.584
332.66	8.780
333.02	8.235
333.38	9.498
333.75	9.439
334.11	10.400
334.48	9.267
334.84	10.849
335.20	9.663
335.57	9.386
335.93	9.490
336.29	8.237
336.66	8.458
337.02	9.099
337.38	9.715
337.75	8.867
338.11	9.928
338.47	9.609
338.84	8.711
339.20	9.754
339.56	9.626
339.93	9.788
340.29	9.300
340.65	10.052
341.02	9.106
341.38	9.857
341.74	9.483
342.11	9.642
342.47	10.644
342.83	8.816
343.20	9.394
343.56	8.000
343.92	10.601
344.28	9.756
344.65	8.828
345.01	8.992
345.37	9.967
345.73	9.574
346.10	8.585
346.46	9.992
346.82	9.623
347.19	8.956
347.55	8.989
347.91	8.661
348.27	9.308
348.63	10.339
349.00	9.626
349.36	8.119
349.72	8.917
350.08	9.944
350.45	8.668
350.81	9.475
351.17	9.325
351.53	8.831
351.89	9.539
352.26	8.682
352.62	10.369
352.98	9.889
353.34	9.432
353.70	9.344
354.07	9.835
354.43	10.514
354.79	9.429
355.15	9.026
355.51	9.062
355.87	9.486
356.24	8.737
356.60	9.750
356.96	10.008
357.32	9.105
357.68	9.732
358.04	9.700
358.40	9.358
358.77	9.660
359.13	10.559
359.49	9.297
359.85	10.213
360.21	10.274
360.57	10.316
360.93	9.704
361.29	10.688
361.66	9.299
362.02	9.541
362.38	11.225
362.74	9.304
363.10	9.110
363.46	10.043
363.82	9.694
364.18	10.130
364.54	11.437
364.90	9.574
365.26	9.914
365.62	10.763
365.98	10.028
366.35	9.789
366.71	9.796
367.07	10.233
367.43	11.119
367.79	9.828
368.15	9.602
368.51	11.748
368.87	11.332
369.23	11.228
369.59	11.042
369.95	11.064
370.31	11.322
370.67	10.051
371.03	11.443
371.39	9.123
371.75	10.372
372.11	10.402
372.47	10.846
372.83	11.544
373.19	11.000
373.55	11.189
373.91	10.100
374.27	10.746
374.63	10.697
374.99	11.474
375.35	11.575
375.71	11.546
376.07	11.362
376.42	10.530
376.78	11.438
377.14	12.407
377.50	11.863
377.86	11.573
378.22	11.997
378.58	11.983
378.94	11.221
379.30	11.517
379.66	12.933
380.02	12.002
380.38	11.299
380.74	11.723
381.09	12.830
381.45	13.305
381.81	11.615
382.17	11.779
382.53	11.915
382.89	12.560
383.25	13.546
383.61	12.854
383.97	12.676
384.32	12.078
384.68	13.422
385.04	13.043
385.40	12.842
385.76	13.354
386.12	13.117
386.48	13.243
386.83	13.129
387.19	13.509
387.55	13.446
387.91	13.634
388.27	12.907
388.62	13.161
388.98	13.689
389.34	13.709
389.70	13.276
390.06	13.549
390.42	14.231
390.77	13.438
391.13	15.714
391.49	14.099
391.85	14.900
392.20	13.532
392.56	13.378
392.92	13.177
393.28	14.696
393.64	14.793
393.99	14.215
394.35	14.051
394.71	13.650
395.07	14.564
395.42	14.303
395.78	13.639
396.14	14.891
396.50	15.046
396.85	14.374
397.21	13.548
397.57	14.590
397.92	14.930
398.28	14.833
398.64	14.694
399.00	15.562
399.35	14.036
399.71	15.389
400.07	15.164
400.42	14.477
400.78	14.729
401.14	15.090
401.49	14.917
401.85	15.009
402.21	15.018
402.57	14.624
402.92	15.356
403.28	14.583
403.63	13.661
403.99	14.978
404.35	14.251
404.70	14.511
405.06	15.052
405.42	14.330
405.77	13.914
406.13	14.708
406.49	14.799
406.84	13.677
407.20	15.548
407.55	15.516
407.91	14.119
408.27	14.951
408.62	14.552
408.98	14.251
409.34	14.869
409.69	15.123
410.05	15.525
410.40	15.389
410.76	15.056
411.11	14.713
411.47	15.345
411.83	15.220
412.18	14.728
412.54	14.643
412.89	14.459
413.25	13.695
413.60	14.642
413.96	14.664
414.31	14.618
414.67	14.413
415.03	14.360
415.38	15.224
415.74	15.206
416.09	14.642
416.45	14.616
416.80	15.345
417.16	15.548
417.51	15.693
417.87	14.887
418.22	15.676
418.58	15.918
418.93	15.635
419.29	15.997
419.64	15.452
420.00	16.282
420.35	15.553
420.71	15.606
421.06	16.391
421.42	14.813
421.77	15.634
422.12	15.949
422.48	16.088
422.83	16.515
423.19	15.479
423.54	16.254
423.90	16.426
424.25	15.441
424.61	16.586
424.96	17.028
425.31	16.657
425.67	16.791
426.02	16.064
426.38	17.241
426.73	17.358
427.09	16.605
427.44	17.330
427.79	17.558
428.15	17.415
428.50	17.947
428.85	17.566
429.21	16.879
429.56	17.448
429.92	17.435
430.27	17.198
430.62	18.130
430.98	17.198
431.33	17.289
431.68	17.909
432.04	17.739
432.39	18.575
432.74	17.746
433.10	17.614
433.45	17.904
433.80	17.805
434.16	17.947
434.51	17.315
434.86	19.098
435.22	18.875
435.57	17.136
435.92	18.523
436.28	18.220
436.63	17.524
436.98	18.041
437.34	17.720
437.69	17.911
438.04	18.434
438.39	19.134
438.75	18.219
439.10	19.434
439.45	18.588
439.81	18.313
440.16	17.944
440.51	19.412
440.86	18.623
441.22	17.910
441.57	19.105
441.92	19.079
442.27	19.318
442.63	19.260
442.98	18.341
443.33	19.275
443.68	19.698
444.03	18.418
444.39	19.090
444.74	19.659
445.09	18.695
445.44	19.246
445.79	18.613
446.15	19.277
446.50	18.781
446.85	18.830
447.20	19.356
447.55	19.890
447.91	20.270
448.26	19.162
448.61	18.619
448.96	20.168
449.31	19.786
449.66	19.748
450.02	19.224
450.37	19.072
450.72	18.531
451.07	19.673
451.42	19.145
451.77	20.108
452.12	19.547
452.47	20.277
452.83	19.860
453.18	20.620
453.53	19.341
453.88	19.737
454.23	18.863
454.58	20.261
454.93	20.277
455.28	19.503
455.63	19.472
455.98	20.422
456.34	19.632
456.69	20.075
457.04	20.590
457.39	19.677
457.74	19.197
458.09	20.650
458.44	20.612
458.79	19.675
459.14	20.137
459.49	20.722
459.84	19.674
460.19	20.167
460.54	20.085
460.89	20.179
461.24	19.915
461.59	20.223
461.94	20.624
462.29	20.250
462.64	19.829
462.99	20.884
463.34	19.649
463.69	20.674
464.04	19.566
464.39	20.430
464.74	20.981
465.09	19.784
465.44	20.361
465.79	21.602
466.14	20.253
466.49	20.553
466.84	19.448
467.19	20.075
467.54	19.937
467.89	20.715
468.24	21.081
468.59	20.612
468.94	20.707
469.29	20.078
469.64	21.092
469.99	20.932
470.34	20.908
470.68	21.003
471.03	21.473
471.38	20.764
471.73	20.559
472.08	20.482
472.43	19.755
472.78	20.333
473.13	20.013
473.48	20.357
473.83	21.092
474.17	20.955
474.52	21.547
474.87	19.988
475.22	21.770
475.57	20.389
475.92	20.518
476.27	21.371
476.61	20.676
476.96	20.458
477.31	21.098
477.66	20.753
478.01	21.556
478.36	21.111
478.70	20.876
479.05	20.660
479.40	20.622
479.75	20.438
480.10	20.040
480.45	19.923
480.79	20.632
481.14	21.626
481.49	20.716
481.84	20.481
482.19	21.517
482.53	21.117
482.88	20.313
483.23	21.315
483.58	21.415
483.92	20.736
484.27	20.115
484.62	20.864
484.97	20.616
485.31	19.936
485.66	19.211
486.01	19.522
486.36	20.205
486.70	20.707
487.05	20.628
487.40	20.059
487.75	20.298
488.09	20.167
488.44	20.670
488.79	20.481
489.13	20.236
489.48	20.840
489.83	21.485
490.17	20.592
490.52	21.467
490.87	21.155
491.22	21.112
491.56	21.250
491.91	21.565
492.26	20.613
492.60	21.028
492.95	20.419
493.30	21.439
493.64	21.063
493.99	21.463
494.34	21.286
494.68	21.442
495.03	20.793
495.37	20.993
495.72	19.990
496.07	21.351
496.41	21.167
496.76	20.776
497.11	21.149
497.45	21.360
497.80	21.061
498.14	20.530
498.49	20.693
498.84	21.262
499.18	21.345
499.53	20.945
499.87	20.463
500.22	21.912
500.56	21.261
500.91	20.640
501.26	21.494
501.60	20.558
501.95	21.643
502.29	21.209
502.64	21.028
502.98	20.077
503.33	20.818
503.67	21.121
504.02	21.729
504.36	21.667
504.71	21.226
505.06	20.369
505.40	21.457
505.75	20.427
506.09	21.183
506.44	20.752
506.78	21.274
507.13	20.803
507.47	21.909
507.82	21.270
508.16	21.036
508.51	22.102
508.85	20.859
509.19	20.931
509.54	21.934
509.88	21.596
510.23	21.017
510.57	21.799
510.92	22.342
511.26	21.053
511.61	21.274
511.95	20.797
512.30	21.275
512.64	20.701
512.98	21.892
513.33	22.131
513.67	21.999
514.02	21.029
514.36	21.496
514.70	22.184
515.05	21.670
515.39	21.223
515.74	22.804
516.08	22.536
516.42	21.756
516.77	22.935
517.11	22.197
517.46	22.428
517.80	22.744
518.14	22.041
518.49	22.714
518.83	22.730
519.17	22.439
519.52	21.053
519.86	22.043
520.20	22.188
520.55	22.585
520.89	21.853
521.23	22.589
521.58	22.821
521.92	21.913
522.26	22.349
522.61	22.624
522.95	21.315
523.29	22.508
523.64	21.861
523.98	21.706
524.32	22.313
524.66	22.360
525.01	21.580
525.35	22.616
525.69	21.666
526.04	22.650
526.38	23.234
526.72	22.095
527.06	22.331
527.41	22.244
527.75	22.178
528.09	22.568
528.43	22.557
528.78	22.236
529.12	22.279
529.46	21.327
529.80	22.402
530.15	22.795
530.49	22.122
530.83	22.724
531.17	22.290
531.51	23.443
531.86	22.515
532.20	21.457
532.54	22.259
532.88	21.607
533.22	21.725
533.57	22.846
533.91	21.099
534.25	22.124
534.59	20.737
534.93	21.282
535.27	21.963
535.62	21.036
535.96	21.590
536.30	20.877
536.64	22.045
536.98	22.105
537.32	22.184
537.66	21.860
538.01	22.268
538.35	21.554
538.69	22.059
539.03	21.327
539.37	21.158
539.71	22.348
540.05	21.727
540.39	22.230
540.73	21.562
541.07	21.858
541.42	20.527
541.76	21.595
542.10	21.945
542.44	21.719
542.78	22.185
543.12	21.453
543.46	20.753
543.80	20.803
544.14	21.088
544.48	22.178
544.82	21.380
545.16	21.797
545.50	20.659
545.84	22.462
546.18	22.122
546.52	21.124
546.86	21.795
547.20	22.433
547.54	21.625
547.88	22.429
548.22	20.052
548.56	21.844
548.90	22.372
549.24	21.794
549.58	22.089
549.92	22.261
550.26	22.327
550.60	21.693
550.94	21.606
551.28	22.348
551.62	21.566
551.96	21.925
552.30	22.369
552.64	22.097
552.98	22.495
553.32	22.222
553.66	22.567
554.00	22.246
554.34	22.383
554.68	21.418
555.02	21.708
555.36	20.992
555.69	22.063
556.03	21.474
556.37	22.048
556.71	22.262
557.05	22.764
557.39	21.232
557.73	22.538
558.07	22.607
558.41	21.616
558.75	22.433
559.08	20.233
559.42	22.052
559.76	22.086
560.10	22.595
560.44	22.760
560.78	21.294
561.12	21.601
561.45	21.918
561.79	20.418
562.13	21.809
562.47	21.779
562.81	21.499
563.15	21.624
563.48	22.322
563.82	22.312
564.16	21.907
564.50	22.177
564.84	21.759
565.17	22.281
565.51	22.229
565.85	22.177
566.19	21.871
566.52	21.722
566.86	20.607
567.20	21.671
567.54	22.741
567.88	20.994
568.21	21.253
568.55	21.262
568.89	20.726
569.23	20.130
569.56	20.765
569.90	20.771
570.24	21.082
570.57	20.176
570.91	20.129
571.25	20.233
571.59	20.418
571.92	20.149
572.26	19.862
572.60	20.416
572.93	19.480
573.27	19.421
573.61	19.472
573.95	19.372
574.28	19.886
574.62	20.208
574.96	19.143
575.29	19.563
575.63	19.618
575.97	19.013
576.30	19.649
576.64	19.661
576.98	19.358
577.31	19.619
577.65	19.481
577.98	19.141
578.32	19.406
578.66	19.124
578.99	19.465
579.33	19.467
579.67	19.300
580.00	19.048
580.34	19.496
580.67	19.466
581.01	18.853
581.35	19.230
581.68	19.466
582.02	19.313
582.35	19.415
582.69	19.883
583.02	19.629
583.36	19.709
583.70	19.534
584.03	19.343
584.37	19.919
584.70	19.905
585.04	19.291
585.37	19.499
585.71	20.126
586.04	19.580
586.38	20.128
586.72	19.955
587.05	19.654
587.39	19.776
587.72	19.830
588.06	19.780
588.39	19.994
588.73	19.403
589.06	20.588
589.40	20.680
589.73	20.538
590.07	20.211
590.40	20.000
590.73	20.272
591.07	20.369
591.40	21.187
591.74	20.721
592.07	21.036
592.41	20.297
592.74	20.600
593.08	20.185
593.41	19.901
593.75	19.585
594.08	20.058
594.41	20.850
594.75	20.310
595.08	21.466
595.42	20.267
595.75	19.772
596.09	20.683
596.42	20.745
596.75	20.828
597.09	20.971
597.42	20.471
597.75	20.106
598.09	20.380
598.42	20.106
598.76	19.850
599.09	19.890
599.42	20.146
599.76	20.008
600.09	20.344
600.42	20.433
600.76	20.678
601.09	19.787
601.42	20.736
601.76	20.872
602.09	20.982
602.42	20.658
602.76	19.859
603.09	20.081
603.42	19.903
603.76	20.383
604.09	20.184
604.42	20.358
604.76	20.672
605.09	20.886
605.42	21.321
605.75	19.922
606.09	20.299
606.42	20.528
606.75	20.309
607.09	20.247
607.42	20.555
607.75	20.795
608.08	21.961
608.42	20.482
608.75	20.981
609.08	19.679
609.41	20.080
609.75	20.478
610.08	20.882
610.41	20.627
610.74	21.422
611.07	20.791
611.41	19.919
611.74	21.542
612.07	20.945
612.40	20.842
612.73	21.163
613.07	21.574
613.40	21.730
613.73	20.872
614.06	20.648
614.39	21.759
614.72	20.335
615.06	20.272
615.39	20.564
615.72	20.858
616.05	20.541
616.38	20.546
616.71	19.940
617.05	21.834
617.38	20.557
617.71	20.147
618.04	21.118
618.37	20.818
618.70	20.991
619.03	20.176
619.36	21.071
619.69	21.967
620.03	21.350
620.36	21.730
620.69	21.967
621.02	21.994
621.35	20.565
621.68	22.049
622.01	21.764
622.34	22.127
622.67	21.172
623.00	22.112
623.33	22.239
623.66	21.713
623.99	21.729
624.32	20.982
624.65	20.456
624.99	21.359
625.32	21.332
625.65	21.290
625.98	21.831
626.31	22.512
626.64	22.092
626.97	21.233
627.30	21.957
627.63	21.675
627.96	21.584
628.29	21.415
628.62	22.159
628.95	22.146
629.28	21.992
629.61	21.492
629.94	22.873
630.26	23.459
630.59	23.116
630.92	22.122
631.25	23.387
631.58	22.540
631.91	21.383
632.24	22.222
632.57	23.778
632.90	22.874
633.23	24.182
633.56	22.807
633.89	22.877
634.22	22.668
634.55	21.875
634.88	21.524
635.20	21.973
635.53	23.282
635.86	22.922
636.19	22.711
636.52	23.178
636.85	21.901
637.18	21.375
637.51	24.040
637.83	21.971
638.16	22.632
638.49	21.517
638.82	21.622
639.15	23.865
639.48	22.438
639.81	24.205
640.13	22.703
640.46	24.929
640.79	24.650
641.12	22.567
641.45	23.673
641.77	23.952
642.10	23.867
642.43	24.127
642.76	22.362
643.09	22.381
643.41	23.492
643.74	24.801
644.07	23.401
644.40	21.880
644.73	25.248
645.05	22.871
645.38	23.675
645.71	25.773
646.04	22.521
646.36	21.990
646.69	21.626
647.02	22.924
647.35	21.661
647.67	23.723
648.00	22.847
648.33	23.946
648.66	21.774
648.98	23.248
649.31	21.846
649.64	22.969
649.96	23.862
650.29	21.311
650.62	23.752
650.94	22.428
651.27	22.704
651.60	22.837
651.92	25.171
652.25	23.706
652.58	19.421
652.90	23.114
653.23	20.161
653.56	22.241
653.88	21.967
654.21	24.832
654.54	25.914
654.86	24.559
655.19	21.777
655.52	20.711
655.84	19.406
656.17	20.930
656.49	28.836
656.82	29.935
657.15	22.812
657.47	16.668
657.80	12.938
658.13	14.626
658.45	19.747
658.78	19.570
659.10	19.676
659.43	19.351
659.75	19.827
660.08	20.000
660.41	20.234
660.73	21.122
661.06	23.333
661.38	23.929
661.71	22.562
662.03	24.597
662.36	26.439
662.68	23.207
663.01	24.204
663.33	25.170
663.66	24.464
663.98	21.652
664.31	23.490
664.63	27.655
664.96	23.210
665.28	21.692
665.61	22.833
665.93	24.074
666.26	22.065
666.58	22.037
666.91	23.608
667.23	22.807
667.56	22.676
667.88	25.339
668.21	22.811
668.53	23.598
668.86	24.942
669.18	25.114
669.50	23.131
669.83	20.438
670.15	25.112
670.48	25.701
670.80	20.046
671.13	21.896
671.45	23.874
671.77	22.484
672.10	21.302
672.42	24.354
672.75	22.000
673.07	22.342
673.39	24.044
673.72	23.819
674.04	19.958
674.37	23.505
674.69	25.000
675.01	22.553
675.34	25.813
675.66	26.134
675.98	25.551
676.31	24.208
676.63	25.977
676.95	21.018
677.28	23.202
677.60	25.566
677.92	24.009
678.25	24.726
678.57	23.457
678.89	23.690
679.22	21.384
679.54	24.260
679.86	22.600
680.18	22.624
680.51	22.346
680.83	23.810
681.15	23.314
681.48	20.690
681.80	22.782
682.12	22.133
682.44	22.593
682.77	22.078
683.09	25.367
683.41	24.779
683.73	21.689
684.06	21.720
684.38	21.967
684.70	23.868
685.02	23.425
685.34	20.858
685.67	20.644
685.99	23.251
686.31	23.698
686.63	22.163
686.96	21.811
687.28	21.195
687.60	23.437
687.92	17.704
688.24	20.276
688.56	20.641
688.89	21.795
689.21	22.101
689.53	23.448
689.85	21.826
690.17	19.955
690.49	22.864
690.82	22.169
691.14	21.934
691.46	23.282
691.78	21.366
692.10	23.517
692.42	22.000
692.74	22.532
693.06	22.921
693.39	21.029
693.71	23.476
694.03	24.190
694.35	21.445
694.67	23.641
694.99	20.972
695.31	22.194
695.63	21.939
695.95	23.325
696.27	21.945
696.59	21.925
696.91	24.438
697.23	23.438
697.56	22.115
697.88	22.297
698.20	21.199
698.52	19.731
698.84	18.689
699.16	23.095
699.48	21.750
699.80	23.559
700.12	22.670
700.44	23.184
700.76	19.242
701.08	24.419
701.40	25.378
701.72	23.457
702.04	24.038
702.36	23.193
702.68	24.551
703.00	25.507
703.32	18.625
703.64	28.235
703.96	26.744
704.28	23.077
704.60	20.570
704.91	18.413
705.23	24.919
705.55	21.959
705.87	21.843
706.19	17.014
706.51	20.833
706.83	24.262
707.15	21.656
707.47	23.967
707.79	21.649
708.11	21.883
708.43	21.945
708.74	18.961
709.06	22.563
709.38	18.678
709.70	19.688
710.02	23.313
710.34	17.822
710.66	20.317
710.98	19.243
711.29	18.065
711.61	17.572
711.93	23.607
712.25	21.595
712.57	19.861
712.89	20.504
713.20	20.619
713.52	18.284
713.84	22.776
714.16	22.295
714.48	20.952
714.80	19.385
715.11	23.631
715.43	23.494
715.75	24.922
716.07	17.049
716.39	19.064
716.70	20.906
717.02	23.704
717.34	24.046
717.66	24.896
717.97	21.311
718.29	20.168
718.61	23.413
718.93	21.147
719.24	19.485
719.56	19.623
719.88	25.455
720.20	18.727
720.51	25.188
720.83	22.088
721.15	19.262
721.46	19.216
721.78	19.923
722.10	24.000
722.42	17.769
722.73	17.131
723.05	26.506
723.37	20.784
723.68	18.623
724.00	22.358
724.32	23.045
724.63	24.066
724.95	26.446
725.27	22.368
725.58	21.121
725.90	27.381
726.22	22.878
726.53	20.152
726.85	19.608
727.16	19.549
727.48	20.769
727.80	16.803
728.11	21.849
728.43	19.008
728.74	19.531
729.06	23.485
729.38	19.066
729.69	18.898
730.01	18.898
730.32	16.733
730.64	20.513
730.96	22.761
731.27	20.000
731.59	21.222
731.90	22.699
732.22	20.245
732.53	25.497
732.85	21.477
733.16	20.652
733.48	18.815
733.80	17.794
734.11	16.897
734.43	20.748
734.74	19.288
735.06	19.436
735.37	22.018
735.69	16.452
736.00	21.549
736.32	19.536
736.63	18.276
736.95	18.478
737.26	19.205
737.58	21.942
737.89	23.656
738.21	19.925
738.52	21.538
738.83	19.922
739.15	18.803
739.46	22.581
739.78	19.930
740.09	19.930
740.41	21.329
740.72	22.628
741.04	21.032
741.35	17.316
741.66	18.056
741.98	20.952
742.29	21.596
742.61	20.856
742.92	25.701
743.23	18.860
743.55	22.072
743.86	25.778
744.18	22.857
744.49	25.123
744.80	21.320
745.12	23.711
745.43	26.131
745.74	17.961
746.06	20.488
746.37	22.907
746.68	17.910
747.00	23.560
747.31	17.788
747.62	17.512
747.94	18.777
748.25	23.256
748.56	21.905
748.88	22.826
749.19	21.127
749.50	26.471
749.82	22.667
750.13	25.551
750.44	20.732
750.75	25.200
751.07	23.929
751.38	23.985
751.69	14.885
752.01	23.077
752.32	18.288
752.63	18.077
752.94	18.651
753.26	17.826
753.57	19.196
753.88	20.690
754.19	19.502
754.51	17.578
754.82	20.949
755.13	22.222
755.44	24.380
755.75	21.399
756.07	18.474
756.38	18.359
756.69	20.939
757.00	18.118
757.31	19.463
757.63	23.676
757.94	20.520
758.25	20.930
758.56	21.294
758.87	21.023
759.18	17.333
759.50	20.285
759.81	16.058
760.12	17.905
760.43	21.683
760.74	24.062
761.05	20.506
761.36	18.263
761.67	21.893
761.99	18.387
762.30	18.841
762.61	18.868
762.92	20.179
763.23	22.275
763.54	21.333
763.85	28.270
764.16	20.816
764.47	19.492
764.78	23.970
765.10	22.302
765.41	17.419
765.72	18.868
766.03	16.608
766.34	21.429
766.65	15.789
766.96	16.000
767.27	19.271
767.58	18.023
767.89	23.226
768.20	23.313
768.51	20.765
768.82	17.838
769.13	18.000
769.44	22.807
769.75	22.511
770.06	22.018
770.37	14.085
770.68	26.042
770.99	24.257
771.30	18.932
771.61	17.593
771.92	14.286
772.23	22.897
772.54	14.362
772.85	14.793
773.16	20.122
773.47	25.301
773.78	22.527
774.09	22.000
774.39	24.074
774.70	17.450
775.01	13.043
775.32	17.910
775.63	11.570
775.94	14.286
776.25	21.429
776.56	28.689
776.87	23.009
777.18	19.469
777.48	10.000
777.79	13.913
778.10	11.009
778.41	11.017
778.72	20.661
779.03	23.881
779.34	21.805
779.65	16.340
779.95	20.290
780.26	11.565
780.57	7.759
780.88	4.630
781.19	4.040
781.50	13.600
781.80	19.608
782.11	16.026
782.42	14.458
782.73	10.949
783.04	19.595
783.34	14.394
783.65	13.178
783.96	17.886
784.27	21.368
784.57	14.634
784.88	13.008
785.19	25.439
785.50	-6.186
785.81	14.286
786.11	16.667
786.42	14.545
786.73	18.018
787.04	12.871
787.34	13.333
787.65	15.238
787.96	6.863
788.26	12.613
788.57	6.452
788.88	10.156
789.19	16.239
789.49	5.882
789.80	17.094
790.11	22.124
790.41	16.162
790.72	17.925
791.03	4.167
791.33	27.632
791.64	13.978
791.95	6.667
792.25	2.857
792.56	12.195
792.87	12.245
793.17	11.842
793.48	1.351
793.79	7.042
794.09	5.063
794.40	15.957
794.70	12.150
795.01	8.772
795.32	15.455
795.62	13.393
795.93	9.278
796.23	4.396
796.54	30.526
796.85	9.589
797.15	-2.778
797.46	15.068
797.76	19.718
798.07	15.000
798.37	19.118
798.68	7.143
798.99	24.286
799.29	10.526
799.60	5.000
799.90	4.167
800.21	17.187
800.51	-3.175
800.82	1.639
801.12	0.000
801.43	0.000
801.73	6.780
802.04	8.197
802.34	9.091
802.65	-1.923
802.95	14.815
803.26	2.500
803.56	11.538
803.87	-21.053
804.17	11.290
804.48	16.923
804.78	-33.333
805.09	25.581
805.39	21.875
805.70	-11.321
806.00	35.088
806.30	17.568
806.61	14.706
806.91	17.284
807.22	2.667
807.52	16.418
807.83	3.226
808.13	4.762
808.43	-16.364
808.74	7.576
809.04	22.642
809.35	13.699
809.65	17.544
809.95	7.353
810.26	15.686
810.56	-6.000
810.86	-10.204
811.17	-2.857
811.47	1.923
811.77	0.000
812.08	-71.053
812.38	26.190
812.69	-8.696
812.99	29.032
813.29	-2.381
813.59	-37.037
813.90	14.894
814.20	-4.651
814.50	-14.583
814.81	10.000
815.11	0.000
815.41	-26.667
815.72	11.429
816.02	0.000
816.32	-7.692
816.62	0.000
816.93	-52.941
817.23	2.174
817.53	-5.882
817.84	0.000
818.14	-53.125
818.44	-10.345
818.74	-19.355
819.04	-22.222
819.35	6.667
819.65	-16.000
819.95	-40.000
820.25	-20.000
820.56	15.789
820.86	-37.500
821.16	4.255
821.46	13.793
821.76	-7.692
822.07	-20.000
822.37	-6.977
822.67	-23.333
822.97	-5.405
823.27	-10.811
823.57	4.000
823.88	51.351
824.18	-38.095
824.48	-7.692
824.78	-146.154
825.08	-26.087
825.38	-4.167
825.69	-20.833
825.99	-30.000
826.29	-27.027
826.59	-8.824
826.89	-20.000
827.19	0.000
827.49	2.632
827.79	-28.125
828.09	-6.667
828.39	0.000
828.70	-37.931
829.00	10.345
829.30	8.333
829.60	46.875
829.90	11.111
830.20	-34.615
830.50	-38.095
830.80	-42.857
831.10	0.000
831.40	-57.143
831.70	-11.765
832.00	8.333
832.30	-42.105
832.60	-62.500
832.90	-50.000
833.20	-58.824
833.50	-100.000
833.80	-46.667
834.10	-20.000
834.40	0.000
834.70	-22.222
835.00	-26.923
835.30	-62.500
835.60	13.793
835.90	-55.556
836.20	-145.455
836.50	-66.667
836.80	-5.714
837.10	37.143
837.40	-58.824
837.70	-163.636
838.00	-33.333
838.30	-50.000
838.60	-95.238
838.90	35.000
839.19	-56.522
839.49	-13.043
839.79	-66.667
840.09	-47.826
840.39	4.545
840.69	-93.750
840.99	-36.842
841.29	-56.250
841.59	-42.857
841.88	-100.000
842.18	-4.167
842.48	-70.588
842.78	0.000
843.08	-42.857
843.38	-15.385
843.68	-133.333
843.97	-84.615
844.27	-72.727
844.57	-220.000
844.87	-20.000
845.17	-220.000
845.47	-14.286
845.76	-122.222
846.06	0.000
846.36	-300.000
846.66	-160.000
846.96	-57.895
847.25	-33.333
847.55	-66.667
847.85	-33.333
848.15	-130.000
848.44	11.538
848.74	5.263
849.04	600.000
849.34	-77.778
849.63	-94.737
849.93	0.000
850.23	-50.000
850.53	0.000
850.82	-24.000
851.12	-47.368
851.42	-500.000
851.71	-35.714
852.01	-58.333
852.31	-82.353
852.61	-80.000
852.90	-71.429
853.20	-333.333
853.50	-55.556
853.79	-84.211
854.09	-33.333
854.39	32.143
854.68	-43.478
854.98	-158.333
855.28	-6.897
855.57	-68.750
855.87	-75.000
856.17	-6.667
856.46	-20.690
856.76	-40.000
857.05	-94.118
857.35	-92.308
857.65	-27.273
857.94	-14.815
858.24	-107.143
858.53	-142.857
858.83	-41.667
859.13	-266.667
859.42	0.000
859.72	-162.500
860.01	-366.667
860.31	0.000
860.60	-120.000
860.90	-177.778
861.20	-37.500
861.49	-200.000
861.79	41.176
862.08	-750.000
862.38	-125.000
862.67	-92.308
862.97	5.882
863.26	0.000
863.56	-64.706
863.85	600.000
864.15	-50.000
864.44	-107.692
864.74	-25.000
865.03	-200.000
865.33	-233.333
865.62	-100.000
865.92	-525.000
866.21	-71.429
866.51	-66.667
866.80	-1600.000
867.10	-333.333
867.39	29.412
867.69	-4.348
867.98	-128.571
868.27	-200.000
868.57	-31.250
868.86	-127.273
869.16	17.647
869.45	-300.000
869.75	-242.857
870.04	1200.000
870.33	-33.333
870.63	-180.000
870.92	-11.111
871.22	-66.667
871.51	-63.636
871.80	-100.000
872.10	30.000
>>>>>End Processed Spectral Data<<<<<
