SpectraSuite Data File
++++++++++++++++++++++++++++++++++++
Date: Sat May 16 11:33:06 PDT 2015
User: schluterlab
Dark Spectrum Present: Yes
Reference Spectrum Present: Yes
Number of Sampled Component Spectra: 1
Spectrometers: USB2E3373
Integration Time (usec): 3000 (USB2E3373)
Spectra Averaged: 3 (USB2E3373)
Boxcar Smoothing: 0 (USB2E3373)
Correct for Electrical Dark: No (USB2E3373)
Strobe/Lamp Enabled: No (USB2E3373)
Correct for Detector Non-linearity: No (USB2E3373)
Correct for Stray Light: No (USB2E3373)
Number of Pixels in Processed Spectrum: 2048
>>>>>Begin Processed Spectral Data<<<<<
178.53	0.000
178.91	186.667
179.29	433.333
179.67	-1100.000
180.04	61.538
180.42	300.000
180.80	375.000
181.18	475.000
181.56	-87.500
181.94	1100.000
182.31	400.000
182.69	-15.385
183.07	-466.667
183.45	1350.000
183.83	533.333
184.20	-228.571
184.58	-200.000
184.96	-625.000
185.34	62.500
185.72	-475.000
186.09	266.667
186.47	-237.500
186.85	-100.000
187.23	-62.500
187.61	-150.000
187.98	-212.500
188.36	-137.500
188.74	-100.000
189.12	2500.000
189.49	342.857
189.87	-75.000
190.25	375.000
190.63	-28.571
191.00	-255.556
191.38	320.000
191.76	-33.333
192.14	600.000
192.51	-160.000
192.89	-633.333
193.27	0.000
193.65	-144.444
194.02	-228.571
194.40	200.000
194.78	-50.000
195.15	-500.000
195.53	-163.636
195.91	-266.667
196.29	340.000
196.66	-866.667
197.04	3100.000
197.42	50.000
197.79	6.667
198.17	-533.333
198.55	-950.000
198.92	-1900.000
199.30	237.500
199.68	-650.000
200.05	-77.778
200.43	-155.556
200.81	-1200.000
201.18	-175.000
201.56	185.714
201.94	-133.333
202.31	-9.091
202.69	-90.000
203.07	-30.000
203.44	633.333
203.82	-300.000
204.19	-425.000
204.57	-525.000
204.95	-1200.000
205.32	18.750
205.70	600.000
206.08	-1600.000
206.45	-27.778
206.83	-1450.000
207.20	-550.000
207.58	-800.000
207.96	-333.333
208.33	-25.000
208.71	-200.000
209.08	300.000
209.46	-228.571
209.84	950.000
210.21	0.000
210.59	5.000
210.96	1000.000
211.34	-200.000
211.71	-766.667
212.09	500.000
212.46	1150.000
212.84	-1500.000
213.22	1033.333
213.59	225.000
213.97	-100.000
214.34	210.000
214.72	-100.000
215.09	-366.667
215.47	-133.333
215.84	-120.000
216.22	-150.000
216.59	-6.667
216.97	-525.000
217.34	750.000
217.72	-171.429
218.09	-350.000
218.47	-71.429
218.84	371.429
219.22	-128.571
219.59	0.000
219.97	171.429
220.34	650.000
220.72	200.000
221.09	-38.462
221.47	0.000
221.84	366.667
222.22	-800.000
222.59	1200.000
222.97	-250.000
223.34	-800.000
223.72	-600.000
224.09	-121.429
224.46	-250.000
224.84	-71.429
225.21	-200.000
225.59	-118.182
225.96	-87.500
226.34	-171.429
226.71	-177.778
227.08	30.000
227.46	2700.000
227.83	-271.429
228.21	-262.500
228.58	250.000
228.95	-37.500
229.33	-2400.000
229.70	-220.000
230.08	-950.000
230.45	-25.000
230.82	-116.667
231.20	-2300.000
231.57	-550.000
231.95	800.000
232.32	-19.048
232.69	11.111
233.07	-328.571
233.44	-1600.000
233.81	-53.333
234.19	-77.778
234.56	-37.500
234.93	-6.250
235.31	-300.000
235.68	-185.714
236.05	-64.706
236.43	-72.727
236.80	-38.710
237.17	-66.667
237.55	-76.190
237.92	-63.636
238.29	-48.571
238.67	-11.765
239.04	-44.444
239.41	-38.710
239.79	-46.154
240.16	-47.619
240.53	-14.545
240.91	-23.077
241.28	-14.545
241.65	-7.692
242.02	-14.754
242.40	0.000
242.77	-15.152
243.14	-27.119
243.51	-31.429
243.89	-20.253
244.26	-4.494
244.63	-2.105
245.00	-3.158
245.38	-2.542
245.75	-8.850
246.12	-12.800
246.49	-7.087
246.87	-11.382
247.24	-15.254
247.61	-11.864
247.98	-2.113
248.36	-7.692
248.73	-6.329
249.10	-5.732
249.47	-2.339
249.84	-3.409
250.22	-14.881
250.59	-6.780
250.96	-0.524
251.33	0.474
251.70	-8.654
252.08	-3.318
252.45	-9.005
252.82	-4.762
253.19	-5.106
253.56	-3.226
253.94	-1.688
254.31	-2.146
254.68	-4.472
255.05	-2.823
255.42	-1.190
255.79	-3.943
256.16	-1.961
256.54	-2.941
256.91	-4.545
257.28	-8.425
257.65	-3.546
258.02	1.887
258.39	-4.013
258.76	-5.068
259.14	-3.704
259.51	-1.967
259.88	0.305
260.25	-1.553
260.62	-3.537
260.99	-3.858
261.36	-0.915
261.73	1.734
262.10	1.389
262.47	-1.140
262.85	2.571
263.22	-2.579
263.59	-5.538
263.96	-1.449
264.33	1.084
264.70	-0.829
265.07	-5.220
265.44	-2.067
265.81	-4.651
266.18	-4.051
266.55	-1.716
266.92	-1.511
267.29	-0.242
267.66	-3.457
268.03	-0.483
268.40	-3.991
268.77	-1.446
269.14	0.696
269.51	1.609
269.88	-2.752
270.25	-4.429
270.62	-3.204
270.99	-0.901
271.36	-2.564
271.73	-3.139
272.10	0.000
272.47	-0.444
272.84	0.889
273.21	-0.917
273.58	-1.978
273.95	-0.877
274.32	-2.489
274.69	-0.219
275.06	0.409
275.43	-2.902
275.80	-0.815
276.17	-0.628
276.54	0.000
276.91	-1.235
277.28	-2.637
277.65	-1.033
278.02	-1.461
278.39	0.393
278.76	-0.598
279.13	-1.581
279.50	-0.596
279.87	-2.748
280.23	0.607
280.60	0.795
280.97	-1.553
281.34	-1.934
281.71	-0.962
282.08	-3.427
282.45	-2.444
282.82	-1.163
283.19	-1.273
283.56	0.916
283.92	0.530
284.29	-1.673
284.66	-3.597
285.03	1.248
285.40	-1.661
285.77	-0.702
286.14	-1.083
286.51	-1.421
286.87	-1.452
287.24	-0.341
287.61	2.314
287.98	-1.213
288.35	-0.992
288.72	-3.056
289.08	-0.847
289.45	-0.168
289.82	-1.730
290.19	0.493
290.56	-0.661
290.93	-2.067
291.29	0.000
291.66	-2.254
292.03	-0.157
292.40	0.602
292.77	-0.776
293.13	0.000
293.50	-0.149
293.87	-0.460
294.24	0.603
294.60	-2.424
294.97	-0.455
295.34	-1.185
295.71	-1.935
296.08	-2.919
296.44	-1.574
296.81	-1.140
297.18	-0.282
297.55	-0.141
297.91	0.558
298.28	-0.685
298.65	-1.395
299.02	1.738
299.38	0.535
299.75	0.000
300.12	0.128
300.48	-1.151
300.85	-0.655
301.22	-1.035
301.59	-0.260
301.95	2.015
302.32	-0.782
302.69	0.490
303.05	-0.855
303.42	-0.375
303.79	-0.718
304.15	-0.711
304.52	0.350
304.89	0.354
305.25	-0.977
305.62	-0.353
305.99	1.885
306.35	0.111
306.72	-0.683
307.09	0.114
307.45	0.681
307.82	0.112
308.19	0.559
308.55	-0.436
308.92	0.107
309.29	-0.324
309.65	0.424
310.02	-0.432
310.38	-0.973
310.75	0.512
311.12	0.826
311.48	1.044
311.85	0.927
312.22	1.133
312.58	0.916
312.95	1.121
313.31	0.200
313.68	2.714
314.05	1.187
314.41	0.000
314.78	0.899
315.14	1.579
315.51	1.216
315.87	1.742
316.24	0.972
316.61	1.152
316.97	2.289
317.34	2.023
317.70	1.855
318.07	1.586
318.43	1.404
318.80	2.817
319.16	1.220
319.53	2.444
319.89	1.693
320.26	1.863
320.62	1.731
320.99	2.886
321.35	2.167
321.72	1.535
322.08	3.759
322.45	2.772
322.81	3.939
323.18	2.402
323.54	4.436
323.91	3.800
324.27	3.517
324.64	3.382
325.00	3.752
325.37	2.896
325.73	5.599
326.10	4.163
326.46	3.853
326.83	4.426
327.19	4.587
327.56	5.963
327.92	4.673
328.29	6.840
328.65	4.364
329.01	6.184
329.38	5.709
329.74	6.685
330.11	5.712
330.47	6.449
330.84	7.516
331.20	6.137
331.56	5.743
331.93	7.904
332.29	7.215
332.66	6.673
333.02	6.606
333.38	7.437
333.75	7.124
334.11	7.289
334.48	7.061
334.84	7.787
335.20	7.535
335.57	7.762
335.93	8.326
336.29	7.972
336.66	6.344
337.02	7.928
337.38	8.378
337.75	7.902
338.11	7.335
338.47	8.096
338.84	8.802
339.20	8.699
339.56	8.378
339.93	8.377
340.29	7.883
340.65	7.955
341.02	7.757
341.38	8.930
341.74	8.213
342.11	9.044
342.47	8.326
342.83	7.221
343.20	8.113
343.56	7.918
343.92	8.681
344.28	8.831
344.65	8.086
345.01	8.655
345.37	9.136
345.73	7.610
346.10	8.013
346.46	7.961
346.82	8.180
347.19	8.053
347.55	8.266
347.91	8.898
348.27	7.319
348.63	8.562
349.00	9.944
349.36	7.572
349.72	9.475
350.08	8.340
350.45	9.141
350.81	8.041
351.17	8.360
351.53	7.558
351.89	7.922
352.26	9.070
352.62	9.524
352.98	9.098
353.34	8.873
353.70	8.803
354.07	9.205
354.43	9.249
354.79	8.399
355.15	8.307
355.51	8.828
355.87	7.747
356.24	8.658
356.60	8.864
356.96	9.546
357.32	8.551
357.68	7.969
358.04	8.930
358.40	8.894
358.77	9.119
359.13	9.181
359.49	8.617
359.85	9.451
360.21	8.676
360.57	9.187
360.93	8.963
361.29	10.837
361.66	8.308
362.02	8.876
362.38	9.024
362.74	9.084
363.10	8.824
363.46	10.613
363.82	9.985
364.18	9.986
364.54	10.222
364.90	9.364
365.26	9.201
365.62	9.979
365.98	10.100
366.35	9.296
366.71	9.584
367.07	9.598
367.43	10.501
367.79	9.828
368.15	9.175
368.51	9.860
368.87	10.096
369.23	9.123
369.59	10.208
369.95	9.725
370.31	10.056
370.67	8.749
371.03	9.913
371.39	9.689
371.75	10.300
372.11	10.760
372.47	9.834
372.83	10.431
373.19	9.500
373.55	11.330
373.91	10.028
374.27	10.198
374.63	9.800
374.99	10.987
375.35	9.690
375.71	11.479
376.07	10.130
376.42	9.603
376.78	10.131
377.14	10.644
377.50	11.090
377.86	10.598
378.22	10.741
378.58	9.759
378.94	9.988
379.30	10.603
379.66	11.293
380.02	9.804
380.38	10.211
380.74	10.082
381.09	11.482
381.45	10.919
381.81	9.861
382.17	10.526
382.53	10.213
382.89	11.005
383.25	10.656
383.61	10.849
383.97	11.268
384.32	10.951
384.68	12.334
385.04	10.930
385.40	10.712
385.76	10.793
386.12	10.618
386.48	11.572
386.83	11.411
387.19	11.118
387.55	10.418
387.91	10.907
388.27	10.796
388.62	11.478
388.98	10.478
389.34	10.526
389.70	10.536
390.06	10.628
390.42	10.962
390.77	10.284
391.13	11.366
391.49	10.293
391.85	10.973
392.20	10.983
392.56	10.446
392.92	10.724
393.28	10.907
393.64	10.884
393.99	11.508
394.35	11.131
394.71	10.562
395.07	11.362
395.42	10.489
395.78	10.245
396.14	10.530
396.50	10.153
396.85	10.117
397.21	10.328
397.57	11.003
397.92	10.831
398.28	10.556
398.64	10.232
399.00	10.955
399.35	10.147
399.71	10.918
400.07	10.388
400.42	10.766
400.78	9.958
401.14	10.000
401.49	9.080
401.85	9.945
402.21	10.489
402.57	10.619
402.92	10.195
403.28	9.926
403.63	9.227
403.99	9.758
404.35	9.601
404.70	9.830
405.06	10.035
405.42	9.287
405.77	9.955
406.13	9.597
406.49	9.527
406.84	9.538
407.20	10.071
407.55	9.563
407.91	9.132
408.27	9.804
408.62	10.102
408.98	10.552
409.34	9.324
409.69	9.578
410.05	9.703
410.40	9.749
410.76	9.721
411.11	9.850
411.47	9.847
411.83	9.963
412.18	9.468
412.54	8.969
412.89	9.599
413.25	8.855
413.60	9.599
413.96	9.797
414.31	9.725
414.67	9.270
415.03	9.897
415.38	10.085
415.74	9.149
416.09	9.783
416.45	9.458
416.80	9.688
417.16	8.904
417.51	9.849
417.87	10.227
418.22	10.872
418.58	10.398
418.93	10.055
419.29	10.665
419.64	9.045
420.00	10.085
420.35	9.639
420.71	10.384
421.06	10.710
421.42	9.602
421.77	10.385
422.12	10.968
422.48	10.743
422.83	11.390
423.19	10.635
423.54	11.009
423.90	11.567
424.25	11.595
424.61	11.701
424.96	11.644
425.31	11.627
425.67	12.206
426.02	11.073
426.38	11.857
426.73	12.040
427.09	12.561
427.44	12.216
427.79	11.628
428.15	13.046
428.50	12.610
428.85	12.890
429.21	12.562
429.56	12.448
429.92	12.675
430.27	12.512
430.62	12.957
430.98	13.173
431.33	12.753
431.68	13.458
432.04	13.262
432.39	13.675
432.74	13.969
433.10	13.956
433.45	13.644
433.80	13.662
434.16	14.025
434.51	13.973
434.86	14.763
435.22	13.474
435.57	14.565
435.92	14.244
436.28	14.243
436.63	14.754
436.98	14.261
437.34	15.180
437.69	14.352
438.04	14.804
438.39	14.801
438.75	15.076
439.10	15.269
439.45	14.786
439.81	15.241
440.16	15.275
440.51	15.824
440.86	15.385
441.22	14.925
441.57	15.368
441.92	16.010
442.27	15.639
442.63	16.094
442.98	15.688
443.33	16.420
443.68	15.946
444.03	16.306
444.39	16.104
444.74	15.804
445.09	16.064
445.44	16.376
445.79	16.777
446.15	16.594
446.50	16.658
446.85	15.957
447.20	16.241
447.55	16.243
447.91	16.227
448.26	15.698
448.61	16.469
448.96	17.255
449.31	16.347
449.66	18.203
450.02	17.175
450.37	17.101
450.72	17.062
451.07	17.599
451.42	16.171
451.77	17.714
452.12	16.985
452.47	17.128
452.83	17.356
453.18	18.153
453.53	17.351
453.88	18.002
454.23	18.198
454.58	17.464
454.93	17.884
455.28	18.356
455.63	17.138
455.98	17.470
456.34	18.043
456.69	17.886
457.04	18.808
457.39	17.404
457.74	17.484
458.09	18.794
458.44	18.418
458.79	17.769
459.14	18.426
459.49	19.005
459.84	18.550
460.19	17.900
460.54	18.270
460.89	17.601
461.24	18.033
461.59	17.937
461.94	18.460
462.29	18.821
462.64	18.116
462.99	19.076
463.34	17.961
463.69	19.148
464.04	18.395
464.39	18.280
464.74	18.499
465.09	17.799
465.44	18.331
465.79	19.177
466.14	18.700
466.49	18.998
466.84	19.148
467.19	18.953
467.54	18.671
467.89	19.051
468.24	19.181
468.59	18.426
468.94	19.614
469.29	18.194
469.64	19.003
469.99	19.176
470.34	19.105
470.68	20.276
471.03	20.578
471.38	18.889
471.73	20.000
472.08	18.876
472.43	19.949
472.78	19.933
473.13	19.152
473.48	20.230
473.83	20.223
474.17	19.554
474.52	20.652
474.87	19.755
475.22	19.410
475.57	19.056
475.92	20.356
476.27	18.571
476.61	20.056
476.96	19.564
477.31	20.183
477.66	20.587
478.01	20.097
478.36	20.063
478.70	19.861
479.05	20.335
479.40	19.793
479.75	19.929
480.10	20.337
480.45	19.342
480.79	20.237
481.14	19.870
481.49	19.797
481.84	20.157
482.19	20.238
482.53	20.028
482.88	19.791
483.23	20.282
483.58	20.768
483.92	21.261
484.27	19.938
484.62	20.302
484.97	19.447
485.31	19.296
485.66	19.005
486.01	19.007
486.36	19.840
486.70	20.049
487.05	19.776
487.40	20.005
487.75	20.410
488.09	19.580
488.44	20.230
488.79	20.340
489.13	20.350
489.48	20.392
489.83	21.004
490.17	20.853
490.52	20.969
490.87	20.370
491.22	20.458
491.56	20.509
491.91	20.658
492.26	20.330
492.60	20.409
492.95	21.466
493.30	21.391
493.64	20.733
493.99	20.076
494.34	21.238
494.68	22.425
495.03	20.459
495.37	20.403
495.72	21.316
496.07	21.915
496.41	20.936
496.76	21.598
497.11	21.856
497.45	22.222
497.80	21.961
498.14	20.825
498.49	22.401
498.84	21.165
499.18	21.637
499.53	21.724
499.87	21.380
500.22	21.912
500.56	21.961
500.91	21.478
501.26	21.931
501.60	21.521
501.95	22.464
502.29	21.209
502.64	22.159
502.98	21.131
503.33	22.556
503.67	21.935
504.02	21.342
504.36	22.598
504.71	21.581
505.06	21.418
505.40	22.605
505.75	22.205
506.09	22.700
506.44	22.256
506.78	23.231
507.13	21.782
507.47	22.431
507.82	22.303
508.16	22.487
508.51	21.947
508.85	22.050
509.19	21.926
509.54	22.357
509.88	22.766
510.23	22.956
510.57	23.069
510.92	22.610
511.26	21.850
511.61	22.516
511.95	22.737
512.30	22.265
512.64	22.871
512.98	23.487
513.33	22.790
513.67	23.618
514.02	22.987
514.36	23.213
514.70	22.694
515.05	23.613
515.39	23.068
515.74	23.967
516.08	23.343
516.42	23.683
516.77	23.512
517.11	23.856
517.46	23.684
517.80	24.428
518.14	22.524
518.49	23.790
518.83	23.086
519.17	24.156
519.52	22.499
519.86	23.835
520.20	24.817
520.55	24.615
520.89	23.544
521.23	23.932
521.58	23.386
521.92	24.066
522.26	23.683
522.61	23.954
522.95	23.995
523.29	24.013
523.64	24.047
523.98	23.043
524.32	23.947
524.66	23.106
525.01	22.672
525.35	24.871
525.69	23.943
526.04	23.760
526.38	24.507
526.72	23.244
527.06	23.177
527.41	24.224
527.75	23.630
528.09	24.421
528.43	23.541
528.78	24.121
529.12	24.392
529.46	25.000
529.80	24.467
530.15	24.404
530.49	24.256
530.83	24.820
531.17	22.761
531.51	24.113
531.86	23.831
532.20	24.022
532.54	23.529
532.88	23.715
533.22	24.465
533.57	23.956
533.91	23.471
534.25	23.696
534.59	23.735
534.93	23.522
535.27	24.229
535.62	23.849
535.96	23.077
536.30	22.906
536.64	24.170
536.98	22.881
537.32	23.981
537.66	23.489
538.01	23.505
538.35	23.514
538.69	23.463
539.03	24.712
539.37	23.220
539.71	24.149
540.05	23.715
540.39	24.030
540.73	24.672
541.07	24.044
541.42	23.498
541.76	22.724
542.10	25.456
542.44	24.517
542.78	23.948
543.12	24.033
543.46	22.603
543.80	23.211
544.14	23.506
544.48	24.738
544.82	23.275
545.16	23.474
545.50	22.813
545.84	24.339
546.18	23.856
546.52	24.893
546.86	23.718
547.20	24.684
547.54	23.416
547.88	23.490
548.22	23.263
548.56	23.781
548.90	24.865
549.24	23.616
549.58	23.994
549.92	24.876
550.26	25.289
550.60	24.111
550.94	23.796
551.28	24.530
551.62	24.594
551.96	24.602
552.30	24.460
552.64	24.842
552.98	24.317
553.32	24.026
553.66	24.730
554.00	25.657
554.34	23.971
554.68	24.781
555.02	24.457
555.36	25.018
555.69	24.355
556.03	24.982
556.37	24.538
556.71	25.197
557.05	24.760
557.39	25.093
557.73	25.966
558.07	24.341
558.41	24.233
558.75	24.563
559.08	25.136
559.42	24.655
559.76	25.613
560.10	25.951
560.44	26.445
560.78	25.331
561.12	24.845
561.45	25.205
561.79	25.087
562.13	25.456
562.47	25.560
562.81	25.177
563.15	25.682
563.48	25.017
563.82	23.935
564.16	24.476
564.50	24.059
564.84	25.331
565.17	24.271
565.51	25.293
565.85	26.031
566.19	24.835
566.52	25.440
566.86	24.968
567.20	25.666
567.54	25.694
567.88	25.070
568.21	24.497
568.55	23.595
568.89	23.459
569.23	24.202
569.56	23.287
569.90	23.997
570.24	23.675
570.57	22.777
570.91	22.271
571.25	22.633
571.59	23.197
571.92	22.440
572.26	22.499
572.60	22.495
572.93	22.360
573.27	22.439
573.61	22.397
573.95	22.246
574.28	22.113
574.62	22.776
574.96	21.909
575.29	22.205
575.63	22.033
575.97	22.654
576.30	22.170
576.64	22.480
576.98	22.070
577.31	21.692
577.65	22.232
577.98	21.798
578.32	22.311
578.66	22.109
578.99	22.474
579.33	22.005
579.67	22.546
580.00	21.999
580.34	22.065
580.67	22.162
581.01	21.869
581.35	22.112
581.68	21.870
582.02	22.141
582.35	22.002
582.69	22.097
583.02	22.524
583.36	22.521
583.70	22.683
584.03	22.764
584.37	22.679
584.70	22.548
585.04	22.481
585.37	22.673
585.71	22.883
586.04	22.847
586.38	22.882
586.72	23.309
587.05	23.251
587.39	22.972
587.72	24.104
588.06	23.769
588.39	22.985
588.73	23.657
589.06	23.849
589.40	24.665
589.73	24.469
590.07	23.999
590.40	24.244
590.73	24.510
591.07	25.205
591.40	25.433
591.74	25.152
592.07	24.910
592.41	25.053
592.74	24.366
593.08	24.991
593.41	23.947
593.75	23.805
594.08	25.162
594.41	24.769
594.75	25.066
595.08	24.737
595.42	24.711
595.75	24.844
596.09	24.835
596.42	25.082
596.75	25.097
597.09	25.868
597.42	25.186
597.75	25.066
598.09	26.570
598.42	24.834
598.76	24.668
599.09	24.467
599.42	24.260
599.76	24.424
600.09	25.305
600.42	25.674
600.76	25.235
601.09	24.003
601.42	24.693
601.76	25.234
602.09	25.562
602.42	24.444
602.76	25.177
603.09	24.758
603.42	24.376
603.76	25.927
604.09	25.190
604.42	24.688
604.76	25.251
605.09	25.407
605.42	26.197
605.75	25.054
606.09	24.948
606.42	25.848
606.75	25.977
607.09	25.893
607.42	25.308
607.75	25.740
608.08	26.209
608.42	25.497
608.75	24.953
609.08	25.426
609.41	25.012
609.75	26.377
610.08	26.029
610.41	25.783
610.74	27.660
611.07	26.471
611.41	25.366
611.74	26.787
612.07	26.745
612.40	26.599
612.73	26.656
613.07	26.857
613.40	26.929
613.73	26.757
614.06	25.426
614.39	27.621
614.72	26.145
615.06	26.902
615.39	26.153
615.72	26.073
616.05	26.173
616.38	27.046
616.71	26.727
617.05	28.106
617.38	27.492
617.71	26.658
618.04	27.143
618.37	26.792
618.70	27.249
619.03	28.030
619.36	28.189
619.69	27.854
620.03	27.410
620.36	27.356
620.69	28.212
621.02	28.463
621.35	27.984
621.68	28.361
622.01	28.803
622.34	27.562
622.67	27.891
623.00	28.386
623.33	29.776
623.66	26.588
623.99	27.669
624.32	28.423
624.65	28.550
624.99	27.782
625.32	28.892
625.65	28.671
625.98	28.404
626.31	29.038
626.64	28.619
626.97	29.623
627.30	28.426
627.63	28.843
627.96	29.852
628.29	29.688
628.62	28.844
628.95	29.528
629.28	29.887
629.61	29.342
629.94	30.435
630.26	29.423
630.59	30.151
630.92	29.930
631.25	30.948
631.58	31.323
631.91	29.681
632.24	30.556
632.57	31.000
632.90	29.770
633.23	30.257
633.56	30.292
633.89	31.958
634.22	31.169
634.55	30.529
634.88	31.560
635.20	31.461
635.53	33.333
635.86	30.353
636.19	30.769
636.52	30.824
636.85	30.325
637.18	29.250
637.51	32.218
637.83	30.626
638.16	31.711
638.49	31.724
638.82	31.660
639.15	30.739
639.48	31.518
639.81	32.227
640.13	30.135
640.46	34.188
640.79	32.913
641.12	33.004
641.45	30.990
641.77	33.683
642.10	32.326
642.43	34.143
642.76	32.126
643.09	32.222
643.41	33.492
643.74	34.181
644.07	33.073
644.40	34.036
644.73	33.828
645.05	32.387
645.38	33.113
645.71	35.052
646.04	34.790
646.36	32.635
646.69	32.872
647.02	33.213
647.35	34.116
647.67	35.036
648.00	34.622
648.33	34.739
648.66	30.968
648.98	30.892
649.31	31.231
649.64	31.719
649.96	31.083
650.29	32.951
650.62	34.940
650.94	32.546
651.27	34.315
651.60	33.737
651.92	33.904
652.25	32.721
652.58	32.709
652.90	32.263
653.23	32.258
653.56	31.773
653.88	32.131
654.21	33.725
654.54	34.551
654.86	32.263
655.19	31.948
655.52	28.345
655.84	25.238
656.17	27.048
656.49	36.627
656.82	38.375
657.15	29.039
657.47	21.325
657.80	16.234
658.13	18.498
658.45	25.575
658.78	25.190
659.10	25.554
659.43	25.383
659.75	25.964
660.08	26.146
660.41	26.150
660.73	28.493
661.06	31.739
661.38	34.286
661.71	34.608
662.03	35.484
662.36	34.755
662.68	33.966
663.01	36.943
663.33	37.415
663.66	36.695
663.98	35.268
664.31	32.215
664.63	38.274
664.96	34.056
665.28	32.755
665.61	29.598
665.93	32.305
666.26	34.211
666.58	36.175
666.91	37.862
667.23	35.965
667.56	34.921
667.88	34.842
668.21	33.641
668.53	35.748
668.86	36.952
669.18	36.073
669.50	33.879
669.83	34.307
670.15	35.874
670.48	34.112
670.80	34.624
671.13	34.086
671.45	34.009
671.77	31.263
672.10	33.333
672.42	33.395
672.75	31.273
673.07	31.892
673.39	34.608
673.72	33.465
674.04	33.546
674.37	32.577
674.69	35.656
675.01	34.468
675.34	35.792
675.66	37.581
675.98	32.379
676.31	36.425
676.63	35.172
676.95	33.850
677.28	32.947
677.60	33.484
677.92	37.665
678.25	32.166
678.57	34.568
678.89	31.656
679.22	32.914
679.54	35.108
679.86	30.800
680.18	32.700
680.51	31.471
680.83	32.571
681.15	31.599
681.48	34.077
681.80	34.677
682.12	31.187
682.44	32.613
682.77	31.169
683.09	32.075
683.41	35.177
683.73	33.333
684.06	32.043
684.38	33.682
684.70	31.687
685.02	34.646
685.34	33.723
685.67	31.061
685.99	30.813
686.31	34.470
686.63	31.383
686.96	34.011
687.28	32.755
687.60	32.227
687.92	32.101
688.24	33.858
688.56	33.066
688.89	31.838
689.21	32.823
689.53	34.713
689.85	33.408
690.17	33.408
690.49	33.487
690.82	33.253
691.14	31.604
691.46	35.698
691.78	33.480
692.10	34.322
692.42	32.667
692.74	32.403
693.06	34.831
693.39	31.991
693.71	32.731
694.03	34.125
694.35	31.603
694.67	33.570
694.99	35.038
695.31	34.439
695.63	33.418
695.95	34.491
696.27	35.910
696.59	31.283
696.91	31.742
697.23	35.677
697.56	33.894
697.88	32.432
698.20	32.120
698.52	30.045
698.84	33.495
699.16	33.810
699.48	32.750
699.80	32.832
700.12	33.753
700.44	34.637
700.76	31.778
701.08	34.593
701.40	33.535
701.72	37.037
702.04	36.218
702.36	35.843
702.68	30.240
703.00	34.783
703.32	35.244
703.64	33.824
703.96	33.430
704.28	33.728
704.60	31.962
704.91	32.381
705.23	33.010
705.55	33.446
705.87	32.765
706.19	34.028
706.51	35.764
706.83	36.066
707.15	34.713
707.47	38.292
707.79	33.247
708.11	30.280
708.43	35.411
708.74	36.364
709.06	30.084
709.38	31.897
709.70	35.000
710.02	35.583
710.34	31.353
710.66	28.889
710.98	33.123
711.29	31.613
711.61	30.990
711.93	33.443
712.25	38.206
712.57	31.707
712.89	38.849
713.20	35.739
713.52	32.836
713.84	32.740
714.16	31.475
714.48	33.016
714.80	32.000
715.11	29.395
715.43	36.446
715.75	38.006
716.07	30.820
716.39	31.773
716.70	32.404
717.02	33.333
717.34	34.733
717.66	41.079
717.97	32.377
718.29	39.076
718.61	36.111
718.93	34.767
719.24	30.882
719.56	23.396
719.88	33.091
720.20	31.461
720.51	34.962
720.83	32.129
721.15	31.148
721.46	34.902
721.78	32.567
722.10	31.200
722.42	33.884
722.73	31.474
723.05	34.940
723.37	32.941
723.68	30.364
724.00	32.927
724.32	37.037
724.63	24.896
724.95	39.669
725.27	32.456
725.58	31.034
725.90	30.556
726.22	35.055
726.53	33.080
726.85	28.235
727.16	38.722
727.48	33.462
727.80	29.098
728.11	38.235
728.43	32.231
728.74	32.812
729.06	31.439
729.38	30.350
729.69	29.134
730.01	34.252
730.32	34.263
730.64	31.868
730.96	33.209
731.27	28.571
731.59	31.833
731.90	30.368
732.22	29.448
732.53	32.450
732.85	36.242
733.16	32.609
733.48	28.571
733.80	29.893
734.11	26.552
734.43	33.673
734.74	29.970
735.06	31.975
735.37	28.135
735.69	28.710
736.00	29.293
736.32	34.106
736.63	26.552
736.95	35.145
737.26	33.113
737.58	29.856
737.89	35.484
738.21	31.579
738.52	34.231
738.83	29.297
739.15	30.769
739.46	35.887
739.78	33.217
740.09	32.867
740.41	30.420
740.72	31.387
741.04	34.921
741.35	23.810
741.66	31.481
741.98	27.619
742.29	34.272
742.61	32.086
742.92	34.112
743.23	28.947
743.55	35.586
743.86	37.778
744.18	30.000
744.49	42.365
744.80	31.472
745.12	37.113
745.43	33.166
745.74	28.641
746.06	31.707
746.37	33.921
746.68	31.841
747.00	31.414
747.31	27.885
747.62	31.797
747.94	33.188
748.25	34.884
748.56	32.381
748.88	28.804
749.19	31.925
749.50	36.275
749.82	36.000
750.13	39.648
750.44	32.114
750.75	30.800
751.07	29.643
751.38	28.413
751.69	25.573
752.01	30.000
752.32	24.903
752.63	31.923
752.94	32.540
753.26	33.043
753.57	34.821
753.88	33.190
754.19	31.950
754.51	32.813
754.82	33.202
755.13	30.864
755.44	33.058
755.75	32.922
756.07	24.900
756.38	31.641
756.69	29.603
757.00	29.268
757.31	34.228
757.63	30.530
757.94	26.590
758.25	27.616
758.56	33.423
758.87	28.125
759.18	28.333
759.50	32.028
759.81	25.547
760.12	28.378
760.43	33.657
760.74	32.500
761.05	30.899
761.36	30.838
761.67	32.249
761.99	29.032
762.30	31.159
762.61	32.830
762.92	30.493
763.23	30.806
763.54	31.111
763.85	37.131
764.16	30.612
764.47	33.051
764.78	30.337
765.10	34.532
765.41	30.645
765.72	28.931
766.03	28.622
766.34	30.075
766.65	31.174
766.96	24.500
767.27	33.333
767.58	32.558
767.89	29.677
768.20	32.515
768.51	36.066
768.82	32.432
769.13	29.500
769.44	27.193
769.75	31.169
770.06	28.440
770.37	30.516
770.68	30.208
770.99	33.168
771.30	34.951
771.61	29.167
771.92	29.004
772.23	28.972
772.54	32.447
772.85	30.769
773.16	40.244
773.47	37.952
773.78	32.418
774.09	26.667
774.39	30.864
774.70	31.544
775.01	31.884
775.32	23.134
775.63	16.529
775.94	35.338
776.25	35.000
776.56	34.426
776.87	40.708
777.18	32.743
777.48	22.727
777.79	27.826
778.10	28.440
778.41	22.881
778.72	20.661
779.03	32.836
779.34	36.842
779.65	33.333
779.95	33.333
780.26	25.850
780.57	21.552
780.88	22.222
781.19	13.131
781.50	14.400
781.80	26.797
782.11	27.564
782.42	30.120
782.73	23.358
783.04	29.054
783.34	31.818
783.65	23.256
783.96	25.203
784.27	21.368
784.57	29.268
784.88	21.138
785.19	33.333
785.50	19.588
785.81	22.857
786.11	23.529
786.42	22.727
786.73	27.027
787.04	26.733
787.34	28.571
787.65	14.286
787.96	20.588
788.26	23.423
788.57	30.645
788.88	27.344
789.19	25.641
789.49	21.849
789.80	23.932
790.11	18.584
790.41	20.202
790.72	25.472
791.03	33.333
791.33	28.947
791.64	32.258
791.95	24.000
792.25	15.714
792.56	28.049
792.87	30.612
793.17	7.895
793.48	5.405
793.79	11.268
794.09	2.532
794.40	31.915
794.70	12.150
795.01	21.930
795.32	16.364
795.62	18.750
795.93	29.897
796.23	12.088
796.54	37.895
796.85	13.699
797.15	11.111
797.46	34.247
797.76	23.944
798.07	22.500
798.37	16.176
798.68	44.286
798.99	24.286
799.29	28.947
799.60	48.333
799.90	4.167
800.21	20.312
800.51	19.048
800.82	31.148
801.12	35.088
801.43	21.127
801.73	5.085
802.04	21.311
802.34	14.545
802.65	21.154
802.95	20.370
803.26	-15.000
803.56	25.000
803.87	13.158
804.17	24.194
804.48	21.538
804.78	17.949
805.09	20.930
805.39	-6.250
805.70	-18.868
806.00	47.368
806.30	32.432
806.61	30.882
806.91	24.691
807.22	21.333
807.52	28.358
807.83	16.129
808.13	4.762
808.43	14.545
808.74	27.273
809.04	13.208
809.35	17.808
809.65	28.070
809.95	29.412
810.26	39.216
810.56	26.000
810.86	26.531
811.17	40.000
811.47	7.692
811.77	22.581
812.08	-39.474
812.38	11.905
812.69	-2.174
812.99	-6.452
813.29	0.000
813.59	-40.741
813.90	10.638
814.20	-4.651
814.50	4.167
814.81	23.333
815.11	17.073
815.41	23.333
815.72	14.286
816.02	-5.556
816.32	23.077
816.62	10.811
816.93	-35.294
817.23	0.000
817.53	-14.706
817.84	11.765
818.14	-15.625
818.44	-41.379
818.74	-9.677
819.04	-3.704
819.35	-23.333
819.65	-36.000
819.95	-3.333
820.25	-20.000
820.56	-21.053
820.86	-5.000
821.16	-2.128
821.46	5.172
821.76	5.128
822.07	5.000
822.37	4.651
822.67	0.000
822.97	-21.622
823.27	-16.216
823.57	48.000
823.88	0.000
824.18	-52.381
824.48	-46.154
824.78	-161.538
825.08	-17.391
825.38	4.167
825.69	-8.333
825.99	-55.000
826.29	-18.919
826.59	14.706
826.89	16.000
827.19	20.000
827.49	13.158
827.79	3.125
828.09	13.333
828.39	60.870
828.70	-27.586
829.00	-20.690
829.30	-11.111
829.60	15.625
829.90	-44.444
830.20	-3.846
830.50	-47.619
830.80	-53.571
831.10	10.256
831.40	-38.095
831.70	-17.647
832.00	-4.167
832.30	-31.579
832.60	-50.000
832.90	-41.667
833.20	-88.235
833.50	-13.333
833.80	-120.000
834.10	-45.000
834.40	-12.500
834.70	-61.111
835.00	-15.385
835.30	4.167
835.60	-13.793
835.90	-55.556
836.20	-218.182
836.50	-8.333
836.80	-17.143
837.10	-5.714
837.40	-100.000
837.70	-90.909
838.00	29.167
838.30	-62.500
838.60	-33.333
838.90	0.000
839.19	-17.391
839.49	4.348
839.79	0.000
840.09	-65.217
840.39	-63.636
840.69	-50.000
840.99	0.000
841.29	-68.750
841.59	-71.429
841.88	-33.333
842.18	4.167
842.48	-82.353
842.78	31.034
843.08	-14.286
843.38	-61.538
843.68	-155.556
843.97	-130.769
844.27	-81.818
844.57	-120.000
844.87	-28.000
845.17	-120.000
845.47	-92.857
845.76	-122.222
846.06	0.000
846.36	-200.000
846.66	-120.000
846.96	-15.789
847.25	-8.333
847.55	-183.333
847.85	20.000
848.15	-30.000
848.44	15.385
848.74	-21.053
849.04	500.000
849.34	-100.000
849.63	-94.737
849.93	0.000
850.23	-30.000
850.53	-57.143
850.82	-32.000
851.12	-42.105
851.42	-450.000
851.71	-21.429
852.01	-125.000
852.31	-17.647
852.61	20.000
852.90	-4.762
853.20	-133.333
853.50	-38.889
853.79	-31.579
854.09	-93.333
854.39	-7.143
854.68	-34.783
854.98	-166.667
855.28	31.034
855.57	-6.250
855.87	-65.000
856.17	-73.333
856.46	-20.690
856.76	-53.333
857.05	-23.529
857.35	-61.538
857.65	-54.545
857.94	14.815
858.24	-85.714
858.53	-42.857
858.83	-133.333
859.13	0.000
859.42	0.000
859.72	-12.500
860.01	-66.667
860.31	-112.500
860.60	-620.000
860.90	-144.444
861.20	-137.500
861.49	-414.286
861.79	0.000
862.08	-1050.000
862.38	-150.000
862.67	-15.385
862.97	-5.882
863.26	-15.000
863.56	-64.706
863.85	700.000
864.15	-170.000
864.44	-84.615
864.74	0.000
865.03	-37.500
865.33	-133.333
865.62	-29.412
865.92	-200.000
866.21	-107.143
866.51	-108.333
866.80	-800.000
867.10	-200.000
867.39	-17.647
867.69	13.043
867.98	-57.143
868.27	-620.000
868.57	-106.250
868.86	-200.000
869.16	5.882
869.45	-283.333
869.75	-157.143
870.04	1400.000
870.33	-141.667
870.63	-200.000
870.92	-122.222
871.22	8.333
871.51	-100.000
871.80	-200.000
872.10	-10.000
>>>>>End Processed Spectral Data<<<<<
