SpectraSuite Data File
++++++++++++++++++++++++++++++++++++
Date: Sat May 16 11:33:18 PDT 2015
User: schluterlab
Dark Spectrum Present: Yes
Reference Spectrum Present: Yes
Number of Sampled Component Spectra: 1
Spectrometers: USB2E3373
Integration Time (usec): 3000 (USB2E3373)
Spectra Averaged: 3 (USB2E3373)
Boxcar Smoothing: 0 (USB2E3373)
Correct for Electrical Dark: No (USB2E3373)
Strobe/Lamp Enabled: No (USB2E3373)
Correct for Detector Non-linearity: No (USB2E3373)
Correct for Stray Light: No (USB2E3373)
Number of Pixels in Processed Spectrum: 2048
>>>>>Begin Processed Spectral Data<<<<<
178.53	0.000
178.91	146.667
179.29	633.333
179.67	-1200.000
180.04	-123.077
180.42	1100.000
180.80	375.000
181.18	625.000
181.56	-237.500
181.94	1500.000
182.31	500.000
182.69	-130.769
183.07	-700.000
183.45	1400.000
183.83	100.000
184.20	-214.286
184.58	-112.500
184.96	-400.000
185.34	187.500
185.72	-375.000
186.09	216.667
186.47	-337.500
186.85	-187.500
187.23	-37.500
187.61	-200.000
187.98	-225.000
188.36	-137.500
188.74	-150.000
189.12	2000.000
189.49	328.571
189.87	-33.333
190.25	300.000
190.63	7.143
191.00	-122.222
191.38	360.000
191.76	20.000
192.14	600.000
192.51	-200.000
192.89	-366.667
193.27	0.000
193.65	-122.222
194.02	-314.286
194.40	400.000
194.78	-70.000
195.15	-900.000
195.53	-109.091
195.91	-633.333
196.29	240.000
196.66	-833.333
197.04	2400.000
197.42	125.000
197.79	-66.667
198.17	-33.333
198.55	-650.000
198.92	-500.000
199.30	162.500
199.68	-550.000
200.05	-144.444
200.43	-88.889
200.81	-1100.000
201.18	-50.000
201.56	271.429
201.94	-20.000
202.31	-36.364
202.69	-160.000
203.07	-80.000
203.44	200.000
203.82	-366.667
204.19	-225.000
204.57	-225.000
204.95	-700.000
205.32	-50.000
205.70	700.000
206.08	-2400.000
206.45	5.556
206.83	-950.000
207.20	-550.000
207.58	-666.667
207.96	-700.000
208.33	-75.000
208.71	-122.222
209.08	200.000
209.46	-57.143
209.84	500.000
210.21	0.000
210.59	-55.000
210.96	1600.000
211.34	-350.000
211.71	-366.667
212.09	350.000
212.46	1150.000
212.84	-1800.000
213.22	333.333
213.59	175.000
213.97	-122.222
214.34	120.000
214.72	-70.000
215.09	-600.000
215.47	-266.667
215.84	-50.000
216.22	-50.000
216.59	-20.000
216.97	-500.000
217.34	600.000
217.72	-142.857
218.09	-250.000
218.47	-100.000
218.84	157.143
219.22	-185.714
219.59	0.000
219.97	342.857
220.34	400.000
220.72	237.500
221.09	-61.538
221.47	0.000
221.84	366.667
222.22	-250.000
222.59	500.000
222.97	-162.500
223.34	-700.000
223.72	-366.667
224.09	-78.571
224.46	-500.000
224.84	-100.000
225.21	-257.143
225.59	-63.636
225.96	-87.500
226.34	-42.857
226.71	-88.889
227.08	-20.000
227.46	1700.000
227.83	-171.429
228.21	-187.500
228.58	350.000
228.95	-75.000
229.33	-800.000
229.70	-360.000
230.08	-750.000
230.45	16.667
230.82	-283.333
231.20	-700.000
231.57	-900.000
231.95	500.000
232.32	-4.762
232.69	-166.667
233.07	-100.000
233.44	-750.000
233.81	0.000
234.19	44.444
234.56	-50.000
234.93	3.125
235.31	-314.286
235.68	-71.429
236.05	-41.176
236.43	0.000
236.80	16.129
237.17	-41.667
237.55	19.048
237.92	-13.636
238.29	22.857
238.67	35.294
239.04	25.000
239.41	-19.355
239.79	10.256
240.16	23.810
240.53	-5.455
240.91	30.769
241.28	29.091
241.65	44.615
242.02	32.787
242.40	32.787
242.77	46.970
243.14	38.983
243.51	25.714
243.89	32.911
244.26	47.191
244.63	43.158
245.00	40.000
245.38	37.288
245.75	47.788
246.12	37.600
246.49	38.583
246.87	31.707
247.24	33.898
247.61	35.593
247.98	44.366
248.36	39.860
248.73	44.937
249.10	45.223
249.47	45.614
249.84	46.023
250.22	42.262
250.59	44.633
250.96	47.644
251.33	46.919
251.70	43.750
252.08	50.711
252.45	45.024
252.82	48.095
253.19	40.426
253.56	47.177
253.94	47.679
254.31	42.060
254.68	46.748
255.05	43.548
255.42	47.619
255.79	39.068
256.16	52.941
256.54	48.529
256.91	48.864
257.28	44.322
257.65	45.035
258.02	50.000
258.39	45.819
258.76	45.608
259.14	45.988
259.51	46.557
259.88	46.646
260.25	48.758
260.62	46.302
260.99	43.323
261.36	45.732
261.73	46.243
262.10	45.278
262.47	46.439
262.85	53.429
263.22	44.699
263.59	48.308
263.96	50.145
264.33	46.612
264.70	49.171
265.07	48.352
265.44	44.444
265.81	45.736
266.18	44.810
266.55	44.118
266.92	47.355
267.29	46.731
267.66	47.407
268.03	48.551
268.40	45.540
268.77	45.060
269.14	45.476
269.51	45.287
269.88	42.890
270.25	46.620
270.62	43.936
270.99	47.297
271.36	47.786
271.73	45.291
272.10	46.453
272.47	47.111
272.84	47.778
273.21	47.936
273.58	45.055
273.95	47.368
274.32	48.190
274.69	47.921
275.06	47.444
275.43	48.214
275.80	48.880
276.17	49.372
276.54	44.807
276.91	48.971
277.28	47.870
277.65	45.455
278.02	46.555
278.39	44.401
278.76	46.813
279.13	44.466
279.50	44.732
279.87	49.049
280.23	46.356
280.60	46.521
280.97	45.631
281.34	47.582
281.71	47.115
282.08	48.992
282.45	46.640
282.82	47.287
283.19	44.545
283.56	48.535
283.92	47.880
284.29	45.725
284.66	45.324
285.03	44.920
285.40	44.280
285.77	45.614
286.14	43.863
286.51	45.115
286.87	47.368
287.24	46.246
287.61	43.802
287.98	44.021
288.35	43.636
288.72	43.124
289.08	42.034
289.45	43.434
289.82	42.734
290.19	41.379
290.56	41.322
290.93	38.951
291.29	41.491
291.66	40.902
292.03	41.130
292.40	41.867
292.77	39.752
293.13	40.650
293.50	40.267
293.87	39.877
294.24	38.311
294.60	37.727
294.97	40.971
295.34	38.815
295.71	38.690
296.08	38.402
296.44	36.052
296.81	39.459
297.18	36.197
297.55	37.429
297.91	40.586
298.28	36.027
298.65	37.936
299.02	36.497
299.38	35.027
299.75	34.511
300.12	33.974
300.48	33.760
300.85	35.780
301.22	35.834
301.59	34.980
301.95	35.390
302.32	33.898
302.69	34.027
303.05	34.188
303.42	34.625
303.79	34.211
304.15	32.583
304.52	32.205
304.89	32.586
305.25	34.676
305.62	32.902
305.99	34.865
306.35	33.629
306.72	33.599
307.09	32.350
307.45	31.669
307.82	33.073
308.19	32.774
308.55	34.532
308.92	31.472
309.29	32.973
309.65	33.510
310.02	33.585
310.38	34.162
310.75	33.402
311.12	32.231
311.48	33.612
311.85	34.398
312.22	32.956
312.58	34.283
312.95	33.231
313.31	34.366
313.68	34.573
314.05	34.916
314.41	33.501
314.78	33.467
315.14	35.044
315.51	35.664
315.87	34.560
316.24	34.597
316.61	34.261
316.97	36.119
317.34	35.164
317.70	33.952
318.07	34.515
318.43	35.393
318.80	37.089
319.16	34.991
319.53	36.372
319.89	34.995
320.26	36.667
320.62	37.404
320.99	38.507
321.35	36.847
321.72	38.792
322.08	39.664
322.45	39.010
322.81	37.560
323.18	38.809
323.54	39.094
323.91	39.481
324.27	40.779
324.64	40.128
325.00	40.314
325.37	41.810
325.73	42.345
326.10	41.275
326.46	42.732
326.83	42.638
327.19	41.868
327.56	43.271
327.92	42.311
328.29	43.203
328.65	42.273
329.01	43.110
329.38	43.622
329.74	43.681
330.11	43.608
330.47	45.322
330.84	45.096
331.20	43.682
331.56	43.847
331.93	44.671
332.29	46.667
332.66	45.215
333.02	45.249
333.38	45.341
333.75	45.147
334.11	45.689
334.48	44.837
334.84	45.494
335.20	46.809
335.57	46.119
335.93	47.628
336.29	45.173
336.66	44.405
337.02	47.748
337.38	43.494
337.75	45.215
338.11	46.512
338.47	46.797
338.84	46.642
339.20	45.606
339.56	46.881
339.93	45.855
340.29	45.084
340.65	45.717
341.02	45.953
341.38	45.324
341.74	44.623
342.11	46.075
342.47	45.837
342.83	45.928
343.20	46.627
343.56	44.490
343.92	45.159
344.28	46.846
344.65	47.195
345.01	45.798
345.37	45.930
345.73	45.336
346.10	42.927
346.46	46.548
346.82	45.389
347.19	45.357
347.55	45.345
347.91	46.142
348.27	45.903
348.63	45.880
349.00	46.062
349.36	44.653
349.72	46.975
350.08	45.950
350.45	46.651
350.81	46.656
351.17	45.900
351.53	46.221
351.89	46.564
352.26	46.667
352.62	45.699
352.98	46.519
353.34	46.843
353.70	43.707
354.07	45.004
354.43	46.719
354.79	45.087
355.15	46.166
355.51	44.688
355.87	47.115
356.24	44.083
356.60	47.703
356.96	46.420
357.32	44.735
357.68	46.897
358.04	45.497
358.40	45.244
358.77	46.213
359.13	46.366
359.49	45.578
359.85	45.960
360.21	47.565
360.57	47.816
360.93	47.037
361.29	47.309
361.66	45.579
362.02	47.115
362.38	46.882
362.74	47.253
363.10	45.839
363.46	46.510
363.82	46.501
364.18	47.033
364.54	46.819
364.90	46.960
365.26	46.719
365.62	48.895
365.98	48.222
366.35	47.113
366.71	47.428
367.07	48.271
367.43	48.524
367.79	47.491
368.15	46.871
368.51	48.531
368.87	48.420
369.23	47.439
369.59	48.403
369.95	46.441
370.31	48.523
370.67	48.301
371.03	49.636
371.39	47.737
371.75	49.142
372.11	49.498
372.47	48.590
372.83	49.652
373.19	49.857
373.55	47.502
373.91	51.422
374.27	49.487
374.63	48.723
374.99	49.861
375.35	48.991
375.71	50.101
376.07	50.171
376.42	49.404
376.78	51.046
377.14	50.847
377.50	52.676
377.86	51.365
378.22	51.445
378.58	51.699
378.94	50.123
379.30	51.676
379.66	51.184
380.02	51.931
380.38	51.360
380.74	50.703
381.09	50.967
381.45	50.835
381.81	52.269
382.17	51.692
382.53	51.429
382.89	52.452
383.25	52.860
383.61	51.769
383.97	53.644
384.32	54.068
384.68	52.600
385.04	52.778
385.40	52.708
385.76	54.207
386.12	52.842
386.48	53.899
386.83	54.233
387.19	53.736
387.55	53.180
387.91	54.653
388.27	53.981
388.62	53.906
388.98	54.512
389.34	54.162
389.70	54.080
390.06	54.382
390.42	54.808
390.77	53.880
391.13	54.596
391.49	55.334
391.85	54.988
392.20	54.308
392.56	55.528
392.92	54.592
393.28	54.765
393.64	56.404
393.99	56.185
394.35	57.056
394.71	55.343
395.07	55.932
395.42	53.993
395.78	56.191
396.14	56.449
396.50	56.391
396.85	56.015
397.21	57.290
397.57	56.292
397.92	56.265
398.28	56.944
398.64	56.336
399.00	57.191
399.35	56.426
399.71	57.143
400.07	56.955
400.42	57.421
400.78	56.530
401.14	57.066
401.49	56.663
401.85	56.803
402.21	57.330
402.57	57.342
402.92	58.087
403.28	58.272
403.63	56.381
403.99	57.986
404.35	57.729
404.70	57.519
405.06	57.612
405.42	56.212
405.77	56.957
406.13	57.354
406.49	58.478
406.84	57.888
407.20	56.419
407.55	58.075
407.91	56.865
408.27	56.924
408.62	57.547
408.98	58.156
409.34	56.734
409.69	57.215
410.05	57.975
410.40	58.737
410.76	57.795
411.11	59.663
411.47	57.864
411.83	58.680
412.18	57.550
412.54	58.084
412.89	59.174
413.25	56.966
413.60	58.019
413.96	58.164
414.31	58.532
414.67	58.349
415.03	57.827
415.38	59.401
415.74	58.763
416.09	59.143
416.45	58.532
416.80	58.388
417.16	57.741
417.51	58.700
417.87	58.317
418.22	59.292
418.58	58.858
418.93	59.718
419.29	58.783
419.64	59.171
420.00	58.931
420.35	60.378
420.71	59.904
421.06	59.408
421.42	58.899
421.77	60.190
422.12	59.373
422.48	59.113
422.83	60.592
423.19	59.354
423.54	60.519
423.90	60.497
424.25	59.219
424.61	61.279
424.96	61.264
425.31	61.096
425.67	58.968
426.02	60.413
426.38	61.887
426.73	60.257
427.09	62.071
427.44	59.545
427.79	60.407
428.15	60.862
428.50	61.466
428.85	61.151
429.21	60.985
429.56	60.833
429.92	61.172
430.27	62.313
430.62	62.382
430.98	62.520
431.33	61.580
431.68	63.056
432.04	62.059
432.39	61.766
432.74	62.590
433.10	60.608
433.45	62.234
433.80	62.598
434.16	63.353
434.51	64.110
434.86	63.445
435.22	62.194
435.57	62.852
435.92	62.954
436.28	63.264
436.63	62.465
436.98	60.825
437.34	61.252
437.69	62.777
438.04	62.904
438.39	64.200
438.75	62.806
439.10	62.132
439.45	63.186
439.81	62.108
440.16	62.976
440.51	63.647
440.86	62.406
441.22	63.295
441.57	63.789
441.92	63.836
442.27	63.203
442.63	63.895
442.98	63.488
443.33	63.921
443.68	64.252
444.03	64.047
444.39	63.093
444.74	64.923
445.09	64.145
445.44	64.772
445.79	63.539
446.15	63.636
446.50	62.330
446.85	63.622
447.20	62.819
447.55	63.923
447.91	64.346
448.26	62.849
448.61	62.875
448.96	63.585
449.31	63.923
449.66	64.110
450.02	62.327
450.37	64.522
450.72	63.729
451.07	64.676
451.42	62.515
451.77	63.734
452.12	64.005
452.47	64.358
452.83	62.609
453.18	64.706
453.53	63.993
453.88	65.251
454.23	63.422
454.58	65.196
454.93	63.539
455.28	65.010
455.63	64.189
455.98	65.241
456.34	63.405
456.69	65.166
457.04	63.553
457.39	63.696
457.74	64.146
458.09	63.747
458.44	64.896
458.79	64.686
459.14	65.088
459.49	63.292
459.84	62.844
460.19	63.842
460.54	64.065
460.89	63.789
461.24	63.327
461.59	63.775
461.94	64.736
462.29	63.311
462.64	65.547
462.99	64.056
463.34	63.065
463.69	64.249
464.04	62.097
464.39	64.337
464.74	62.648
465.09	62.057
465.44	63.790
465.79	65.087
466.14	64.614
466.49	63.558
466.84	64.406
467.19	63.903
467.54	62.468
467.89	63.625
468.24	62.173
468.59	64.460
468.94	63.730
469.29	63.158
469.64	62.129
469.99	63.673
470.34	64.061
470.68	64.099
471.03	64.281
471.38	63.403
471.73	63.566
472.08	61.981
472.43	62.227
472.78	63.133
473.13	63.419
473.48	63.433
473.83	63.027
474.17	63.057
474.52	65.601
474.87	62.995
475.22	61.593
475.57	62.056
475.92	62.743
476.27	62.457
476.61	63.662
476.96	63.331
477.31	63.294
477.66	62.867
478.01	62.129
478.36	61.865
478.70	63.588
479.05	63.169
479.40	61.865
479.75	62.640
480.10	62.202
480.45	62.766
480.79	63.475
481.14	63.271
481.49	63.020
481.84	63.477
482.19	62.723
482.53	63.542
482.88	61.367
483.23	62.347
483.58	62.951
483.92	62.446
484.27	61.320
484.62	62.376
484.97	62.471
485.31	61.152
485.66	61.921
486.01	63.143
486.36	65.284
486.70	65.838
487.05	64.291
487.40	63.649
487.75	62.184
488.09	62.230
488.44	62.382
488.79	60.665
489.13	61.430
489.48	61.705
489.83	62.402
490.17	61.950
490.52	62.047
490.87	62.032
491.22	61.373
491.56	61.204
491.91	60.878
492.26	61.934
492.60	62.322
492.95	61.066
493.30	61.267
493.64	61.636
493.99	61.950
494.34	61.524
494.68	61.096
495.03	61.472
495.37	62.094
495.72	61.837
496.07	62.506
496.41	62.390
496.76	62.329
497.11	62.459
497.45	61.303
497.80	61.581
498.14	62.377
498.49	61.828
498.84	60.437
499.18	62.037
499.53	62.250
499.87	61.245
500.22	62.941
500.56	61.781
500.91	61.133
501.26	60.602
501.60	61.964
501.95	63.333
502.29	60.841
502.64	62.471
502.98	61.188
503.33	61.419
503.67	61.446
504.02	62.144
504.36	61.618
504.71	61.398
505.06	61.408
505.40	61.527
505.75	61.839
506.09	62.336
506.44	61.103
506.78	61.967
507.13	60.711
507.47	61.450
507.82	60.661
508.16	61.140
508.51	61.618
508.85	62.836
509.19	61.748
509.54	61.628
509.88	61.596
510.23	61.426
510.57	60.899
510.92	62.567
511.26	62.095
511.61	60.745
511.95	61.907
512.30	61.792
512.64	60.490
512.98	61.771
513.33	60.791
513.67	60.190
514.02	60.235
514.36	59.391
514.70	61.121
515.05	61.407
515.39	60.554
515.74	62.769
516.08	60.865
516.42	61.020
516.77	61.179
517.11	62.300
517.46	62.321
517.80	62.515
518.14	61.473
518.49	61.805
518.83	60.653
519.17	62.522
519.52	59.746
519.86	61.947
520.20	61.491
520.55	60.800
520.89	60.739
521.23	61.050
521.58	61.379
521.92	62.951
522.26	60.190
522.61	60.520
522.95	60.243
523.29	61.254
523.64	61.149
523.98	62.126
524.32	61.094
524.66	60.807
525.01	61.272
525.35	62.307
525.69	60.703
526.04	62.206
526.38	61.744
526.72	59.706
527.06	61.198
527.41	62.046
527.75	60.726
528.09	60.556
528.43	61.508
528.78	59.799
529.12	61.716
529.46	61.920
529.80	60.878
530.15	61.945
530.49	61.578
530.83	62.083
531.17	60.202
531.51	61.487
531.86	61.159
532.20	61.201
532.54	61.096
532.88	61.067
533.22	62.500
533.57	62.010
533.91	59.863
534.25	60.277
534.59	60.525
534.93	60.548
535.27	60.919
535.62	62.276
535.96	60.116
536.30	60.275
536.64	61.089
536.98	63.418
537.32	62.129
537.66	59.267
538.01	60.206
538.35	62.095
538.69	61.096
539.03	60.731
539.37	61.211
539.71	60.574
540.05	61.755
540.39	62.119
540.73	62.474
541.07	62.295
541.42	59.622
541.76	60.864
542.10	61.715
542.44	59.227
542.78	60.787
543.12	61.779
543.46	61.164
543.80	60.134
544.14	60.779
544.48	62.205
544.82	60.893
545.16	60.496
545.50	60.229
545.84	59.944
546.18	61.165
546.52	61.949
546.86	61.325
547.20	61.041
547.54	59.022
547.88	61.380
548.22	61.533
548.56	61.323
548.90	60.580
549.24	60.827
549.58	60.692
549.92	61.979
550.26	61.488
550.60	60.242
550.94	62.190
551.28	62.002
551.62	60.414
551.96	61.216
552.30	59.373
552.64	61.928
552.98	61.107
553.32	61.616
553.66	61.428
554.00	61.692
554.34	60.794
554.68	61.111
555.02	61.288
555.36	61.538
555.69	61.605
556.03	61.544
556.37	61.238
556.71	62.992
557.05	61.641
557.39	61.024
557.73	62.071
558.07	62.472
558.41	61.705
558.75	59.848
559.08	61.167
559.42	61.103
559.76	62.500
560.10	61.969
560.44	61.561
560.78	61.935
561.12	60.939
561.45	62.260
561.79	61.812
562.13	62.202
562.47	61.695
562.81	61.457
563.15	62.141
563.48	62.059
563.82	61.934
564.16	61.528
564.50	61.022
564.84	59.987
565.17	62.401
565.51	62.581
565.85	63.624
566.19	63.900
566.52	62.492
566.86	62.579
567.20	63.136
567.54	64.206
567.88	61.474
568.21	62.919
568.55	63.415
568.89	62.227
569.23	62.702
569.56	62.169
569.90	63.690
570.24	63.998
570.57	61.828
570.91	62.428
571.25	63.424
571.59	63.753
571.92	62.202
572.26	62.163
572.60	62.550
572.93	62.217
573.27	62.591
573.61	61.629
573.95	63.651
574.28	62.066
574.62	63.116
574.96	62.488
575.29	62.881
575.63	62.702
575.97	62.244
576.30	62.538
576.64	63.055
576.98	61.732
577.31	63.385
577.65	62.872
577.98	63.546
578.32	63.145
578.66	63.299
578.99	62.718
579.33	62.522
579.67	62.237
580.00	62.500
580.34	62.500
580.67	62.932
581.01	61.883
581.35	64.002
581.68	62.729
582.02	63.521
582.35	63.532
582.69	64.279
583.02	64.523
583.36	63.084
583.70	62.775
584.03	63.551
584.37	62.436
584.70	62.094
585.04	62.987
585.37	61.885
585.71	62.748
586.04	63.652
586.38	62.443
586.72	62.796
587.05	63.495
587.39	63.125
587.72	63.525
588.06	63.384
588.39	64.198
588.73	63.036
589.06	62.884
589.40	63.861
589.73	63.385
590.07	63.037
590.40	62.399
590.73	62.895
591.07	62.254
591.40	63.042
591.74	63.206
592.07	62.748
592.41	64.119
592.74	63.643
593.08	63.543
593.41	64.243
593.75	62.809
594.08	65.457
594.41	64.214
594.75	63.156
595.08	63.947
595.42	64.017
595.75	62.955
596.09	64.726
596.42	63.789
596.75	62.656
597.09	64.069
597.42	61.938
597.75	63.286
598.09	63.217
598.42	62.793
598.76	63.704
599.09	63.339
599.42	63.437
599.76	63.949
600.09	63.817
600.42	63.464
600.76	64.068
601.09	63.046
601.42	64.068
601.76	63.279
602.09	63.640
602.42	64.156
602.76	63.315
603.09	64.234
603.42	64.988
603.76	64.938
604.09	64.437
604.42	63.405
604.76	62.625
605.09	63.472
605.42	64.495
605.75	65.157
606.09	64.093
606.42	63.594
606.75	63.547
607.09	64.138
607.42	65.229
607.75	63.179
608.08	65.477
608.42	65.326
608.75	63.598
609.08	64.101
609.41	64.076
609.75	62.896
610.08	65.000
610.41	64.723
610.74	65.232
611.07	63.692
611.41	63.036
611.74	64.113
612.07	65.252
612.40	62.953
612.73	63.705
613.07	64.337
613.40	64.641
613.73	64.578
614.06	62.932
614.39	65.389
614.72	64.804
615.06	63.261
615.39	63.592
615.72	63.064
616.05	63.777
616.38	64.423
616.71	65.526
617.05	63.932
617.38	64.396
617.71	64.988
618.04	64.907
618.37	65.094
618.70	65.580
619.03	63.372
619.36	64.905
619.69	65.039
620.03	62.603
620.36	65.120
620.69	66.332
621.02	64.079
621.35	63.387
621.68	63.115
622.01	65.049
622.34	64.363
622.67	64.531
623.00	65.723
623.33	64.030
623.66	64.549
623.99	64.436
624.32	64.583
624.65	64.901
624.99	65.049
625.32	63.473
625.65	65.190
625.98	64.085
626.31	65.579
626.64	63.849
626.97	64.212
627.30	63.319
627.63	62.435
627.96	65.361
628.29	64.982
628.62	63.419
628.95	64.272
629.28	64.192
629.61	65.947
629.94	65.028
630.26	65.507
630.59	65.829
630.92	64.264
631.25	64.617
631.58	65.820
631.91	62.660
632.24	66.556
632.57	65.444
632.90	64.368
633.23	63.785
633.56	63.626
633.89	65.566
634.22	65.762
634.55	65.024
634.88	62.152
635.20	64.544
635.53	65.649
635.86	64.736
636.19	64.591
636.52	63.202
636.85	63.177
637.18	63.250
637.51	63.693
637.83	62.850
638.16	65.395
638.49	63.586
638.82	63.449
639.15	65.759
639.48	64.591
639.81	65.560
640.13	64.730
640.46	65.670
640.79	65.966
641.12	64.598
641.45	64.706
641.77	63.623
642.10	66.314
642.43	63.278
642.76	63.465
643.09	67.302
643.41	66.032
643.74	66.137
644.07	64.743
644.40	65.640
644.73	64.851
645.05	63.272
645.38	67.053
645.71	68.557
646.04	65.378
646.36	65.969
646.69	64.706
647.02	66.606
647.35	63.899
647.67	64.416
648.00	63.972
648.33	66.948
648.66	64.677
648.98	67.994
649.31	63.846
649.64	66.094
649.96	65.306
650.29	64.262
650.62	68.503
650.94	62.057
651.27	65.338
651.60	63.495
651.92	65.411
652.25	64.274
652.58	66.269
652.90	65.490
653.23	62.419
653.56	65.050
653.88	65.738
654.21	68.792
654.54	67.442
654.86	66.132
655.19	65.043
655.52	67.876
655.84	70.200
656.17	75.908
656.49	99.897
656.82	100.000
657.15	78.539
657.47	56.999
657.80	44.071
658.13	49.699
658.45	65.485
658.78	64.417
659.10	62.565
659.43	60.288
659.75	60.425
660.08	60.104
660.41	57.487
660.73	59.296
661.06	63.043
661.38	65.000
661.71	64.054
662.03	65.121
662.36	65.032
662.68	63.291
663.01	67.516
663.33	66.893
663.66	66.738
663.98	63.616
664.31	66.890
664.63	67.920
664.96	67.462
665.28	67.245
665.61	63.002
665.93	65.226
666.26	62.753
666.58	65.489
666.91	67.706
667.23	63.596
667.56	62.132
667.88	65.837
668.21	62.442
668.53	67.290
668.86	68.129
669.18	67.123
669.50	65.888
669.83	67.397
670.15	61.435
670.48	66.355
670.80	62.870
671.13	61.625
671.45	65.766
671.77	65.525
672.10	66.075
672.42	65.498
672.75	65.818
673.07	65.586
673.39	65.027
673.72	68.110
674.04	64.968
674.37	62.887
674.69	66.189
675.01	64.255
675.34	62.473
675.66	65.875
675.98	65.419
676.31	65.385
676.63	70.115
676.95	65.487
677.28	66.589
677.60	66.968
677.92	68.062
678.25	67.177
678.57	68.107
678.89	65.828
679.22	64.780
679.54	66.469
679.86	65.400
680.18	66.920
680.51	63.501
680.83	68.952
681.15	65.896
681.48	67.343
681.80	63.710
682.12	64.990
682.44	66.012
682.77	63.853
683.09	62.474
683.41	66.814
683.73	67.580
684.06	66.022
684.38	65.900
684.70	67.901
685.02	65.157
685.34	63.938
685.67	69.886
685.99	67.486
686.31	68.402
686.63	62.766
686.96	65.434
687.28	66.474
687.60	70.312
687.92	64.786
688.24	67.520
688.56	63.527
688.89	65.598
689.21	65.646
689.53	67.586
689.85	67.261
690.17	67.489
690.49	67.436
690.82	66.265
691.14	65.802
691.46	67.406
691.78	67.621
692.10	65.678
692.42	68.889
692.74	65.021
693.06	64.494
693.39	67.785
693.71	66.591
694.03	70.626
694.35	64.108
694.67	63.121
694.99	63.171
695.31	68.622
695.63	65.306
695.95	64.020
696.27	63.342
696.59	65.508
696.91	67.697
697.23	69.531
697.56	66.346
697.88	67.793
698.20	63.812
698.52	60.538
698.84	66.505
699.16	67.143
699.48	65.250
699.80	65.163
700.12	65.239
700.44	67.039
700.76	65.015
701.08	63.081
701.40	65.257
701.72	70.062
702.04	68.910
702.36	69.277
702.68	63.473
703.00	64.928
703.32	62.751
703.64	72.353
703.96	65.407
704.28	68.047
704.60	63.608
704.91	63.810
705.23	67.314
705.55	65.541
705.87	66.894
706.19	65.972
706.51	63.889
706.83	68.525
707.15	68.790
707.47	68.871
707.79	68.814
708.11	64.631
708.43	63.591
708.74	66.234
709.06	65.181
709.38	60.920
709.70	66.562
710.02	65.031
710.34	65.017
710.66	67.302
710.98	64.038
711.29	63.871
711.61	62.300
711.93	64.918
712.25	69.435
712.57	62.718
712.89	68.705
713.20	68.041
713.52	65.299
713.84	71.886
714.16	65.246
714.48	68.889
714.80	65.538
715.11	67.435
715.43	63.855
715.75	66.355
716.07	63.607
716.39	65.886
716.70	65.505
717.02	64.074
717.34	65.267
717.66	70.954
717.97	63.115
718.29	67.647
718.61	69.048
718.93	67.025
719.24	62.132
719.56	64.528
719.88	66.545
720.20	63.670
720.51	69.925
720.83	62.249
721.15	73.361
721.46	70.980
721.78	64.368
722.10	69.200
722.42	66.942
722.73	66.932
723.05	66.667
723.37	67.843
723.68	62.348
724.00	64.634
724.32	62.963
724.63	68.465
724.95	69.008
725.27	67.982
725.58	62.069
725.90	63.889
726.22	67.159
726.53	66.160
726.85	63.137
727.16	67.669
727.48	65.000
727.80	59.426
728.11	62.605
728.43	66.529
728.74	70.313
729.06	63.258
729.38	65.759
729.69	63.780
730.01	69.291
730.32	72.112
730.64	71.062
730.96	68.657
731.27	67.143
731.59	67.203
731.90	65.337
732.22	68.712
732.53	70.199
732.85	63.087
733.16	67.754
733.48	64.111
733.80	69.039
734.11	64.138
734.43	64.966
734.74	66.469
735.06	66.771
735.37	62.385
735.69	65.806
736.00	64.983
736.32	66.225
736.63	62.069
736.95	68.116
737.26	68.212
737.58	70.504
737.89	69.892
738.21	69.173
738.52	64.231
738.83	60.937
739.15	64.957
739.46	68.145
739.78	62.587
740.09	66.434
740.41	66.434
740.72	67.883
741.04	62.302
741.35	60.606
741.66	63.426
741.98	60.476
742.29	63.850
742.61	68.984
742.92	67.757
743.23	64.912
743.55	67.117
743.86	75.111
744.18	61.429
744.49	69.951
744.80	68.020
745.12	72.165
745.43	70.352
745.74	59.709
746.06	64.878
746.37	71.806
746.68	65.672
747.00	70.681
747.31	60.096
747.62	60.829
747.94	62.009
748.25	67.442
748.56	65.238
748.88	61.957
749.19	63.380
749.50	69.118
749.82	70.667
750.13	73.568
750.44	73.171
750.75	68.000
751.07	68.214
751.38	67.528
751.69	67.176
752.01	66.154
752.32	70.817
752.63	60.000
752.94	67.063
753.26	67.391
753.57	65.625
753.88	69.828
754.19	63.900
754.51	68.359
754.82	69.565
755.13	64.609
755.44	66.116
755.75	64.609
756.07	66.667
756.38	66.797
756.69	69.314
757.00	65.854
757.31	66.443
757.63	66.044
757.94	66.763
758.25	68.023
758.56	71.159
758.87	63.920
759.18	61.333
759.50	67.972
759.81	66.423
760.12	62.162
760.43	71.521
760.74	71.875
761.05	66.854
761.36	73.653
761.67	70.414
761.99	61.613
762.30	73.551
762.61	60.377
762.92	69.058
763.23	64.929
763.54	68.444
763.85	71.308
764.16	68.980
764.47	75.000
764.78	63.296
765.10	66.547
765.41	65.484
765.72	64.151
766.03	63.604
766.34	66.917
766.65	64.777
766.96	65.500
767.27	64.583
767.58	62.791
767.89	64.516
768.20	62.577
768.51	65.027
768.82	60.000
769.13	72.500
769.44	63.596
769.75	61.905
770.06	65.138
770.37	64.789
770.68	68.750
770.99	64.356
771.30	68.932
771.61	62.037
771.92	65.368
772.23	63.551
772.54	61.702
772.85	66.272
773.16	70.732
773.47	72.892
773.78	63.187
774.09	66.000
774.39	65.432
774.70	64.430
775.01	67.391
775.32	53.731
775.63	51.240
775.94	63.158
776.25	57.143
776.56	68.033
776.87	68.142
777.18	69.912
777.48	49.091
777.79	51.304
778.10	61.468
778.41	60.169
778.72	61.983
779.03	59.701
779.34	70.677
779.65	62.745
779.95	57.971
780.26	59.864
780.57	68.103
780.88	58.333
781.19	62.626
781.50	64.800
781.80	60.784
782.11	55.769
782.42	60.843
782.73	68.613
783.04	56.757
783.34	64.394
783.65	58.915
783.96	67.480
784.27	71.795
784.57	59.350
784.88	45.528
785.19	57.018
785.50	53.608
785.81	56.190
786.11	56.863
786.42	52.727
786.73	59.459
787.04	56.436
787.34	58.095
787.65	60.000
787.96	65.686
788.26	72.072
788.57	58.871
788.88	57.031
789.19	62.393
789.49	55.462
789.80	58.120
790.11	63.717
790.41	55.556
790.72	58.491
791.03	59.722
791.33	52.632
791.64	48.387
791.95	60.000
792.25	58.571
792.56	59.756
792.87	38.776
793.17	42.105
793.48	50.000
793.79	39.437
794.09	69.620
794.40	61.702
794.70	55.140
795.01	50.000
795.32	53.636
795.62	59.821
795.93	65.979
796.23	54.945
796.54	55.789
796.85	43.836
797.15	29.167
797.46	47.945
797.76	43.662
798.07	56.250
798.37	55.882
798.68	58.571
798.99	48.571
799.29	64.474
799.60	70.000
799.90	51.389
800.21	54.688
800.51	49.206
800.82	50.820
801.12	50.877
801.43	32.394
801.73	45.763
802.04	50.820
802.34	30.909
802.65	44.231
802.95	77.778
803.26	42.500
803.56	53.846
803.87	60.526
804.17	56.452
804.48	49.231
804.78	30.769
805.09	41.860
805.39	46.875
805.70	33.962
806.00	54.386
806.30	43.243
806.61	50.000
806.91	53.086
807.22	70.667
807.52	62.687
807.83	43.548
808.13	42.857
808.43	38.182
808.74	53.030
809.04	64.151
809.35	32.877
809.65	66.667
809.95	47.059
810.26	56.863
810.56	36.000
810.86	26.531
811.17	45.714
811.47	30.769
811.77	48.387
812.08	0.000
812.38	35.714
812.69	36.957
812.99	32.258
813.29	33.333
813.59	-14.815
813.90	8.511
814.20	51.163
814.50	60.417
814.81	48.333
815.11	29.268
815.41	43.333
815.72	54.286
816.02	19.444
816.32	46.154
816.62	45.946
816.93	2.941
817.23	52.174
817.53	47.059
817.84	44.118
818.14	-6.250
818.44	-3.448
818.74	9.677
819.04	7.407
819.35	23.333
819.65	16.000
819.95	-13.333
820.25	8.000
820.56	15.789
820.86	7.500
821.16	42.553
821.46	41.379
821.76	17.949
822.07	-2.500
822.37	39.535
822.67	33.333
822.97	-2.703
823.27	40.541
823.57	28.000
823.88	16.216
824.18	38.095
824.48	38.462
824.78	-15.385
825.08	30.435
825.38	37.500
825.69	20.833
825.99	5.000
826.29	-5.405
826.59	20.588
826.89	72.000
827.19	37.143
827.49	42.105
827.79	-12.500
828.09	26.667
828.39	47.826
828.70	0.000
829.00	0.000
829.30	41.667
829.60	59.375
829.90	55.556
830.20	34.615
830.50	-4.762
830.80	3.571
831.10	2.564
831.40	9.524
831.70	8.824
832.00	-41.667
832.30	-47.368
832.60	62.500
832.90	-75.000
833.20	-88.235
833.50	-20.000
833.80	0.000
834.10	-10.000
834.40	25.000
834.70	-38.889
835.00	23.077
835.30	16.667
835.60	37.931
835.90	-16.667
836.20	-81.818
836.50	-141.667
836.80	28.571
837.10	71.429
837.40	-41.176
837.70	-36.364
838.00	-12.500
838.30	18.750
838.60	57.143
838.90	-10.000
839.19	0.000
839.49	17.391
839.79	-72.222
840.09	-13.043
840.39	-27.273
840.69	-106.250
840.99	10.526
841.29	-62.500
841.59	14.286
841.88	-22.222
842.18	16.667
842.48	-23.529
842.78	51.724
843.08	35.714
843.38	-15.385
843.68	-188.889
843.97	-23.077
844.27	-100.000
844.57	-460.000
844.87	24.000
845.17	-120.000
845.47	0.000
845.76	-144.444
846.06	0.000
846.36	-400.000
846.66	-90.000
846.96	-47.368
847.25	-29.167
847.55	-58.333
847.85	20.000
848.15	-110.000
848.44	38.462
848.74	-31.579
849.04	366.667
849.34	-22.222
849.63	-68.421
849.93	0.000
850.23	-15.000
850.53	0.000
850.82	-28.000
851.12	-31.579
851.42	-350.000
851.71	-42.857
852.01	-58.333
852.31	0.000
852.61	-46.667
852.90	-23.810
853.20	-50.000
853.50	27.778
853.79	-15.789
854.09	-46.667
854.39	14.286
854.68	26.087
854.98	-33.333
855.28	62.069
855.57	68.750
855.87	0.000
856.17	-46.667
856.46	-27.586
856.76	-20.000
857.05	-82.353
857.35	-53.846
857.65	-54.545
857.94	11.111
858.24	-107.143
858.53	-71.429
858.83	-41.667
859.13	-166.667
859.42	61.905
859.72	-75.000
860.01	-500.000
860.31	-25.000
860.60	-300.000
860.90	-155.556
861.20	-62.500
861.49	-171.429
861.79	23.529
862.08	-600.000
862.38	-191.667
862.67	46.154
862.97	0.000
863.26	5.000
863.56	17.647
863.85	366.667
864.15	-60.000
864.44	-69.231
864.74	-35.000
865.03	-225.000
865.33	-266.667
865.62	-82.353
865.92	-375.000
866.21	-85.714
866.51	-158.333
866.80	-400.000
867.10	-66.667
867.39	-58.824
867.69	-8.696
867.98	-157.143
868.27	-260.000
868.57	-43.750
868.86	-136.364
869.16	-47.059
869.45	-150.000
869.75	-142.857
870.04	1000.000
870.33	-100.000
870.63	-200.000
870.92	-77.778
871.22	0.000
871.51	-100.000
871.80	-83.333
872.10	-30.000
>>>>>End Processed Spectral Data<<<<<
