SpectraSuite Data File
++++++++++++++++++++++++++++++++++++
Date: Sat May 16 11:25:51 PDT 2015
User: schluterlab
Dark Spectrum Present: Yes
Reference Spectrum Present: Yes
Number of Sampled Component Spectra: 1
Spectrometers: USB2E3373
Integration Time (usec): 3000 (USB2E3373)
Spectra Averaged: 3 (USB2E3373)
Boxcar Smoothing: 0 (USB2E3373)
Correct for Electrical Dark: No (USB2E3373)
Strobe/Lamp Enabled: No (USB2E3373)
Correct for Detector Non-linearity: No (USB2E3373)
Correct for Stray Light: No (USB2E3373)
Number of Pixels in Processed Spectrum: 2048
>>>>>Begin Processed Spectral Data<<<<<
178.53	0.000
178.91	146.667
179.29	400.000
179.67	-1700.000
180.04	-115.385
180.42	-300.000
180.80	250.000
181.18	425.000
181.56	-162.500
181.94	800.000
182.31	600.000
182.69	-84.615
183.07	-300.000
183.45	1050.000
183.83	733.333
184.20	-185.714
184.58	-150.000
184.96	-75.000
185.34	193.750
185.72	-375.000
186.09	383.333
186.47	-75.000
186.85	-275.000
187.23	-100.000
187.61	-175.000
187.98	-262.500
188.36	-225.000
188.74	-62.500
189.12	1800.000
189.49	371.429
189.87	-33.333
190.25	700.000
190.63	-50.000
191.00	-200.000
191.38	400.000
191.76	-13.333
192.14	680.000
192.51	-220.000
192.89	-800.000
193.27	0.000
193.65	-166.667
194.02	-242.857
194.40	900.000
194.78	-140.000
195.15	-1400.000
195.53	-45.455
195.91	-383.333
196.29	300.000
196.66	-366.667
197.04	2500.000
197.42	-125.000
197.79	20.000
198.17	-333.333
198.55	-600.000
198.92	1000.000
199.30	237.500
199.68	-1050.000
200.05	-88.889
200.43	-277.778
200.81	-1500.000
201.18	-83.333
201.56	257.143
201.94	-60.000
202.31	-9.091
202.69	-50.000
203.07	-100.000
203.44	600.000
203.82	-383.333
204.19	-350.000
204.57	-175.000
204.95	-1500.000
205.32	-37.500
205.70	-100.000
206.08	-1600.000
206.45	-38.889
206.83	-550.000
207.20	250.000
207.58	-533.333
207.96	-133.333
208.33	-100.000
208.71	-233.333
209.08	160.000
209.46	-271.429
209.84	950.000
210.21	0.000
210.59	75.000
210.96	600.000
211.34	-216.667
211.71	-333.333
212.09	250.000
212.46	1350.000
212.84	-2000.000
213.22	600.000
213.59	191.667
213.97	22.222
214.34	90.000
214.72	-50.000
215.09	-500.000
215.47	-166.667
215.84	10.000
216.22	-10.000
216.59	-26.667
216.97	-425.000
217.34	950.000
217.72	-200.000
218.09	-266.667
218.47	-314.286
218.84	142.857
219.22	-14.286
219.59	0.000
219.97	185.714
220.34	250.000
220.72	262.500
221.09	-23.077
221.47	0.000
221.84	233.333
222.22	-150.000
222.59	1200.000
222.97	-125.000
223.34	-300.000
223.72	-333.333
224.09	-35.714
224.46	-200.000
224.84	-57.143
225.21	-214.286
225.59	-72.727
225.96	-162.500
226.34	-100.000
226.71	-111.111
227.08	-40.000
227.46	2400.000
227.83	-114.286
228.21	-212.500
228.58	800.000
228.95	6.250
229.33	-1300.000
229.70	-180.000
230.08	-650.000
230.45	-58.333
230.82	-116.667
231.20	-2100.000
231.57	-1000.000
231.95	700.000
232.32	19.048
232.69	-111.111
233.07	-200.000
233.44	-650.000
233.81	-133.333
234.19	-44.444
234.56	-43.750
234.93	-12.500
235.31	-328.571
235.68	-157.143
236.05	-41.176
236.43	-90.909
236.80	-3.226
237.17	-12.500
237.55	-52.381
237.92	-72.727
238.29	-40.000
238.67	-5.882
239.04	-16.667
239.41	-61.290
239.79	-23.077
240.16	-45.238
240.53	-20.000
240.91	-23.077
241.28	-3.636
241.65	10.769
242.02	-22.951
242.40	-8.197
242.77	-31.818
243.14	-16.949
243.51	-25.714
243.89	-8.861
244.26	-24.719
244.63	-1.053
245.00	-6.316
245.38	-11.864
245.75	-6.195
246.12	-8.800
246.49	-11.024
246.87	-6.504
247.24	-9.322
247.61	-5.085
247.98	-1.408
248.36	-8.392
248.73	-3.797
249.10	-10.828
249.47	-1.170
249.84	-5.682
250.22	-9.524
250.59	-0.565
250.96	-4.712
251.33	-0.948
251.70	-4.327
252.08	-5.687
252.45	-9.953
252.82	-4.762
253.19	-3.404
253.56	-2.823
253.94	-3.797
254.31	-5.579
254.68	-2.439
255.05	-8.065
255.42	1.587
255.79	-5.018
256.16	-0.784
256.54	0.368
256.91	-6.061
257.28	-6.227
257.65	-2.482
258.02	0.314
258.39	-1.003
258.76	-6.419
259.14	-4.012
259.51	-4.590
259.88	-0.610
260.25	-0.932
260.62	-2.894
260.99	-3.264
261.36	-0.915
261.73	-2.023
262.10	1.111
262.47	-0.570
262.85	-0.857
263.22	-4.298
263.59	-4.308
263.96	0.000
264.33	-1.084
264.70	-3.591
265.07	-3.297
265.44	-2.326
265.81	-2.842
266.18	-5.063
266.55	0.490
266.92	-0.756
267.29	-0.242
267.66	-3.704
268.03	0.483
268.40	-0.704
268.77	-1.205
269.14	-2.552
269.51	-0.920
269.88	-4.817
270.25	-3.263
270.62	-1.144
270.99	-1.126
271.36	0.233
271.73	-1.121
272.10	-0.915
272.47	-1.111
272.84	0.667
273.21	-2.982
273.58	-2.857
273.95	-2.632
274.32	-2.941
274.69	-3.282
275.06	0.613
275.43	-3.795
275.80	0.815
276.17	-2.301
276.54	0.611
276.91	0.206
277.28	0.000
277.65	-1.240
278.02	0.209
278.39	-1.179
278.76	-0.996
279.13	-1.581
279.50	-1.193
279.87	-2.537
280.23	-1.619
280.60	-1.193
280.97	-1.165
281.34	-2.515
281.71	-2.308
282.08	-2.419
282.45	-4.481
282.82	-1.163
283.19	-2.909
283.56	0.366
283.92	-2.297
284.29	-1.301
284.66	-1.079
285.03	0.178
285.40	1.107
285.77	-0.526
286.14	0.903
286.51	-1.066
286.87	-0.907
287.24	-2.218
287.61	0.165
287.98	-1.386
288.35	-2.479
288.72	-1.188
289.08	-1.525
289.45	-1.684
289.82	-2.595
290.19	0.493
290.56	-3.140
290.93	-1.431
291.29	-3.404
291.66	-1.127
292.03	-0.471
292.40	0.452
292.77	-2.329
293.13	-0.163
293.50	-1.337
293.87	0.000
294.24	0.302
294.60	-3.182
294.97	0.455
295.34	-0.444
295.71	-0.595
296.08	-2.765
296.44	-2.003
296.81	-0.855
297.18	-0.141
297.55	-0.424
297.91	0.000
298.28	-1.644
298.65	-1.116
299.02	2.005
299.38	0.000
299.75	-0.136
300.12	-0.513
300.48	0.384
300.85	-0.655
301.22	-0.129
301.59	0.000
301.95	1.889
302.32	-1.043
302.69	1.591
303.05	-0.977
303.42	-0.250
303.79	-0.478
304.15	-0.829
304.52	0.000
304.89	-0.826
305.25	0.122
305.62	-0.823
305.99	2.002
306.35	0.444
306.72	-1.595
307.09	0.681
307.45	-0.227
307.82	-1.564
308.19	-0.671
308.55	0.980
308.92	-0.430
309.29	0.324
309.65	1.273
310.02	0.972
310.38	-1.514
310.75	0.410
311.12	1.033
311.48	1.253
311.85	1.030
312.22	1.442
312.58	2.747
312.95	0.612
313.31	0.999
313.68	2.915
314.05	2.967
314.41	1.811
314.78	0.500
315.14	2.567
315.51	2.938
315.87	4.550
316.24	4.179
316.61	3.743
316.97	3.980
317.34	3.854
317.70	4.082
318.07	4.664
318.43	5.337
318.80	5.915
319.16	4.784
319.53	6.015
319.89	5.268
320.26	6.667
320.62	6.250
320.99	6.866
321.35	5.517
321.72	7.062
322.08	9.001
322.45	7.327
322.81	8.549
323.18	9.510
323.54	10.536
323.91	11.585
324.27	9.886
324.64	10.055
325.00	12.478
325.37	12.217
325.73	15.048
326.10	13.729
326.46	14.273
326.83	15.319
327.19	14.762
327.56	15.843
327.92	17.502
328.29	17.056
328.65	17.909
329.01	18.375
329.38	18.109
329.74	19.414
330.11	21.306
330.47	19.800
330.84	22.731
331.20	21.751
331.56	23.154
331.93	23.179
332.29	24.840
332.66	25.198
333.02	23.891
333.38	25.448
333.75	25.111
334.11	25.778
334.48	25.066
334.84	26.509
335.20	25.443
335.57	26.805
335.93	27.484
336.29	28.609
336.66	27.225
337.02	28.649
337.38	27.451
337.75	28.446
338.11	29.428
338.47	28.470
338.84	29.583
339.20	28.822
339.56	29.768
339.93	29.012
340.29	28.964
340.65	27.710
341.02	29.595
341.38	29.655
341.74	28.535
342.11	30.119
342.47	30.129
342.83	28.631
343.20	30.060
343.56	28.980
343.92	30.384
344.28	31.791
344.65	30.116
345.01	31.008
345.37	30.648
345.73	28.723
346.10	29.599
346.46	29.407
346.82	29.511
347.19	29.417
347.55	29.374
347.91	30.394
348.27	29.674
348.63	30.291
349.00	30.867
349.36	29.508
349.72	30.494
350.08	30.553
350.45	30.654
350.81	30.175
351.17	30.305
351.53	29.912
351.89	30.639
352.26	30.698
352.62	30.568
352.98	31.013
353.34	32.694
353.70	29.421
354.07	31.865
354.43	31.067
354.79	32.092
355.15	30.990
355.51	31.016
355.87	30.672
356.24	31.374
356.60	32.635
356.96	32.333
357.32	31.908
357.68	32.337
358.04	31.640
358.40	32.096
358.77	31.530
359.13	31.905
359.49	32.124
359.85	32.622
360.21	33.562
360.57	32.229
360.93	33.556
361.29	32.960
361.66	32.622
362.02	33.654
362.38	32.869
362.74	33.846
363.10	32.496
363.46	34.402
363.82	33.017
364.18	33.647
364.54	34.954
364.90	33.823
365.26	35.021
365.62	34.854
365.98	34.780
366.35	34.014
366.71	34.320
367.07	34.439
367.43	34.866
367.79	33.952
368.15	34.637
368.51	36.084
368.87	36.607
369.23	35.088
369.59	34.931
369.95	34.813
370.31	36.357
370.67	35.792
371.03	36.880
371.39	35.431
371.75	36.338
372.11	36.155
372.47	37.238
372.83	37.483
373.19	37.000
373.55	38.424
373.91	37.482
374.27	37.029
374.63	36.784
374.99	37.830
375.35	37.887
375.71	38.960
376.07	37.782
376.42	36.490
376.78	39.412
377.14	39.390
377.50	38.362
377.86	38.492
378.22	40.641
378.58	39.716
378.94	39.334
379.30	39.427
379.66	39.891
380.02	40.463
380.38	39.517
380.74	40.445
381.09	40.949
381.45	41.527
381.81	40.532
382.17	41.479
382.53	40.669
382.89	40.490
383.25	42.685
383.61	41.333
383.97	42.927
384.32	41.990
384.68	43.349
385.04	42.512
385.40	42.788
385.76	42.378
386.12	44.035
386.48	44.431
386.83	44.417
387.19	43.515
387.55	44.155
387.91	43.865
388.27	43.245
388.62	43.570
388.98	43.368
389.34	43.941
389.70	45.250
390.06	44.313
390.42	44.679
390.77	44.543
391.13	46.025
391.49	45.352
391.85	44.389
392.20	44.053
392.56	44.838
392.92	45.351
393.28	45.867
393.64	46.362
393.99	46.708
394.35	45.255
394.71	45.522
395.07	47.144
395.42	45.054
395.78	45.569
396.14	46.604
396.50	45.994
396.85	45.527
397.21	46.355
397.57	45.897
397.92	46.370
398.28	46.500
398.64	47.115
399.00	47.865
399.35	46.618
399.71	46.167
400.07	47.582
400.42	46.776
400.78	46.392
401.14	47.665
401.49	47.229
401.85	47.956
402.21	46.424
402.57	46.784
402.92	48.206
403.28	47.733
403.63	46.255
403.99	46.986
404.35	46.981
404.70	47.162
405.06	46.367
405.42	47.724
405.77	46.889
406.13	47.530
406.49	48.951
406.84	47.510
407.20	47.409
407.55	47.562
407.91	47.409
408.27	46.324
408.62	47.264
408.98	47.726
409.34	46.801
409.69	47.007
410.05	46.756
410.40	47.946
410.76	47.481
411.11	47.444
411.47	48.146
411.83	47.983
412.18	48.762
412.54	47.590
412.89	47.752
413.25	48.701
413.60	47.266
413.96	48.429
414.31	48.073
414.67	48.952
415.03	47.995
415.38	48.341
415.74	49.356
416.09	48.593
416.45	47.090
416.80	47.594
417.16	48.970
417.51	48.654
417.87	48.932
418.22	48.925
418.58	47.689
418.93	48.927
419.29	48.620
419.64	48.116
420.00	50.608
420.35	49.497
420.71	48.499
421.06	49.822
421.42	49.239
421.77	49.135
422.12	50.364
422.48	50.027
422.83	49.089
423.19	50.445
423.54	50.375
423.90	49.104
424.25	50.283
424.61	50.663
424.96	51.141
425.31	49.916
425.67	50.716
426.02	50.373
426.38	51.603
426.73	52.133
427.09	51.409
427.44	51.250
427.79	50.930
428.15	51.825
428.50	51.613
428.85	51.199
429.21	52.186
429.56	52.031
429.92	51.253
430.27	51.496
430.62	52.194
430.98	52.326
431.33	52.134
431.68	52.386
432.04	53.050
432.39	52.365
432.74	52.698
433.10	52.842
433.45	52.850
433.80	53.695
434.16	53.573
434.51	53.534
434.86	54.482
435.22	53.619
435.57	53.672
435.92	53.986
436.28	53.769
436.63	53.420
436.98	53.150
437.34	53.810
437.69	52.975
438.04	53.261
438.39	54.753
438.75	54.424
439.10	54.803
439.45	54.737
439.81	55.060
440.16	54.117
440.51	54.647
440.86	55.234
441.22	54.008
441.57	53.684
441.92	55.243
442.27	54.329
442.63	54.077
442.98	54.176
443.33	55.299
443.68	53.934
444.03	55.255
444.39	54.821
444.74	55.617
445.09	54.002
445.44	54.868
445.79	56.043
446.15	56.134
446.50	55.580
446.85	54.951
447.20	54.954
447.55	54.199
447.91	55.924
448.26	54.581
448.61	54.556
448.96	55.350
449.31	55.581
449.66	55.123
450.02	54.515
450.37	54.203
450.72	54.520
451.07	56.505
451.42	55.328
451.77	56.433
452.12	54.946
452.47	54.975
452.83	55.679
453.18	56.293
453.53	55.846
453.88	55.084
454.23	54.353
454.58	56.184
454.93	57.179
455.28	56.405
455.63	55.651
455.98	55.241
456.34	54.892
456.69	56.160
457.04	55.870
457.39	55.502
457.74	55.995
458.09	56.032
458.44	56.697
458.79	56.166
459.14	56.646
459.49	56.128
459.84	56.324
460.19	56.205
460.54	55.838
460.89	57.007
461.24	56.041
461.59	56.506
461.94	57.097
462.29	55.747
462.64	56.653
462.99	57.229
463.34	55.976
463.69	56.552
464.04	55.888
464.39	56.870
464.74	56.324
465.09	54.901
465.44	54.992
465.79	56.684
466.14	57.825
466.49	55.843
466.84	55.762
467.19	57.045
467.54	56.456
467.89	56.042
468.24	56.176
468.59	56.839
468.94	56.206
469.29	55.231
469.64	57.210
469.99	57.799
470.34	57.047
470.68	57.122
471.03	57.261
471.38	56.458
471.73	57.133
472.08	56.760
472.43	56.499
472.78	56.333
473.13	55.533
473.48	57.116
473.83	56.886
474.17	57.325
474.52	58.696
474.87	56.002
475.22	56.047
475.57	55.778
475.92	55.940
476.27	56.000
476.61	56.225
476.96	56.568
477.31	57.158
477.66	56.890
478.01	56.078
478.36	55.265
478.70	56.807
479.05	57.112
479.40	56.839
479.75	55.912
480.10	56.151
480.45	55.368
480.79	56.910
481.14	58.103
481.49	57.212
481.84	55.987
482.19	56.007
482.53	56.439
482.88	55.956
483.23	56.056
483.58	57.169
483.92	56.665
484.27	54.674
484.62	55.292
484.97	56.041
485.31	54.656
485.66	54.264
486.01	55.221
486.36	56.344
486.70	57.560
487.05	56.458
487.40	57.025
487.75	55.166
488.09	54.540
488.44	55.616
488.79	55.536
489.13	56.638
489.48	56.240
489.83	56.245
490.17	54.288
490.52	56.612
490.87	56.443
491.22	55.955
491.56	55.602
491.91	56.298
492.26	56.368
492.60	55.376
492.95	55.593
493.30	55.407
493.64	55.806
493.99	55.975
494.34	56.667
494.68	56.507
495.03	56.453
495.37	57.129
495.72	55.501
496.07	56.922
496.41	56.369
496.76	56.895
497.11	57.325
497.45	56.513
497.80	56.478
498.14	56.434
498.49	56.956
498.84	55.631
499.18	56.238
499.53	56.503
499.87	55.792
500.22	56.078
500.56	57.629
500.91	57.291
501.26	56.574
501.60	55.802
501.95	57.923
502.29	56.212
502.64	57.190
502.98	56.636
503.33	56.062
503.67	55.795
504.02	55.529
504.36	56.961
504.71	56.434
505.06	55.816
505.40	56.487
505.75	57.520
506.09	57.937
506.44	57.343
506.78	57.301
507.13	57.570
507.47	57.381
507.82	56.014
508.16	56.995
508.51	56.878
508.85	57.816
509.19	57.038
509.54	56.924
509.88	57.394
510.23	56.918
510.57	58.677
510.92	57.734
511.26	56.938
511.61	57.721
511.95	56.843
512.30	58.329
512.64	57.151
512.98	56.271
513.33	57.002
513.67	57.342
514.02	55.817
514.36	56.620
514.70	57.555
515.05	58.433
515.39	58.074
515.74	57.882
516.08	56.542
516.42	57.280
516.77	57.828
517.11	57.437
517.46	58.732
517.80	58.424
518.14	57.488
518.49	57.681
518.83	57.389
519.17	57.963
519.52	57.143
519.86	57.766
520.20	58.680
520.55	58.954
520.89	58.297
521.23	59.463
521.58	58.997
521.92	58.455
522.26	57.841
522.61	58.872
522.95	57.243
523.29	58.245
523.64	56.777
523.98	59.453
524.32	58.580
524.66	56.894
525.01	58.253
525.35	57.925
525.69	57.970
526.04	58.290
526.38	59.198
526.72	58.046
527.06	58.073
527.41	58.152
527.75	57.756
528.09	58.372
528.43	57.770
528.78	57.538
529.12	59.155
529.46	58.698
529.80	58.489
530.15	58.017
530.49	57.762
530.83	59.070
531.17	57.778
531.51	58.607
531.86	58.986
532.20	59.649
532.54	58.556
532.88	58.103
533.22	60.027
533.57	57.898
533.91	55.930
534.25	58.014
534.59	56.652
534.93	56.938
535.27	58.590
535.62	59.207
535.96	57.725
536.30	57.592
536.64	58.234
536.98	59.816
537.32	57.844
537.66	58.588
538.01	57.801
538.35	57.432
538.69	59.024
539.03	57.888
539.37	56.953
539.71	57.839
540.05	58.328
540.39	59.626
540.73	57.291
541.07	58.811
541.42	57.259
541.76	56.478
542.10	59.014
542.44	58.294
542.78	58.073
543.12	58.859
543.46	57.808
543.80	57.258
544.14	58.160
544.48	57.940
544.82	58.796
545.16	59.021
545.50	58.143
545.84	58.554
546.18	58.252
546.52	56.828
546.86	58.191
547.20	58.720
547.54	58.264
547.88	59.190
548.22	58.060
548.56	57.849
548.90	58.221
549.24	58.094
549.58	58.222
549.92	59.435
550.26	59.104
550.60	57.539
550.94	59.562
551.28	58.841
551.62	57.681
551.96	57.670
552.30	57.770
552.64	60.099
552.98	58.935
553.32	59.019
553.66	59.841
554.00	58.991
554.34	57.978
554.68	57.164
555.02	58.973
555.36	57.872
555.69	57.951
556.03	57.333
556.37	58.535
556.71	57.552
557.05	59.128
557.39	58.649
557.73	59.154
558.07	59.307
558.41	58.115
558.75	59.468
559.08	58.366
559.42	59.342
559.76	58.436
560.10	59.657
560.44	59.538
560.78	58.455
561.12	57.557
561.45	57.808
561.79	59.233
562.13	59.327
562.47	58.403
562.81	58.416
563.15	57.523
563.48	58.811
563.82	57.877
564.16	58.080
564.50	59.745
564.84	58.069
565.17	56.631
565.51	58.018
565.85	59.026
566.19	59.881
566.52	58.121
566.86	57.775
567.20	58.838
567.54	60.071
567.88	57.956
568.21	59.172
568.55	58.855
568.89	58.300
569.23	57.890
569.56	57.041
569.90	57.907
570.24	58.023
570.57	57.258
570.91	56.477
571.25	56.744
571.59	57.228
571.92	57.321
572.26	56.441
572.60	56.283
572.93	56.581
573.27	55.671
573.61	55.234
573.95	56.546
574.28	55.904
574.62	56.685
574.96	56.206
575.29	56.504
575.63	56.119
575.97	55.906
576.30	55.495
576.64	56.057
576.98	56.133
577.31	56.520
577.65	56.699
577.98	56.072
578.32	56.283
578.66	55.936
578.99	55.911
579.33	55.991
579.67	56.201
580.00	56.027
580.34	56.482
580.67	55.749
581.01	55.324
581.35	56.512
581.68	55.725
582.02	56.784
582.35	56.261
582.69	57.657
583.02	57.449
583.36	56.625
583.70	56.708
584.03	56.412
584.37	57.077
584.70	55.855
585.04	55.797
585.37	55.585
585.71	56.313
586.04	56.459
586.38	56.188
586.72	56.313
587.05	56.443
587.39	56.105
587.72	57.128
588.06	57.056
588.39	56.166
588.73	57.423
589.06	57.449
589.40	57.712
589.73	56.657
590.07	56.264
590.40	56.458
590.73	56.817
591.07	56.967
591.40	56.716
591.74	57.646
592.07	57.973
592.41	56.943
592.74	57.341
593.08	57.295
593.41	57.007
593.75	56.083
594.08	57.333
594.41	57.634
594.75	57.267
595.08	58.684
595.42	57.009
595.75	57.111
596.09	57.858
596.42	58.633
596.75	57.137
597.09	57.346
597.42	56.787
597.75	57.662
598.09	57.072
598.42	56.253
598.76	56.645
599.09	56.985
599.42	57.055
599.76	57.116
600.09	57.366
600.42	57.349
600.76	57.514
601.09	56.703
601.42	56.826
601.76	57.593
602.09	56.646
602.42	57.531
602.76	56.502
603.09	57.339
603.42	57.897
603.76	57.718
604.09	57.068
604.42	58.160
604.76	58.133
605.09	57.911
605.42	58.333
605.75	58.517
606.09	56.289
606.42	57.897
606.75	57.278
607.09	57.918
607.42	57.086
607.75	58.013
608.08	57.162
608.42	58.467
608.75	56.449
609.08	57.331
609.41	57.000
609.75	57.387
610.08	58.578
610.41	57.108
610.74	58.607
611.07	57.911
611.41	57.388
611.74	57.429
612.07	58.808
612.40	58.369
612.73	59.074
613.07	58.338
613.40	60.317
613.73	58.093
614.06	57.496
614.39	59.696
614.72	57.765
615.06	57.609
615.39	57.623
615.72	58.012
616.05	57.261
616.38	59.779
616.71	58.378
617.05	58.203
617.38	59.690
617.71	58.907
618.04	58.137
618.37	58.742
618.70	60.235
619.03	58.632
619.36	58.844
619.69	59.368
620.03	58.609
620.36	57.876
620.69	59.368
621.02	60.274
621.35	59.597
621.68	58.934
622.01	59.951
622.34	58.540
622.67	59.688
623.00	60.750
623.33	61.269
623.66	59.601
623.99	58.496
624.32	58.780
624.65	59.455
624.99	59.223
625.32	57.859
625.65	59.674
625.98	58.998
626.31	60.277
626.64	58.410
626.97	58.647
627.30	59.830
627.63	59.240
627.96	59.008
628.29	59.007
628.62	58.835
628.95	60.531
629.28	58.083
629.61	59.176
629.94	60.113
630.26	61.928
630.59	63.015
630.92	60.360
631.25	60.282
631.58	61.376
631.91	58.830
632.24	63.000
632.57	61.333
632.90	61.839
633.23	60.631
633.56	59.649
633.89	60.849
634.22	61.039
634.55	61.779
634.88	61.669
635.20	60.924
635.53	63.104
635.86	61.713
636.19	60.928
636.52	58.423
636.85	61.733
637.18	59.125
637.51	61.586
637.83	63.116
638.16	60.263
638.49	62.345
638.82	59.846
639.15	61.997
639.48	59.014
639.81	63.209
640.13	61.757
640.46	60.969
640.79	62.885
641.12	60.931
641.45	60.545
641.77	61.826
642.10	61.480
642.43	61.608
642.76	60.000
643.09	61.587
643.41	63.651
643.74	62.957
644.07	61.622
644.40	63.371
644.73	61.716
645.05	61.102
645.38	61.258
645.71	65.464
646.04	64.370
646.36	63.176
646.69	60.208
647.02	62.635
647.35	63.718
647.67	60.949
648.00	60.984
648.33	65.430
648.66	59.194
648.98	60.191
649.31	62.923
649.64	62.969
649.96	62.323
650.29	59.836
650.62	64.716
650.94	61.383
651.27	61.525
651.60	62.803
651.92	62.329
652.25	58.765
652.58	63.032
652.90	60.674
653.23	60.323
653.56	62.375
653.88	60.164
654.21	65.268
654.54	61.462
654.86	59.711
655.19	62.321
655.52	60.317
655.84	58.709
656.17	63.425
656.49	84.255
656.82	86.406
657.15	65.871
657.47	48.463
657.80	37.555
658.13	42.781
658.45	56.884
658.78	55.760
659.10	55.218
659.43	54.195
659.75	54.603
660.08	54.115
660.41	52.812
660.73	56.436
661.06	59.130
661.38	61.607
661.71	61.759
662.03	61.492
662.36	63.113
662.68	59.705
663.01	64.968
663.33	62.358
663.66	64.163
663.98	59.152
664.31	61.745
664.63	64.602
664.96	60.954
665.28	57.701
665.61	62.368
665.93	62.140
666.26	60.324
666.58	61.746
666.91	63.474
667.23	60.746
667.56	61.451
667.88	63.348
668.21	61.060
668.53	60.748
668.86	63.741
669.18	62.557
669.50	62.150
669.83	62.044
670.15	58.520
670.48	61.215
670.80	60.592
671.13	60.722
671.45	61.486
671.77	62.099
672.10	60.355
672.42	60.517
672.75	63.091
673.07	58.739
673.39	58.470
673.72	60.039
674.04	62.420
674.37	60.619
674.69	60.041
675.01	60.426
675.34	60.738
675.66	60.907
675.98	60.352
676.31	65.837
676.63	63.448
676.95	59.292
677.28	58.237
677.60	62.217
677.92	66.740
678.25	62.363
678.57	60.082
678.89	57.442
679.22	61.635
679.54	62.327
679.86	58.800
680.18	60.837
680.51	57.542
680.83	62.857
681.15	58.189
681.48	59.838
681.80	58.669
682.12	59.759
682.44	58.153
682.77	60.173
683.09	57.442
683.41	61.947
683.73	60.959
684.06	56.559
684.38	60.669
684.70	61.111
685.02	59.252
685.34	61.209
685.67	61.932
685.99	61.248
686.31	59.246
686.63	58.156
686.96	58.965
687.28	60.886
687.60	59.375
687.92	55.058
688.24	61.024
688.56	57.916
688.89	55.983
689.21	61.488
689.53	64.138
689.85	60.356
690.17	58.296
690.49	60.739
690.82	61.446
691.14	58.255
691.46	62.971
691.78	61.013
692.10	61.441
692.42	62.222
692.74	57.940
693.06	60.225
693.39	60.626
693.71	62.528
694.03	60.475
694.35	58.014
694.67	61.466
694.99	59.847
695.31	60.714
695.63	61.224
695.95	59.057
696.27	60.100
696.59	58.824
696.91	60.955
697.23	62.500
697.56	61.298
697.88	60.135
698.20	55.889
698.52	54.709
698.84	61.408
699.16	54.524
699.48	59.750
699.80	58.897
700.12	60.705
700.44	59.218
700.76	59.184
701.08	58.140
701.40	59.215
701.72	61.728
702.04	61.859
702.36	62.349
702.68	59.581
703.00	60.870
703.32	58.166
703.64	65.588
703.96	58.430
704.28	56.509
704.60	55.696
704.91	56.190
705.23	57.929
705.55	62.838
705.87	67.918
706.19	57.639
706.51	61.806
706.83	62.623
707.15	64.650
707.47	61.157
707.79	61.082
708.11	56.234
708.43	57.606
708.74	56.104
709.06	57.939
709.38	55.460
709.70	59.687
710.02	61.043
710.34	58.086
710.66	56.190
710.98	60.568
711.29	59.032
711.61	55.591
711.93	60.984
712.25	62.791
712.57	61.672
712.89	58.993
713.20	61.512
713.52	60.075
713.84	62.278
714.16	61.967
714.48	59.365
714.80	58.769
715.11	54.179
715.43	60.843
715.75	59.502
716.07	55.410
716.39	57.860
716.70	54.007
717.02	57.778
717.34	53.817
717.66	60.166
717.97	58.607
718.29	60.504
718.61	64.683
718.93	60.215
719.24	55.515
719.56	56.226
719.88	57.818
720.20	61.049
720.51	61.278
720.83	63.052
721.15	58.607
721.46	61.569
721.78	62.452
722.10	55.200
722.42	62.810
722.73	60.159
723.05	59.438
723.37	50.588
723.68	57.895
724.00	63.821
724.32	60.082
724.63	55.602
724.95	60.331
725.27	55.263
725.58	64.224
725.90	55.556
726.22	60.148
726.53	60.076
726.85	52.549
727.16	59.398
727.48	60.000
727.80	55.738
728.11	59.244
728.43	60.331
728.74	57.422
729.06	59.848
729.38	55.642
729.69	54.724
730.01	61.811
730.32	56.972
730.64	57.509
730.96	59.701
731.27	60.357
731.59	58.199
731.90	54.908
732.22	57.362
732.53	59.272
732.85	57.718
733.16	57.246
733.48	56.446
733.80	58.363
734.11	61.034
734.43	61.905
734.74	54.599
735.06	62.382
735.37	59.327
735.69	54.516
736.00	55.892
736.32	53.974
736.63	57.586
736.95	58.333
737.26	56.954
737.58	60.432
737.89	63.082
738.21	54.511
738.52	56.538
738.83	56.250
739.15	58.120
739.46	64.113
739.78	55.245
740.09	54.196
740.41	56.294
740.72	54.380
741.04	55.952
741.35	57.576
741.66	57.407
741.98	56.667
742.29	52.582
742.61	60.428
742.92	62.617
743.23	53.070
743.55	54.955
743.86	59.111
744.18	57.619
744.49	59.113
744.80	54.822
745.12	63.402
745.43	60.302
745.74	57.767
746.06	56.585
746.37	54.626
746.68	67.164
747.00	62.827
747.31	57.212
747.62	57.604
747.94	55.895
748.25	60.465
748.56	57.143
748.88	55.978
749.19	59.624
749.50	64.706
749.82	59.111
750.13	63.877
750.44	56.098
750.75	62.000
751.07	60.000
751.38	54.244
751.69	53.435
752.01	56.538
752.32	55.253
752.63	57.308
752.94	55.556
753.26	60.435
753.57	61.161
753.88	57.759
754.19	58.921
754.51	51.953
754.82	56.126
755.13	60.494
755.44	57.851
755.75	57.613
756.07	55.823
756.38	57.031
756.69	54.152
757.00	55.749
757.31	60.067
757.63	61.371
757.94	55.491
758.25	56.105
758.56	59.299
758.87	55.114
759.18	52.000
759.50	56.584
759.81	50.730
760.12	51.014
760.43	63.107
760.74	60.000
761.05	55.337
761.36	57.186
761.67	57.396
761.99	58.065
762.30	58.696
762.61	53.585
762.92	53.363
763.23	55.450
763.54	59.556
763.85	56.118
764.16	55.918
764.47	63.136
764.78	57.678
765.10	59.712
765.41	54.516
765.72	53.459
766.03	53.004
766.34	55.639
766.65	55.061
766.96	57.000
767.27	54.687
767.58	59.884
767.89	56.774
768.20	53.988
768.51	48.634
768.82	57.838
769.13	57.000
769.44	57.018
769.75	55.411
770.06	52.294
770.37	52.113
770.68	57.292
770.99	54.455
771.30	53.883
771.61	50.926
771.92	50.216
772.23	57.944
772.54	48.404
772.85	53.254
773.16	61.585
773.47	60.241
773.78	60.989
774.09	60.667
774.39	53.086
774.70	60.403
775.01	47.826
775.32	54.478
775.63	57.851
775.94	60.902
776.25	50.000
776.56	59.016
776.87	55.752
777.18	65.487
777.48	52.727
777.79	40.000
778.10	48.624
778.41	51.695
778.72	61.157
779.03	53.731
779.34	51.880
779.65	50.327
779.95	53.623
780.26	43.537
780.57	60.345
780.88	54.630
781.19	47.475
781.50	50.400
781.80	52.288
782.11	51.923
782.42	52.410
782.73	51.095
783.04	50.676
783.34	56.061
783.65	41.860
783.96	55.285
784.27	46.154
784.57	52.033
784.88	52.033
785.19	49.123
785.50	41.237
785.81	50.476
786.11	53.922
786.42	46.364
786.73	54.054
787.04	52.475
787.34	45.714
787.65	40.952
787.96	51.961
788.26	43.243
788.57	54.032
788.88	51.563
789.19	48.718
789.49	48.739
789.80	47.009
790.11	49.558
790.41	34.343
790.72	47.170
791.03	48.611
791.33	44.737
791.64	52.688
791.95	49.333
792.25	20.000
792.56	45.122
792.87	47.959
793.17	28.947
793.48	33.784
793.79	39.437
794.09	60.759
794.40	59.574
794.70	57.009
795.01	46.491
795.32	59.091
795.62	39.286
795.93	40.206
796.23	36.264
796.54	55.789
796.85	43.836
797.15	25.000
797.46	52.055
797.76	64.789
798.07	41.250
798.37	44.118
798.68	51.429
798.99	41.429
799.29	47.368
799.60	60.000
799.90	34.722
800.21	40.625
800.51	46.032
800.82	45.902
801.12	33.333
801.43	32.394
801.73	47.458
802.04	50.820
802.34	29.091
802.65	38.462
802.95	42.593
803.26	32.500
803.56	42.308
803.87	7.895
804.17	37.097
804.48	35.385
804.78	35.897
805.09	25.581
805.39	18.750
805.70	20.755
806.00	71.930
806.30	44.595
806.61	47.059
806.91	40.741
807.22	45.333
807.52	44.776
807.83	45.161
808.13	38.095
808.43	21.818
808.74	53.030
809.04	54.717
809.35	47.945
809.65	35.088
809.95	41.176
810.26	39.216
810.56	22.000
810.86	18.367
811.17	51.429
811.47	34.615
811.77	16.129
812.08	-21.053
812.38	47.619
812.69	50.000
812.99	61.290
813.29	16.667
813.59	-11.111
813.90	12.766
814.20	27.907
814.50	62.500
814.81	43.333
815.11	26.829
815.41	30.000
815.72	62.857
816.02	8.333
816.32	33.333
816.62	45.946
816.93	-2.941
817.23	8.696
817.53	20.588
817.84	26.471
818.14	37.500
818.44	3.448
818.74	19.355
819.04	22.222
819.35	-13.333
819.65	48.000
819.95	50.000
820.25	32.000
820.56	-2.632
820.86	20.000
821.16	46.809
821.46	32.759
821.76	0.000
822.07	40.000
822.37	18.605
822.67	16.667
822.97	13.514
823.27	37.838
823.57	64.000
823.88	51.351
824.18	-9.524
824.48	38.462
824.78	-107.692
825.08	4.348
825.38	-4.167
825.69	37.500
825.99	-10.000
826.29	-2.703
826.59	29.412
826.89	44.000
827.19	-2.857
827.49	26.316
827.79	25.000
828.09	16.667
828.39	86.957
828.70	-27.586
829.00	-17.241
829.30	-2.778
829.60	43.750
829.90	16.667
830.20	-26.923
830.50	-9.524
830.80	-39.286
831.10	41.026
831.40	-23.810
831.70	41.176
832.00	4.167
832.30	36.842
832.60	-6.250
832.90	-50.000
833.20	-82.353
833.50	-53.333
833.80	0.000
834.10	35.000
834.40	0.000
834.70	27.778
835.00	23.077
835.30	4.167
835.60	20.690
835.90	-44.444
836.20	-136.364
836.50	-100.000
836.80	17.143
837.10	20.000
837.40	-23.529
837.70	-100.000
838.00	-8.333
838.30	-25.000
838.60	0.000
838.90	10.000
839.19	0.000
839.49	-13.043
839.79	-33.333
840.09	-8.696
840.39	-54.545
840.69	-12.500
840.99	-73.684
841.29	-12.500
841.59	-7.143
841.88	-16.667
842.18	29.167
842.48	-17.647
842.78	-6.897
843.08	21.429
843.38	0.000
843.68	-44.444
843.97	-38.462
844.27	-54.545
844.57	-360.000
844.87	36.000
845.17	-240.000
845.47	-100.000
845.76	-66.667
846.06	0.000
846.36	-450.000
846.66	-160.000
846.96	36.842
847.25	-12.500
847.55	-50.000
847.85	-6.667
848.15	-100.000
848.44	19.231
848.74	-10.526
849.04	566.667
849.34	-155.556
849.63	-84.211
849.93	0.000
850.23	-40.000
850.53	14.286
850.82	-24.000
851.12	-5.263
851.42	-450.000
851.71	-14.286
852.01	-25.000
852.31	-58.824
852.61	33.333
852.90	-23.810
853.20	-333.333
853.50	-33.333
853.79	0.000
854.09	-66.667
854.39	10.714
854.68	8.696
854.98	-108.333
855.28	34.483
855.57	-18.750
855.87	20.000
856.17	-53.333
856.46	-27.586
856.76	-13.333
857.05	-23.529
857.35	-138.462
857.65	0.000
857.94	-11.111
858.24	-14.286
858.53	-100.000
858.83	-66.667
859.13	-122.222
859.42	23.810
859.72	-62.500
860.01	-600.000
860.31	-125.000
860.60	-280.000
860.90	-55.556
861.20	-250.000
861.49	-128.571
861.79	-5.882
862.08	-250.000
862.38	-58.333
862.67	-69.231
862.97	-17.647
863.26	65.000
863.56	-58.824
863.85	266.667
864.15	-190.000
864.44	-15.385
864.74	15.000
865.03	-112.500
865.33	0.000
865.62	-29.412
865.92	-375.000
866.21	-64.286
866.51	-108.333
866.80	-700.000
867.10	-400.000
867.39	-58.824
867.69	-13.043
867.98	-114.286
868.27	-280.000
868.57	-6.250
868.86	-154.545
869.16	-47.059
869.45	-66.667
869.75	-185.714
870.04	400.000
870.33	-8.333
870.63	-320.000
870.92	-133.333
871.22	-91.667
871.51	-136.364
871.80	-33.333
872.10	-10.000
>>>>>End Processed Spectral Data<<<<<
