SpectraSuite Data File
++++++++++++++++++++++++++++++++++++
Date: Sat May 16 11:45:46 PDT 2015
User: schluterlab
Dark Spectrum Present: Yes
Reference Spectrum Present: Yes
Number of Sampled Component Spectra: 1
Spectrometers: USB2E3373
Integration Time (usec): 3000 (USB2E3373)
Spectra Averaged: 3 (USB2E3373)
Boxcar Smoothing: 0 (USB2E3373)
Correct for Electrical Dark: No (USB2E3373)
Strobe/Lamp Enabled: No (USB2E3373)
Correct for Detector Non-linearity: No (USB2E3373)
Correct for Stray Light: No (USB2E3373)
Number of Pixels in Processed Spectrum: 2048
>>>>>Begin Processed Spectral Data<<<<<
178.53	0.000
178.91	113.333
179.29	700.000
179.67	-2300.000
180.04	-92.308
180.42	2400.000
180.80	300.000
181.18	450.000
181.56	-250.000
181.94	2100.000
182.31	600.000
182.69	-69.231
183.07	-733.333
183.45	1100.000
183.83	433.333
184.20	-228.571
184.58	-112.500
184.96	-350.000
185.34	112.500
185.72	-450.000
186.09	200.000
186.47	-150.000
186.85	-112.500
187.23	-112.500
187.61	-275.000
187.98	-162.500
188.36	-212.500
188.74	-175.000
189.12	2000.000
189.49	357.143
189.87	-33.333
190.25	500.000
190.63	-64.286
191.00	-266.667
191.38	520.000
191.76	-26.667
192.14	500.000
192.51	-260.000
192.89	-466.667
193.27	0.000
193.65	-144.444
194.02	-314.286
194.40	633.333
194.78	-150.000
195.15	-1400.000
195.53	-118.182
195.91	-333.333
196.29	220.000
196.66	-633.333
197.04	2500.000
197.42	-250.000
197.79	-33.333
198.17	-300.000
198.55	-400.000
198.92	-1000.000
199.30	337.500
199.68	-700.000
200.05	-11.111
200.43	-188.889
200.81	-1000.000
201.18	-116.667
201.56	257.143
201.94	-73.333
202.31	0.000
202.69	-20.000
203.07	-120.000
203.44	400.000
203.82	-200.000
204.19	-600.000
204.57	-525.000
204.95	-800.000
205.32	-68.750
205.70	1600.000
206.08	-2000.000
206.45	-22.222
206.83	-1200.000
207.20	-50.000
207.58	-700.000
207.96	-333.333
208.33	-37.500
208.71	-66.667
209.08	240.000
209.46	-242.857
209.84	550.000
210.21	0.000
210.59	30.000
210.96	1500.000
211.34	-250.000
211.71	-266.667
212.09	400.000
212.46	1150.000
212.84	-1000.000
213.22	500.000
213.59	158.333
213.97	100.000
214.34	240.000
214.72	-70.000
215.09	-466.667
215.47	-266.667
215.84	-130.000
216.22	-30.000
216.59	80.000
216.97	-500.000
217.34	950.000
217.72	-157.143
218.09	-316.667
218.47	-314.286
218.84	185.714
219.22	-200.000
219.59	0.000
219.97	371.429
220.34	600.000
220.72	200.000
221.09	-46.154
221.47	0.000
221.84	333.333
222.22	-400.000
222.59	1900.000
222.97	-175.000
223.34	-750.000
223.72	-166.667
224.09	-85.714
224.46	-200.000
224.84	-21.429
225.21	-171.429
225.59	-154.545
225.96	-200.000
226.34	-185.714
226.71	-144.444
227.08	-25.000
227.46	2300.000
227.83	-214.286
228.21	-225.000
228.58	450.000
228.95	0.000
229.33	-1100.000
229.70	-460.000
230.08	-1600.000
230.45	16.667
230.82	-116.667
231.20	-1000.000
231.57	-400.000
231.95	900.000
232.32	9.524
232.69	-211.111
233.07	-300.000
233.44	-800.000
233.81	-66.667
234.19	-66.667
234.56	-50.000
234.93	-15.625
235.31	-142.857
235.68	-64.286
236.05	-35.294
236.43	-50.000
236.80	38.710
237.17	20.833
237.55	-42.857
237.92	-59.091
238.29	-2.857
238.67	2.941
239.04	36.111
239.41	19.355
239.79	-15.385
240.16	-23.810
240.53	12.727
240.91	33.333
241.28	29.091
241.65	40.000
242.02	3.279
242.40	19.672
242.77	36.364
243.14	18.644
243.51	8.571
243.89	22.785
244.26	17.978
244.63	35.789
245.00	15.789
245.38	22.881
245.75	25.664
246.12	22.400
246.49	29.134
246.87	27.642
247.24	31.356
247.61	32.203
247.98	26.761
248.36	27.972
248.73	31.646
249.10	30.573
249.47	31.579
249.84	32.386
250.22	19.643
250.59	38.418
250.96	30.366
251.33	31.754
251.70	31.250
252.08	32.227
252.45	30.806
252.82	32.857
253.19	36.596
253.56	36.290
253.94	30.380
254.31	33.906
254.68	36.585
255.05	31.048
255.42	32.937
255.79	36.559
256.16	37.255
256.54	34.926
256.91	35.985
257.28	30.403
257.65	31.206
258.02	35.535
258.39	33.445
258.76	31.419
259.14	31.173
259.51	34.426
259.88	31.707
260.25	34.161
260.62	35.370
260.99	31.751
261.36	37.805
261.73	37.861
262.10	33.889
262.47	32.194
262.85	37.714
263.22	34.670
263.59	36.923
263.96	36.232
264.33	33.604
264.70	33.425
265.07	36.264
265.44	33.850
265.81	35.917
266.18	31.899
266.55	33.088
266.92	36.776
267.29	35.351
267.66	36.296
268.03	36.957
268.40	35.446
268.77	35.422
269.14	37.123
269.51	34.483
269.88	30.963
270.25	34.033
270.62	34.554
270.99	34.234
271.36	34.266
271.73	34.753
272.10	35.469
272.47	34.667
272.84	37.111
273.21	37.385
273.58	34.286
273.95	33.553
274.32	35.747
274.69	38.074
275.06	35.787
275.43	33.929
275.80	36.049
276.17	36.192
276.54	36.253
276.91	34.362
277.28	35.700
277.65	32.645
278.02	35.491
278.39	34.971
278.76	36.653
279.13	36.957
279.50	35.586
279.87	34.249
280.23	36.437
280.60	36.581
280.97	34.369
281.34	35.783
281.71	35.577
282.08	36.694
282.45	34.216
282.82	37.209
283.19	36.000
283.56	35.165
283.92	34.982
284.29	35.130
284.66	33.273
285.03	33.155
285.40	36.531
285.77	36.667
286.14	33.935
286.51	34.636
286.87	34.483
287.24	33.788
287.61	33.388
287.98	33.449
288.35	30.413
288.72	34.635
289.08	31.695
289.45	32.155
289.82	32.526
290.19	33.662
290.56	31.901
290.93	32.273
291.29	29.822
291.66	31.240
292.03	31.554
292.40	31.476
292.77	30.590
293.13	29.919
293.50	30.312
293.87	30.368
294.24	30.317
294.60	27.879
294.97	29.742
295.34	27.852
295.71	28.869
296.08	25.960
296.44	27.897
296.81	27.778
297.18	26.761
297.55	27.119
297.91	29.149
298.28	27.808
298.65	25.802
299.02	28.743
299.38	26.471
299.75	27.310
300.12	25.513
300.48	27.238
300.85	27.261
301.22	25.744
301.59	27.438
301.95	27.204
302.32	23.729
302.69	25.092
303.05	25.763
303.42	25.750
303.79	25.837
304.15	24.645
304.52	24.737
304.89	24.321
305.25	23.199
305.62	25.147
305.99	27.326
306.35	24.861
306.72	23.462
307.09	25.766
307.45	25.085
307.82	22.905
308.19	24.832
308.55	23.312
308.92	23.308
309.29	23.243
309.65	23.542
310.02	24.514
310.38	22.270
310.75	25.410
311.12	23.140
311.48	23.278
311.85	24.305
312.22	23.687
312.58	24.517
312.95	22.528
313.31	23.377
313.68	24.724
314.05	23.343
314.41	23.139
314.78	23.477
315.14	22.014
315.51	22.999
315.87	23.717
316.24	23.712
316.61	22.457
316.97	24.179
317.34	22.543
317.70	23.098
318.07	22.575
318.43	23.315
318.80	23.662
319.16	22.045
319.53	22.180
319.89	22.201
320.26	22.941
320.62	22.885
320.99	23.085
321.35	21.478
321.72	21.904
322.08	21.761
322.45	22.277
322.81	21.998
323.18	24.688
323.54	22.181
323.91	23.911
324.27	23.384
324.64	22.303
325.00	22.949
325.37	23.982
325.73	23.272
326.10	20.815
326.46	21.804
326.83	21.957
327.19	22.185
327.56	23.339
327.92	22.260
328.29	22.511
328.65	22.000
329.01	21.996
329.38	21.499
329.74	22.894
330.11	21.850
330.47	20.436
330.84	23.465
331.20	22.022
331.56	21.696
331.93	21.492
332.29	21.553
332.66	21.773
333.02	21.719
333.38	21.864
333.75	20.570
334.11	21.333
334.48	21.094
334.84	22.222
335.20	21.809
335.57	21.390
335.93	22.471
336.29	21.612
336.66	21.410
337.02	22.703
337.38	21.123
337.75	21.510
338.11	21.109
338.47	22.153
338.84	21.869
339.20	21.705
339.56	22.727
339.93	19.841
340.29	21.701
340.65	20.717
341.02	20.658
341.38	20.893
341.74	21.084
342.11	21.843
342.47	21.202
342.83	21.662
343.20	21.520
343.56	20.000
343.92	20.785
344.28	21.951
344.65	20.380
345.01	20.672
345.37	22.924
345.73	18.822
346.10	20.360
346.46	20.065
346.82	19.487
347.19	20.378
347.55	20.867
347.91	20.472
348.27	20.207
348.63	20.598
349.00	19.889
349.36	20.765
349.72	21.497
350.08	20.529
350.45	19.937
350.81	21.338
351.17	20.900
351.53	19.570
351.89	21.342
352.26	20.620
352.62	21.659
352.98	20.491
353.34	20.384
353.70	20.849
354.07	21.086
354.43	20.158
354.79	19.572
355.15	19.569
355.51	19.766
355.87	19.289
356.24	20.254
356.60	20.548
356.96	20.631
357.32	19.873
357.68	20.230
358.04	20.554
358.40	19.954
358.77	19.784
359.13	19.893
359.49	19.577
359.85	19.970
360.21	19.559
360.57	20.858
360.93	20.815
361.29	21.226
361.66	18.293
362.02	19.896
362.38	19.369
362.74	19.560
363.10	19.154
363.46	21.296
363.82	20.190
364.18	19.826
364.54	20.801
364.90	18.658
365.26	19.330
365.62	21.169
365.98	20.484
366.35	19.507
366.71	19.450
367.07	19.760
367.43	19.904
367.79	19.244
368.15	19.346
368.51	19.930
368.87	19.437
369.23	19.579
369.59	20.694
369.95	20.860
370.31	19.831
370.67	18.872
371.03	19.971
371.39	18.600
371.75	20.744
372.11	19.512
372.47	19.450
372.83	19.263
373.19	19.500
373.55	19.986
373.91	19.630
374.27	20.123
374.63	20.083
374.99	20.376
375.35	19.852
375.71	20.189
376.07	18.754
376.42	18.411
376.78	19.216
377.14	19.458
377.50	19.600
377.86	19.506
378.22	19.347
378.58	19.395
378.94	19.112
379.30	19.927
379.66	20.036
380.02	19.133
380.38	18.912
380.74	18.933
381.09	20.328
381.45	19.869
381.81	18.814
382.17	19.486
382.53	18.967
382.89	19.438
383.25	19.567
383.61	19.340
383.97	19.902
384.32	19.212
384.68	19.891
385.04	18.780
385.40	18.868
385.76	20.244
386.12	19.363
386.48	19.431
386.83	18.834
387.19	19.785
387.55	19.867
387.91	19.798
388.27	18.335
388.62	19.111
388.98	19.261
389.34	19.767
389.70	19.245
390.06	18.956
390.42	18.718
390.77	20.126
391.13	19.814
391.49	19.588
391.85	19.638
392.20	18.932
392.56	19.120
392.92	20.308
393.28	19.747
393.64	19.423
393.99	19.938
394.35	19.891
394.71	20.012
395.07	19.586
395.42	19.070
395.78	18.919
396.14	19.190
396.50	19.511
396.85	19.432
397.21	19.077
397.57	19.271
397.92	20.199
398.28	19.889
398.64	19.155
399.00	20.506
399.35	19.448
399.71	19.861
400.07	20.119
400.42	19.951
400.78	19.261
401.14	18.922
401.49	18.986
401.85	19.158
402.21	19.845
402.57	19.660
402.92	20.076
403.28	19.730
403.63	19.593
403.99	19.515
404.35	18.841
404.70	19.602
405.06	19.839
405.42	18.696
405.77	17.930
406.13	19.080
406.49	19.593
406.84	19.556
407.20	19.611
407.55	19.443
407.91	18.394
408.27	20.037
408.62	18.821
408.98	18.860
409.34	18.708
409.69	20.038
410.05	19.163
410.40	19.191
410.76	19.087
411.11	19.825
411.47	19.373
411.83	19.682
412.18	18.936
412.54	18.609
412.89	19.745
413.25	18.359
413.60	19.198
413.96	19.717
414.31	20.428
414.67	20.127
415.03	19.664
415.38	19.974
415.74	19.652
416.09	19.693
416.45	18.254
416.80	18.856
417.16	19.136
417.51	19.698
417.87	19.417
418.22	19.406
418.58	19.897
418.93	19.620
419.29	18.632
419.64	18.405
420.00	19.866
420.35	19.692
420.71	18.727
421.06	19.704
421.42	18.501
421.77	19.095
422.12	19.586
422.48	18.920
422.83	19.590
423.19	18.653
423.54	19.769
423.90	19.260
424.25	18.609
424.61	19.481
424.96	20.246
425.31	19.117
425.67	19.484
426.02	18.589
426.38	19.843
426.73	20.105
427.09	19.853
427.44	19.545
427.79	19.767
428.15	20.287
428.50	19.765
428.85	19.065
429.21	19.314
429.56	19.844
429.92	19.238
430.27	19.342
430.62	19.697
430.98	19.446
431.33	19.584
431.68	20.000
432.04	19.754
432.39	20.000
432.74	19.484
433.10	19.471
433.45	19.747
433.80	19.037
434.16	19.613
434.51	19.616
434.86	19.801
435.22	19.488
435.57	19.033
435.92	19.695
436.28	19.763
436.63	18.711
436.98	19.187
437.34	19.728
437.69	19.720
438.04	19.796
438.39	20.217
438.75	19.616
439.10	20.155
439.45	19.433
439.81	18.916
440.16	18.796
440.51	20.118
440.86	19.086
441.22	19.182
441.57	19.474
441.92	19.693
442.27	19.643
442.63	19.796
442.98	18.792
443.33	19.495
443.68	19.072
444.03	19.745
444.39	19.383
444.74	19.548
445.09	19.518
445.44	19.696
445.79	19.429
446.15	20.044
446.50	18.998
446.85	19.138
447.20	19.561
447.55	19.724
447.91	20.045
448.26	19.553
448.61	19.525
448.96	20.224
449.31	19.786
449.66	19.519
450.02	18.892
450.37	19.478
450.72	19.096
451.07	20.176
451.42	19.641
451.77	19.928
452.12	20.381
452.47	20.151
452.83	19.569
453.18	20.114
453.53	19.963
453.88	20.395
454.23	20.012
454.58	20.945
454.93	20.529
455.28	19.758
455.63	19.595
455.98	20.542
456.34	19.250
456.69	21.513
457.04	20.959
457.39	20.156
457.74	20.791
458.09	20.650
458.44	20.381
458.79	19.395
459.14	19.966
459.49	20.308
459.84	19.562
460.19	19.928
460.54	19.419
460.89	19.507
461.24	20.522
461.59	20.340
461.94	21.260
462.29	20.369
462.64	20.619
462.99	20.750
463.34	19.311
463.69	19.911
464.04	19.684
464.39	20.012
464.74	19.563
465.09	18.821
465.44	19.064
465.79	20.361
466.14	20.138
466.49	20.553
466.84	19.868
467.19	20.324
467.54	20.316
467.89	19.729
468.24	20.071
468.59	20.800
468.94	20.514
469.29	20.143
469.64	21.159
469.99	20.527
470.34	19.840
470.68	20.422
471.03	20.647
471.38	20.139
471.73	21.469
472.08	19.478
472.43	20.463
472.78	20.667
473.13	20.345
473.48	21.187
473.83	20.409
474.17	21.274
474.52	21.292
474.87	19.988
475.22	21.357
475.57	19.667
475.92	21.004
476.27	20.114
476.61	20.394
476.96	20.961
477.31	20.721
477.66	20.919
478.01	21.556
478.36	20.639
478.70	21.356
479.05	20.606
479.40	20.466
479.75	20.693
480.10	20.486
480.45	20.406
480.79	20.632
481.14	20.873
481.49	20.426
481.84	19.834
482.19	20.923
482.53	20.502
482.88	20.408
483.23	20.657
483.58	21.508
483.92	21.882
484.27	20.071
484.62	19.957
484.97	20.109
485.31	19.488
485.66	18.822
486.01	19.265
486.36	19.962
486.70	20.070
487.05	20.092
487.40	20.246
487.75	20.382
488.09	20.198
488.44	20.399
488.79	20.799
489.13	20.997
489.48	20.962
489.83	20.699
490.17	21.680
490.52	22.101
490.87	20.647
491.22	20.691
491.56	21.435
491.91	21.613
492.26	21.179
492.60	20.932
492.95	21.276
493.30	21.105
493.64	21.110
493.99	20.889
494.34	21.667
494.68	21.536
495.03	21.128
495.37	21.485
495.72	21.955
496.07	21.586
496.41	21.769
496.76	20.411
497.11	21.102
497.45	22.701
497.80	21.361
498.14	21.758
498.49	22.099
498.84	21.165
499.18	21.881
499.53	21.529
499.87	21.236
500.22	21.765
500.56	21.361
500.91	21.576
501.26	22.368
501.60	21.329
501.95	21.787
502.29	21.304
502.64	22.442
502.98	20.939
503.33	21.617
503.67	21.264
504.02	21.680
504.36	21.471
504.71	21.581
505.06	21.767
505.40	22.505
505.75	21.697
506.09	22.093
506.44	21.805
506.78	21.676
507.13	21.782
507.47	22.118
507.82	22.354
508.16	21.813
508.51	22.514
508.85	21.998
509.19	21.088
509.54	22.093
509.88	22.128
510.23	22.013
510.57	22.328
510.92	23.093
511.26	21.478
511.61	21.220
511.95	21.659
512.30	22.485
512.64	21.647
512.98	23.377
513.33	22.625
513.67	22.334
514.02	22.315
514.36	22.493
514.70	23.713
515.05	23.499
515.39	22.953
515.74	22.804
516.08	23.285
516.42	22.946
516.77	22.184
517.11	22.712
517.46	23.505
517.80	23.285
518.14	22.585
518.49	23.192
518.83	23.086
519.17	22.972
519.52	22.614
519.86	23.596
520.20	22.555
520.55	24.554
520.89	23.544
521.23	24.542
521.58	23.448
521.92	23.749
522.26	23.619
522.61	23.764
522.95	22.974
523.29	23.636
523.64	23.548
523.98	23.043
524.32	23.130
524.66	23.478
525.01	22.800
525.35	23.196
525.69	23.748
526.04	22.781
526.38	23.297
526.72	23.116
527.06	23.047
527.41	22.838
527.75	23.300
528.09	22.899
528.43	23.016
528.78	23.618
529.12	24.008
529.46	22.938
529.80	22.983
530.15	24.018
530.49	23.351
530.83	25.016
531.17	23.838
531.51	22.639
531.86	22.844
532.20	23.279
532.54	24.599
532.88	23.254
533.22	23.663
533.57	23.760
533.91	22.722
534.25	22.816
534.59	22.611
534.93	22.589
535.27	23.411
535.62	23.593
535.96	24.370
536.30	23.168
536.64	23.506
536.98	24.011
537.32	22.737
537.66	23.625
538.01	23.368
538.35	23.716
538.69	23.195
539.03	24.171
539.37	23.287
539.71	23.682
540.05	23.509
540.39	22.784
540.73	23.290
541.07	23.497
541.42	24.240
541.76	22.658
542.10	23.768
542.44	22.452
542.78	24.763
543.12	23.829
543.46	23.082
543.80	22.408
544.14	22.968
544.48	24.081
544.82	23.410
545.16	24.480
545.50	23.217
545.84	22.740
546.18	23.717
546.52	24.395
546.86	24.074
547.20	23.910
547.54	22.452
547.88	22.960
548.22	22.280
548.56	22.779
548.90	23.383
549.24	23.336
549.58	23.077
549.92	24.240
550.26	23.699
550.60	23.969
550.94	24.380
551.28	23.853
551.62	24.372
551.96	23.517
552.30	24.111
552.64	24.279
552.98	23.826
553.32	23.449
553.66	24.802
554.00	24.094
554.34	22.888
554.68	23.392
555.02	24.819
555.36	23.077
555.69	23.138
556.03	23.579
556.37	23.400
556.71	24.123
557.05	24.390
557.39	23.460
557.73	23.559
558.07	23.512
558.41	23.785
558.75	23.270
559.08	23.035
559.42	24.273
559.76	26.227
560.10	24.236
560.44	24.494
560.78	24.913
561.12	23.602
561.45	23.973
561.79	23.972
562.13	23.773
562.47	24.020
562.81	22.984
563.15	23.933
563.48	24.672
563.82	23.800
564.16	23.191
564.50	23.925
564.84	23.611
565.17	23.475
565.51	23.403
565.85	25.085
566.19	23.715
566.52	23.483
566.86	23.072
567.20	24.334
567.54	23.745
567.88	22.725
568.21	23.154
568.55	22.747
568.89	22.217
569.23	22.304
569.56	21.858
569.90	22.148
570.24	22.623
570.57	21.301
570.91	21.863
571.25	21.368
571.59	21.324
571.92	20.893
572.26	20.821
572.60	21.347
572.93	21.276
573.27	20.549
573.61	21.394
573.95	20.915
574.28	20.741
574.62	20.386
574.96	20.189
575.29	20.427
575.63	20.334
575.97	20.334
576.30	20.444
576.64	20.496
576.98	20.453
577.31	20.477
577.65	20.599
577.98	20.262
578.32	20.333
578.66	20.473
578.99	20.611
579.33	20.372
579.67	20.593
580.00	21.032
580.34	20.548
580.67	20.201
581.01	20.064
581.35	20.072
581.68	19.885
582.02	20.654
582.35	19.887
582.69	20.024
583.02	20.668
583.36	21.068
583.70	20.635
584.03	20.366
584.37	20.650
584.70	20.566
585.04	20.253
585.37	19.952
585.71	20.223
586.04	20.643
586.38	20.289
586.72	21.026
587.05	20.844
587.39	19.967
587.72	20.228
588.06	20.715
588.39	20.792
588.73	20.851
589.06	20.876
589.40	21.539
589.73	21.707
590.07	21.122
590.40	20.775
590.73	21.152
591.07	20.902
591.40	22.140
591.74	21.720
592.07	20.856
592.41	21.911
592.74	21.368
593.08	21.318
593.41	20.855
593.75	20.376
594.08	20.956
594.41	21.183
594.75	21.480
595.08	21.617
595.42	21.387
595.75	20.838
596.09	20.605
596.42	21.563
596.75	21.820
597.09	22.484
597.42	21.432
597.75	21.125
598.09	21.148
598.42	20.946
598.76	21.262
599.09	21.152
599.42	20.992
599.76	20.838
600.09	21.527
600.42	21.231
600.76	20.979
601.09	21.306
601.42	20.538
601.76	21.612
602.09	21.636
602.42	20.741
602.76	20.607
603.09	20.968
603.42	21.515
603.76	21.819
604.09	20.585
604.42	21.357
604.76	21.500
605.09	22.197
605.42	21.676
605.75	21.518
606.09	21.669
606.42	20.695
606.75	21.211
607.09	21.482
607.42	21.391
607.75	21.236
608.08	22.323
608.42	22.327
608.75	21.308
609.08	21.042
609.41	21.923
609.75	20.965
610.08	21.912
610.41	22.072
610.74	21.857
611.07	21.552
611.41	22.289
611.74	22.005
612.07	22.449
612.40	22.441
612.73	21.863
613.07	22.179
613.40	22.879
613.73	22.289
614.06	21.472
614.39	21.702
614.72	21.564
615.06	21.304
615.39	22.301
615.72	21.945
616.05	21.204
616.38	22.171
616.71	22.162
617.05	22.437
617.38	21.920
617.71	21.744
618.04	21.988
618.37	22.767
618.70	24.055
619.03	23.155
619.36	23.326
619.69	24.408
620.03	22.107
620.36	22.996
620.69	22.757
621.02	24.505
621.35	23.065
621.68	23.361
622.01	23.786
622.34	24.301
622.67	23.125
623.00	23.565
623.33	23.507
623.66	22.083
623.99	22.707
624.32	22.247
624.65	22.737
624.99	22.479
625.32	23.578
625.65	23.388
625.98	23.239
626.31	24.959
626.64	24.184
626.97	24.401
627.30	23.319
627.63	23.316
627.96	24.543
628.29	23.437
628.62	23.591
628.95	25.098
629.28	23.496
629.61	24.436
629.94	24.953
630.26	24.254
630.59	25.025
630.92	23.223
631.25	25.101
631.58	25.079
631.91	23.936
632.24	25.889
632.57	25.222
632.90	24.483
633.23	23.949
633.56	24.327
633.89	27.241
634.22	26.092
634.55	26.683
634.88	25.756
635.20	25.718
635.53	26.336
635.86	24.811
636.19	25.763
636.52	24.373
636.85	23.345
637.18	23.250
637.51	27.014
637.83	24.501
638.16	24.868
638.49	25.103
638.82	26.641
639.15	27.237
639.48	25.551
639.81	28.631
640.13	25.946
640.46	27.066
640.79	26.050
641.12	26.657
641.45	24.964
641.77	26.347
642.10	25.982
642.43	25.948
642.76	26.142
643.09	26.032
643.41	26.032
643.74	27.663
644.07	25.897
644.40	26.418
644.73	28.218
645.05	25.376
645.38	25.662
645.71	27.148
646.04	26.387
646.36	27.225
646.69	26.471
647.02	28.700
647.35	24.729
647.67	26.460
648.00	27.768
648.33	28.499
648.66	23.710
648.98	25.159
649.31	24.308
649.64	25.469
649.96	22.606
650.29	23.443
650.62	24.785
650.94	26.476
651.27	27.730
651.60	26.125
651.92	27.055
652.25	25.042
652.58	25.043
652.90	24.398
653.23	24.839
653.56	24.080
653.88	26.393
654.21	26.007
654.54	26.246
654.86	24.398
655.19	24.642
655.52	21.013
655.84	19.676
656.17	21.325
656.49	28.938
656.82	29.969
657.15	22.410
657.47	16.617
657.80	12.784
658.13	14.792
658.45	20.087
658.78	19.614
659.10	19.303
659.43	19.443
659.75	19.906
660.08	20.312
660.41	20.015
660.73	21.892
661.06	24.638
661.38	26.071
661.71	23.327
662.03	29.032
662.36	28.998
662.68	25.738
663.01	26.964
663.33	28.571
663.66	28.970
663.98	23.661
664.31	25.727
664.63	27.655
664.96	26.030
665.28	26.898
665.61	24.736
665.93	28.807
666.26	27.328
666.58	26.819
666.91	26.503
667.23	27.851
667.56	25.850
667.88	31.222
668.21	25.115
668.53	26.869
668.86	28.868
669.18	25.571
669.50	24.533
669.83	26.277
670.15	26.682
670.48	26.168
670.80	24.146
671.13	24.831
671.45	26.126
671.77	21.842
672.10	23.866
672.42	25.461
672.75	25.091
673.07	23.604
673.39	24.408
673.72	24.409
674.04	24.628
674.37	24.948
674.69	27.664
675.01	26.383
675.34	23.427
675.66	26.350
675.98	25.110
676.31	27.602
676.63	25.977
676.95	25.221
677.28	25.058
677.60	28.733
677.92	28.194
678.25	26.696
678.57	27.778
678.89	22.432
679.22	25.367
679.54	27.613
679.86	24.200
680.18	25.285
680.51	24.209
680.83	24.571
681.15	24.855
681.48	25.761
681.80	25.605
682.12	23.340
682.44	24.558
682.77	20.996
683.09	27.673
683.41	23.673
683.73	26.027
684.06	24.301
684.38	28.243
684.70	25.309
685.02	23.819
685.34	22.417
685.67	22.917
685.99	22.495
686.31	23.339
686.63	23.759
686.96	23.290
687.28	21.195
687.60	24.219
687.92	23.346
688.24	24.606
688.56	23.046
688.89	23.077
689.21	25.602
689.53	24.598
689.85	26.281
690.17	22.422
690.49	24.480
690.82	23.373
691.14	21.934
691.46	22.838
691.78	25.330
692.10	24.153
692.42	23.333
692.74	24.249
693.06	27.865
693.39	23.490
693.71	21.445
694.03	28.078
694.35	23.251
694.67	23.641
694.99	23.529
695.31	22.704
695.63	21.429
695.95	24.566
696.27	26.185
696.59	27.540
696.91	26.685
697.23	23.958
697.56	22.115
697.88	24.324
698.20	22.698
698.52	20.404
698.84	25.000
699.16	23.095
699.48	23.000
699.80	23.810
700.12	25.693
700.44	23.464
700.76	21.866
701.08	26.163
701.40	25.982
701.72	28.704
702.04	27.244
702.36	25.904
702.68	20.659
703.00	22.899
703.32	17.765
703.64	26.765
703.96	24.709
704.28	24.852
704.60	22.152
704.91	22.222
705.23	25.566
705.55	22.973
705.87	27.986
706.19	22.917
706.51	22.917
706.83	27.213
707.15	26.752
707.47	25.620
707.79	21.392
708.11	20.865
708.43	22.943
708.74	19.740
709.06	22.284
709.38	19.540
709.70	24.062
710.02	24.540
710.34	23.102
710.66	22.222
710.98	22.397
711.29	19.677
711.61	21.725
711.93	20.656
712.25	24.917
712.57	23.693
712.89	28.417
713.20	20.962
713.52	20.896
713.84	21.708
714.16	21.967
714.48	21.905
714.80	20.000
715.11	22.190
715.43	23.795
715.75	20.249
716.07	21.967
716.39	22.742
716.70	23.345
717.02	27.037
717.34	20.611
717.66	23.651
717.97	21.311
718.29	21.849
718.61	25.794
718.93	22.581
719.24	20.956
719.56	20.755
719.88	19.273
720.20	26.966
720.51	21.805
720.83	23.293
721.15	22.131
721.46	23.137
721.78	24.521
722.10	26.400
722.42	21.488
722.73	23.904
723.05	24.498
723.37	26.275
723.68	22.672
724.00	22.764
724.32	22.222
724.63	22.407
724.95	25.207
725.27	18.860
725.58	24.569
725.90	25.397
726.22	23.247
726.53	22.053
726.85	18.039
727.16	16.165
727.48	21.923
727.80	21.721
728.11	18.908
728.43	23.140
728.74	20.313
729.06	20.455
729.38	21.401
729.69	17.323
730.01	24.409
730.32	15.936
730.64	21.245
730.96	23.507
731.27	17.500
731.59	21.865
731.90	21.779
732.22	17.791
732.53	22.848
732.85	20.134
733.16	22.464
733.48	21.254
733.80	17.794
734.11	23.103
734.43	23.129
734.74	21.365
735.06	21.003
735.37	19.572
735.69	17.419
736.00	16.835
736.32	24.834
736.63	13.448
736.95	13.768
737.26	19.868
737.58	18.705
737.89	23.656
738.21	17.669
738.52	21.154
738.83	18.750
739.15	17.949
739.46	20.161
739.78	18.881
740.09	15.385
740.41	20.280
740.72	22.628
741.04	15.873
741.35	16.017
741.66	23.148
741.98	19.524
742.29	19.718
742.61	17.647
742.92	29.439
743.23	21.491
743.55	21.622
743.86	25.778
744.18	14.762
744.49	24.138
744.80	26.396
745.12	25.773
745.43	25.628
745.74	20.874
746.06	18.537
746.37	21.586
746.68	25.871
747.00	28.272
747.31	18.269
747.62	19.816
747.94	17.031
748.25	21.395
748.56	20.000
748.88	19.022
749.19	20.188
749.50	25.490
749.82	23.111
750.13	23.789
750.44	20.325
750.75	20.800
751.07	25.357
751.38	20.295
751.69	17.939
752.01	17.308
752.32	22.179
752.63	18.846
752.94	19.841
753.26	15.217
753.57	23.214
753.88	23.707
754.19	17.012
754.51	23.828
754.82	15.020
755.13	16.461
755.44	20.248
755.75	16.049
756.07	16.867
756.38	19.531
756.69	22.744
757.00	21.951
757.31	17.785
757.63	20.561
757.94	19.942
758.25	18.605
758.56	23.181
758.87	17.614
759.18	21.333
759.50	21.352
759.81	16.423
760.12	15.541
760.43	22.006
760.74	20.000
761.05	18.539
761.36	17.365
761.67	20.414
761.99	19.677
762.30	21.014
762.61	16.604
762.92	19.731
763.23	16.114
763.54	15.556
763.85	22.363
764.16	13.469
764.47	21.610
764.78	17.603
765.10	23.741
765.41	19.032
765.72	20.440
766.03	13.074
766.34	20.301
766.65	24.291
766.96	13.000
767.27	16.667
767.58	19.186
767.89	15.484
768.20	22.699
768.51	22.951
768.82	15.135
769.13	17.000
769.44	18.860
769.75	19.048
770.06	16.972
770.37	13.615
770.68	21.354
770.99	18.317
771.30	14.563
771.61	12.500
771.92	14.286
772.23	18.224
772.54	16.489
772.85	17.160
773.16	14.024
773.47	21.687
773.78	21.429
774.09	18.000
774.39	19.136
774.70	22.148
775.01	18.116
775.32	12.687
775.63	9.917
775.94	15.789
776.25	17.857
776.56	22.131
776.87	23.009
777.18	17.699
777.48	10.000
777.79	9.565
778.10	9.174
778.41	19.492
778.72	19.835
779.03	14.925
779.34	16.541
779.65	15.686
779.95	17.391
780.26	13.605
780.57	6.897
780.88	15.741
781.19	3.030
781.50	11.200
781.80	13.725
782.11	16.667
782.42	18.675
782.73	13.869
783.04	14.189
783.34	32.576
783.65	16.279
783.96	27.642
784.27	14.530
784.57	7.317
784.88	8.943
785.19	21.930
785.50	9.278
785.81	13.333
786.11	1.961
786.42	13.636
786.73	9.910
787.04	22.772
787.34	9.524
787.65	0.952
787.96	16.667
788.26	11.712
788.57	19.355
788.88	18.750
789.19	11.966
789.49	2.521
789.80	12.821
790.11	22.124
790.41	8.081
790.72	22.642
791.03	4.167
791.33	1.316
791.64	11.828
791.95	16.000
792.25	-8.571
792.56	10.976
792.87	17.347
793.17	2.632
793.48	10.811
793.79	1.408
794.09	17.722
794.40	23.404
794.70	9.346
795.01	6.140
795.32	-1.818
795.62	8.929
795.93	4.124
796.23	1.099
796.54	16.842
796.85	-12.329
797.15	6.944
797.46	1.370
797.76	22.535
798.07	13.750
798.37	4.412
798.68	8.571
798.99	7.143
799.29	23.684
799.60	-1.667
799.90	5.556
800.21	-7.813
800.51	23.810
800.82	-6.557
801.12	14.035
801.43	1.408
801.73	5.085
802.04	14.754
802.34	1.818
802.65	3.846
802.95	5.556
803.26	-15.000
803.56	9.615
803.87	-13.158
804.17	22.581
804.48	-1.538
804.78	17.949
805.09	9.302
805.39	-25.000
805.70	-26.415
806.00	17.544
806.30	18.919
806.61	2.941
806.91	8.642
807.22	13.333
807.52	22.388
807.83	8.065
808.13	1.587
808.43	0.000
808.74	3.030
809.04	9.434
809.35	20.548
809.65	12.281
809.95	10.294
810.26	-5.882
810.56	12.000
810.86	4.082
811.17	-25.714
811.47	7.692
811.77	-25.806
812.08	-23.684
812.38	30.952
812.69	-15.217
812.99	-12.903
813.29	-28.571
813.59	-33.333
813.90	-25.532
814.20	-11.628
814.50	-25.000
814.81	0.000
815.11	-12.195
815.41	-16.667
815.72	8.571
816.02	2.778
816.32	-23.077
816.62	-8.108
816.93	-41.176
817.23	0.000
817.53	-20.588
817.84	20.588
818.14	-21.875
818.44	-37.931
818.74	-58.065
819.04	-44.444
819.35	-13.333
819.65	-24.000
819.95	-13.333
820.25	-52.000
820.56	-52.632
820.86	7.500
821.16	17.021
821.46	1.724
821.76	-38.462
822.07	-2.500
822.37	-9.302
822.67	-26.667
822.97	-21.622
823.27	0.000
823.57	8.000
823.88	-10.811
824.18	-80.952
824.48	-11.538
824.78	-138.462
825.08	-73.913
825.38	-58.333
825.69	-37.500
825.99	-75.000
826.29	-18.919
826.59	-32.353
826.89	-12.000
827.19	-2.857
827.49	-13.158
827.79	-28.125
828.09	-16.667
828.39	30.435
828.70	-58.621
829.00	-13.793
829.30	19.444
829.60	6.250
829.90	-16.667
830.20	-76.923
830.50	-28.571
830.80	-21.429
831.10	-35.897
831.40	-23.810
831.70	2.941
832.00	29.167
832.30	-78.947
832.60	0.000
832.90	-100.000
833.20	-82.353
833.50	-106.667
833.80	-93.333
834.10	-70.000
834.40	-29.167
834.70	-50.000
835.00	23.077
835.30	-12.500
835.60	-17.241
835.90	-27.778
836.20	-154.545
836.50	-191.667
836.80	-8.571
837.10	28.571
837.40	-47.059
837.70	-154.545
838.00	12.500
838.30	-75.000
838.60	-14.286
838.90	-45.000
839.19	-39.130
839.49	-17.391
839.79	-83.333
840.09	-60.870
840.39	-27.273
840.69	-87.500
840.99	-42.105
841.29	-43.750
841.59	-50.000
841.88	-38.889
842.18	-20.833
842.48	-64.706
842.78	-6.897
843.08	-7.143
843.38	-38.462
843.68	-166.667
843.97	-100.000
844.27	-45.455
844.57	-200.000
844.87	-4.000
845.17	-380.000
845.47	-21.429
845.76	-88.889
846.06	0.000
846.36	-425.000
846.66	-180.000
846.96	-21.053
847.25	-54.167
847.55	-83.333
847.85	-33.333
848.15	-70.000
848.44	30.769
848.74	-21.053
849.04	733.333
849.34	55.556
849.63	-78.947
849.93	0.000
850.23	-50.000
850.53	-47.619
850.82	-16.000
851.12	-36.842
851.42	-300.000
851.71	-42.857
852.01	-83.333
852.31	-64.706
852.61	-46.667
852.90	-28.571
853.20	-100.000
853.50	-105.556
853.79	-26.316
854.09	-73.333
854.39	-17.857
854.68	-47.826
854.98	-200.000
855.28	6.897
855.57	-56.250
855.87	-15.000
856.17	-93.333
856.46	0.000
856.76	-53.333
857.05	-70.588
857.35	-161.538
857.65	-27.273
857.94	-22.222
858.24	-42.857
858.53	-71.429
858.83	-100.000
859.13	-188.889
859.42	23.810
859.72	-150.000
860.01	-566.667
860.31	-37.500
860.60	-640.000
860.90	-255.556
861.20	-137.500
861.49	-271.429
861.79	-11.765
862.08	-450.000
862.38	-100.000
862.67	-100.000
862.97	-17.647
863.26	-45.000
863.56	-29.412
863.85	433.333
864.15	-70.000
864.44	-46.154
864.74	-5.000
865.03	-312.500
865.33	-233.333
865.62	-105.882
865.92	-775.000
866.21	-135.714
866.51	-75.000
866.80	-600.000
867.10	-266.667
867.39	-64.706
867.69	-17.391
867.98	-257.143
868.27	-500.000
868.57	-81.250
868.86	-109.091
869.16	-17.647
869.45	-216.667
869.75	-228.571
870.04	1500.000
870.33	-66.667
870.63	-100.000
870.92	-88.889
871.22	-116.667
871.51	-36.364
871.80	-91.667
872.10	10.000
>>>>>End Processed Spectral Data<<<<<
