SpectraSuite Data File
++++++++++++++++++++++++++++++++++++
Date: Sat May 16 11:36:19 PDT 2015
User: schluterlab
Dark Spectrum Present: Yes
Reference Spectrum Present: Yes
Number of Sampled Component Spectra: 1
Spectrometers: USB2E3373
Integration Time (usec): 3000 (USB2E3373)
Spectra Averaged: 3 (USB2E3373)
Boxcar Smoothing: 0 (USB2E3373)
Correct for Electrical Dark: No (USB2E3373)
Strobe/Lamp Enabled: No (USB2E3373)
Correct for Detector Non-linearity: No (USB2E3373)
Correct for Stray Light: No (USB2E3373)
Number of Pixels in Processed Spectrum: 2048
>>>>>Begin Processed Spectral Data<<<<<
178.53	0.000
178.91	133.333
179.29	633.333
179.67	-1700.000
180.04	-161.538
180.42	700.000
180.80	225.000
181.18	475.000
181.56	-125.000
181.94	1400.000
182.31	550.000
182.69	-115.385
183.07	-566.667
183.45	1850.000
183.83	366.667
184.20	-242.857
184.58	-237.500
184.96	-475.000
185.34	193.750
185.72	-500.000
186.09	250.000
186.47	-162.500
186.85	-237.500
187.23	-50.000
187.61	-100.000
187.98	-325.000
188.36	-200.000
188.74	-125.000
189.12	1800.000
189.49	371.429
189.87	-83.333
190.25	475.000
190.63	-114.286
191.00	-144.444
191.38	540.000
191.76	-93.333
192.14	640.000
192.51	-440.000
192.89	-633.333
193.27	0.000
193.65	-211.111
194.02	-214.286
194.40	733.333
194.78	-180.000
195.15	-1200.000
195.53	-145.455
195.91	-250.000
196.29	280.000
196.66	-566.667
197.04	2000.000
197.42	-275.000
197.79	-13.333
198.17	-433.333
198.55	-950.000
198.92	-2400.000
199.30	362.500
199.68	-1000.000
200.05	-100.000
200.43	-122.222
200.81	-1900.000
201.18	-125.000
201.56	257.143
201.94	-26.667
202.31	-9.091
202.69	-10.000
203.07	-60.000
203.44	600.000
203.82	-333.333
204.19	-325.000
204.57	-225.000
204.95	-1700.000
205.32	-62.500
205.70	1400.000
206.08	-1300.000
206.45	-61.111
206.83	-1100.000
207.20	-600.000
207.58	-466.667
207.96	-566.667
208.33	-75.000
208.71	-244.444
209.08	160.000
209.46	-342.857
209.84	700.000
210.21	0.000
210.59	40.000
210.96	700.000
211.34	-333.333
211.71	-166.667
212.09	350.000
212.46	1400.000
212.84	-2500.000
213.22	766.667
213.59	183.333
213.97	0.000
214.34	90.000
214.72	-160.000
215.09	-433.333
215.47	-250.000
215.84	-80.000
216.22	-40.000
216.59	-13.333
216.97	-600.000
217.34	1050.000
217.72	-357.143
218.09	-400.000
218.47	-300.000
218.84	128.571
219.22	-257.143
219.59	0.000
219.97	385.714
220.34	375.000
220.72	250.000
221.09	-84.615
221.47	0.000
221.84	233.333
222.22	-900.000
222.59	2000.000
222.97	-175.000
223.34	-750.000
223.72	-733.333
224.09	-71.429
224.46	-525.000
224.84	35.714
225.21	-357.143
225.59	-100.000
225.96	-262.500
226.34	-242.857
226.71	-177.778
227.08	5.000
227.46	2400.000
227.83	-85.714
228.21	-225.000
228.58	600.000
228.95	-56.250
229.33	-1200.000
229.70	-280.000
230.08	-1150.000
230.45	-75.000
230.82	-183.333
231.20	-1100.000
231.57	-850.000
231.95	200.000
232.32	-19.048
232.69	-144.444
233.07	-271.429
233.44	-1050.000
233.81	-126.667
234.19	-233.333
234.56	-93.750
234.93	-9.375
235.31	-214.286
235.68	-121.429
236.05	-70.588
236.43	-59.091
236.80	-54.839
237.17	-66.667
237.55	-76.190
237.92	-72.727
238.29	-57.143
238.67	-20.588
239.04	-16.667
239.41	-41.935
239.79	-48.718
240.16	-50.000
240.53	-21.818
240.91	-17.949
241.28	-14.545
241.65	3.077
242.02	-18.033
242.40	-26.230
242.77	-19.697
243.14	-18.644
243.51	-15.714
243.89	-12.658
244.26	-10.112
244.63	-5.263
245.00	-9.474
245.38	-3.390
245.75	-2.655
246.12	-2.400
246.49	-0.787
246.87	-11.382
247.24	-10.169
247.61	-5.085
247.98	-7.746
248.36	-7.692
248.73	1.899
249.10	-12.102
249.47	-1.754
249.84	7.955
250.22	-14.286
250.59	-3.955
250.96	4.188
251.33	2.844
251.70	-4.327
252.08	0.948
252.45	0.474
252.82	3.333
253.19	-0.426
253.56	0.403
253.94	-1.688
254.31	-1.288
254.68	3.252
255.05	-3.629
255.42	0.794
255.79	-2.509
256.16	-3.137
256.54	1.103
256.91	1.136
257.28	-1.832
257.65	0.709
258.02	7.862
258.39	0.334
258.76	-1.014
259.14	1.543
259.51	4.262
259.88	3.659
260.25	7.453
260.62	5.788
260.99	0.297
261.36	3.659
261.73	4.046
262.10	3.611
262.47	0.855
262.85	7.429
263.22	4.298
263.59	-1.231
263.96	1.739
264.33	5.420
264.70	3.315
265.07	3.297
265.44	1.550
265.81	3.618
266.18	3.291
266.55	3.186
266.92	5.290
267.29	2.421
267.66	2.716
268.03	4.106
268.40	2.582
268.77	2.651
269.14	4.408
269.51	4.138
269.88	2.294
270.25	2.331
270.62	1.602
270.99	4.279
271.36	2.564
271.73	4.036
272.10	3.890
272.47	2.667
272.84	3.778
273.21	2.523
273.58	2.857
273.95	1.974
274.32	2.941
274.69	5.252
275.06	7.362
275.43	2.232
275.80	6.314
276.17	4.603
276.54	5.703
276.91	3.498
277.28	3.854
277.65	2.273
278.02	5.219
278.39	4.715
278.76	4.382
279.13	3.557
279.50	3.579
279.87	2.326
280.23	5.061
280.60	4.175
280.97	3.689
281.34	2.515
281.71	5.192
282.08	3.226
282.45	0.000
282.82	4.070
283.19	3.273
283.56	6.410
283.92	1.767
284.29	3.903
284.66	4.137
285.03	3.387
285.40	5.535
285.77	5.263
286.14	5.776
286.51	3.730
286.87	2.359
287.24	4.778
287.61	6.116
287.98	2.426
288.35	3.306
288.72	1.358
289.08	2.034
289.45	5.219
289.82	3.114
290.19	6.240
290.56	3.140
290.93	2.067
291.29	2.755
291.66	3.221
292.03	4.239
292.40	4.217
292.77	4.193
293.13	5.854
293.50	4.458
293.87	3.681
294.24	6.335
294.60	2.121
294.97	5.311
295.34	2.815
295.71	3.125
296.08	2.611
296.44	3.720
296.81	5.271
297.18	3.239
297.55	4.661
297.91	3.068
298.28	2.740
298.65	3.626
299.02	6.150
299.38	4.545
299.75	2.582
300.12	3.077
300.48	3.836
300.85	3.014
301.22	5.045
301.59	3.511
301.95	5.919
302.32	3.520
302.69	4.896
303.05	3.419
303.42	3.250
303.79	4.306
304.15	3.318
304.52	4.201
304.89	4.486
305.25	2.564
305.62	4.230
305.99	6.125
306.35	5.327
306.72	3.075
307.09	4.654
307.45	4.086
307.82	2.682
308.19	2.796
308.55	4.139
308.92	4.296
309.29	4.216
309.65	4.772
310.02	4.536
310.38	3.676
310.75	5.225
311.12	5.682
311.48	3.549
311.85	5.149
312.22	5.046
312.58	5.392
312.95	3.874
313.31	5.195
313.68	5.025
314.05	5.737
314.41	3.622
314.78	3.796
315.14	5.035
315.51	3.951
315.87	5.421
316.24	4.568
316.61	6.334
316.97	4.179
317.34	5.684
317.70	5.473
318.07	5.690
318.43	4.682
318.80	5.258
319.16	3.940
319.53	5.639
319.89	4.610
320.26	5.490
320.62	3.750
320.99	5.771
321.35	4.236
321.72	3.378
322.08	5.836
322.45	4.851
322.81	5.476
323.18	5.668
323.54	5.915
323.91	6.302
324.27	5.133
324.64	5.667
325.00	5.410
325.37	5.792
325.73	6.649
326.10	5.049
326.46	5.517
326.83	5.872
327.19	5.671
327.56	7.496
327.92	5.862
328.29	5.974
328.65	5.000
329.01	5.830
329.38	5.620
329.74	7.143
330.11	5.530
330.47	6.176
330.84	6.783
331.20	5.144
331.56	4.831
331.93	6.217
332.29	7.215
332.66	6.848
333.02	5.249
333.38	6.631
333.75	6.500
334.11	6.044
334.48	4.590
334.84	6.824
335.20	7.004
335.57	5.957
335.93	6.804
336.29	6.377
336.66	6.344
337.02	6.126
337.38	6.417
337.75	6.760
338.11	6.082
338.47	5.605
338.84	6.352
339.20	6.415
339.56	7.041
339.93	5.115
340.29	6.732
340.65	7.692
341.02	7.589
341.38	5.981
341.74	7.536
342.11	5.973
342.47	5.923
342.83	6.717
343.20	6.405
343.56	5.796
343.92	7.012
344.28	7.401
344.65	5.858
345.01	5.882
345.37	6.894
345.73	6.056
346.10	5.969
346.46	6.661
346.82	6.255
347.19	5.423
347.55	6.501
347.91	6.299
348.27	5.251
348.63	6.462
349.00	7.160
349.36	4.996
349.72	7.166
350.08	5.854
350.45	6.147
350.81	7.245
351.17	6.190
351.53	5.012
351.89	6.548
352.26	6.977
352.62	7.604
352.98	5.459
353.34	6.315
353.70	6.795
354.07	5.822
354.43	6.245
354.79	6.022
355.15	5.431
355.51	5.547
355.87	5.929
356.24	7.387
356.60	6.044
356.96	7.544
357.32	6.017
357.68	6.054
358.04	6.851
358.40	6.265
358.77	5.641
359.13	7.116
359.49	8.088
359.85	6.174
360.21	7.002
360.57	7.455
360.93	7.407
361.29	6.203
361.66	4.497
362.02	6.435
362.38	7.263
362.74	6.813
363.10	6.241
363.46	7.835
363.82	6.924
364.18	7.381
364.54	7.648
364.90	5.870
365.26	6.277
365.62	7.484
365.98	7.824
366.35	6.056
366.71	5.920
367.07	6.351
367.43	7.962
367.79	7.285
368.15	6.117
368.51	7.762
368.87	7.349
369.23	7.018
369.59	8.125
369.95	6.483
370.31	7.243
370.67	6.363
371.03	7.216
371.39	6.365
371.75	6.223
372.11	7.245
372.47	6.797
372.83	7.650
373.19	6.357
373.55	7.811
373.91	6.686
374.27	7.255
374.63	6.832
374.99	8.206
375.35	6.797
375.71	7.968
376.07	6.639
376.42	6.755
376.78	8.235
377.14	7.322
377.50	7.995
377.86	7.607
378.22	7.538
378.58	7.350
378.94	7.522
379.30	7.678
379.66	8.257
380.02	8.378
380.38	7.795
380.74	7.913
381.09	8.143
381.45	8.234
381.81	8.046
382.17	7.456
382.53	7.599
382.89	7.835
383.25	8.489
383.61	8.255
383.97	8.879
384.32	7.635
384.68	7.981
385.04	8.454
385.40	7.851
385.76	8.902
386.12	8.245
386.48	8.478
386.83	8.282
387.19	8.488
387.55	8.359
387.91	8.002
388.27	7.780
388.62	8.774
388.98	8.359
389.34	8.446
389.70	9.257
390.06	7.831
390.42	8.269
390.77	8.644
391.13	9.441
391.49	8.734
391.85	8.666
392.20	9.223
392.56	7.758
392.92	8.329
393.28	9.587
393.64	8.298
393.99	9.600
394.35	8.820
394.71	9.265
395.07	8.161
395.42	7.807
395.78	8.045
396.14	9.097
396.50	9.541
396.85	8.513
397.21	8.566
397.57	8.936
397.92	9.309
398.28	9.500
398.64	9.221
399.00	9.101
399.35	8.343
399.71	8.827
400.07	8.657
400.42	8.698
400.78	8.527
401.14	8.802
401.49	8.903
401.85	9.152
402.21	8.641
402.57	9.405
402.92	8.936
403.28	9.252
403.63	8.987
403.99	9.758
404.35	8.333
404.70	9.538
405.06	8.593
405.42	8.979
405.77	8.767
406.13	8.915
406.49	8.928
406.84	8.218
407.20	9.305
407.55	9.500
407.91	8.420
408.27	9.498
408.62	9.260
408.98	9.218
409.34	9.141
409.69	9.389
410.05	9.218
410.40	7.971
410.76	9.366
411.11	8.603
411.47	8.440
411.83	9.352
412.18	9.653
412.54	9.213
412.89	9.356
413.25	8.442
413.60	8.809
413.96	8.133
414.31	9.052
414.67	8.889
415.03	9.702
415.38	8.979
415.74	8.698
416.09	9.527
416.45	8.995
416.80	9.493
417.16	8.837
417.51	10.046
417.87	8.803
418.22	9.924
418.58	8.986
418.93	8.768
419.29	9.661
419.64	9.045
420.00	10.146
420.35	9.403
420.71	9.124
421.06	9.941
421.42	8.665
421.77	9.213
422.12	9.849
422.48	9.460
422.83	10.080
423.19	9.521
423.54	9.856
423.90	9.138
424.25	9.219
424.61	10.133
424.96	9.713
425.31	9.391
425.67	10.086
426.02	9.581
426.38	9.921
426.73	9.994
427.09	10.294
427.44	10.000
427.79	9.709
428.15	10.114
428.50	9.677
428.85	10.012
429.21	9.629
429.56	9.688
429.92	9.569
430.27	9.671
430.62	10.554
430.98	9.984
431.33	10.139
431.68	10.241
432.04	10.520
432.39	10.085
432.74	10.312
433.10	9.904
433.45	9.326
433.80	9.966
434.16	10.156
434.51	9.699
434.86	10.252
435.22	10.189
435.57	9.914
435.92	10.317
436.28	10.623
436.63	10.006
436.98	10.023
437.34	9.273
437.69	10.152
438.04	10.153
438.39	10.650
438.75	10.361
439.10	10.161
439.45	10.139
439.81	9.940
440.16	10.733
440.51	11.235
440.86	10.179
441.22	10.006
441.57	9.895
441.92	10.588
442.27	10.119
442.63	10.515
442.98	10.045
443.33	9.665
443.68	9.693
444.03	10.658
444.39	10.426
444.74	9.967
445.09	9.814
445.44	10.355
445.79	10.250
446.15	10.570
446.50	10.071
446.85	11.237
447.20	10.266
447.55	10.276
447.91	10.668
448.26	10.335
448.61	9.791
448.96	10.756
449.31	9.977
449.66	10.647
450.02	9.861
450.37	10.261
450.72	10.452
451.07	11.565
451.42	10.285
451.77	10.892
452.12	11.263
452.47	10.705
452.83	10.425
453.18	10.942
453.53	10.323
453.88	11.663
454.23	10.762
454.58	10.752
454.93	10.642
455.28	10.325
455.63	10.504
455.98	11.145
456.34	10.673
456.69	11.632
457.04	11.616
457.39	10.108
457.74	10.573
458.09	11.311
458.44	11.547
458.79	10.987
459.14	11.010
459.49	11.249
459.84	11.580
460.19	11.277
460.54	10.345
460.89	10.370
461.24	11.475
461.59	11.372
461.94	10.694
462.29	11.316
462.64	10.804
462.99	11.647
463.34	11.006
463.69	10.051
464.04	10.955
464.39	11.171
464.74	11.288
465.09	11.004
465.44	10.603
465.79	11.111
466.14	11.047
466.49	11.457
466.84	11.164
467.19	11.908
467.54	10.759
467.89	11.776
468.24	11.223
468.59	10.993
468.94	10.997
469.29	12.151
469.64	12.129
469.99	11.479
470.34	11.957
470.68	11.337
471.03	11.906
471.38	10.694
471.73	12.028
472.08	10.442
472.43	11.004
472.78	12.533
473.13	11.332
473.48	12.061
473.83	12.159
474.17	11.274
474.52	12.276
474.87	12.063
475.22	10.914
475.57	12.167
475.92	12.257
476.27	12.057
476.61	11.944
476.96	11.738
477.31	11.625
477.66	11.511
478.01	12.966
478.36	12.205
478.70	11.586
479.05	11.844
479.40	12.332
479.75	12.742
480.10	12.500
480.45	11.799
480.79	12.043
481.14	12.444
481.49	11.907
481.84	12.298
482.19	12.563
482.53	12.689
482.88	11.865
483.23	12.160
483.58	12.812
483.92	12.183
484.27	11.874
484.62	12.181
484.97	12.237
485.31	11.616
485.66	10.890
486.01	11.158
486.36	11.908
486.70	11.750
487.05	11.481
487.40	11.859
487.75	12.296
488.09	11.859
488.44	12.246
488.79	12.982
489.13	12.438
489.48	12.194
489.83	12.533
490.17	12.843
490.52	12.772
490.87	12.379
491.22	12.518
491.56	12.685
491.91	12.929
492.26	13.113
492.60	12.417
492.95	13.184
493.30	13.054
493.64	12.459
493.99	12.763
494.34	12.429
494.68	13.109
495.03	13.337
495.37	12.389
495.72	13.212
496.07	12.905
496.41	13.247
496.76	12.968
497.11	12.906
497.45	13.266
497.80	12.956
498.14	13.998
498.49	12.808
498.84	12.718
499.18	13.450
499.53	12.811
499.87	12.452
500.22	13.971
500.56	13.107
500.91	13.498
501.26	13.828
501.60	12.470
501.95	13.913
502.29	12.659
502.64	13.814
502.98	13.225
503.33	12.923
503.67	12.596
504.02	13.037
504.36	13.676
504.71	13.121
505.06	12.681
505.40	13.523
505.75	13.364
506.09	14.560
506.44	13.333
506.78	14.501
507.13	13.543
507.47	14.815
507.82	13.268
508.16	14.404
508.51	14.116
508.85	13.665
509.19	13.291
509.54	13.636
509.88	14.149
510.23	14.623
510.57	13.915
510.92	13.856
511.26	14.301
511.61	14.309
511.95	14.386
512.30	14.294
512.64	13.856
512.98	14.686
513.33	14.223
513.67	14.517
514.02	14.597
514.36	14.792
514.70	14.431
515.05	15.037
515.39	14.533
515.74	16.056
516.08	15.159
516.42	15.977
516.77	15.713
517.11	14.874
517.46	15.251
517.80	14.501
518.14	14.734
518.49	15.421
518.83	15.549
519.17	16.223
519.52	15.789
519.86	16.368
520.20	16.443
520.55	15.446
520.89	14.966
521.23	16.300
521.58	15.987
521.92	15.896
522.26	16.254
522.61	16.096
522.95	14.422
523.29	16.489
523.64	15.303
523.98	16.805
524.32	16.279
524.66	15.466
525.01	15.864
525.35	17.075
525.69	15.810
526.04	16.645
526.38	16.996
526.72	15.837
527.06	16.862
527.41	16.106
527.75	16.304
528.09	16.612
528.43	16.787
528.78	16.332
529.12	16.581
529.46	16.237
529.80	16.269
530.15	16.935
530.49	16.624
530.83	17.682
531.17	16.431
531.51	16.477
531.86	16.392
532.20	16.667
532.54	16.845
532.88	16.535
533.22	16.176
533.57	16.906
533.91	15.481
534.25	15.965
534.59	16.115
534.93	15.930
535.27	16.425
535.62	16.496
535.96	15.643
536.30	15.838
536.64	17.131
536.98	16.596
537.32	15.757
537.66	16.225
538.01	16.495
538.35	16.014
538.69	15.307
539.03	16.994
539.37	16.434
539.71	16.411
540.05	16.038
540.39	16.690
540.73	16.932
541.07	16.872
541.42	16.273
541.76	16.611
542.10	17.353
542.44	16.256
542.78	16.757
543.12	16.836
543.46	15.753
543.80	15.719
544.14	15.715
544.48	16.798
544.82	16.644
545.16	16.432
545.50	15.949
545.84	17.663
546.18	16.574
546.52	17.212
546.86	16.880
547.20	15.893
547.54	15.840
547.88	16.324
548.22	14.024
548.56	15.698
548.90	16.442
549.24	16.188
549.58	16.443
549.92	16.890
550.26	17.269
550.60	17.283
550.94	16.934
551.28	17.607
551.62	16.174
551.96	16.425
552.30	16.446
552.64	16.467
552.98	16.468
553.32	16.522
553.66	16.655
554.00	16.560
554.34	16.318
554.68	17.178
555.02	17.294
555.36	16.822
555.69	15.831
556.03	17.053
556.37	17.070
556.71	16.535
557.05	17.073
557.39	16.036
557.73	17.870
558.07	17.408
558.41	15.707
558.75	16.882
559.08	15.798
559.42	17.305
559.76	17.255
560.10	16.928
560.44	17.124
560.78	16.632
561.12	16.494
561.45	16.301
561.79	16.098
562.13	16.480
562.47	15.896
562.81	17.185
563.15	16.655
563.48	16.862
563.82	16.430
564.16	15.686
564.50	17.204
564.84	16.270
565.17	15.650
565.51	15.385
565.85	16.565
566.19	17.128
566.52	16.504
566.86	15.487
567.20	16.707
567.54	16.598
567.88	15.745
568.21	15.436
568.55	16.278
568.89	15.358
569.23	15.363
569.56	15.048
569.90	15.264
570.24	14.619
570.57	14.165
570.91	14.519
571.25	14.916
571.59	14.393
571.92	14.643
572.26	14.110
572.60	14.831
572.93	14.401
573.27	14.055
573.61	13.421
573.95	14.130
574.28	13.827
574.62	14.159
574.96	13.858
575.29	13.872
575.63	14.016
575.97	13.943
576.30	14.086
576.64	14.021
576.98	14.033
577.31	14.064
577.65	14.292
577.98	13.847
578.32	13.471
578.66	14.106
578.99	14.354
579.33	14.243
579.67	13.999
580.00	13.690
580.34	13.503
580.67	13.680
581.01	13.551
581.35	13.970
581.68	13.607
582.02	13.677
582.35	13.560
582.69	13.665
583.02	13.793
583.36	13.680
583.70	13.518
584.03	14.520
584.37	14.046
584.70	13.693
585.04	14.000
585.37	13.270
585.71	14.103
586.04	13.906
586.38	13.526
586.72	14.008
587.05	13.849
587.39	13.767
587.72	13.990
588.06	13.893
588.39	14.070
588.73	14.605
589.06	14.546
589.40	14.909
589.73	14.518
590.07	13.984
590.40	14.723
590.73	13.954
591.07	14.590
591.40	14.081
591.74	14.770
592.07	14.595
592.41	14.352
592.74	14.143
593.08	14.349
593.41	14.013
593.75	13.485
594.08	13.947
594.41	14.787
594.75	14.383
595.08	14.699
595.42	14.270
595.75	14.149
596.09	14.591
596.42	14.403
596.75	14.446
597.09	15.361
597.42	14.622
597.75	14.482
598.09	14.596
598.42	14.803
598.76	14.743
599.09	13.970
599.42	13.649
599.76	14.307
600.09	14.160
600.42	14.432
600.76	14.275
601.09	14.432
601.42	13.732
601.76	14.914
602.09	14.560
602.42	14.609
602.76	13.793
603.09	14.234
603.42	14.625
603.76	14.799
604.09	14.978
604.42	14.238
604.76	14.392
605.09	14.331
605.42	14.628
605.75	14.834
606.09	14.487
606.42	13.741
606.75	14.684
607.09	15.086
607.42	13.996
607.75	14.305
608.08	14.912
608.42	14.948
608.75	14.766
609.08	14.272
609.41	14.101
609.75	13.749
610.08	15.098
610.41	14.988
610.74	14.555
611.07	14.757
611.41	14.423
611.74	15.835
612.07	15.682
612.40	14.499
612.73	14.809
613.07	14.144
613.40	14.833
613.73	15.095
614.06	14.388
614.39	16.460
614.72	13.520
615.06	13.913
615.39	14.487
615.72	15.426
616.05	13.805
616.38	15.786
616.71	15.195
617.05	14.656
617.38	15.789
617.71	15.541
618.04	15.404
618.37	15.535
618.70	16.362
619.03	15.708
619.36	16.209
619.69	16.870
620.03	15.978
620.36	15.893
620.69	15.506
621.02	16.058
621.35	16.048
621.68	16.066
622.01	16.586
622.34	15.839
622.67	15.000
623.00	15.149
623.33	16.418
623.66	15.436
623.99	16.241
624.32	15.551
624.65	14.864
624.99	16.206
625.32	14.970
625.65	17.016
625.98	15.571
626.31	16.476
626.64	15.565
626.97	16.182
627.30	16.511
627.63	14.767
627.96	17.493
628.29	16.452
628.62	16.237
628.95	16.831
629.28	15.883
629.61	16.094
629.94	16.730
630.26	16.899
630.59	17.186
630.92	16.416
631.25	16.935
631.58	16.825
631.91	14.681
632.24	17.667
632.57	16.667
632.90	16.782
633.23	17.991
633.56	16.023
633.89	18.160
634.22	18.772
634.55	18.630
634.88	17.170
635.20	16.479
635.53	17.176
635.86	17.506
636.19	17.460
636.52	17.802
636.85	16.005
637.18	14.875
637.51	18.340
637.83	17.177
638.16	17.632
638.49	17.655
638.82	18.147
639.15	17.121
639.48	15.824
639.81	18.949
640.13	16.757
640.46	18.091
640.79	20.168
641.12	17.772
641.45	19.225
641.77	17.515
642.10	17.674
642.43	16.995
642.76	17.795
643.09	17.619
643.41	18.889
643.74	18.601
644.07	19.813
644.40	17.018
644.73	21.122
645.05	15.693
645.38	18.874
645.71	20.275
646.04	17.815
646.36	17.627
646.69	20.415
647.02	21.300
647.35	17.509
647.67	18.431
648.00	18.278
648.33	20.067
648.66	16.613
648.98	17.197
649.31	17.385
649.64	15.000
649.96	17.268
650.29	16.557
650.62	17.556
650.94	17.707
651.27	16.811
651.60	18.858
651.92	20.205
652.25	16.361
652.58	15.673
652.90	17.014
653.23	18.710
653.56	14.716
653.88	17.213
654.21	17.617
654.54	17.940
654.86	17.014
655.19	15.616
655.52	15.722
655.84	12.794
656.17	14.008
656.49	19.058
656.82	19.868
657.15	15.148
657.47	11.138
657.80	8.494
658.13	9.975
658.45	13.410
658.78	13.257
659.10	13.748
659.43	13.013
659.75	13.611
660.08	14.323
660.41	14.025
660.73	14.521
661.06	17.681
661.38	19.107
661.71	18.547
662.03	17.944
662.36	18.763
662.68	20.464
663.01	20.170
663.33	20.862
663.66	21.459
663.98	18.750
664.31	16.779
664.63	19.027
664.96	17.570
665.28	16.486
665.61	15.645
665.93	20.165
666.26	19.838
666.58	19.127
666.91	16.927
667.23	19.737
667.56	19.728
667.88	20.814
668.21	21.198
668.53	17.290
668.86	17.552
669.18	19.406
669.50	17.290
669.83	16.058
670.15	19.731
670.48	18.458
670.80	17.995
671.13	18.736
671.45	20.270
671.77	19.058
672.10	18.146
672.42	17.897
672.75	17.636
673.07	15.856
673.39	18.579
673.72	16.142
674.04	15.074
674.37	18.351
674.69	18.443
675.01	14.468
675.34	16.920
675.66	21.814
675.98	17.841
676.31	18.326
676.63	17.931
676.95	15.929
677.28	19.026
677.60	18.552
677.92	18.722
678.25	17.724
678.57	17.695
678.89	16.562
679.22	19.706
679.54	18.343
679.86	14.800
680.18	16.350
680.51	15.642
680.83	18.476
681.15	16.185
681.48	19.675
681.80	15.323
682.12	16.097
682.44	16.896
682.77	14.502
683.09	16.352
683.41	20.575
683.73	14.612
684.06	16.774
684.38	17.573
684.70	17.490
685.02	16.339
685.34	15.789
685.67	16.667
685.99	14.367
686.31	16.517
686.63	17.376
686.96	15.157
687.28	16.956
687.60	16.992
687.92	16.148
688.24	17.520
688.56	18.036
688.89	15.385
689.21	16.411
689.53	18.161
689.85	19.376
690.17	15.919
690.49	15.935
690.82	14.940
691.14	15.802
691.46	16.630
691.78	18.943
692.10	15.254
692.42	15.333
692.74	15.665
693.06	15.281
693.39	18.568
693.71	13.770
694.03	18.359
694.35	14.898
694.67	16.548
694.99	15.345
695.31	16.837
695.63	14.541
695.95	19.355
696.27	19.451
696.59	18.182
696.91	16.854
697.23	16.146
697.56	15.144
697.88	16.667
698.20	16.702
698.52	13.677
698.84	19.417
699.16	15.952
699.48	13.000
699.80	17.544
700.12	18.136
700.44	16.480
700.76	18.659
701.08	20.058
701.40	13.595
701.72	14.506
702.04	19.231
702.36	17.771
702.68	14.072
703.00	16.232
703.32	16.905
703.64	17.941
703.96	21.221
704.28	17.751
704.60	12.975
704.91	15.873
705.23	18.770
705.55	12.500
705.87	14.334
706.19	14.583
706.51	17.014
706.83	20.000
707.15	18.153
707.47	17.906
707.79	17.010
708.11	15.013
708.43	19.701
708.74	16.364
709.06	14.206
709.38	14.080
709.70	14.062
710.02	20.245
710.34	17.162
710.66	16.190
710.98	15.773
711.29	16.129
711.61	15.655
711.93	13.115
712.25	23.920
712.57	11.847
712.89	21.583
713.20	17.182
713.52	14.925
713.84	13.879
714.16	16.393
714.48	19.048
714.80	21.231
715.11	14.697
715.43	17.470
715.75	17.445
716.07	12.459
716.39	15.385
716.70	20.906
717.02	16.296
717.34	18.702
717.66	20.747
717.97	16.393
718.29	13.866
718.61	17.063
718.93	18.638
719.24	13.603
719.56	16.226
719.88	17.455
720.20	14.607
720.51	19.173
720.83	14.056
721.15	16.393
721.46	20.784
721.78	14.559
722.10	18.400
722.42	16.942
722.73	13.147
723.05	15.663
723.37	19.608
723.68	13.360
724.00	17.886
724.32	16.049
724.63	15.353
724.95	19.835
725.27	10.526
725.58	11.207
725.90	15.476
726.22	18.081
726.53	19.392
726.85	11.373
727.16	15.414
727.48	13.462
727.80	11.475
728.11	16.387
728.43	15.289
728.74	19.141
729.06	17.803
729.38	14.008
729.69	12.992
730.01	18.504
730.32	10.757
730.64	18.681
730.96	17.537
731.27	16.071
731.59	15.756
731.90	14.724
732.22	15.644
732.53	21.523
732.85	14.430
733.16	18.116
733.48	16.028
733.80	17.082
734.11	11.724
734.43	14.286
734.74	17.507
735.06	12.539
735.37	13.761
735.69	12.581
736.00	11.785
736.32	19.205
736.63	12.759
736.95	11.232
737.26	16.556
737.58	10.791
737.89	16.487
738.21	10.150
738.52	14.231
738.83	17.969
739.15	12.393
739.46	15.726
739.78	16.434
740.09	15.035
740.41	15.734
740.72	17.153
741.04	14.286
741.35	9.091
741.66	20.370
741.98	11.429
742.29	16.901
742.61	14.973
742.92	14.486
743.23	7.456
743.55	17.117
743.86	22.667
744.18	15.714
744.49	16.256
744.80	13.198
745.12	13.918
745.43	21.608
745.74	11.650
746.06	15.122
746.37	21.586
746.68	16.418
747.00	14.660
747.31	13.942
747.62	16.129
747.94	15.284
748.25	20.465
748.56	15.238
748.88	6.522
749.19	15.493
749.50	19.608
749.82	22.222
750.13	24.229
750.44	16.667
750.75	13.200
751.07	22.857
751.38	17.343
751.69	10.687
752.01	15.769
752.32	12.062
752.63	11.923
752.94	14.683
753.26	16.087
753.57	20.536
753.88	11.207
754.19	10.373
754.51	15.625
754.82	17.391
755.13	11.523
755.44	9.917
755.75	20.165
756.07	10.843
756.38	12.500
756.69	16.968
757.00	11.150
757.31	15.101
757.63	14.642
757.94	13.873
758.25	13.081
758.56	19.677
758.87	13.352
759.18	16.000
759.50	11.032
759.81	7.664
760.12	12.838
760.43	15.858
760.74	16.250
761.05	14.888
761.36	14.671
761.67	13.905
761.99	13.871
762.30	15.942
762.61	16.981
762.92	16.592
763.23	12.322
763.54	13.778
763.85	17.300
764.16	12.245
764.47	13.983
764.78	13.858
765.10	16.547
765.41	10.000
765.72	13.208
766.03	9.187
766.34	13.534
766.65	14.170
766.96	14.000
767.27	14.062
767.58	18.605
767.89	7.097
768.20	14.724
768.51	19.672
768.82	7.568
769.13	10.500
769.44	14.912
769.75	15.584
770.06	19.266
770.37	12.207
770.68	14.062
770.99	20.297
771.30	8.738
771.61	13.889
771.92	9.957
772.23	14.953
772.54	12.766
772.85	13.018
773.16	13.415
773.47	15.060
773.78	24.725
774.09	12.000
774.39	14.815
774.70	14.765
775.01	3.623
775.32	9.701
775.63	5.785
775.94	17.293
776.25	17.143
776.56	12.295
776.87	19.469
777.18	18.584
777.48	5.455
777.79	12.174
778.10	3.670
778.41	3.390
778.72	9.917
779.03	13.433
779.34	1.504
779.65	11.765
779.95	15.942
780.26	6.803
780.57	8.621
780.88	12.963
781.19	0.000
781.50	3.200
781.80	6.536
782.11	14.744
782.42	13.855
782.73	10.219
783.04	7.432
783.34	8.333
783.65	8.527
783.96	17.886
784.27	11.966
784.57	9.756
784.88	7.317
785.19	14.035
785.50	1.031
785.81	18.095
786.11	-5.882
786.42	8.182
786.73	13.514
787.04	16.832
787.34	6.667
787.65	9.524
787.96	12.745
788.26	3.604
788.57	12.903
788.88	-3.125
789.19	12.821
789.49	11.765
789.80	5.983
790.11	18.584
790.41	3.030
790.72	15.094
791.03	-11.111
791.33	-3.947
791.64	-6.452
791.95	2.667
792.25	-11.429
792.56	4.878
792.87	12.245
793.17	-2.632
793.48	-13.514
793.79	-1.408
794.09	8.861
794.40	15.957
794.70	11.215
795.01	9.649
795.32	5.455
795.62	-2.679
795.93	0.000
796.23	-2.198
796.54	18.947
796.85	1.370
797.15	-2.778
797.46	1.370
797.76	-2.817
798.07	6.250
798.37	5.882
798.68	10.000
798.99	4.286
799.29	17.105
799.60	16.667
799.90	2.778
800.21	-12.500
800.51	3.175
800.82	-21.311
801.12	-8.772
801.43	5.634
801.73	-3.390
802.04	27.869
802.34	-20.000
802.65	23.077
802.95	12.963
803.26	-22.500
803.56	0.000
803.87	-21.053
804.17	3.226
804.48	21.538
804.78	-23.077
805.09	-11.628
805.39	-65.625
805.70	-16.981
806.00	19.298
806.30	8.108
806.61	4.412
806.91	9.877
807.22	8.000
807.52	-1.493
807.83	-8.065
808.13	-9.524
808.43	-18.182
808.74	10.606
809.04	-9.434
809.35	8.219
809.65	14.035
809.95	-7.353
810.26	29.412
810.56	-32.000
810.86	-16.327
811.17	-22.857
811.47	-23.077
811.77	-9.677
812.08	-36.842
812.38	-7.143
812.69	-28.261
812.99	-16.129
813.29	19.048
813.59	-62.963
813.90	-29.787
814.20	-32.558
814.50	-2.083
814.81	5.000
815.11	-4.878
815.41	-40.000
815.72	2.857
816.02	-41.667
816.32	5.128
816.62	-21.622
816.93	-35.294
817.23	-6.522
817.53	-20.588
817.84	-29.412
818.14	-34.375
818.44	-13.793
818.74	-41.935
819.04	-18.519
819.35	-50.000
819.65	-80.000
819.95	-20.000
820.25	-36.000
820.56	-15.789
820.86	-20.000
821.16	4.255
821.46	-15.517
821.76	-15.385
822.07	-22.500
822.37	0.000
822.67	-16.667
822.97	2.703
823.27	-8.108
823.57	-28.000
823.88	-27.027
824.18	-71.429
824.48	-7.692
824.78	-100.000
825.08	-86.957
825.38	-12.500
825.69	-45.833
825.99	-105.000
826.29	-51.351
826.59	-47.059
826.89	-4.000
827.19	-2.857
827.49	23.684
827.79	-3.125
828.09	-40.000
828.39	0.000
828.70	-6.897
829.00	-20.690
829.30	-2.778
829.60	-6.250
829.90	-88.889
830.20	-23.077
830.50	-61.905
830.80	-53.571
831.10	10.256
831.40	-52.381
831.70	-17.647
832.00	-62.500
832.30	-78.947
832.60	-62.500
832.90	-66.667
833.20	-88.235
833.50	-100.000
833.80	-140.000
834.10	-50.000
834.40	-37.500
834.70	22.222
835.00	0.000
835.30	-37.500
835.60	-34.483
835.90	-61.111
836.20	-127.273
836.50	-166.667
836.80	-17.143
837.10	5.714
837.40	-70.588
837.70	-127.273
838.00	-37.500
838.30	-50.000
838.60	-23.810
838.90	10.000
839.19	-34.783
839.49	-21.739
839.79	-22.222
840.09	-65.217
840.39	-59.091
840.69	-56.250
840.99	-42.105
841.29	-106.250
841.59	-100.000
841.88	-27.778
842.18	-25.000
842.48	-111.765
842.78	10.345
843.08	-50.000
843.38	-92.308
843.68	-155.556
843.97	-123.077
844.27	-109.091
844.57	-360.000
844.87	-40.000
845.17	-280.000
845.47	-135.714
845.76	-144.444
846.06	0.000
846.36	-475.000
846.66	-60.000
846.96	-31.579
847.25	-66.667
847.55	-208.333
847.85	-73.333
848.15	-140.000
848.44	42.308
848.74	-84.211
849.04	400.000
849.34	-200.000
849.63	-47.368
849.93	0.000
850.23	-65.000
850.53	-19.048
850.82	-28.000
851.12	-15.789
851.42	-1200.000
851.71	-64.286
852.01	-66.667
852.31	-47.059
852.61	-66.667
852.90	-38.095
853.20	-133.333
853.50	-61.111
853.79	-105.263
854.09	-80.000
854.39	-32.143
854.68	-73.913
854.98	-233.333
855.28	-13.793
855.57	-81.250
855.87	-40.000
856.17	-140.000
856.46	-41.379
856.76	-40.000
857.05	-158.824
857.35	-161.538
857.65	-100.000
857.94	-11.111
858.24	-107.143
858.53	-114.286
858.83	-125.000
859.13	-144.444
859.42	4.762
859.72	-175.000
860.01	-533.333
860.31	-87.500
860.60	-480.000
860.90	-211.111
861.20	-237.500
861.49	-342.857
861.79	-58.824
862.08	-500.000
862.38	-158.333
862.67	-92.308
862.97	-100.000
863.26	-30.000
863.56	-17.647
863.85	666.667
864.15	-170.000
864.44	-169.231
864.74	-105.000
865.03	-162.500
865.33	-233.333
865.62	-100.000
865.92	-550.000
866.21	-121.429
866.51	-166.667
866.80	-1100.000
867.10	-366.667
867.39	-47.059
867.69	-21.739
867.98	-42.857
868.27	-400.000
868.57	-81.250
868.86	-154.545
869.16	-47.059
869.45	-150.000
869.75	-242.857
870.04	1500.000
870.33	-25.000
870.63	40.000
870.92	-100.000
871.22	-116.667
871.51	-27.273
871.80	-91.667
872.10	-180.000
>>>>>End Processed Spectral Data<<<<<
