SpectraSuite Data File
++++++++++++++++++++++++++++++++++++
Date: Sat May 16 11:25:29 PDT 2015
User: schluterlab
Dark Spectrum Present: Yes
Reference Spectrum Present: Yes
Number of Sampled Component Spectra: 1
Spectrometers: USB2E3373
Integration Time (usec): 3000 (USB2E3373)
Spectra Averaged: 3 (USB2E3373)
Boxcar Smoothing: 0 (USB2E3373)
Correct for Electrical Dark: No (USB2E3373)
Strobe/Lamp Enabled: No (USB2E3373)
Correct for Detector Non-linearity: No (USB2E3373)
Correct for Stray Light: No (USB2E3373)
Number of Pixels in Processed Spectrum: 2048
>>>>>Begin Processed Spectral Data<<<<<
178.53	0.000
178.91	93.333
179.29	266.667
179.67	-1900.000
180.04	46.154
180.42	600.000
180.80	450.000
181.18	375.000
181.56	-137.500
181.94	1300.000
182.31	525.000
182.69	-15.385
183.07	-333.333
183.45	1100.000
183.83	400.000
184.20	-142.857
184.58	-125.000
184.96	-275.000
185.34	87.500
185.72	-475.000
186.09	300.000
186.47	-100.000
186.85	-175.000
187.23	-50.000
187.61	-200.000
187.98	-137.500
188.36	-62.500
188.74	-100.000
189.12	1700.000
189.49	314.286
189.87	-41.667
190.25	225.000
190.63	-64.286
191.00	-188.889
191.38	380.000
191.76	-33.333
192.14	480.000
192.51	-260.000
192.89	-633.333
193.27	0.000
193.65	-177.778
194.02	-271.429
194.40	400.000
194.78	-130.000
195.15	-900.000
195.53	-209.091
195.91	-450.000
196.29	340.000
196.66	-400.000
197.04	2300.000
197.42	-500.000
197.79	33.333
198.17	-266.667
198.55	-650.000
198.92	-1300.000
199.30	250.000
199.68	-900.000
200.05	-111.111
200.43	-255.556
200.81	-1000.000
201.18	-50.000
201.56	100.000
201.94	6.667
202.31	-13.636
202.69	-110.000
203.07	-140.000
203.44	733.333
203.82	-133.333
204.19	-350.000
204.57	-225.000
204.95	-1400.000
205.32	-56.250
205.70	1700.000
206.08	-1600.000
206.45	11.111
206.83	-1100.000
207.20	-150.000
207.58	-700.000
207.96	-400.000
208.33	-150.000
208.71	-177.778
209.08	260.000
209.46	-142.857
209.84	350.000
210.21	0.000
210.59	-5.000
210.96	800.000
211.34	-350.000
211.71	-400.000
212.09	575.000
212.46	750.000
212.84	-1300.000
213.22	566.667
213.59	150.000
213.97	-77.778
214.34	90.000
214.72	-170.000
215.09	-100.000
215.47	-16.667
215.84	-150.000
216.22	0.000
216.59	46.667
216.97	-500.000
217.34	1000.000
217.72	0.000
218.09	-383.333
218.47	-142.857
218.84	185.714
219.22	42.857
219.59	0.000
219.97	200.000
220.34	200.000
220.72	262.500
221.09	-176.923
221.47	0.000
221.84	800.000
222.22	-750.000
222.59	1200.000
222.97	-150.000
223.34	-1150.000
223.72	-766.667
224.09	-57.143
224.46	-175.000
224.84	-71.429
225.21	-300.000
225.59	-90.909
225.96	-200.000
226.34	-128.571
226.71	-244.444
227.08	-35.000
227.46	1900.000
227.83	-228.571
228.21	-237.500
228.58	650.000
228.95	-25.000
229.33	-900.000
229.70	-360.000
230.08	-1100.000
230.45	-83.333
230.82	-150.000
231.20	-1600.000
231.57	-750.000
231.95	1900.000
232.32	-47.619
232.69	-166.667
233.07	-214.286
233.44	-750.000
233.81	-86.667
234.19	-66.667
234.56	-68.750
234.93	-6.250
235.31	-342.857
235.68	-64.286
236.05	-117.647
236.43	-90.909
236.80	-9.677
237.17	-4.167
237.55	-38.095
237.92	-27.273
238.29	-28.571
238.67	0.000
239.04	0.000
239.41	-51.613
239.79	-51.282
240.16	-19.048
240.53	-32.727
240.91	-10.256
241.28	-14.545
241.65	15.385
242.02	-14.754
242.40	-13.115
242.77	12.121
243.14	-8.475
243.51	-25.714
243.89	-8.861
244.26	-6.742
244.63	7.368
245.00	1.053
245.38	4.237
245.75	9.735
246.12	-0.800
246.49	4.724
246.87	-2.439
247.24	-5.932
247.61	-13.559
247.98	4.225
248.36	-5.594
248.73	5.063
249.10	5.096
249.47	8.772
249.84	6.818
250.22	-1.786
250.59	10.734
250.96	2.618
251.33	11.848
251.70	5.288
252.08	6.635
252.45	3.318
252.82	0.000
253.19	8.085
253.56	4.435
253.94	2.110
254.31	1.288
254.68	2.439
255.05	4.032
255.42	8.333
255.79	5.376
256.16	5.882
256.54	4.779
256.91	8.333
257.28	9.158
257.65	4.610
258.02	11.635
258.39	4.013
258.76	3.716
259.14	6.790
259.51	7.541
259.88	4.268
260.25	7.143
260.62	4.502
260.99	5.935
261.36	7.622
261.73	10.694
262.10	8.333
262.47	8.832
262.85	11.429
263.22	8.023
263.59	4.923
263.96	8.986
264.33	8.401
264.70	7.459
265.07	5.495
265.44	6.977
265.81	7.494
266.18	4.810
266.55	7.598
266.92	7.305
267.29	8.475
267.66	8.395
268.03	6.763
268.40	5.869
268.77	5.301
269.14	6.961
269.51	7.356
269.88	6.651
270.25	4.895
270.62	5.263
270.99	7.432
271.36	8.625
271.73	8.072
272.10	7.323
272.47	7.333
272.84	10.000
273.21	9.404
273.58	5.714
273.95	7.675
274.32	7.692
274.69	9.409
275.06	7.771
275.43	4.688
275.80	9.572
276.17	8.577
276.54	7.128
276.91	5.761
277.28	8.519
277.65	8.264
278.02	7.098
278.39	7.269
278.76	7.769
279.13	7.312
279.50	7.555
279.87	7.400
280.23	7.490
280.60	6.759
280.97	6.796
281.34	6.770
281.71	7.692
282.08	9.476
282.45	5.295
282.82	7.364
283.19	8.545
283.56	8.242
283.92	8.304
284.29	6.320
284.66	7.554
285.03	10.160
285.40	8.487
285.77	7.368
286.14	8.303
286.51	8.171
286.87	7.623
287.24	8.703
287.61	8.099
287.98	4.853
288.35	5.620
288.72	5.093
289.08	6.441
289.45	6.734
289.82	5.536
290.19	9.031
290.56	6.777
290.93	6.995
291.29	6.483
291.66	6.602
292.03	6.279
292.40	6.928
292.77	6.366
293.13	6.667
293.50	8.767
293.87	5.982
294.24	7.391
294.60	4.697
294.97	7.284
295.34	5.037
295.71	7.589
296.08	4.916
296.44	4.864
296.81	6.980
297.18	6.620
297.55	7.062
297.91	7.252
298.28	5.890
298.65	5.579
299.02	7.620
299.38	7.620
299.75	6.114
300.12	6.667
300.48	7.289
300.85	6.422
301.22	5.563
301.59	8.322
301.95	7.179
302.32	4.694
302.69	6.977
303.05	5.739
303.42	5.750
303.79	6.579
304.15	6.161
304.52	7.001
304.89	6.966
305.25	5.495
305.62	5.993
305.99	8.127
306.35	7.436
306.72	5.239
307.09	7.832
307.45	5.675
307.82	5.922
308.19	6.488
308.55	6.972
308.92	5.800
309.29	6.811
309.65	6.363
310.02	6.911
310.38	5.838
310.75	7.070
311.12	7.438
311.48	7.203
311.85	7.827
312.22	7.209
312.58	8.749
312.95	9.072
313.31	7.692
313.68	8.241
314.05	8.803
314.41	6.539
314.78	7.692
315.14	8.193
315.51	7.801
315.87	9.003
316.24	9.038
316.61	9.597
316.97	10.348
317.34	8.574
317.70	9.462
318.07	9.328
318.43	10.019
318.80	10.892
319.16	10.507
319.53	9.680
319.89	10.160
320.26	10.980
320.62	9.615
320.99	10.448
321.35	9.951
321.72	11.054
322.08	11.869
322.45	10.693
322.81	12.008
323.18	12.296
323.54	11.553
323.91	12.326
324.27	12.072
324.64	11.517
325.00	13.700
325.37	12.398
325.73	14.961
326.10	12.135
326.46	13.835
326.83	13.021
327.19	13.428
327.56	15.503
327.92	14.698
328.29	15.065
328.65	13.182
329.01	15.636
329.38	14.451
329.74	15.568
330.11	14.597
330.47	15.259
330.84	15.949
331.20	16.426
331.56	16.500
331.93	16.341
332.29	16.986
332.66	16.418
333.02	17.104
333.38	16.667
333.75	17.275
334.11	16.444
334.48	17.123
334.84	18.023
335.20	16.667
335.57	16.065
335.93	18.174
336.29	16.740
336.66	17.709
337.02	17.928
337.38	17.380
337.75	18.701
338.11	18.873
338.47	18.594
338.84	17.604
339.20	17.663
339.56	19.340
339.93	18.254
340.29	18.601
340.65	17.657
341.02	18.465
341.38	17.776
341.74	18.544
342.11	18.515
342.47	17.768
342.83	17.884
343.20	18.873
343.56	17.388
343.92	19.616
344.28	19.849
344.65	18.069
345.01	19.160
345.37	19.934
345.73	18.740
346.10	18.806
346.46	17.872
346.82	19.487
347.19	18.324
347.55	19.181
347.91	20.236
348.27	18.616
348.63	19.063
349.00	18.695
349.36	17.252
349.72	20.064
350.08	19.246
350.45	17.809
350.81	20.541
351.17	19.855
351.53	17.900
351.89	19.159
352.26	19.535
352.62	19.585
352.98	18.987
353.34	20.464
353.70	19.614
354.07	20.063
354.43	19.921
354.79	19.493
355.15	20.527
355.51	20.391
355.87	20.711
356.24	19.857
356.60	21.112
356.96	21.170
357.32	19.794
357.68	19.617
358.04	19.707
358.40	21.114
358.77	20.556
359.13	20.811
359.49	19.803
359.85	21.265
360.21	21.157
360.57	22.139
360.93	21.481
361.29	21.749
361.66	20.579
362.02	20.340
362.38	21.203
362.74	21.905
363.10	20.947
363.46	23.006
363.82	22.230
364.18	22.214
364.54	22.159
364.90	22.152
365.26	21.113
365.62	22.666
365.98	22.262
366.35	21.972
366.71	22.269
367.07	22.230
367.43	22.375
367.79	22.749
368.15	22.688
368.51	22.727
368.87	23.558
369.23	22.877
369.59	22.847
369.95	23.467
370.31	23.347
370.67	23.644
371.03	24.125
371.39	22.772
371.75	25.179
372.11	23.386
372.47	23.933
372.83	24.339
373.19	23.857
373.55	25.053
373.91	24.751
374.27	24.641
374.63	24.845
374.99	25.730
375.35	24.563
375.71	24.578
376.07	25.599
376.42	23.245
376.78	25.294
377.14	25.898
377.50	25.338
377.86	25.488
378.22	25.754
378.58	26.313
378.94	25.401
379.30	25.960
379.66	26.047
380.02	25.966
380.38	26.888
380.74	25.967
381.09	26.303
381.45	27.446
381.81	26.800
382.17	27.694
382.53	27.599
382.89	27.691
383.25	27.453
383.61	26.533
383.97	27.189
384.32	29.537
384.68	29.021
385.04	27.597
385.40	28.971
385.76	29.146
386.12	28.420
386.48	29.208
386.83	29.325
387.19	28.930
387.55	29.255
387.91	29.046
388.27	28.649
388.62	28.005
388.98	29.073
389.34	28.152
389.70	28.867
390.06	29.459
390.42	30.192
390.77	29.274
391.13	29.876
391.49	30.505
391.85	29.115
392.20	29.369
392.56	30.238
392.92	29.492
393.28	30.253
393.64	31.088
393.99	30.831
394.35	30.414
394.71	29.957
395.07	31.387
395.42	30.215
395.78	29.541
396.14	31.963
396.50	31.131
396.85	31.585
397.21	31.652
397.57	30.821
397.92	31.323
398.28	31.667
398.64	30.874
399.00	31.910
399.35	31.567
399.71	31.707
400.07	31.045
400.42	31.387
400.78	31.366
401.14	31.317
401.49	31.250
401.85	31.910
402.21	32.658
402.57	32.646
402.92	33.606
403.28	31.679
403.63	30.857
403.99	31.759
404.35	32.065
404.70	31.714
405.06	32.757
405.42	31.611
405.77	31.335
406.13	32.198
406.49	31.995
406.84	31.914
407.20	32.862
407.55	32.996
407.91	31.865
408.27	33.088
408.62	32.231
408.98	32.626
409.34	31.871
409.69	31.695
410.05	33.232
410.40	32.557
410.76	33.076
411.11	32.668
411.47	31.841
411.83	33.802
412.18	32.611
412.54	33.984
412.89	33.597
413.25	32.349
413.60	32.746
413.96	32.717
414.31	33.578
414.67	32.889
415.03	33.053
415.38	34.027
415.74	33.634
416.09	32.992
416.45	33.069
416.80	33.550
417.16	33.223
417.51	34.209
417.87	34.239
418.22	34.450
418.58	33.055
418.93	34.948
419.29	33.689
419.64	33.543
420.00	34.386
420.35	34.418
420.71	34.214
421.06	34.260
421.42	35.246
421.77	34.171
422.12	34.471
422.48	34.260
422.83	34.795
423.19	35.301
423.54	34.928
423.90	35.628
424.25	34.333
424.61	36.188
424.96	36.396
425.31	35.495
425.67	36.160
426.02	35.341
426.38	36.479
426.73	35.418
427.09	34.865
427.44	35.795
427.79	35.465
428.15	36.385
428.50	36.598
428.85	36.091
429.21	36.525
429.56	36.146
429.92	36.072
430.27	35.892
430.62	37.304
430.98	34.710
431.33	36.286
431.68	36.944
432.04	36.766
432.39	36.353
432.74	37.290
433.10	37.479
433.45	36.960
433.80	37.290
434.16	37.184
434.51	36.548
434.86	37.258
435.22	36.915
435.57	37.760
435.92	38.218
436.28	37.151
436.63	37.592
436.98	36.712
437.34	37.035
437.69	37.515
438.04	38.287
438.39	37.726
438.75	37.194
439.10	37.146
439.45	37.900
439.81	37.952
440.16	38.047
440.51	38.529
440.86	37.478
441.22	37.369
441.57	38.105
441.92	38.363
442.27	38.041
442.63	37.446
442.98	37.190
443.33	37.781
443.68	38.822
444.03	38.016
444.39	38.571
444.74	39.317
445.09	38.596
445.44	38.098
445.79	39.368
446.15	38.719
446.50	37.289
446.85	39.148
447.20	38.355
447.55	39.669
447.91	38.518
448.26	38.212
448.61	38.370
448.96	39.888
449.31	38.613
449.66	38.409
450.02	37.895
450.37	38.899
450.72	39.661
451.07	39.723
451.42	37.794
451.77	38.181
452.12	40.048
452.47	39.295
452.83	39.837
453.18	39.848
453.53	39.303
453.88	39.952
454.23	38.875
454.58	41.454
454.93	39.798
455.28	40.089
455.63	38.636
455.98	39.578
456.34	39.136
456.69	40.775
457.04	40.074
457.39	38.337
457.74	39.398
458.09	39.211
458.44	39.145
458.79	39.350
459.14	39.304
459.49	39.432
459.84	39.460
460.19	38.663
460.54	38.717
460.89	39.182
461.24	39.162
461.59	39.625
461.94	39.656
462.29	39.250
462.64	40.580
462.99	40.295
463.34	39.365
463.69	39.249
464.04	39.602
464.39	39.546
464.74	39.066
465.09	38.064
465.44	40.271
465.79	39.538
466.14	39.356
466.49	39.666
466.84	39.376
467.19	40.461
467.54	39.367
467.89	39.889
468.24	39.489
468.59	39.475
468.94	40.643
469.29	39.896
469.64	40.027
469.99	41.931
470.34	42.552
470.68	40.843
471.03	41.225
471.38	40.625
471.73	40.839
472.08	39.759
472.43	40.798
472.78	41.067
473.13	40.292
473.48	41.417
473.83	40.757
474.17	40.637
474.52	41.816
474.87	40.093
475.22	40.885
475.57	40.500
475.92	40.227
476.27	39.771
476.61	40.676
476.96	39.855
477.31	39.989
477.66	40.786
478.01	40.843
478.36	40.440
478.70	40.737
479.05	40.671
479.40	40.725
479.75	40.826
480.10	40.377
480.45	39.458
480.79	41.214
481.14	41.696
481.49	40.126
481.84	39.760
482.19	40.384
482.53	41.525
482.88	41.243
483.23	40.939
483.58	40.981
483.92	40.707
484.27	38.901
484.62	39.568
484.97	39.867
485.31	38.080
485.66	37.231
486.01	37.812
486.36	38.743
486.70	39.688
487.05	39.261
487.40	39.370
487.75	39.107
488.09	38.450
488.44	39.783
488.79	39.901
489.13	39.331
489.48	40.294
489.83	40.742
490.17	41.054
490.52	41.304
490.87	40.647
491.22	41.663
491.56	41.019
491.91	41.269
492.26	40.519
492.60	41.437
492.95	40.409
493.30	41.115
493.64	41.561
493.99	41.109
494.34	41.571
494.68	41.199
495.03	41.539
495.37	41.740
495.72	41.749
496.07	42.046
496.41	41.362
496.76	41.781
497.11	41.686
497.45	41.715
497.80	42.021
498.14	41.749
498.49	42.089
498.84	41.893
499.18	41.618
499.53	42.426
499.87	42.181
500.22	42.010
500.56	42.521
500.91	41.823
501.26	41.970
501.60	41.213
501.95	41.981
502.29	40.907
502.64	42.244
502.98	41.639
503.33	42.199
503.67	41.427
504.02	41.091
504.36	42.549
504.71	42.452
505.06	42.137
505.40	42.665
505.75	42.378
506.09	42.720
506.44	42.807
506.78	42.499
507.13	42.739
507.47	43.714
507.82	43.263
508.16	43.057
508.51	42.658
508.85	42.754
509.19	42.177
509.54	43.499
509.88	43.564
510.23	43.816
510.57	43.915
510.92	43.502
511.26	42.743
511.61	43.197
511.95	42.672
512.30	43.705
512.64	42.738
512.98	44.224
513.33	42.998
513.67	44.054
514.02	42.617
514.36	43.767
514.70	43.463
515.05	43.625
515.39	43.887
515.74	44.910
516.08	43.919
516.42	43.229
516.77	44.945
517.11	43.936
517.46	45.694
517.80	46.390
518.14	44.384
518.49	44.650
518.83	44.154
519.17	45.115
519.52	44.592
519.86	46.057
520.20	45.049
520.55	44.923
520.89	45.523
521.23	44.444
521.58	45.831
521.92	45.662
522.26	46.222
522.61	45.311
522.95	44.097
523.29	45.580
523.64	45.846
523.98	47.167
524.32	45.317
524.66	45.714
525.01	45.922
525.35	46.198
525.69	45.673
526.04	45.692
526.38	46.658
526.72	45.019
527.06	47.461
527.41	46.997
527.75	45.083
528.09	47.386
528.43	46.754
528.78	45.352
529.12	47.375
529.46	46.843
529.80	45.384
530.15	46.877
530.49	46.636
530.83	47.544
531.17	46.330
531.51	46.149
531.86	46.346
532.20	46.154
532.54	46.390
532.88	47.036
533.22	47.393
533.57	46.671
533.91	45.131
534.25	45.569
534.59	45.784
534.93	45.551
535.27	46.507
535.62	47.315
535.96	45.701
536.30	45.288
536.64	46.348
536.98	48.023
537.32	45.543
537.66	45.350
538.01	46.667
538.35	46.081
538.69	46.524
539.03	46.649
539.37	46.707
539.71	45.897
540.05	44.825
540.39	46.537
540.73	46.372
541.07	47.473
541.42	45.847
541.76	43.654
542.10	46.117
542.44	46.169
542.78	46.811
543.12	46.096
543.46	44.658
543.80	45.686
544.14	46.474
544.48	46.522
544.82	47.226
545.16	47.284
545.50	45.760
545.84	46.523
546.18	48.405
546.52	46.302
546.86	47.151
547.20	46.906
547.54	45.110
547.88	46.450
548.22	45.806
548.56	47.829
548.90	46.900
549.24	47.582
549.58	47.848
549.92	47.703
550.26	46.676
550.60	47.368
550.94	46.423
551.28	47.479
551.62	47.046
551.96	46.454
552.30	47.247
552.64	47.080
552.98	46.531
553.32	47.186
553.66	48.378
554.00	48.045
554.34	47.726
554.68	47.515
555.02	46.599
555.36	47.592
555.69	46.920
556.03	47.228
556.37	46.302
556.71	45.956
557.05	47.820
557.39	47.365
557.73	48.359
558.07	48.531
558.41	46.971
558.75	47.757
559.08	47.393
559.42	49.464
559.76	48.390
560.10	47.651
560.44	48.338
560.78	45.790
561.12	46.239
561.45	47.808
561.79	48.153
562.13	46.213
562.47	47.199
562.81	46.818
563.15	47.866
563.48	47.961
563.82	47.194
564.16	46.518
564.50	46.505
564.84	47.156
565.17	47.016
565.51	47.327
565.85	48.141
566.19	47.101
566.52	46.380
566.86	45.828
567.20	47.276
567.54	47.608
567.88	45.059
568.21	46.924
568.55	45.334
568.89	44.583
569.23	43.915
569.56	43.211
569.90	44.178
570.24	43.480
570.57	42.847
570.91	42.809
571.25	42.931
571.59	42.523
571.92	41.994
572.26	42.451
572.60	41.948
572.93	41.902
573.27	41.951
573.61	41.296
573.95	42.150
574.28	40.704
574.62	41.256
574.96	40.429
575.29	41.260
575.63	41.465
575.97	41.370
576.30	41.189
576.64	41.697
576.98	40.756
577.31	41.025
577.65	40.975
577.98	40.170
578.32	40.707
578.66	41.565
578.99	41.533
579.33	42.175
579.67	41.491
580.00	41.543
580.34	41.341
580.67	41.064
581.01	40.197
581.35	40.816
581.68	40.305
582.02	41.124
582.35	40.623
582.69	41.437
583.02	41.490
583.36	41.206
583.70	41.270
584.03	41.595
584.37	41.678
584.70	41.634
585.04	41.544
585.37	40.931
585.71	41.122
586.04	42.047
586.38	41.513
586.72	42.080
587.05	41.886
587.39	41.983
587.72	42.235
588.06	42.228
588.39	42.068
588.73	42.396
589.06	43.350
589.40	43.834
589.73	43.201
590.07	42.607
590.40	42.435
590.73	42.783
591.07	43.033
591.40	44.541
591.74	44.787
592.07	44.279
592.41	43.864
592.74	43.543
593.08	43.220
593.41	42.697
593.75	42.499
594.08	43.422
594.41	43.993
594.75	43.941
595.08	43.346
595.42	43.316
595.75	43.403
596.09	43.267
596.42	44.517
596.75	44.071
597.09	44.880
597.42	43.300
597.75	44.287
598.09	44.465
598.42	44.233
598.76	43.729
599.09	43.528
599.42	43.714
599.76	43.752
600.09	43.855
600.42	43.600
600.76	43.503
601.09	44.056
601.42	43.886
601.76	44.276
602.09	43.599
602.42	43.374
602.76	44.080
603.09	43.871
603.42	43.997
603.76	43.638
604.09	44.253
604.42	43.006
604.76	43.916
605.09	44.620
605.42	43.307
605.75	43.596
606.09	43.670
606.42	42.857
606.75	43.881
607.09	44.243
607.42	44.190
607.75	44.238
608.08	44.374
608.42	44.702
608.75	44.439
609.08	44.910
609.41	45.640
609.75	43.735
610.08	45.000
610.41	45.253
610.74	44.874
611.07	46.095
611.41	44.276
611.74	45.604
612.07	46.133
612.40	44.616
612.73	45.450
613.07	46.285
613.40	46.086
613.73	44.741
614.06	45.195
614.39	46.449
614.72	45.363
615.06	44.620
615.39	44.710
615.72	45.301
616.05	45.831
616.38	46.605
616.71	45.646
617.05	46.924
617.38	47.183
617.71	46.130
618.04	46.646
618.37	47.673
618.70	48.175
619.03	47.732
619.36	48.062
619.69	48.959
620.03	46.419
620.36	47.750
620.69	48.098
621.02	48.630
621.35	48.145
621.68	49.508
622.01	48.301
622.34	48.602
622.67	47.344
623.00	46.825
623.33	49.254
623.66	49.040
623.99	47.895
624.32	48.810
624.65	49.007
624.99	48.320
625.32	47.305
625.65	49.728
625.98	47.027
626.31	48.858
626.64	50.042
626.97	50.771
627.30	49.106
627.63	48.791
627.96	50.044
628.29	49.816
628.62	49.952
628.95	52.264
629.28	50.376
629.61	49.558
629.94	49.905
630.26	51.392
630.59	52.362
630.92	51.752
631.25	51.714
631.58	52.063
631.91	52.234
632.24	53.000
632.57	52.556
632.90	52.989
633.23	55.257
633.56	51.696
633.89	53.420
634.22	52.538
634.55	52.885
634.88	53.325
635.20	54.557
635.53	54.453
635.86	52.771
636.19	54.212
636.52	52.569
636.85	51.023
637.18	51.875
637.51	56.010
637.83	54.860
638.16	54.737
638.49	55.586
638.82	53.797
639.15	54.864
639.48	52.918
639.81	56.985
640.13	55.811
640.46	53.846
640.79	56.863
641.12	54.020
641.45	54.232
641.77	53.743
642.10	55.136
642.43	55.387
642.76	55.433
643.09	56.190
643.41	57.619
643.74	56.916
644.07	56.474
644.40	56.240
644.73	55.116
645.05	57.095
645.38	55.629
645.71	59.450
646.04	56.134
646.36	55.497
646.69	55.882
647.02	59.025
647.35	56.137
647.67	58.212
648.00	58.524
648.33	58.853
648.66	54.032
648.98	56.210
649.31	54.769
649.64	55.781
649.96	56.044
650.29	55.410
650.62	57.143
650.94	56.324
651.27	57.192
651.60	56.574
651.92	56.507
652.25	52.755
652.58	54.174
652.90	53.291
653.23	54.677
653.56	58.528
653.88	55.738
654.21	56.544
654.54	56.146
654.86	54.254
655.19	52.436
655.52	48.299
655.84	42.530
656.17	44.380
656.49	60.205
656.82	62.378
657.15	47.327
657.47	35.220
657.80	26.886
658.13	30.929
658.45	42.041
658.78	42.135
659.10	41.594
659.43	41.886
659.75	43.548
660.08	44.583
660.41	43.828
660.73	49.615
661.06	55.217
661.38	58.929
661.71	54.111
662.03	58.669
662.36	58.422
662.68	58.650
663.01	60.510
663.33	60.091
663.66	60.300
663.98	57.812
664.31	58.166
664.63	62.832
664.96	57.050
665.28	58.134
665.61	54.123
665.93	56.790
666.26	59.109
666.58	58.628
666.91	57.461
667.23	57.237
667.56	58.050
667.88	59.276
668.21	59.908
668.53	57.944
668.86	58.661
669.18	58.447
669.50	60.047
669.83	58.881
670.15	57.623
670.48	56.542
670.80	56.264
671.13	54.628
671.45	56.532
671.77	57.388
672.10	55.030
672.42	55.535
672.75	53.818
673.07	50.450
673.39	54.827
673.72	56.890
674.04	55.414
674.37	55.052
674.69	57.992
675.01	56.596
675.34	54.881
675.66	58.099
675.98	55.727
676.31	57.692
676.63	60.690
676.95	57.301
677.28	58.701
677.60	58.597
677.92	58.370
678.25	57.112
678.57	56.379
678.89	56.394
679.22	55.765
679.54	56.410
679.86	55.000
680.18	57.034
680.51	52.328
680.83	55.429
681.15	55.299
681.48	53.753
681.80	55.847
682.12	53.521
682.44	52.849
682.77	54.545
683.09	56.184
683.41	55.752
683.73	55.936
684.06	58.280
684.38	54.184
684.70	56.584
685.02	56.102
685.34	55.166
685.67	52.083
685.99	52.363
686.31	54.039
686.63	51.241
686.96	53.604
687.28	53.950
687.60	54.297
687.92	48.638
688.24	53.937
688.56	52.906
688.89	53.632
689.21	54.923
689.53	56.322
689.85	54.788
690.17	54.260
690.49	59.122
690.82	54.940
691.14	54.481
691.46	55.654
691.78	55.727
692.10	56.144
692.42	53.778
692.74	57.082
693.06	54.607
693.39	53.244
693.71	54.402
694.03	57.019
694.35	56.885
694.67	56.265
694.99	53.453
695.31	57.143
695.63	52.806
695.95	56.824
696.27	56.110
696.59	56.417
696.91	60.674
697.23	55.990
697.56	51.923
697.88	50.676
698.20	51.178
698.52	50.224
698.84	55.825
699.16	55.238
699.48	54.500
699.80	53.885
700.12	55.164
700.44	55.587
700.76	58.309
701.08	59.012
701.40	54.985
701.72	56.173
702.04	61.538
702.36	56.325
702.68	55.988
703.00	57.391
703.32	55.014
703.64	62.353
703.96	57.849
704.28	57.988
704.60	54.114
704.91	53.651
705.23	58.252
705.55	56.757
705.87	61.092
706.19	55.903
706.51	60.764
706.83	60.656
707.15	57.325
707.47	54.821
707.79	53.608
708.11	48.601
708.43	50.125
708.74	51.948
709.06	51.811
709.38	54.023
709.70	55.625
710.02	60.429
710.34	55.116
710.66	53.333
710.98	57.729
711.29	54.516
711.61	54.313
711.93	53.770
712.25	53.156
712.57	55.749
712.89	62.230
713.20	53.608
713.52	57.090
713.84	52.669
714.16	55.082
714.48	53.333
714.80	55.077
715.11	51.297
715.43	56.325
715.75	52.336
716.07	51.803
716.39	55.853
716.70	56.446
717.02	55.926
717.34	57.252
717.66	60.581
717.97	53.279
718.29	59.244
718.61	61.508
718.93	54.839
719.24	57.353
719.56	51.321
719.88	49.455
720.20	55.056
720.51	55.263
720.83	58.233
721.15	54.508
721.46	56.863
721.78	52.107
722.10	53.600
722.42	54.132
722.73	55.777
723.05	61.044
723.37	54.510
723.68	53.036
724.00	58.130
724.32	51.029
724.63	55.602
724.95	56.198
725.27	51.754
725.58	56.034
725.90	50.000
726.22	55.720
726.53	57.795
726.85	50.588
727.16	55.263
727.48	50.769
727.80	51.639
728.11	55.462
728.43	54.132
728.74	50.391
729.06	56.439
729.38	52.918
729.69	50.787
730.01	55.118
730.32	52.590
730.64	56.044
730.96	54.851
731.27	52.500
731.59	50.482
731.90	45.706
732.22	49.693
732.53	57.616
732.85	48.993
733.16	52.536
733.48	43.206
733.80	51.957
734.11	52.414
734.43	51.020
734.74	54.599
735.06	51.411
735.37	50.459
735.69	50.968
736.00	44.108
736.32	51.656
736.63	51.034
736.95	49.275
737.26	48.013
737.58	50.000
737.89	54.480
738.21	48.872
738.52	49.615
738.83	52.734
739.15	52.564
739.46	54.839
739.78	50.000
740.09	48.601
740.41	49.650
740.72	51.460
741.04	53.175
741.35	49.784
741.66	56.019
741.98	50.000
742.29	50.704
742.61	55.080
742.92	57.009
743.23	46.053
743.55	52.703
743.86	56.889
744.18	53.333
744.49	57.635
744.80	56.853
745.12	58.763
745.43	54.271
745.74	51.942
746.06	54.634
746.37	52.863
746.68	57.214
747.00	57.068
747.31	49.038
747.62	47.465
747.94	51.965
748.25	57.209
748.56	53.333
748.88	47.826
749.19	53.991
749.50	52.941
749.82	52.444
750.13	54.626
750.44	49.187
750.75	56.800
751.07	49.643
751.38	47.232
751.69	45.038
752.01	43.846
752.32	49.805
752.63	49.231
752.94	49.206
753.26	52.174
753.57	55.357
753.88	50.431
754.19	50.207
754.51	50.391
754.82	50.988
755.13	52.675
755.44	49.587
755.75	56.790
756.07	47.390
756.38	51.562
756.69	48.014
757.00	47.038
757.31	52.349
757.63	54.206
757.94	46.821
758.25	46.512
758.56	50.404
758.87	44.602
759.18	43.000
759.50	45.907
759.81	45.255
760.12	46.959
760.43	47.896
760.74	48.750
761.05	49.719
761.36	47.904
761.67	47.929
761.99	46.452
762.30	46.739
762.61	49.811
762.92	47.982
763.23	46.919
763.54	47.111
763.85	54.008
764.16	48.163
764.47	52.542
764.78	50.936
765.10	50.719
765.41	42.581
765.72	44.969
766.03	44.170
766.34	47.368
766.65	48.988
766.96	48.000
767.27	50.521
767.58	51.163
767.89	52.258
768.20	48.466
768.51	44.809
768.82	50.270
769.13	50.500
769.44	44.298
769.75	48.485
770.06	51.376
770.37	53.052
770.68	54.167
770.99	48.020
771.30	48.544
771.61	39.352
771.92	48.052
772.23	50.000
772.54	45.745
772.85	42.604
773.16	53.049
773.47	56.627
773.78	52.198
774.09	52.667
774.39	43.210
774.70	47.651
775.01	39.855
775.32	50.000
775.63	36.364
775.94	47.368
776.25	54.286
776.56	42.623
776.87	50.442
777.18	54.867
777.48	40.000
777.79	42.609
778.10	39.450
778.41	44.915
778.72	46.281
779.03	49.254
779.34	50.376
779.65	50.327
779.95	54.348
780.26	37.415
780.57	39.655
780.88	47.222
781.19	44.444
781.50	40.000
781.80	44.444
782.11	44.872
782.42	34.337
782.73	41.606
783.04	45.270
783.34	50.758
783.65	47.287
783.96	53.659
784.27	47.009
784.57	33.333
784.88	43.902
785.19	45.614
785.50	23.711
785.81	45.714
786.11	43.137
786.42	34.545
786.73	37.838
787.04	51.485
787.34	46.667
787.65	40.000
787.96	45.098
788.26	44.144
788.57	54.032
788.88	36.719
789.19	46.154
789.49	37.815
789.80	41.880
790.11	40.708
790.41	48.485
790.72	38.679
791.03	50.000
791.33	42.105
791.64	43.011
791.95	40.000
792.25	47.143
792.56	39.024
792.87	39.796
793.17	38.158
793.48	39.189
793.79	43.662
794.09	43.038
794.40	44.681
794.70	50.467
795.01	35.965
795.32	40.909
795.62	33.036
795.93	47.423
796.23	42.857
796.54	47.368
796.85	57.534
797.15	18.056
797.46	35.616
797.76	32.394
798.07	40.000
798.37	51.471
798.68	42.857
798.99	35.714
799.29	46.053
799.60	31.667
799.90	34.722
800.21	42.188
800.51	36.508
800.82	36.066
801.12	45.614
801.43	49.296
801.73	22.034
802.04	40.984
802.34	32.727
802.65	30.769
802.95	31.481
803.26	37.500
803.56	46.154
803.87	36.842
804.17	30.645
804.48	49.231
804.78	38.462
805.09	46.512
805.39	31.250
805.70	32.075
806.00	43.860
806.30	36.486
806.61	48.529
806.91	34.568
807.22	34.667
807.52	47.761
807.83	30.645
808.13	20.635
808.43	21.818
808.74	48.485
809.04	45.283
809.35	34.247
809.65	49.123
809.95	32.353
810.26	41.176
810.56	24.000
810.86	36.735
811.17	20.000
811.47	26.923
811.77	6.452
812.08	0.000
812.38	28.571
812.69	13.043
812.99	51.613
813.29	21.429
813.59	14.815
813.90	23.404
814.20	13.953
814.50	16.667
814.81	30.000
815.11	0.000
815.41	36.667
815.72	28.571
816.02	25.000
816.32	69.231
816.62	35.135
816.93	11.765
817.23	23.913
817.53	38.235
817.84	29.412
818.14	0.000
818.44	-17.241
818.74	6.452
819.04	3.704
819.35	43.333
819.65	16.000
819.95	13.333
820.25	12.000
820.56	23.684
820.86	25.000
821.16	29.787
821.46	36.207
821.76	48.718
822.07	20.000
822.37	37.209
822.67	-3.333
822.97	8.108
823.27	37.838
823.57	68.000
823.88	21.622
824.18	19.048
824.48	7.692
824.78	-61.538
825.08	34.783
825.38	20.833
825.69	-12.500
825.99	20.000
826.29	-8.108
826.59	23.529
826.89	108.000
827.19	25.714
827.49	42.105
827.79	15.625
828.09	-3.333
828.39	21.739
828.70	-13.793
829.00	31.034
829.30	19.444
829.60	28.125
829.90	27.778
830.20	7.692
830.50	9.524
830.80	-14.286
831.10	33.333
831.40	9.524
831.70	0.000
832.00	95.833
832.30	-36.842
832.60	-18.750
832.90	-83.333
833.20	-88.235
833.50	-86.667
833.80	-6.667
834.10	-15.000
834.40	29.167
834.70	16.667
835.00	30.769
835.30	-75.000
835.60	13.793
835.90	-22.222
836.20	-54.545
836.50	-75.000
836.80	-5.714
837.10	60.000
837.40	0.000
837.70	-163.636
838.00	-8.333
838.30	-37.500
838.60	42.857
838.90	40.000
839.19	0.000
839.49	17.391
839.79	5.556
840.09	-13.043
840.39	-18.182
840.69	50.000
840.99	10.526
841.29	6.250
841.59	-64.286
841.88	-22.222
842.18	0.000
842.48	-47.059
842.78	10.345
843.08	21.429
843.38	61.538
843.68	-177.778
843.97	-15.385
844.27	-81.818
844.57	-160.000
844.87	48.000
845.17	-60.000
845.47	-85.714
845.76	-144.444
846.06	0.000
846.36	-275.000
846.66	-50.000
846.96	-42.105
847.25	12.500
847.55	-83.333
847.85	26.667
848.15	-60.000
848.44	53.846
848.74	-21.053
849.04	366.667
849.34	-11.111
849.63	-47.368
849.93	0.000
850.23	-55.000
850.53	33.333
850.82	-40.000
851.12	-36.842
851.42	-650.000
851.71	21.429
852.01	-33.333
852.31	-29.412
852.61	13.333
852.90	-47.619
853.20	-100.000
853.50	5.556
853.79	-42.105
854.09	-46.667
854.39	-17.857
854.68	17.391
854.98	-158.333
855.28	-10.345
855.57	-6.250
855.87	-20.000
856.17	6.667
856.46	20.690
856.76	-13.333
857.05	-58.824
857.35	-23.077
857.65	-36.364
857.94	-11.111
858.24	-42.857
858.53	-35.714
858.83	-108.333
859.13	-166.667
859.42	33.333
859.72	-212.500
860.01	-533.333
860.31	37.500
860.60	-400.000
860.90	-77.778
861.20	-100.000
861.49	-271.429
861.79	-94.118
862.08	-350.000
862.38	-75.000
862.67	-130.769
862.97	-17.647
863.26	5.000
863.56	-41.176
863.85	133.333
864.15	-110.000
864.44	-7.692
864.74	-30.000
865.03	-62.500
865.33	-100.000
865.62	-70.588
865.92	-550.000
866.21	-78.571
866.51	-108.333
866.80	-800.000
867.10	-600.000
867.39	-70.588
867.69	34.783
867.98	-28.571
868.27	-220.000
868.57	-56.250
868.86	-209.091
869.16	5.882
869.45	-150.000
869.75	-42.857
870.04	500.000
870.33	-8.333
870.63	-220.000
870.92	-55.556
871.22	-83.333
871.51	-127.273
871.80	41.667
872.10	-90.000
>>>>>End Processed Spectral Data<<<<<
