SpectraSuite Data File
++++++++++++++++++++++++++++++++++++
Date: Sat May 16 11:42:04 PDT 2015
User: schluterlab
Dark Spectrum Present: Yes
Reference Spectrum Present: Yes
Number of Sampled Component Spectra: 1
Spectrometers: USB2E3373
Integration Time (usec): 3000 (USB2E3373)
Spectra Averaged: 3 (USB2E3373)
Boxcar Smoothing: 0 (USB2E3373)
Correct for Electrical Dark: No (USB2E3373)
Strobe/Lamp Enabled: No (USB2E3373)
Correct for Detector Non-linearity: No (USB2E3373)
Correct for Stray Light: No (USB2E3373)
Number of Pixels in Processed Spectrum: 2048
>>>>>Begin Processed Spectral Data<<<<<
178.53	0.000
178.91	100.000
179.29	800.000
179.67	-1400.000
180.04	-84.615
180.42	1000.000
180.80	650.000
181.18	400.000
181.56	50.000
181.94	200.000
182.31	625.000
182.69	-76.923
183.07	-700.000
183.45	1000.000
183.83	533.333
184.20	-157.143
184.58	-162.500
184.96	-525.000
185.34	93.750
185.72	-500.000
186.09	266.667
186.47	-250.000
186.85	-137.500
187.23	-50.000
187.61	-350.000
187.98	-200.000
188.36	-125.000
188.74	-237.500
189.12	3000.000
189.49	185.714
189.87	-58.333
190.25	450.000
190.63	-107.143
191.00	-300.000
191.38	380.000
191.76	-60.000
192.14	540.000
192.51	-240.000
192.89	-433.333
193.27	0.000
193.65	-122.222
194.02	-257.143
194.40	700.000
194.78	-110.000
195.15	-1200.000
195.53	-136.364
195.91	-266.667
196.29	340.000
196.66	-400.000
197.04	2200.000
197.42	-150.000
197.79	-33.333
198.17	-666.667
198.55	-1000.000
198.92	-1600.000
199.30	312.500
199.68	-800.000
200.05	-133.333
200.43	-255.556
200.81	-1400.000
201.18	-116.667
201.56	200.000
201.94	-66.667
202.31	9.091
202.69	20.000
203.07	-120.000
203.44	400.000
203.82	-383.333
204.19	-400.000
204.57	-450.000
204.95	-1100.000
205.32	-12.500
205.70	1400.000
206.08	-2100.000
206.45	-22.222
206.83	-750.000
207.20	-850.000
207.58	-900.000
207.96	-766.667
208.33	-162.500
208.71	-88.889
209.08	290.000
209.46	-271.429
209.84	1000.000
210.21	0.000
210.59	35.000
210.96	1300.000
211.34	-333.333
211.71	-466.667
212.09	600.000
212.46	1150.000
212.84	-2100.000
213.22	466.667
213.59	133.333
213.97	-133.333
214.34	250.000
214.72	-130.000
215.09	-233.333
215.47	-133.333
215.84	-190.000
216.22	-70.000
216.59	-33.333
216.97	-450.000
217.34	550.000
217.72	-142.857
218.09	-433.333
218.47	-357.143
218.84	214.286
219.22	-71.429
219.59	0.000
219.97	185.714
220.34	350.000
220.72	150.000
221.09	-84.615
221.47	0.000
221.84	400.000
222.22	-800.000
222.59	2400.000
222.97	-175.000
223.34	-500.000
223.72	-533.333
224.09	-128.571
224.46	-125.000
224.84	21.429
225.21	-100.000
225.59	-36.364
225.96	-112.500
226.34	-200.000
226.71	-188.889
227.08	10.000
227.46	1800.000
227.83	-242.857
228.21	-250.000
228.58	700.000
228.95	-37.500
229.33	-1800.000
229.70	-260.000
230.08	-1100.000
230.45	-83.333
230.82	-250.000
231.20	-1100.000
231.57	-900.000
231.95	900.000
232.32	-9.524
232.69	-144.444
233.07	-285.714
233.44	-1300.000
233.81	-73.333
234.19	-144.444
234.56	-12.500
234.93	0.000
235.31	-285.714
235.68	-92.857
236.05	-41.176
236.43	-68.182
236.80	-38.710
237.17	0.000
237.55	-47.619
237.92	-77.273
238.29	-5.714
238.67	11.765
239.04	-25.000
239.41	-41.935
239.79	-43.590
240.16	-16.667
240.53	-14.545
240.91	28.205
241.28	3.636
241.65	29.231
242.02	6.557
242.40	-1.639
242.77	-1.515
243.14	5.085
243.51	-2.857
243.89	8.861
244.26	10.112
244.63	12.632
245.00	16.842
245.38	18.644
245.75	21.239
246.12	23.200
246.49	21.260
246.87	18.699
247.24	21.186
247.61	12.712
247.98	7.746
248.36	15.385
248.73	24.051
249.10	19.745
249.47	16.374
249.84	16.477
250.22	11.905
250.59	21.469
250.96	17.277
251.33	16.588
251.70	17.308
252.08	22.749
252.45	21.801
252.82	17.619
253.19	18.298
253.56	22.177
253.94	21.519
254.31	21.459
254.68	19.106
255.05	20.161
255.42	22.619
255.79	18.996
256.16	23.922
256.54	25.000
256.91	23.106
257.28	21.978
257.65	19.858
258.02	25.472
258.39	19.732
258.76	19.257
259.14	20.370
259.51	24.918
259.88	20.427
260.25	23.913
260.62	17.363
260.99	19.288
261.36	22.256
261.73	24.277
262.10	24.722
262.47	21.652
262.85	26.571
263.22	20.630
263.59	16.615
263.96	23.478
264.33	24.661
264.70	21.823
265.07	22.253
265.44	20.930
265.81	21.964
266.18	20.506
266.55	24.020
266.92	22.670
267.29	21.550
267.66	23.951
268.03	25.845
268.40	20.892
268.77	25.542
269.14	21.114
269.51	23.678
269.88	20.413
270.25	21.911
270.62	22.654
270.99	22.523
271.36	24.009
271.73	23.767
272.10	22.883
272.47	22.667
272.84	26.667
273.21	25.459
273.58	20.659
273.95	22.807
274.32	23.756
274.69	22.538
275.06	23.926
275.43	21.429
275.80	23.218
276.17	24.686
276.54	21.385
276.91	23.457
277.28	25.355
277.65	23.140
278.02	21.712
278.39	23.379
278.76	20.518
279.13	21.937
279.50	24.453
279.87	20.719
280.23	26.518
280.60	24.056
280.97	21.942
281.34	23.598
281.71	23.269
282.08	24.395
282.45	22.403
282.82	24.419
283.19	22.182
283.56	24.176
283.92	24.912
284.29	21.747
284.66	22.662
285.03	22.460
285.40	24.170
285.77	21.754
286.14	22.202
286.51	22.558
286.87	24.501
287.24	22.526
287.61	21.818
287.98	20.277
288.35	19.504
288.72	19.864
289.08	19.153
289.45	22.054
289.82	19.723
290.19	22.332
290.56	20.000
290.93	21.145
291.29	22.204
291.66	19.968
292.03	20.879
292.40	19.880
292.77	20.497
293.13	20.650
293.50	20.357
293.87	20.552
294.24	18.703
294.60	17.727
294.97	20.789
295.34	17.630
295.71	18.601
296.08	16.743
296.44	16.166
296.81	20.085
297.18	19.437
297.55	19.915
297.91	18.410
298.28	16.164
298.65	17.294
299.02	19.786
299.38	17.914
299.75	17.799
300.12	17.692
300.48	17.008
300.85	16.383
301.22	16.688
301.59	15.605
301.95	17.758
302.32	15.124
302.69	16.157
303.05	15.018
303.42	15.625
303.79	16.507
304.15	17.180
304.52	16.803
304.89	17.001
305.25	15.263
305.62	16.216
305.99	16.490
306.35	17.425
306.72	16.629
307.09	17.821
307.45	16.232
307.82	15.531
308.19	15.884
308.55	15.795
308.92	14.823
309.29	16.541
309.65	15.801
310.02	15.227
310.38	14.703
310.75	15.164
311.12	15.806
311.48	14.196
311.85	16.066
312.22	15.654
312.58	15.972
312.95	15.698
313.31	16.384
313.68	16.583
314.05	16.518
314.41	14.386
314.78	14.186
315.14	15.795
315.51	15.805
315.87	15.973
316.24	15.549
316.61	14.875
316.97	15.025
317.34	15.800
317.70	14.286
318.07	15.951
318.43	15.262
318.80	17.183
319.16	14.259
319.53	16.071
319.89	14.017
320.26	15.686
320.62	15.481
320.99	14.925
321.35	13.399
321.72	14.432
322.08	16.123
322.45	13.960
322.81	14.217
323.18	15.658
323.54	15.712
323.91	15.107
324.27	15.779
324.64	15.539
325.00	14.572
325.37	16.380
325.73	16.273
326.10	13.552
326.46	14.886
326.83	16.255
327.19	15.513
327.56	14.991
327.92	14.698
328.29	15.325
328.65	13.091
329.01	14.664
329.38	14.808
329.74	16.026
330.11	14.778
330.47	14.986
330.84	16.132
331.20	14.531
331.56	13.947
331.93	15.275
332.29	16.164
332.66	15.452
333.02	14.751
333.38	15.233
333.75	15.494
334.11	14.667
334.48	15.004
334.84	15.748
335.20	15.514
335.57	14.440
335.93	15.488
336.29	14.615
336.66	14.626
337.02	15.946
337.38	14.973
337.75	14.838
338.11	14.043
338.47	15.214
338.84	14.882
339.20	14.236
339.56	16.132
339.93	15.520
340.29	13.995
340.65	14.598
341.02	14.418
341.38	15.670
341.74	14.056
342.11	14.505
342.47	14.335
342.83	15.029
343.20	14.774
343.56	13.061
343.92	16.110
344.28	15.980
344.65	15.264
345.01	14.286
345.37	15.282
345.73	14.403
346.10	13.737
346.46	13.566
346.82	14.595
347.19	14.133
347.55	14.607
347.91	14.409
348.27	14.002
348.63	14.378
349.00	14.638
349.36	12.646
349.72	15.287
350.08	14.515
350.45	14.421
350.81	14.013
351.17	13.023
351.53	14.002
351.89	14.632
352.26	14.264
352.62	15.131
352.98	14.161
353.34	14.149
353.70	13.436
354.07	14.005
354.43	14.783
354.79	14.342
355.15	13.738
355.51	13.984
355.87	13.518
356.24	13.503
356.60	15.310
356.96	14.396
357.32	13.777
357.68	13.870
358.04	14.011
358.40	13.070
358.77	14.142
359.13	14.155
359.49	14.286
359.85	13.262
360.21	14.003
360.57	13.931
360.93	15.111
361.29	13.827
361.66	13.643
362.02	12.796
362.38	14.820
362.74	12.967
363.10	13.343
363.46	14.103
363.82	13.338
364.18	14.978
364.54	14.010
364.90	13.976
365.26	13.909
365.62	13.828
365.98	14.367
366.35	13.380
366.71	12.685
367.07	13.691
367.43	13.933
367.79	14.021
368.15	12.731
368.51	14.056
368.87	14.011
369.23	13.544
369.59	13.125
369.95	14.165
370.31	13.924
370.67	13.666
371.03	13.630
371.39	13.437
371.75	13.805
372.11	13.271
372.47	13.666
372.83	13.491
373.19	13.286
373.55	14.497
373.91	13.158
374.27	13.621
374.63	13.527
374.99	12.656
375.35	13.930
375.71	14.450
376.07	12.868
376.42	13.377
376.78	13.987
377.14	13.559
377.50	14.442
377.86	12.874
378.22	13.819
378.58	13.465
378.94	12.762
379.30	13.894
379.66	13.115
380.02	13.250
380.38	12.931
380.74	12.485
381.09	14.118
381.45	13.842
381.81	12.825
382.17	13.221
382.53	13.009
382.89	13.816
383.25	13.064
383.61	14.033
383.97	12.921
384.32	14.080
384.68	14.329
385.04	12.923
385.40	13.755
385.76	14.268
386.12	13.741
386.48	14.109
386.83	13.436
387.19	14.047
387.55	13.265
387.91	13.930
388.27	12.304
388.62	13.221
388.98	13.204
389.34	13.892
389.70	13.276
390.06	13.176
390.42	13.782
390.77	13.249
391.13	14.348
391.49	13.163
391.85	13.217
392.20	13.350
392.56	13.439
392.92	13.120
393.28	13.777
393.64	13.349
393.99	12.985
394.35	13.260
394.71	13.465
395.07	14.062
395.42	13.409
395.78	13.011
396.14	13.583
396.50	13.945
396.85	13.757
397.21	13.730
397.57	13.495
397.92	13.407
398.28	13.667
398.64	13.682
399.00	13.483
399.35	13.360
399.71	13.821
400.07	13.731
400.42	13.078
400.78	12.940
401.14	12.934
401.49	12.854
401.85	13.667
402.21	13.230
402.57	13.046
402.92	13.342
403.28	13.358
403.63	12.762
403.99	13.176
404.35	13.708
404.70	14.277
405.06	14.014
405.42	13.407
405.77	13.575
406.13	13.685
406.49	13.062
406.84	12.897
407.20	14.782
407.55	13.870
407.91	13.083
408.27	14.216
408.62	13.289
408.98	13.766
409.34	14.260
409.69	13.296
410.05	13.523
410.40	13.243
410.76	14.049
411.11	13.778
411.47	13.427
411.83	13.631
412.18	12.686
412.54	13.362
412.89	14.277
413.25	12.987
413.60	13.730
413.96	12.754
414.31	13.272
414.67	12.698
415.03	13.260
415.38	13.923
415.74	13.982
416.09	13.619
416.45	12.765
416.80	13.719
417.16	13.090
417.51	14.314
417.87	13.204
418.22	13.085
418.58	14.056
418.93	14.102
419.29	12.986
419.64	13.254
420.00	14.095
420.35	13.601
420.71	12.485
421.06	13.905
421.42	13.583
421.77	13.456
422.12	13.430
422.48	13.362
422.83	14.123
423.19	13.196
423.54	13.141
423.90	13.360
424.25	12.613
424.61	13.631
424.96	14.511
425.31	13.304
425.67	14.097
426.02	12.851
426.38	14.277
426.73	12.975
427.09	12.929
427.44	13.977
427.79	12.965
428.15	13.525
428.50	14.370
428.85	13.369
429.21	13.282
429.56	13.542
429.92	14.028
430.27	13.360
430.62	13.741
430.98	13.382
431.33	13.607
431.68	13.673
432.04	13.430
432.39	13.618
432.74	14.508
433.10	13.675
433.45	12.608
433.80	13.494
434.16	13.272
434.51	12.877
434.86	14.118
435.22	13.252
435.57	13.280
435.92	14.244
436.28	13.650
436.63	13.228
436.98	13.116
437.34	13.290
437.69	14.177
438.04	12.876
438.39	13.418
438.75	12.980
439.10	14.270
439.45	12.553
439.81	13.976
440.16	13.856
440.51	13.235
440.86	13.476
441.22	13.378
441.57	12.947
441.92	13.760
442.27	13.312
442.63	14.270
442.98	12.472
443.33	12.850
443.68	12.923
444.03	13.458
444.39	13.314
444.74	14.207
445.09	13.542
445.44	13.112
445.79	12.341
446.15	14.020
446.50	13.065
446.85	14.315
447.20	13.892
447.55	13.812
447.91	13.532
448.26	13.855
448.61	13.469
448.96	14.678
449.31	13.529
449.66	14.539
450.02	13.186
450.37	13.681
450.72	13.333
451.07	14.016
451.42	13.631
451.77	13.764
452.12	13.588
452.47	13.917
452.83	12.813
453.18	13.852
453.53	13.246
453.88	13.935
454.23	13.664
454.58	14.543
454.93	13.728
455.28	14.022
455.63	13.329
455.98	13.735
456.34	13.088
456.69	13.946
457.04	13.645
457.39	13.337
457.74	13.290
458.09	14.211
458.44	13.857
458.79	13.565
459.14	13.406
459.49	14.032
459.84	14.221
460.19	13.842
460.54	13.067
460.89	13.509
461.24	13.175
461.59	13.775
461.94	14.640
462.29	13.818
462.64	13.900
462.99	13.722
463.34	13.842
463.69	13.359
464.04	13.240
464.39	12.843
464.74	13.771
465.09	13.049
465.44	13.536
465.79	13.706
466.14	13.176
466.49	12.896
466.84	13.445
467.19	13.716
467.54	12.342
467.89	13.872
468.24	14.192
468.59	13.367
468.94	13.826
469.29	12.995
469.64	14.420
469.99	14.585
470.34	13.293
470.68	13.590
471.03	14.866
471.38	13.472
471.73	13.427
472.08	13.052
472.43	13.514
472.78	13.600
473.13	13.121
473.48	13.529
473.83	13.400
474.17	13.376
474.52	15.026
474.87	13.695
475.22	13.569
475.57	13.333
475.92	13.877
476.27	13.829
476.61	13.859
476.96	13.415
477.31	13.509
477.66	13.614
478.01	14.533
478.36	13.724
478.70	13.775
479.05	14.332
479.40	13.212
479.75	13.965
480.10	13.393
480.45	13.540
480.79	13.771
481.14	13.297
481.49	14.182
481.84	13.500
482.19	14.619
482.53	14.441
482.88	14.238
483.23	13.615
483.58	14.292
483.92	13.665
484.27	12.760
484.62	13.434
484.97	13.991
485.31	13.504
485.66	13.480
486.01	13.621
486.36	14.025
486.70	14.318
487.05	13.914
487.40	13.809
487.75	13.335
488.09	12.940
488.44	13.464
488.79	13.442
489.13	13.237
489.48	14.029
489.83	13.799
490.17	13.844
490.52	14.040
490.87	13.256
491.22	13.638
491.56	14.259
491.91	14.313
492.26	14.340
492.60	13.796
492.95	13.660
493.30	14.769
493.64	13.634
493.99	13.576
494.34	14.286
494.68	14.513
495.03	14.006
495.37	13.373
495.72	13.949
496.07	13.937
496.41	14.497
496.76	13.790
497.11	14.508
497.45	13.602
497.80	13.457
498.14	14.096
498.49	13.410
498.84	14.175
499.18	14.669
499.53	13.639
499.87	13.851
500.22	13.676
500.56	14.207
500.91	13.498
501.26	14.168
501.60	13.144
501.95	14.541
502.29	13.037
502.64	14.003
502.98	13.416
503.33	14.004
503.67	13.554
504.02	13.230
504.36	13.333
504.71	13.019
505.06	13.729
505.40	14.371
505.75	12.957
506.09	14.257
506.44	13.985
506.78	14.400
507.13	13.491
507.47	13.980
507.82	13.320
508.16	14.197
508.51	13.910
508.85	13.665
509.19	13.134
509.54	14.271
509.88	13.936
510.23	13.365
510.57	14.709
510.92	14.608
511.26	13.716
511.61	13.553
511.95	13.955
512.30	13.964
512.64	12.743
512.98	14.246
513.33	14.278
513.67	13.791
514.02	13.423
514.36	14.072
514.70	13.582
515.05	14.523
515.39	13.899
515.74	14.834
516.08	14.063
516.42	13.938
516.77	14.211
517.11	14.188
517.46	14.414
517.80	13.598
518.14	13.527
518.49	14.345
518.83	13.353
519.17	14.683
519.52	13.476
519.86	14.337
520.20	14.609
520.55	13.969
520.89	13.275
521.23	15.201
521.58	14.044
521.92	13.933
522.26	13.397
522.61	14.132
522.95	12.380
523.29	14.044
523.64	13.304
523.98	14.067
524.32	13.011
524.66	12.609
525.01	12.909
525.35	14.304
525.69	14.249
526.04	13.903
526.38	14.322
526.72	13.729
527.06	14.844
527.41	13.267
527.75	13.201
528.09	13.435
528.43	13.246
528.78	14.447
529.12	14.341
529.46	13.724
529.80	13.234
530.15	14.359
530.49	14.101
530.83	14.407
531.17	14.141
531.51	13.664
531.86	14.483
532.20	13.968
532.54	13.703
532.88	14.427
533.22	13.102
533.57	14.164
533.91	14.482
534.25	13.451
534.59	13.117
534.93	13.877
535.27	14.349
535.62	14.450
535.96	14.803
536.30	14.136
536.64	14.409
536.98	13.489
537.32	13.476
537.66	14.596
538.01	13.952
538.35	14.595
538.69	13.369
539.03	13.947
539.37	14.371
539.71	13.809
540.05	13.708
540.39	14.197
540.73	14.236
541.07	14.344
541.42	13.437
541.76	13.355
542.10	14.720
542.44	14.524
542.78	14.654
543.12	14.121
543.46	13.356
543.80	13.445
544.14	13.835
544.48	15.026
544.82	14.344
545.16	14.755
545.50	12.786
545.84	14.047
546.18	13.662
546.52	14.296
546.86	14.601
547.20	14.698
547.54	13.705
547.88	14.466
548.22	13.696
548.56	13.093
548.90	14.757
549.24	13.525
549.58	13.267
549.92	14.205
550.26	15.029
550.60	13.869
550.94	14.526
551.28	14.823
551.62	14.254
551.96	14.110
552.30	14.216
552.64	15.341
552.98	14.646
553.32	13.564
553.66	14.275
554.00	14.215
554.34	12.996
554.68	13.962
555.02	14.616
555.36	13.515
555.69	13.610
556.03	13.825
556.37	14.367
556.71	13.672
557.05	13.895
557.39	14.402
557.73	14.077
558.07	14.017
558.41	14.211
558.75	13.612
559.08	12.840
559.42	14.778
559.76	14.187
560.10	14.541
560.44	14.668
560.78	14.266
561.12	14.700
561.45	14.726
561.79	13.868
562.13	14.797
562.47	14.846
562.81	13.154
563.15	14.206
563.48	14.444
563.82	14.334
564.16	14.402
564.50	13.777
564.84	13.955
565.17	14.456
565.51	15.059
565.85	15.010
566.19	14.756
566.52	13.960
566.86	14.665
567.20	14.467
567.54	15.121
567.88	14.740
568.21	14.541
568.55	13.415
568.89	14.016
569.23	14.993
569.56	14.586
569.90	14.359
570.24	14.468
570.57	14.271
570.91	14.383
571.25	14.818
571.59	14.861
571.92	14.911
572.26	14.649
572.60	14.303
572.93	14.277
573.27	14.634
573.61	14.654
573.95	14.689
574.28	13.853
574.62	14.260
574.96	14.307
575.29	14.558
575.63	14.335
575.97	13.970
576.30	14.196
576.64	14.230
576.98	13.834
577.31	14.041
577.65	14.538
577.98	14.324
578.32	13.766
578.66	14.504
578.99	14.760
579.33	14.418
579.67	13.898
580.00	13.666
580.34	14.335
580.67	14.195
581.01	14.054
581.35	14.496
581.68	14.332
582.02	14.907
582.35	14.674
582.69	14.510
583.02	14.434
583.36	14.824
583.70	14.004
584.03	14.386
584.37	14.100
584.70	14.407
585.04	13.924
585.37	14.105
585.71	14.393
586.04	14.159
586.38	14.301
586.72	14.205
587.05	14.727
587.39	14.477
587.72	14.415
588.06	14.388
588.39	13.842
588.73	14.393
589.06	14.226
589.40	14.875
589.73	13.987
590.07	14.239
590.40	14.133
590.73	13.874
591.07	14.385
591.40	14.948
591.74	13.988
592.07	14.099
592.41	14.055
592.74	14.220
593.08	14.452
593.41	14.243
593.75	13.980
594.08	14.594
594.41	14.677
594.75	14.345
595.08	14.323
595.42	14.451
595.75	13.818
596.09	13.776
596.42	14.280
596.75	13.928
597.09	15.093
597.42	14.142
597.75	14.039
598.09	14.279
598.42	13.964
598.76	14.078
599.09	13.852
599.42	13.956
599.76	14.270
600.09	13.969
600.42	14.698
600.76	14.878
601.09	13.938
601.42	13.850
601.76	14.564
602.09	13.947
602.42	14.527
602.76	13.710
603.09	13.871
603.42	13.900
603.76	14.001
604.09	14.257
604.42	14.155
604.76	14.043
605.09	14.195
605.42	14.140
605.75	13.799
606.09	14.363
606.42	13.867
606.75	13.869
607.09	15.042
607.42	14.261
607.75	13.996
608.08	14.641
608.42	14.238
608.75	13.738
609.08	13.833
609.41	13.802
609.75	13.847
610.08	14.510
610.41	13.735
610.74	14.313
611.07	14.452
611.41	13.263
611.74	14.961
612.07	14.930
612.40	14.499
612.73	13.947
613.07	13.814
613.40	14.559
613.73	14.496
614.06	14.552
614.39	14.938
614.72	13.966
615.06	13.967
615.39	14.107
615.72	14.503
616.05	13.473
616.38	14.219
616.71	14.054
617.05	13.872
617.38	13.870
617.71	13.206
618.04	13.913
618.37	13.836
618.70	13.755
619.03	13.812
619.36	14.588
619.69	14.429
620.03	13.085
620.36	13.572
620.69	13.783
621.02	13.699
621.35	13.065
621.68	13.197
622.01	13.511
622.34	14.286
622.67	12.734
623.00	13.160
623.33	13.433
623.66	13.442
623.99	14.135
624.32	13.542
624.65	13.613
624.99	14.040
625.32	13.772
625.65	14.530
625.98	12.989
626.31	13.295
626.64	13.473
626.97	13.271
627.30	14.128
627.63	12.263
627.96	14.186
628.29	12.408
628.62	12.512
628.95	14.665
629.28	12.970
629.61	12.267
629.94	12.571
630.26	13.917
630.59	14.472
630.92	12.112
631.25	13.508
631.58	14.180
631.91	11.383
632.24	12.778
632.57	13.111
632.90	13.448
633.23	11.916
633.56	11.111
633.89	13.915
634.22	13.105
634.55	12.260
634.88	12.696
635.20	12.360
635.53	12.468
635.86	13.098
636.19	13.309
636.52	12.306
636.85	12.395
637.18	12.500
637.51	15.242
637.83	12.250
638.16	13.421
638.49	12.276
638.82	13.514
639.15	12.192
639.48	12.711
639.81	13.831
640.13	12.568
640.46	13.248
640.79	13.165
641.12	12.412
641.45	11.191
641.77	11.976
642.10	12.387
642.43	13.354
642.76	13.071
643.09	12.063
643.41	12.857
643.74	14.308
644.07	11.700
644.40	12.318
644.73	13.036
645.05	9.850
645.38	14.238
645.71	12.199
646.04	14.118
646.36	9.250
646.69	12.803
647.02	11.011
647.35	13.538
647.67	11.314
648.00	10.721
648.33	14.334
648.66	11.290
648.98	13.057
649.31	11.538
649.64	13.125
649.96	14.757
650.29	10.984
650.62	12.909
650.94	11.973
651.27	12.825
651.60	11.419
651.92	14.041
652.25	9.349
652.58	11.755
652.90	13.002
653.23	11.290
653.56	12.542
653.88	12.459
654.21	12.919
654.54	13.787
654.86	14.286
655.19	12.607
655.52	13.908
655.84	14.701
656.17	16.210
656.49	22.243
656.82	22.299
657.15	16.774
657.47	12.345
657.80	9.367
658.13	10.400
658.45	13.731
658.78	12.844
659.10	12.653
659.43	12.400
659.75	12.470
660.08	12.396
660.41	11.395
660.73	12.321
661.06	12.464
661.38	14.821
661.71	10.325
662.03	12.097
662.36	11.727
662.68	12.236
663.01	11.677
663.33	12.472
663.66	12.876
663.98	9.152
664.31	11.186
664.63	13.938
664.96	10.846
665.28	11.714
665.61	9.514
665.93	11.934
666.26	15.182
666.58	11.642
666.91	11.804
667.23	11.404
667.56	11.111
667.88	13.575
668.21	8.756
668.53	10.981
668.86	12.009
669.18	11.872
669.50	10.748
669.83	9.976
670.15	10.538
670.48	9.346
670.80	11.390
671.13	9.707
671.45	10.360
671.77	8.351
672.10	13.412
672.42	10.148
672.75	10.727
673.07	11.351
673.39	11.111
673.72	13.583
674.04	10.616
674.37	8.866
674.69	12.090
675.01	12.979
675.34	10.629
675.66	11.231
675.98	9.692
676.31	11.991
676.63	12.874
676.95	11.726
677.28	11.369
677.60	13.801
677.92	13.436
678.25	7.221
678.57	10.082
678.89	8.176
679.22	9.644
679.54	12.426
679.86	9.400
680.18	10.076
680.51	10.428
680.83	12.762
681.15	15.222
681.48	12.373
681.80	11.089
682.12	11.268
682.44	12.770
682.77	9.957
683.09	10.901
683.41	13.938
683.73	12.329
684.06	10.323
684.38	13.180
684.70	11.728
685.02	12.008
685.34	12.086
685.67	10.227
685.99	10.208
686.31	11.490
686.63	10.638
686.96	11.830
687.28	10.405
687.60	10.352
687.92	8.366
688.24	9.252
688.56	8.818
688.89	10.470
689.21	11.379
689.53	13.333
689.85	10.468
690.17	9.417
690.49	8.776
690.82	10.120
691.14	12.972
691.46	13.304
691.78	11.674
692.10	11.441
692.42	8.889
692.74	10.300
693.06	9.888
693.39	10.962
693.71	11.061
694.03	14.903
694.35	12.867
694.67	9.693
694.99	6.394
695.31	10.714
695.63	8.673
695.95	10.670
696.27	10.723
696.59	11.765
696.91	12.640
697.23	12.500
697.56	10.337
697.88	8.108
698.20	10.921
698.52	9.641
698.84	13.835
699.16	10.476
699.48	11.500
699.80	10.025
700.12	15.617
700.44	8.939
700.76	8.163
701.08	10.174
701.40	8.761
701.72	14.815
702.04	14.103
702.36	10.241
702.68	8.683
703.00	9.275
703.32	5.444
703.64	12.059
703.96	12.500
704.28	12.130
704.60	8.544
704.91	6.349
705.23	11.974
705.55	7.432
705.87	11.604
706.19	7.639
706.51	5.556
706.83	11.803
707.15	6.688
707.47	9.917
707.79	10.825
708.11	5.089
708.43	8.978
708.74	9.610
709.06	12.256
709.38	9.483
709.70	8.438
710.02	13.497
710.34	7.591
710.66	7.937
710.98	8.202
711.29	10.000
711.61	9.265
711.93	9.836
712.25	11.296
712.57	8.711
712.89	11.871
713.20	10.997
713.52	5.970
713.84	11.744
714.16	9.508
714.48	7.619
714.80	11.077
715.11	8.069
715.43	14.759
715.75	9.969
716.07	8.852
716.39	11.037
716.70	6.969
717.02	12.222
717.34	6.489
717.66	11.203
717.97	4.508
718.29	8.403
718.61	5.952
718.93	12.545
719.24	6.250
719.56	5.660
719.88	8.727
720.20	7.865
720.51	9.398
720.83	11.647
721.15	11.066
721.46	10.196
721.78	7.280
722.10	12.400
722.42	4.545
722.73	10.757
723.05	7.631
723.37	10.588
723.68	10.121
724.00	10.163
724.32	6.996
724.63	4.564
724.95	8.264
725.27	7.018
725.58	5.172
725.90	6.746
726.22	11.070
726.53	9.506
726.85	8.627
727.16	9.398
727.48	7.692
727.80	2.049
728.11	6.303
728.43	9.504
728.74	8.984
729.06	7.955
729.38	8.171
729.69	4.331
730.01	8.268
730.32	8.367
730.64	8.425
730.96	10.075
731.27	10.000
731.59	9.968
731.90	10.123
732.22	6.748
732.53	11.921
732.85	8.054
733.16	6.522
733.48	6.620
733.80	9.253
734.11	11.379
734.43	8.163
734.74	9.496
735.06	6.897
735.37	9.786
735.69	4.516
736.00	7.071
736.32	14.238
736.63	5.517
736.95	6.884
737.26	10.265
737.58	8.633
737.89	13.262
738.21	6.767
738.52	8.462
738.83	9.375
739.15	5.556
739.46	10.081
739.78	9.091
740.09	8.392
740.41	10.839
740.72	13.139
741.04	8.333
741.35	3.030
741.66	9.259
741.98	7.143
742.29	11.268
742.61	8.556
742.92	10.280
743.23	8.772
743.55	9.459
743.86	18.222
744.18	5.714
744.49	10.345
744.80	8.629
745.12	7.216
745.43	6.533
745.74	0.000
746.06	7.317
746.37	9.692
746.68	11.443
747.00	5.236
747.31	-0.481
747.62	14.747
747.94	7.424
748.25	6.512
748.56	11.429
748.88	0.000
749.19	8.920
749.50	13.725
749.82	9.778
750.13	11.894
750.44	6.098
750.75	9.200
751.07	9.643
751.38	2.214
751.69	6.107
752.01	9.615
752.32	5.058
752.63	5.000
752.94	2.381
753.26	10.435
753.57	8.482
753.88	11.207
754.19	10.788
754.51	7.031
754.82	9.486
755.13	7.407
755.44	7.438
755.75	7.407
756.07	4.819
756.38	7.422
756.69	10.108
757.00	9.756
757.31	11.409
757.63	13.084
757.94	8.671
758.25	9.593
758.56	12.129
758.87	11.364
759.18	8.333
759.50	12.100
759.81	2.555
760.12	7.432
760.43	11.650
760.74	11.250
761.05	12.921
761.36	10.180
761.67	8.284
761.99	7.097
762.30	11.594
762.61	9.434
762.92	11.659
763.23	3.318
763.54	3.556
763.85	12.236
764.16	8.571
764.47	8.051
764.78	6.742
765.10	14.388
765.41	10.000
765.72	9.748
766.03	3.534
766.34	5.639
766.65	8.097
766.96	2.000
767.27	7.812
767.58	12.209
767.89	6.452
768.20	5.521
768.51	8.743
768.82	3.243
769.13	5.000
769.44	9.211
769.75	10.390
770.06	8.716
770.37	8.920
770.68	5.729
770.99	2.970
771.30	5.825
771.61	7.870
771.92	8.225
772.23	7.477
772.54	-1.596
772.85	0.592
773.16	14.024
773.47	6.024
773.78	14.286
774.09	-0.667
774.39	3.086
774.70	6.040
775.01	5.797
775.32	-1.493
775.63	0.826
775.94	5.263
776.25	6.429
776.56	6.557
776.87	7.965
777.18	11.504
777.48	-4.545
777.79	-5.217
778.10	-2.752
778.41	-3.390
778.72	4.959
779.03	4.478
779.34	6.767
779.65	7.843
779.95	2.899
780.26	-1.361
780.57	-2.586
780.88	5.556
781.19	-8.081
781.50	-8.800
781.80	3.268
782.11	5.769
782.42	6.024
782.73	-8.029
783.04	7.432
783.34	0.000
783.65	-3.101
783.96	8.130
784.27	0.855
784.57	3.252
784.88	3.252
785.19	7.895
785.50	-14.433
785.81	1.905
786.11	0.980
786.42	-8.182
786.73	6.306
787.04	1.980
787.34	4.762
787.65	-2.857
787.96	-1.961
788.26	1.802
788.57	9.677
788.88	3.125
789.19	0.855
789.49	-5.882
789.80	-4.274
790.11	3.540
790.41	-12.121
790.72	6.604
791.03	-19.444
791.33	-22.368
791.64	-4.301
791.95	-18.667
792.25	-4.286
792.56	4.878
792.87	7.143
793.17	-7.895
793.48	-20.270
793.79	-5.634
794.09	-2.532
794.40	0.000
794.70	-4.673
795.01	-10.526
795.32	1.818
795.62	2.679
795.93	7.216
796.23	-2.198
796.54	6.316
796.85	-9.589
797.15	-26.389
797.46	-6.849
797.76	8.451
798.07	0.000
798.37	-16.176
798.68	5.714
798.99	-7.143
799.29	2.632
799.60	5.000
799.90	-12.500
800.21	-20.313
800.51	-12.698
800.82	-8.197
801.12	-15.789
801.43	-12.676
801.73	-16.949
802.04	-9.836
802.34	-14.545
802.65	-11.538
802.95	-1.852
803.26	-35.000
803.56	3.846
803.87	-47.368
804.17	12.903
804.48	-7.692
804.78	-5.128
805.09	-23.256
805.39	-40.625
805.70	-28.302
806.00	-1.754
806.30	6.757
806.61	1.471
806.91	-1.235
807.22	-4.000
807.52	7.463
807.83	-4.839
808.13	-28.571
808.43	-14.545
808.74	-15.152
809.04	-39.623
809.35	-2.740
809.65	-7.018
809.95	10.294
810.26	-21.569
810.56	-30.000
810.86	-44.898
811.17	-45.714
811.47	-15.385
811.77	-22.581
812.08	-44.737
812.38	-21.429
812.69	-23.913
812.99	-41.935
813.29	-38.095
813.59	-81.481
813.90	0.000
814.20	-25.581
814.50	-27.083
814.81	-25.000
815.11	-24.390
815.41	-53.333
815.72	2.857
816.02	-30.556
816.32	0.000
816.62	-18.919
816.93	-32.353
817.23	-32.609
817.53	-26.471
817.84	-32.353
818.14	-53.125
818.44	-41.379
818.74	-45.161
819.04	-48.148
819.35	-60.000
819.65	-92.000
819.95	-30.000
820.25	-56.000
820.56	-26.316
820.86	-35.000
821.16	-23.404
821.46	-1.724
821.76	-30.769
822.07	-42.500
822.37	-27.907
822.67	-70.000
822.97	-27.027
823.27	5.405
823.57	4.000
823.88	-8.108
824.18	-71.429
824.48	-46.154
824.78	-123.077
825.08	-30.435
825.38	-37.500
825.69	-37.500
825.99	-100.000
826.29	-43.243
826.59	-35.294
826.89	4.000
827.19	-51.429
827.49	-7.895
827.79	-37.500
828.09	-70.000
828.39	8.696
828.70	-68.966
829.00	-34.483
829.30	-22.222
829.60	-28.125
829.90	-100.000
830.20	-19.231
830.50	-90.476
830.80	-42.857
831.10	10.256
831.40	-100.000
831.70	-29.412
832.00	-8.333
832.30	-89.474
832.60	-56.250
832.90	-233.333
833.20	-111.765
833.50	-120.000
833.80	-153.333
834.10	-60.000
834.40	-58.333
834.70	-72.222
835.00	-19.231
835.30	-91.667
835.60	-31.034
835.90	-127.778
836.20	-245.455
836.50	-141.667
836.80	-28.571
837.10	20.000
837.40	-105.882
837.70	-190.909
838.00	-20.833
838.30	-75.000
838.60	-57.143
838.90	-45.000
839.19	-43.478
839.49	-34.783
839.79	-122.222
840.09	-43.478
840.39	-90.909
840.69	-87.500
840.99	-78.947
841.29	-100.000
841.59	-85.714
841.88	-144.444
842.18	-54.167
842.48	-100.000
842.78	-44.828
843.08	-78.571
843.38	-76.923
843.68	-211.111
843.97	-92.308
844.27	-236.364
844.57	-420.000
844.87	-20.000
845.17	-300.000
845.47	-64.286
845.76	-277.778
846.06	0.000
846.36	-575.000
846.66	-200.000
846.96	-42.105
847.25	-62.500
847.55	-141.667
847.85	-73.333
848.15	-130.000
848.44	42.308
848.74	-21.053
849.04	733.333
849.34	-222.222
849.63	-142.105
849.93	0.000
850.23	-90.000
850.53	-61.905
850.82	-44.000
851.12	-47.368
851.42	-700.000
851.71	-78.571
852.01	-100.000
852.31	-64.706
852.61	-113.333
852.90	-104.762
853.20	-233.333
853.50	-16.667
853.79	-63.158
854.09	-86.667
854.39	-10.714
854.68	-30.435
854.98	-258.333
855.28	-48.276
855.57	-75.000
855.87	-20.000
856.17	-46.667
856.46	-3.448
856.76	-120.000
857.05	-100.000
857.35	-130.769
857.65	-72.727
857.94	-22.222
858.24	-100.000
858.53	-57.143
858.83	-141.667
859.13	-233.333
859.42	-47.619
859.72	-237.500
860.01	-600.000
860.31	-100.000
860.60	-500.000
860.90	-144.444
861.20	-200.000
861.49	-285.714
861.79	-70.588
862.08	-850.000
862.38	-158.333
862.67	-146.154
862.97	-29.412
863.26	-5.000
863.56	-52.941
863.85	733.333
864.15	-190.000
864.44	-107.692
864.74	0.000
865.03	-325.000
865.33	-366.667
865.62	-29.412
865.92	-450.000
866.21	-107.143
866.51	-158.333
866.80	-1100.000
867.10	-633.333
867.39	-23.529
867.69	-17.391
867.98	-71.429
868.27	-400.000
868.57	-131.250
868.86	-218.182
869.16	-52.941
869.45	-83.333
869.75	-157.143
870.04	1400.000
870.33	-133.333
870.63	-220.000
870.92	-200.000
871.22	-191.667
871.51	-81.818
871.80	-91.667
872.10	-210.000
>>>>>End Processed Spectral Data<<<<<
