SpectraSuite Data File
++++++++++++++++++++++++++++++++++++
Date: Sat May 16 11:29:26 PDT 2015
User: schluterlab
Dark Spectrum Present: Yes
Reference Spectrum Present: Yes
Number of Sampled Component Spectra: 1
Spectrometers: USB2E3373
Integration Time (usec): 3000 (USB2E3373)
Spectra Averaged: 3 (USB2E3373)
Boxcar Smoothing: 0 (USB2E3373)
Correct for Electrical Dark: No (USB2E3373)
Strobe/Lamp Enabled: No (USB2E3373)
Correct for Detector Non-linearity: No (USB2E3373)
Correct for Stray Light: No (USB2E3373)
Number of Pixels in Processed Spectrum: 2048
>>>>>Begin Processed Spectral Data<<<<<
178.53	0.000
178.91	146.667
179.29	466.667
179.67	-1600.000
180.04	-84.615
180.42	1100.000
180.80	425.000
181.18	450.000
181.56	-62.500
181.94	2400.000
182.31	425.000
182.69	23.077
183.07	-600.000
183.45	1550.000
183.83	733.333
184.20	-185.714
184.58	-112.500
184.96	-475.000
185.34	118.750
185.72	-500.000
186.09	250.000
186.47	-362.500
186.85	-162.500
187.23	50.000
187.61	-325.000
187.98	-275.000
188.36	-125.000
188.74	-237.500
189.12	1100.000
189.49	328.571
189.87	-41.667
190.25	450.000
190.63	-50.000
191.00	-177.778
191.38	300.000
191.76	13.333
192.14	480.000
192.51	-300.000
192.89	-266.667
193.27	0.000
193.65	-77.778
194.02	-71.429
194.40	400.000
194.78	-80.000
195.15	-400.000
195.53	-200.000
195.91	-483.333
196.29	240.000
196.66	-466.667
197.04	2300.000
197.42	-250.000
197.79	26.667
198.17	-533.333
198.55	-650.000
198.92	-900.000
199.30	312.500
199.68	-450.000
200.05	-177.778
200.43	-166.667
200.81	-2000.000
201.18	-116.667
201.56	185.714
201.94	-53.333
202.31	18.182
202.69	40.000
203.07	-50.000
203.44	633.333
203.82	-400.000
204.19	-425.000
204.57	-275.000
204.95	-1600.000
205.32	-100.000
205.70	700.000
206.08	-2500.000
206.45	-22.222
206.83	-1150.000
207.20	-200.000
207.58	-433.333
207.96	-566.667
208.33	-75.000
208.71	-155.556
209.08	260.000
209.46	-71.429
209.84	550.000
210.21	0.000
210.59	45.000
210.96	100.000
211.34	-216.667
211.71	-200.000
212.09	325.000
212.46	750.000
212.84	-2600.000
213.22	466.667
213.59	208.333
213.97	-77.778
214.34	170.000
214.72	-110.000
215.09	-300.000
215.47	-100.000
215.84	-110.000
216.22	-70.000
216.59	-40.000
216.97	-175.000
217.34	550.000
217.72	-257.143
218.09	-300.000
218.47	-228.571
218.84	242.857
219.22	-57.143
219.59	0.000
219.97	200.000
220.34	275.000
220.72	212.500
221.09	-76.923
221.47	0.000
221.84	633.333
222.22	-600.000
222.59	900.000
222.97	-250.000
223.34	-850.000
223.72	-700.000
224.09	-85.714
224.46	-125.000
224.84	21.429
225.21	-142.857
225.59	-109.091
225.96	-125.000
226.34	-85.714
226.71	-66.667
227.08	-30.000
227.46	2100.000
227.83	-257.143
228.21	-262.500
228.58	400.000
228.95	-81.250
229.33	-1600.000
229.70	-480.000
230.08	-350.000
230.45	-75.000
230.82	-33.333
231.20	-1200.000
231.57	-350.000
231.95	1500.000
232.32	-42.857
232.69	-211.111
233.07	-214.286
233.44	-900.000
233.81	-20.000
234.19	-66.667
234.56	18.750
234.93	31.250
235.31	-242.857
235.68	-92.857
236.05	-11.765
236.43	-40.909
236.80	-6.452
237.17	-50.000
237.55	-42.857
237.92	-54.545
238.29	-28.571
238.67	11.765
239.04	0.000
239.41	-32.258
239.79	-23.077
240.16	-26.190
240.53	-5.455
240.91	-12.821
241.28	9.091
241.65	0.000
242.02	6.557
242.40	4.918
242.77	7.576
243.14	-8.475
243.51	-15.714
243.89	11.392
244.26	11.236
244.63	8.421
245.00	5.263
245.38	23.729
245.75	8.850
246.12	8.800
246.49	11.024
246.87	7.317
247.24	10.169
247.61	11.017
247.98	7.746
248.36	8.392
248.73	17.089
249.10	19.108
249.47	18.713
249.84	14.205
250.22	13.095
250.59	16.384
250.96	17.277
251.33	18.483
251.70	15.865
252.08	12.322
252.45	11.848
252.82	16.190
253.19	15.745
253.56	17.339
253.94	14.768
254.31	18.026
254.68	21.138
255.05	16.532
255.42	18.254
255.79	12.186
256.16	19.216
256.54	16.544
256.91	16.667
257.28	12.821
257.65	18.794
258.02	21.384
258.39	18.729
258.76	14.865
259.14	16.667
259.51	18.361
259.88	19.817
260.25	19.255
260.62	16.720
260.99	15.134
261.36	16.159
261.73	20.809
262.10	18.056
262.47	19.088
262.85	20.857
263.22	16.332
263.59	16.615
263.96	19.130
264.33	20.054
264.70	21.547
265.07	17.033
265.44	20.672
265.81	19.380
266.18	15.696
266.55	18.382
266.92	21.662
267.29	19.613
267.66	16.790
268.03	19.082
268.40	18.075
268.77	20.964
269.14	20.186
269.51	19.770
269.88	16.284
270.25	15.152
270.62	19.680
270.99	16.441
271.36	17.483
271.73	18.610
272.10	21.739
272.47	15.333
272.84	20.000
273.21	17.431
273.58	18.681
273.95	17.325
274.32	19.005
274.69	21.225
275.06	20.245
275.43	13.839
275.80	18.534
276.17	17.364
276.54	22.200
276.91	18.313
277.28	19.067
277.65	19.835
278.02	16.701
278.39	17.289
278.76	16.534
279.13	19.170
279.50	18.489
279.87	20.296
280.23	20.243
280.60	18.290
280.97	15.728
281.34	17.215
281.71	20.577
282.08	18.548
282.45	16.701
282.82	18.992
283.19	20.000
283.56	17.766
283.92	18.375
284.29	18.216
284.66	17.806
285.03	19.964
285.40	19.742
285.77	19.649
286.14	17.870
286.51	15.986
286.87	19.419
287.24	18.942
287.61	18.512
287.98	15.771
288.35	17.355
288.72	16.808
289.08	16.441
289.45	17.172
289.82	15.917
290.19	18.719
290.56	15.041
290.93	16.057
291.29	15.397
291.66	15.942
292.03	19.152
292.40	17.470
292.77	17.236
293.13	15.935
293.50	16.493
293.87	17.331
294.24	17.044
294.60	15.152
294.97	17.906
295.34	16.296
295.71	16.220
296.08	16.590
296.44	14.735
296.81	16.952
297.18	14.225
297.55	15.678
297.91	17.015
298.28	15.753
298.65	15.342
299.02	16.043
299.38	16.711
299.75	15.625
300.12	14.359
300.48	16.496
300.85	14.417
301.22	16.818
301.59	14.564
301.95	16.877
302.32	14.993
302.69	16.157
303.05	15.751
303.42	15.500
303.79	17.584
304.15	15.640
304.52	14.936
304.89	14.758
305.25	15.263
305.62	14.454
305.99	14.723
306.35	16.204
306.72	13.895
307.09	15.551
307.45	14.983
307.82	13.855
308.19	15.548
308.55	15.142
308.92	14.715
309.29	16.108
309.65	15.483
310.02	14.903
310.38	13.730
310.75	14.344
311.12	13.946
311.48	15.762
311.85	15.551
312.22	16.169
312.58	15.768
312.95	14.985
313.31	14.885
313.68	16.583
314.05	16.024
314.41	13.280
314.78	15.285
315.14	16.091
315.51	14.387
315.87	16.070
316.24	16.327
316.61	15.931
316.97	15.622
317.34	14.933
317.70	14.935
318.07	14.925
318.43	14.794
318.80	16.526
319.16	15.291
319.53	15.320
319.89	15.334
320.26	16.667
320.62	15.481
320.99	17.413
321.35	15.369
321.72	15.353
322.08	16.320
322.45	14.950
322.81	15.370
323.18	16.138
323.54	14.603
323.91	16.126
324.27	16.635
324.64	16.636
325.00	16.841
325.37	15.566
325.73	17.673
326.10	15.235
326.46	15.849
326.83	16.511
327.19	15.596
327.56	17.802
327.92	17.332
328.29	17.576
328.65	15.455
329.01	17.756
329.38	17.038
329.74	17.125
330.11	17.951
330.47	18.074
330.84	18.240
331.20	17.690
331.56	17.320
331.93	19.005
332.29	18.539
332.66	18.437
333.02	18.100
333.38	18.817
333.75	19.412
334.11	18.222
334.48	18.711
334.84	20.122
335.20	17.908
335.57	18.773
335.93	18.442
336.29	19.841
336.66	17.885
337.02	19.369
337.38	18.271
337.75	18.525
338.11	18.605
338.47	19.484
338.84	19.510
339.20	18.629
339.56	19.875
339.93	19.224
340.29	19.398
340.65	19.231
341.02	19.646
341.38	19.629
341.74	19.221
342.11	19.113
342.47	18.712
342.83	19.228
343.20	18.702
343.56	17.714
343.92	19.950
344.28	18.503
344.65	17.987
345.01	18.739
345.37	19.850
345.73	19.149
346.10	18.806
346.46	19.578
346.82	18.524
347.19	19.228
347.55	18.379
347.91	18.661
348.27	18.298
348.63	19.709
349.00	19.252
349.36	17.174
349.72	19.268
350.08	19.166
350.45	18.676
350.81	18.790
351.17	18.328
351.53	18.854
351.89	19.563
352.26	18.682
352.62	20.276
352.98	19.304
353.34	18.145
353.70	18.610
354.07	19.197
354.43	18.814
354.79	19.493
355.15	19.329
355.51	19.297
355.87	19.447
356.24	19.222
356.60	19.984
356.96	19.169
357.32	19.161
357.68	19.310
358.04	19.630
358.40	18.871
358.77	19.243
359.13	19.204
359.49	19.955
359.85	19.665
360.21	19.178
360.57	20.030
360.93	19.852
361.29	19.507
361.66	19.055
362.02	19.231
362.38	19.809
362.74	19.634
363.10	19.154
363.46	21.154
363.82	20.117
364.18	19.899
364.54	20.729
364.90	20.405
365.26	19.258
365.62	20.171
365.98	20.341
366.35	20.775
366.71	19.732
367.07	20.113
367.43	20.659
367.79	20.069
368.15	19.701
368.51	20.559
368.87	21.497
369.23	21.263
369.59	21.042
369.95	21.283
370.31	21.519
370.67	20.246
371.03	20.554
371.39	19.873
371.75	20.672
372.11	21.521
372.47	21.041
372.83	21.419
373.19	21.929
373.55	22.097
373.91	21.764
374.27	21.492
374.63	21.049
374.99	22.323
375.35	20.659
375.71	22.282
376.07	21.561
376.42	21.192
376.78	22.157
377.14	21.627
377.50	22.308
377.86	22.302
378.22	21.796
378.58	23.224
378.94	22.935
379.30	22.060
379.66	22.344
380.02	22.400
380.38	21.873
380.74	22.509
381.09	22.027
381.45	22.912
381.81	22.686
382.17	23.120
382.53	23.283
382.89	22.787
383.25	23.660
383.61	22.700
383.97	23.454
384.32	23.655
384.68	23.881
385.04	23.853
385.40	23.737
385.76	23.841
386.12	23.860
386.48	24.814
386.83	24.110
387.19	24.925
387.55	23.864
387.91	23.770
388.27	24.246
388.62	24.519
388.98	23.622
389.34	24.786
389.70	24.117
390.06	24.177
390.42	24.615
390.77	24.984
391.13	25.466
391.49	25.140
391.85	25.499
392.20	24.697
392.56	24.252
392.92	25.157
393.28	25.144
393.64	25.857
393.99	25.846
394.35	25.000
394.71	24.892
395.07	25.110
395.42	24.613
395.78	24.450
396.14	26.168
396.50	26.116
396.85	25.108
397.21	25.699
397.57	26.565
397.92	25.410
398.28	25.167
398.64	24.807
399.00	26.180
399.35	25.536
399.71	26.945
400.07	26.746
400.42	25.852
400.78	25.343
401.14	26.287
401.49	25.708
401.85	26.419
402.21	25.864
402.57	25.910
402.92	27.061
403.28	26.409
403.63	25.285
403.99	25.295
404.35	26.147
404.70	26.799
405.06	26.701
405.42	25.461
405.77	25.622
406.13	26.178
406.49	26.902
406.84	25.735
407.20	26.855
407.55	26.282
407.91	26.101
408.27	27.145
408.62	26.999
408.98	27.047
409.34	26.325
409.69	26.528
410.05	27.047
410.40	27.161
410.76	26.319
411.11	26.933
411.47	26.854
411.83	26.834
412.18	26.733
412.54	25.991
412.89	26.124
413.25	26.151
413.60	26.488
413.96	26.186
414.31	27.706
414.67	26.857
415.03	26.714
415.38	26.480
415.74	27.255
416.09	25.767
416.45	25.992
416.80	26.398
417.16	26.844
417.51	27.315
417.87	26.667
418.22	26.928
418.58	27.150
418.93	27.836
419.29	28.482
419.64	26.947
420.00	28.250
420.35	26.257
420.71	27.671
421.06	26.805
421.42	26.464
421.77	28.029
422.12	27.364
422.48	26.937
422.83	27.278
423.19	27.339
423.54	28.012
423.90	27.415
424.25	26.753
424.61	28.830
424.96	28.262
425.31	28.284
425.67	27.564
426.02	27.137
426.38	27.526
426.73	27.995
427.09	27.696
427.44	27.841
427.79	27.791
428.15	27.169
428.50	28.915
428.85	27.998
429.21	27.892
429.56	28.021
429.92	28.758
430.27	28.016
430.62	28.370
430.98	27.705
431.33	28.388
431.68	27.721
432.04	28.707
432.39	28.490
432.74	28.657
433.10	29.094
433.45	27.979
433.80	28.052
434.16	28.909
434.51	28.274
434.86	28.647
435.22	29.065
435.57	28.641
435.92	28.136
436.28	29.377
436.63	28.830
436.98	28.064
437.34	27.998
437.69	28.763
438.04	29.098
438.39	29.362
438.75	28.929
439.10	29.039
439.45	28.244
439.81	29.398
440.16	28.961
440.51	29.765
440.86	29.323
441.22	28.911
441.57	29.526
441.92	28.696
442.27	28.084
442.63	29.936
442.98	28.047
443.33	30.643
443.68	28.452
444.03	29.322
444.39	28.830
444.74	30.396
445.09	29.879
445.44	29.769
445.79	30.495
446.15	30.066
446.50	29.505
446.85	29.708
447.20	29.520
447.55	29.779
447.91	30.432
448.26	30.391
448.61	29.428
448.96	30.420
449.31	29.820
449.66	30.624
450.02	29.806
450.37	30.261
450.72	29.774
451.07	30.673
451.42	29.988
451.77	30.401
452.12	30.334
452.47	30.730
452.83	30.052
453.18	30.424
453.53	30.535
453.88	30.861
454.23	29.807
454.58	32.256
454.93	31.675
455.28	30.720
455.63	31.572
455.98	31.446
456.34	31.067
456.69	31.332
457.04	31.715
457.39	30.861
457.74	31.483
458.09	31.148
458.44	31.236
458.79	31.110
459.14	31.432
459.49	31.794
459.84	31.085
460.19	31.026
460.54	30.853
460.89	30.661
461.24	31.451
461.59	30.774
461.94	31.572
462.29	31.983
462.64	31.621
462.99	32.798
463.34	31.533
463.69	32.125
464.04	31.927
464.39	31.959
464.74	31.738
465.09	31.389
465.44	31.585
465.79	31.528
466.14	32.739
466.49	31.952
466.84	32.473
467.19	32.980
467.54	31.835
467.89	32.491
468.24	33.610
468.59	32.480
468.94	31.768
469.29	32.684
469.64	32.278
469.99	33.288
470.34	32.398
470.68	33.794
471.03	32.347
471.38	32.708
471.73	34.476
472.08	32.865
472.43	32.819
472.78	33.133
473.13	31.610
473.48	32.993
473.83	33.251
474.17	33.185
474.52	34.207
474.87	34.149
475.22	33.038
475.57	33.333
475.92	32.397
476.27	32.857
476.61	33.183
476.96	33.650
477.31	33.100
477.66	34.034
478.01	33.712
478.36	33.892
478.70	34.490
479.05	32.180
479.40	33.627
479.75	33.231
480.10	33.036
480.45	32.398
480.79	34.403
481.14	34.119
481.49	33.833
481.84	33.380
482.19	33.897
482.53	34.659
482.88	33.602
483.23	33.427
483.58	34.228
483.92	34.448
484.27	32.831
484.62	33.866
484.97	32.853
485.31	32.192
485.66	30.926
486.01	30.790
486.36	31.262
486.70	32.067
487.05	31.987
487.40	31.811
487.75	32.089
488.09	32.026
488.44	33.221
488.79	33.215
489.13	33.701
489.48	34.706
489.83	34.367
490.17	34.393
490.52	35.009
490.87	34.226
491.22	35.451
491.56	34.398
491.91	35.258
492.26	34.858
492.60	35.157
492.95	35.221
493.30	34.683
493.64	34.603
493.99	35.660
494.34	35.571
494.68	36.798
495.03	34.656
495.37	35.005
495.72	35.167
496.07	35.992
496.41	35.711
496.76	34.384
497.11	34.951
497.45	35.728
497.80	36.218
498.14	35.118
498.49	36.364
498.84	35.680
499.18	36.355
499.53	36.288
499.87	35.183
500.22	35.784
500.56	36.918
500.91	35.369
501.26	36.778
501.60	36.206
501.95	36.280
502.29	36.608
502.64	35.691
502.98	35.506
503.33	36.090
503.67	35.632
504.02	35.200
504.36	36.078
504.71	36.829
505.06	35.846
505.40	37.026
505.75	36.941
506.09	37.310
506.44	36.291
506.78	36.227
507.13	36.509
507.47	37.454
507.82	36.035
508.16	37.513
508.51	36.167
508.85	37.474
509.19	36.316
509.54	37.051
509.88	37.660
510.23	37.526
510.57	38.519
510.92	38.131
511.26	37.480
511.61	37.311
511.95	37.284
512.30	38.538
512.64	37.396
512.98	37.624
513.33	39.319
513.67	38.247
514.02	38.199
514.36	38.615
514.70	37.917
515.05	38.250
515.39	39.504
515.74	38.918
516.08	38.501
516.42	38.130
516.77	38.879
517.11	38.501
517.46	38.995
517.80	39.711
518.14	39.251
518.49	38.972
518.83	39.288
519.17	39.432
519.52	39.098
519.86	40.263
520.20	40.037
520.55	40.185
520.89	39.887
521.23	40.476
521.58	40.376
521.92	40.279
522.26	40.000
522.61	40.684
522.95	39.821
523.29	39.687
523.64	41.037
523.98	40.165
524.32	40.855
524.66	39.006
525.01	40.334
525.35	40.142
525.69	40.729
526.04	40.274
526.38	41.757
526.72	40.166
527.06	40.820
527.41	41.320
527.75	39.736
528.09	40.304
528.43	39.803
528.78	40.013
529.12	41.293
529.46	40.077
529.80	40.607
530.15	41.339
530.49	40.427
530.83	41.650
531.17	40.404
531.51	40.455
531.86	39.895
532.20	41.161
532.54	40.775
532.88	40.646
533.22	41.310
533.57	40.666
533.91	38.889
534.25	39.095
534.59	40.600
534.93	39.701
535.27	39.081
535.62	40.985
535.96	41.500
536.30	39.660
536.64	41.633
536.98	42.090
537.32	40.705
537.66	41.005
538.01	41.443
538.35	40.203
538.69	40.709
539.03	40.352
539.37	39.454
539.71	40.827
540.05	41.056
540.39	41.274
540.73	41.603
541.07	41.393
541.42	40.176
541.76	40.000
542.10	40.176
542.44	40.040
542.78	39.688
543.12	41.616
543.46	39.932
543.80	40.468
544.14	40.363
544.48	40.748
544.82	40.731
545.16	40.979
545.50	39.771
545.84	40.473
546.18	41.748
546.52	41.323
546.86	41.168
547.20	40.999
547.54	40.220
547.88	40.146
548.22	38.860
548.56	40.949
548.90	40.701
549.24	41.345
549.58	40.649
549.92	40.777
550.26	41.835
550.60	40.612
550.94	41.022
551.28	41.761
551.62	40.620
551.96	40.810
552.30	41.324
552.64	40.253
552.98	41.626
553.32	41.053
553.66	42.466
554.00	41.649
554.34	40.433
554.68	39.985
555.02	41.245
555.36	40.187
555.69	40.186
556.03	39.439
556.37	41.394
556.71	40.873
557.05	41.907
557.39	41.945
557.73	40.044
558.07	42.125
558.41	40.912
558.75	41.749
559.08	40.778
559.42	41.424
559.76	43.175
560.10	41.536
560.44	41.113
560.78	40.431
561.12	41.408
561.45	41.164
561.79	41.185
562.13	40.323
562.47	40.616
562.81	40.877
563.15	40.098
563.48	40.912
563.82	40.500
564.16	39.757
564.50	40.121
564.84	39.484
565.17	40.385
565.51	40.678
565.85	41.447
566.19	40.843
566.52	40.835
566.86	39.697
567.20	40.860
567.54	39.693
567.88	38.191
568.21	39.597
568.55	38.070
568.89	37.376
569.23	37.992
569.56	36.402
569.90	37.057
570.24	35.851
570.57	34.411
570.91	34.886
571.25	35.636
571.59	35.373
571.92	35.000
572.26	35.081
572.60	34.595
572.93	34.345
573.27	33.780
573.61	34.270
573.95	34.353
574.28	33.713
574.62	33.732
574.96	33.001
575.29	33.714
575.63	34.165
575.97	33.387
576.30	33.598
576.64	33.890
576.98	33.466
577.31	33.540
577.65	33.661
577.98	33.340
578.32	33.109
578.66	32.965
578.99	32.720
579.33	33.760
579.67	33.629
580.00	32.589
580.34	32.852
580.67	33.268
581.01	32.381
581.35	33.558
581.68	32.519
582.02	32.220
582.35	32.068
582.69	33.166
583.02	33.510
583.36	33.794
583.70	33.205
584.03	33.728
584.37	33.938
584.70	32.858
585.04	33.190
585.37	32.864
585.71	33.188
586.04	32.751
586.38	33.520
586.72	33.681
587.05	34.155
587.39	33.406
587.72	33.183
588.06	33.480
588.39	33.950
588.73	34.128
589.06	34.751
589.40	35.005
589.73	34.738
590.07	34.304
590.40	34.982
590.73	35.066
591.07	35.123
591.40	36.395
591.74	36.142
592.07	35.856
592.41	35.669
592.74	35.895
593.08	34.535
593.41	34.342
593.75	33.597
594.08	35.262
594.41	35.231
594.75	35.447
595.08	34.812
595.42	35.405
595.75	35.502
596.09	34.963
596.42	34.902
596.75	35.748
597.09	36.776
597.42	35.836
597.75	35.651
598.09	35.879
598.42	35.882
598.76	35.424
599.09	35.714
599.42	34.717
599.76	34.428
600.09	35.000
600.42	34.561
600.76	34.802
601.09	34.713
601.42	34.586
601.76	34.969
602.09	35.706
602.42	35.062
602.76	35.231
603.09	35.202
603.42	35.254
603.76	35.700
604.09	35.202
604.42	34.971
604.76	36.110
605.09	36.935
605.42	35.683
605.75	35.921
606.09	35.533
606.42	35.065
606.75	35.380
607.09	36.348
607.42	35.519
607.75	35.453
608.08	36.376
608.42	36.329
608.75	34.860
609.08	36.386
609.41	35.825
609.75	36.275
610.08	36.373
610.41	36.723
610.74	36.219
611.07	36.562
611.41	36.258
611.74	37.841
612.07	37.701
612.40	36.301
612.73	37.157
613.07	36.103
613.40	38.205
613.73	37.657
614.06	36.354
614.39	37.711
614.72	36.983
615.06	37.337
615.39	35.865
615.72	37.208
616.05	37.272
616.38	38.363
616.71	37.598
617.05	37.877
617.38	38.142
617.71	37.346
618.04	37.888
618.37	38.113
618.70	38.462
619.03	37.305
619.36	40.240
619.69	38.622
620.03	38.774
620.36	39.100
620.69	39.196
621.02	39.650
621.35	40.484
621.68	39.754
622.01	41.100
622.34	39.907
622.67	40.000
623.00	40.321
623.33	41.418
623.66	39.217
623.99	39.850
624.32	39.435
624.65	39.514
624.99	39.955
625.32	39.072
625.65	40.016
625.98	39.358
626.31	40.294
626.64	41.172
626.97	40.668
627.30	41.277
627.63	41.192
627.96	40.731
628.29	41.912
628.62	42.693
628.95	43.307
629.28	40.695
629.61	42.100
629.94	42.533
630.26	42.843
630.59	43.116
630.92	43.644
631.25	43.649
631.58	43.386
631.91	42.340
632.24	45.111
632.57	44.889
632.90	45.172
633.23	45.794
633.56	42.924
633.89	46.934
634.22	45.691
634.55	44.952
634.88	44.498
635.20	46.192
635.53	44.784
635.86	45.466
636.19	43.590
636.52	44.683
636.85	43.682
637.18	42.500
637.51	45.725
637.83	45.806
638.16	45.526
638.49	46.345
638.82	46.589
639.15	45.525
639.48	45.006
639.81	46.750
640.13	46.081
640.46	47.436
640.79	48.599
641.12	46.121
641.45	48.350
641.77	47.305
642.10	48.036
642.43	48.255
642.76	47.717
643.09	47.302
643.41	50.159
643.74	49.762
644.07	48.206
644.40	48.298
644.73	47.855
645.05	46.912
645.38	48.344
645.71	49.828
646.04	49.580
646.36	47.644
646.69	49.481
647.02	51.805
647.35	47.473
647.67	50.000
648.00	50.264
648.33	49.578
648.66	46.774
648.98	45.860
649.31	45.385
649.64	45.469
649.96	46.939
650.29	45.410
650.62	48.193
650.94	46.712
651.27	46.794
651.60	46.540
651.92	48.116
652.25	46.912
652.58	47.700
652.90	45.746
653.23	45.968
653.56	47.324
653.88	45.574
654.21	47.819
654.54	47.010
654.86	45.586
655.19	43.123
655.52	39.380
655.84	32.676
656.17	34.724
656.49	45.830
656.82	46.747
657.15	35.318
657.47	26.042
657.80	20.430
658.13	22.831
658.45	31.177
658.78	31.070
659.10	31.183
659.43	31.047
659.75	32.297
660.08	33.646
660.41	33.528
660.73	40.154
661.06	44.348
661.38	47.679
661.71	48.184
662.03	50.000
662.36	48.827
662.68	49.789
663.01	52.229
663.33	48.526
663.66	49.356
663.98	47.545
664.31	51.678
664.63	54.425
664.96	48.807
665.28	49.241
665.61	48.626
665.93	50.617
666.26	50.000
666.58	51.351
666.91	52.561
667.23	51.754
667.56	50.340
667.88	52.715
668.21	49.539
668.53	51.168
668.86	48.037
669.18	48.858
669.50	50.467
669.83	52.068
670.15	49.776
670.48	49.065
670.80	50.342
671.13	52.822
671.45	47.297
671.77	45.610
672.10	48.521
672.42	46.679
672.75	45.091
673.07	44.505
673.39	46.266
673.72	48.425
674.04	47.558
674.37	45.567
674.69	47.951
675.01	46.170
675.34	48.807
675.66	49.676
675.98	48.238
676.31	50.905
676.63	48.736
676.95	47.788
677.28	47.796
677.60	48.643
677.92	51.101
678.25	48.796
678.57	46.708
678.89	45.283
679.22	44.235
679.54	47.337
679.86	45.400
680.18	46.388
680.51	43.203
680.83	46.857
681.15	45.665
681.48	47.465
681.80	43.548
682.12	43.058
682.44	44.401
682.77	45.022
683.09	48.637
683.41	47.788
683.73	47.945
684.06	46.022
684.38	44.142
684.70	45.679
685.02	45.276
685.34	45.029
685.67	45.076
685.99	43.100
686.31	45.422
686.63	42.376
686.96	41.590
687.28	43.353
687.60	46.680
687.92	41.245
688.24	43.504
688.56	41.483
688.89	45.085
689.21	46.827
689.53	45.287
689.85	46.548
690.17	45.067
690.49	47.344
690.82	43.855
691.14	45.283
691.46	45.898
691.78	46.035
692.10	47.458
692.42	43.778
692.74	45.708
693.06	45.169
693.39	45.861
693.71	44.470
694.03	43.413
694.35	41.535
694.67	43.026
694.99	46.803
695.31	47.449
695.63	42.857
695.95	45.658
696.27	45.885
696.59	48.930
696.91	49.157
697.23	48.177
697.56	44.231
697.88	43.694
698.20	42.184
698.52	41.031
698.84	44.175
699.16	42.857
699.48	41.250
699.80	46.617
700.12	46.096
700.44	44.413
700.76	48.397
701.08	48.256
701.40	47.734
701.72	47.531
702.04	49.359
702.36	48.795
702.68	46.407
703.00	47.536
703.32	43.266
703.64	51.765
703.96	49.419
704.28	46.746
704.60	44.937
704.91	46.984
705.23	50.485
705.55	51.689
705.87	46.758
706.19	44.097
706.51	51.042
706.83	50.164
707.15	45.223
707.47	47.934
707.79	45.876
708.11	39.440
708.43	44.389
708.74	43.117
709.06	43.733
709.38	41.379
709.70	44.688
710.02	48.160
710.34	48.185
710.66	45.079
710.98	45.110
711.29	43.226
711.61	46.326
711.93	44.918
712.25	50.831
712.57	44.948
712.89	45.324
713.20	53.952
713.52	46.269
713.84	46.263
714.16	47.869
714.48	43.492
714.80	46.154
715.11	40.922
715.43	49.096
715.75	47.664
716.07	44.918
716.39	49.498
716.70	45.993
717.02	46.667
717.34	45.038
717.66	43.983
717.97	42.213
718.29	46.639
718.61	53.175
718.93	44.803
719.24	41.176
719.56	38.868
719.88	45.455
720.20	50.562
720.51	50.752
720.83	46.185
721.15	46.721
721.46	46.667
721.78	45.977
722.10	47.600
722.42	47.107
722.73	47.410
723.05	45.783
723.37	48.627
723.68	43.725
724.00	52.846
724.32	44.856
724.63	43.568
724.95	50.826
725.27	39.912
725.58	50.431
725.90	42.857
726.22	45.018
726.53	46.768
726.85	43.137
727.16	48.496
727.48	44.231
727.80	40.984
728.11	45.378
728.43	45.868
728.74	42.187
729.06	44.697
729.38	44.747
729.69	40.157
730.01	46.457
730.32	43.426
730.64	48.718
730.96	43.657
731.27	41.071
731.59	38.264
731.90	39.877
732.22	41.718
732.53	46.026
732.85	42.282
733.16	42.754
733.48	40.418
733.80	43.060
734.11	40.345
734.43	42.517
734.74	38.872
735.06	42.633
735.37	41.284
735.69	35.484
736.00	39.057
736.32	41.391
736.63	36.552
736.95	40.217
737.26	39.404
737.58	43.885
737.89	44.086
738.21	41.729
738.52	44.231
738.83	45.703
739.15	41.026
739.46	45.161
739.78	39.510
740.09	37.762
740.41	40.559
740.72	45.255
741.04	38.492
741.35	40.693
741.66	42.130
741.98	35.238
742.29	42.254
742.61	51.337
742.92	50.000
743.23	40.351
743.55	45.946
743.86	50.667
744.18	46.190
744.49	52.217
744.80	46.193
745.12	47.938
745.43	46.231
745.74	45.146
746.06	45.366
746.37	48.018
746.68	43.781
747.00	47.120
747.31	38.462
747.62	45.161
747.94	39.738
748.25	46.512
748.56	39.048
748.88	39.674
749.19	45.540
749.50	50.980
749.82	46.667
750.13	47.137
750.44	42.276
750.75	45.200
751.07	41.429
751.38	39.483
751.69	36.260
752.01	38.077
752.32	36.187
752.63	35.385
752.94	37.698
753.26	43.913
753.57	49.107
753.88	40.086
754.19	43.568
754.51	38.281
754.82	41.107
755.13	42.387
755.44	44.628
755.75	40.741
756.07	40.964
756.38	41.406
756.69	42.599
757.00	37.979
757.31	36.242
757.63	38.006
757.94	37.283
758.25	38.953
758.56	42.588
758.87	37.500
759.18	36.333
759.50	38.078
759.81	40.511
760.12	39.189
760.43	39.159
760.74	38.125
761.05	36.236
761.36	39.521
761.67	36.391
761.99	38.065
762.30	41.667
762.61	42.264
762.92	42.601
763.23	46.445
763.54	41.333
763.85	40.084
764.16	42.041
764.47	41.102
764.78	37.828
765.10	40.647
765.41	37.097
765.72	38.994
766.03	37.102
766.34	39.098
766.65	40.081
766.96	39.000
767.27	41.146
767.58	45.349
767.89	47.097
768.20	49.080
768.51	43.716
768.82	36.216
769.13	41.500
769.44	38.158
769.75	40.693
770.06	43.578
770.37	41.784
770.68	39.583
770.99	35.149
771.30	36.893
771.61	36.111
771.92	35.065
772.23	40.187
772.54	40.426
772.85	36.686
773.16	45.732
773.47	48.193
773.78	40.659
774.09	40.667
774.39	38.272
774.70	44.295
775.01	40.580
775.32	38.806
775.63	28.926
775.94	48.872
776.25	38.571
776.56	50.000
776.87	47.788
777.18	41.593
777.48	39.091
777.79	32.174
778.10	41.284
778.41	29.661
778.72	40.496
779.03	52.239
779.34	40.602
779.65	39.869
779.95	40.580
780.26	30.612
780.57	32.759
780.88	47.222
781.19	42.424
781.50	25.600
781.80	34.641
782.11	37.179
782.42	37.952
782.73	30.657
783.04	38.514
783.34	34.848
783.65	40.310
783.96	39.837
784.27	41.880
784.57	41.463
784.88	35.772
785.19	33.333
785.50	16.495
785.81	38.095
786.11	38.235
786.42	35.455
786.73	40.541
787.04	36.634
787.34	42.857
787.65	37.143
787.96	27.451
788.26	36.937
788.57	45.161
788.88	27.344
789.19	38.462
789.49	33.613
789.80	32.479
790.11	38.938
790.41	23.232
790.72	39.623
791.03	38.889
791.33	39.474
791.64	32.258
791.95	41.333
792.25	38.571
792.56	34.146
792.87	41.837
793.17	42.105
793.48	20.270
793.79	21.127
794.09	26.582
794.40	41.489
794.70	34.579
795.01	26.316
795.32	25.455
795.62	42.857
795.93	28.866
796.23	31.868
796.54	40.000
796.85	31.507
797.15	25.000
797.46	49.315
797.76	50.704
798.07	42.500
798.37	41.176
798.68	42.857
798.99	30.000
799.29	38.158
799.60	16.667
799.90	23.611
800.21	26.562
800.51	26.984
800.82	40.984
801.12	21.053
801.43	22.535
801.73	5.085
802.04	42.623
802.34	27.273
802.65	26.923
802.95	37.037
803.26	42.500
803.56	34.615
803.87	63.158
804.17	50.000
804.48	36.923
804.78	23.077
805.09	32.558
805.39	15.625
805.70	5.660
806.00	61.404
806.30	32.432
806.61	19.118
806.91	28.395
807.22	26.667
807.52	28.358
807.83	19.355
808.13	9.524
808.43	14.545
808.74	46.970
809.04	37.736
809.35	34.247
809.65	28.070
809.95	25.000
810.26	23.529
810.56	40.000
810.86	24.490
811.17	42.857
811.47	17.308
811.77	51.613
812.08	-5.263
812.38	4.762
812.69	32.609
812.99	19.355
813.29	14.286
813.59	3.704
813.90	31.915
814.20	18.605
814.50	31.250
814.81	18.333
815.11	29.268
815.41	13.333
815.72	25.714
816.02	16.667
816.32	28.205
816.62	24.324
816.93	-32.353
817.23	28.261
817.53	5.882
817.84	32.353
818.14	18.750
818.44	20.690
818.74	-6.452
819.04	3.704
819.35	16.667
819.65	0.000
819.95	33.333
820.25	52.000
820.56	28.947
820.86	5.000
821.16	34.043
821.46	36.207
821.76	-17.949
822.07	10.000
822.37	32.558
822.67	23.333
822.97	-5.405
823.27	27.027
823.57	28.000
823.88	10.811
824.18	-9.524
824.48	-7.692
824.78	-69.231
825.08	-17.391
825.38	29.167
825.69	-4.167
825.99	-50.000
826.29	-13.514
826.59	17.647
826.89	68.000
827.19	2.857
827.49	36.842
827.79	50.000
828.09	-16.667
828.39	69.565
828.70	-10.345
829.00	17.241
829.30	-5.556
829.60	37.500
829.90	22.222
830.20	-34.615
830.50	-23.810
830.80	-7.143
831.10	28.205
831.40	-23.810
831.70	-5.882
832.00	12.500
832.30	-31.579
832.60	-43.750
832.90	-58.333
833.20	-64.706
833.50	-93.333
833.80	0.000
834.10	-55.000
834.40	25.000
834.70	33.333
835.00	7.692
835.30	16.667
835.60	24.138
835.90	-66.667
836.20	-54.545
836.50	-75.000
836.80	8.571
837.10	45.714
837.40	-5.882
837.70	-54.545
838.00	25.000
838.30	-6.250
838.60	-33.333
838.90	-20.000
839.19	-34.783
839.49	-13.043
839.79	-50.000
840.09	-56.522
840.39	-27.273
840.69	-131.250
840.99	-63.158
841.29	-143.750
841.59	-28.571
841.88	-22.222
842.18	25.000
842.48	-52.941
842.78	13.793
843.08	-14.286
843.38	7.692
843.68	-111.111
843.97	-69.231
844.27	-18.182
844.57	-280.000
844.87	12.000
845.17	-280.000
845.47	-64.286
845.76	-122.222
846.06	0.000
846.36	-400.000
846.66	-40.000
846.96	-21.053
847.25	12.500
847.55	-58.333
847.85	13.333
848.15	-10.000
848.44	69.231
848.74	0.000
849.04	166.667
849.34	-133.333
849.63	-57.895
849.93	0.000
850.23	-5.000
850.53	28.571
850.82	-24.000
851.12	-31.579
851.42	-600.000
851.71	-35.714
852.01	-50.000
852.31	-5.882
852.61	-46.667
852.90	-9.524
853.20	-50.000
853.50	-38.889
853.79	0.000
854.09	-13.333
854.39	10.714
854.68	4.348
854.98	-116.667
855.28	24.138
855.57	-75.000
855.87	5.000
856.17	-60.000
856.46	-3.448
856.76	-20.000
857.05	-17.647
857.35	-115.385
857.65	9.091
857.94	22.222
858.24	-114.286
858.53	-50.000
858.83	-133.333
859.13	-166.667
859.42	104.762
859.72	-162.500
860.01	-566.667
860.31	-25.000
860.60	-380.000
860.90	-155.556
861.20	-112.500
861.49	-57.143
861.79	-17.647
862.08	-750.000
862.38	-100.000
862.67	-69.231
862.97	-35.294
863.26	5.000
863.56	-76.471
863.85	700.000
864.15	-110.000
864.44	-46.154
864.74	5.000
865.03	-200.000
865.33	-200.000
865.62	-41.176
865.92	-500.000
866.21	-71.429
866.51	-83.333
866.80	-500.000
867.10	-233.333
867.39	-5.882
867.69	34.783
867.98	-185.714
868.27	-500.000
868.57	-18.750
868.86	-209.091
869.16	0.000
869.45	-283.333
869.75	-114.286
870.04	1100.000
870.33	-58.333
870.63	-180.000
870.92	-155.556
871.22	-83.333
871.51	-118.182
871.80	16.667
872.10	30.000
>>>>>End Processed Spectral Data<<<<<
