SpectraSuite Data File
++++++++++++++++++++++++++++++++++++
Date: Sat May 16 11:19:57 PDT 2015
User: schluterlab
Dark Spectrum Present: Yes
Reference Spectrum Present: Yes
Number of Sampled Component Spectra: 1
Spectrometers: USB2E3373
Integration Time (usec): 3000 (USB2E3373)
Spectra Averaged: 3 (USB2E3373)
Boxcar Smoothing: 0 (USB2E3373)
Correct for Electrical Dark: No (USB2E3373)
Strobe/Lamp Enabled: No (USB2E3373)
Correct for Detector Non-linearity: No (USB2E3373)
Correct for Stray Light: No (USB2E3373)
Number of Pixels in Processed Spectrum: 2048
>>>>>Begin Processed Spectral Data<<<<<
178.53	0.000
178.91	133.333
179.29	666.667
179.67	-700.000
180.04	-84.615
180.42	900.000
180.80	300.000
181.18	400.000
181.56	-37.500
181.94	700.000
182.31	225.000
182.69	-46.154
183.07	-500.000
183.45	1450.000
183.83	500.000
184.20	-114.286
184.58	-62.500
184.96	-325.000
185.34	112.500
185.72	-225.000
186.09	200.000
186.47	-150.000
186.85	-125.000
187.23	-150.000
187.61	-325.000
187.98	-275.000
188.36	-175.000
188.74	-162.500
189.12	500.000
189.49	285.714
189.87	-41.667
190.25	425.000
190.63	-42.857
191.00	-166.667
191.38	420.000
191.76	93.333
192.14	520.000
192.51	-200.000
192.89	-266.667
193.27	0.000
193.65	-88.889
194.02	-242.857
194.40	366.667
194.78	-100.000
195.15	-600.000
195.53	-72.727
195.91	-400.000
196.29	260.000
196.66	-33.333
197.04	1000.000
197.42	-125.000
197.79	73.333
198.17	-366.667
198.55	-450.000
198.92	-1200.000
199.30	225.000
199.68	-500.000
200.05	-133.333
200.43	-177.778
200.81	-1600.000
201.18	-16.667
201.56	157.143
201.94	-26.667
202.31	31.818
202.69	-30.000
203.07	0.000
203.44	466.667
203.82	-416.667
204.19	-450.000
204.57	-175.000
204.95	-1600.000
205.32	-68.750
205.70	400.000
206.08	-400.000
206.45	16.667
206.83	-1050.000
207.20	500.000
207.58	-566.667
207.96	-400.000
208.33	-50.000
208.71	-144.444
209.08	280.000
209.46	-171.429
209.84	550.000
210.21	0.000
210.59	35.000
210.96	600.000
211.34	-150.000
211.71	-500.000
212.09	325.000
212.46	900.000
212.84	-2000.000
213.22	633.333
213.59	208.333
213.97	-144.444
214.34	120.000
214.72	-150.000
215.09	-100.000
215.47	-66.667
215.84	-10.000
216.22	-90.000
216.59	20.000
216.97	-475.000
217.34	600.000
217.72	-228.571
218.09	-83.333
218.47	-285.714
218.84	228.571
219.22	-71.429
219.59	0.000
219.97	200.000
220.34	525.000
220.72	175.000
221.09	-53.846
221.47	0.000
221.84	166.667
222.22	-250.000
222.59	1200.000
222.97	-175.000
223.34	-300.000
223.72	-500.000
224.09	-85.714
224.46	-300.000
224.84	-78.571
225.21	-114.286
225.59	-90.909
225.96	-75.000
226.34	-157.143
226.71	-55.556
227.08	-10.000
227.46	1800.000
227.83	-28.571
228.21	-112.500
228.58	-100.000
228.95	-6.250
229.33	-700.000
229.70	-200.000
230.08	-700.000
230.45	-50.000
230.82	-100.000
231.20	-800.000
231.57	-450.000
231.95	1600.000
232.32	-28.571
232.69	-55.556
233.07	-328.571
233.44	-500.000
233.81	-120.000
234.19	-11.111
234.56	0.000
234.93	9.375
235.31	-257.143
235.68	-121.429
236.05	-111.765
236.43	-22.727
236.80	-3.226
237.17	25.000
237.55	-66.667
237.92	-54.545
238.29	2.857
238.67	14.706
239.04	25.000
239.41	-29.032
239.79	-28.205
240.16	-7.143
240.53	-5.455
240.91	10.256
241.28	7.273
241.65	10.769
242.02	8.197
242.40	11.475
242.77	12.121
243.14	11.864
243.51	-2.857
243.89	3.797
244.26	1.124
244.63	14.737
245.00	17.895
245.38	17.797
245.75	12.389
246.12	20.800
246.49	11.024
246.87	13.821
247.24	13.559
247.61	10.169
247.98	10.563
248.36	18.881
248.73	17.722
249.10	7.643
249.47	19.298
249.84	15.909
250.22	11.905
250.59	15.819
250.96	13.613
251.33	18.957
251.70	15.385
252.08	16.588
252.45	19.431
252.82	14.286
253.19	14.043
253.56	17.742
253.94	21.519
254.31	13.734
254.68	20.732
255.05	14.516
255.42	19.048
255.79	18.996
256.16	19.216
256.54	22.059
256.91	16.288
257.28	14.652
257.65	15.957
258.02	21.069
258.39	18.060
258.76	16.216
259.14	15.432
259.51	19.016
259.88	19.207
260.25	18.634
260.62	14.469
260.99	14.540
261.36	16.463
261.73	23.410
262.10	18.333
262.47	19.373
262.85	24.286
263.22	16.619
263.59	16.308
263.96	19.710
264.33	15.989
264.70	20.994
265.07	20.604
265.44	18.605
265.81	19.121
266.18	17.722
266.55	18.382
266.92	17.632
267.29	18.886
267.66	18.025
268.03	21.498
268.40	19.249
268.77	19.277
269.14	18.561
269.51	19.770
269.88	16.284
270.25	17.249
270.62	17.391
270.99	19.144
271.36	20.979
271.73	19.507
272.10	18.535
272.47	16.889
272.84	20.222
273.21	17.661
273.58	20.659
273.95	16.886
274.32	18.326
274.69	18.818
275.06	18.405
275.43	17.188
275.80	20.570
276.17	17.155
276.54	20.774
276.91	19.547
277.28	18.458
277.65	18.388
278.02	19.833
278.39	20.039
278.76	18.127
279.13	19.565
279.50	19.284
279.87	20.085
280.23	19.231
280.60	17.694
280.97	15.922
281.34	17.795
281.71	20.192
282.08	16.734
282.45	17.108
282.82	18.798
283.19	16.909
283.56	19.780
283.92	17.845
284.29	18.959
284.66	19.604
285.03	19.251
285.40	19.926
285.77	20.175
286.14	19.134
286.51	16.874
286.87	19.419
287.24	18.089
287.61	17.025
287.98	16.638
288.35	15.868
288.72	17.487
289.08	15.424
289.45	20.875
289.82	17.474
290.19	20.197
290.56	15.702
290.93	16.375
291.29	15.235
291.66	16.425
292.03	17.896
292.40	15.211
292.77	16.304
293.13	15.935
293.50	15.156
293.87	17.945
294.24	16.290
294.60	15.303
294.97	16.237
295.34	15.407
295.71	14.435
296.08	13.978
296.44	14.306
296.81	15.954
297.18	14.789
297.55	15.254
297.91	15.900
298.28	14.384
298.65	14.226
299.02	16.845
299.38	15.909
299.75	13.995
300.12	14.359
300.48	14.578
300.85	12.713
301.22	13.583
301.59	14.824
301.95	15.365
302.32	13.559
302.69	14.688
303.05	13.797
303.42	11.875
303.79	14.115
304.15	13.981
304.52	14.352
304.89	13.459
305.25	13.675
305.62	15.041
305.99	13.899
306.35	14.539
306.72	13.895
307.09	14.869
307.45	13.621
307.82	12.961
308.19	13.758
308.55	13.617
308.92	11.600
309.29	12.108
309.65	12.725
310.02	12.527
310.38	11.135
310.75	13.934
311.12	13.740
311.48	12.630
311.85	13.285
312.22	13.079
312.58	14.039
312.95	12.946
313.31	12.687
313.68	14.271
314.05	13.947
314.41	12.274
314.78	12.288
315.14	13.722
315.51	13.374
315.87	13.843
316.24	13.411
316.61	14.107
316.97	13.134
317.34	13.391
317.70	12.152
318.07	13.619
318.43	12.828
318.80	13.803
319.16	12.946
319.53	12.124
319.89	12.512
320.26	13.824
320.62	12.596
320.99	14.030
321.35	11.724
321.72	11.566
322.08	12.661
322.45	10.990
322.81	13.353
323.18	13.353
323.54	12.384
323.91	13.068
324.27	13.023
324.64	12.797
325.00	13.787
325.37	13.303
325.73	14.873
326.10	12.755
326.46	13.398
326.83	12.766
327.19	12.260
327.56	13.799
327.92	12.659
328.29	13.247
328.65	11.818
329.01	13.074
329.38	12.756
329.74	13.004
330.11	13.781
330.47	13.170
330.84	14.024
331.20	12.635
331.56	12.944
331.93	12.966
332.29	12.694
332.66	13.345
333.02	11.584
333.38	12.993
333.75	12.556
334.11	12.622
334.48	12.092
334.84	12.948
335.20	13.209
335.57	12.274
335.93	12.802
336.29	12.489
336.66	11.278
337.02	13.063
337.38	12.656
337.75	12.291
338.11	12.254
338.47	12.367
338.84	11.615
339.20	11.775
339.56	13.280
339.93	13.139
340.29	11.869
340.65	12.063
341.02	12.732
341.38	12.974
341.74	12.786
342.11	12.628
342.47	11.760
342.83	12.846
343.20	12.126
343.56	10.939
343.92	12.521
344.28	13.541
344.65	12.294
345.01	11.765
345.37	12.874
345.73	11.457
346.10	12.020
346.46	11.292
346.82	11.307
347.19	11.750
347.55	11.798
347.91	11.102
348.27	11.695
348.63	13.813
349.00	12.888
349.36	11.319
349.72	12.739
350.08	11.949
350.45	12.293
350.81	12.739
351.17	10.531
351.53	11.854
351.89	12.045
352.26	11.163
352.62	13.057
352.98	11.867
353.34	11.431
353.70	11.506
354.07	11.959
354.43	12.174
354.79	11.886
355.15	12.141
355.51	11.484
355.87	11.067
356.24	11.438
356.60	12.248
356.96	10.931
357.32	11.797
357.68	11.571
358.04	12.317
358.40	11.137
358.77	10.974
359.13	11.706
359.49	11.413
359.85	11.433
360.21	11.492
360.57	12.500
360.93	11.630
361.29	11.061
361.66	10.595
362.02	11.538
362.38	12.546
362.74	11.502
363.10	10.545
363.46	12.749
363.82	11.516
364.18	12.012
364.54	13.152
364.90	11.670
365.26	10.842
365.62	12.830
365.98	12.304
366.35	12.183
366.71	11.135
367.07	12.138
367.43	11.736
367.79	11.546
368.15	10.669
368.51	13.497
368.87	13.049
369.23	11.298
369.59	11.875
369.95	11.557
370.31	12.588
370.67	11.280
371.03	11.953
371.39	11.669
371.75	12.589
372.11	12.052
372.47	11.424
372.83	11.613
373.19	11.500
373.55	11.541
373.91	11.807
374.27	11.773
374.63	11.456
374.99	12.031
375.35	11.238
375.71	12.154
376.07	12.047
376.42	11.921
376.78	13.007
377.14	11.254
377.50	12.508
377.86	12.159
378.22	11.746
378.58	11.365
378.94	11.097
379.30	11.456
379.66	12.083
380.02	11.527
380.38	10.997
380.74	11.665
381.09	11.775
381.45	11.695
381.81	11.071
382.17	11.404
382.53	11.064
382.89	10.945
383.25	11.800
383.61	11.792
383.97	12.370
384.32	12.140
384.68	12.334
385.04	11.051
385.40	11.625
385.76	11.341
386.12	11.680
386.48	12.129
386.83	11.534
387.19	12.493
387.55	11.629
387.91	12.092
388.27	11.339
388.62	11.659
388.98	11.024
389.34	11.812
389.70	12.424
390.06	12.057
390.42	11.795
390.77	12.177
391.13	12.298
391.49	11.853
391.85	11.721
392.20	11.650
392.56	11.484
392.92	11.979
393.28	11.768
393.64	11.786
393.99	11.200
394.35	11.740
394.71	11.859
395.07	11.739
395.42	12.098
395.78	11.691
396.14	12.523
396.50	11.498
396.85	12.030
397.21	12.515
397.57	11.854
397.92	11.651
398.28	12.222
398.64	11.957
399.00	12.753
399.35	11.443
399.71	13.008
400.07	11.463
400.42	12.409
400.78	12.343
401.14	11.976
401.49	12.323
401.85	11.531
402.21	11.859
402.57	12.136
402.92	11.957
403.28	11.336
403.63	11.803
403.99	11.498
404.35	11.896
404.70	12.873
405.06	12.572
405.42	10.947
405.77	11.425
406.13	12.039
406.49	11.803
406.84	11.698
407.20	12.250
407.55	11.273
407.91	11.593
408.27	12.990
408.62	12.147
408.98	12.432
409.34	11.335
409.69	11.846
410.05	11.765
410.40	12.017
410.76	11.796
411.11	11.783
411.47	12.020
411.83	11.919
412.18	12.005
412.54	11.348
412.89	12.333
413.25	11.039
413.60	11.908
413.96	11.337
414.31	11.988
414.67	10.730
415.03	11.772
415.38	12.101
415.74	11.727
416.09	12.340
416.45	10.979
416.80	11.769
417.16	10.963
417.51	12.672
417.87	11.521
418.22	11.568
418.58	12.259
418.93	11.956
419.29	11.355
419.64	11.683
420.00	12.576
420.35	12.419
420.71	11.585
421.06	11.834
421.42	11.300
421.77	12.507
422.12	12.087
422.48	11.919
422.83	11.902
423.19	12.138
423.54	11.816
423.90	11.683
424.25	11.425
424.61	12.063
424.96	11.937
425.31	11.738
425.67	11.748
426.02	10.671
426.38	12.402
426.73	11.631
427.09	10.846
427.44	11.080
427.79	11.163
428.15	12.089
428.50	11.965
428.85	11.811
429.21	12.009
429.56	12.344
429.92	11.974
430.27	11.914
430.62	12.173
430.98	11.448
431.33	12.060
431.68	12.440
432.04	11.472
432.39	11.909
432.74	11.571
433.10	12.099
433.45	11.629
433.80	11.870
434.16	12.198
434.51	11.671
434.86	11.834
435.22	11.804
435.57	12.607
435.92	12.309
436.28	12.107
436.63	11.475
436.98	11.798
437.34	12.640
437.69	11.844
438.04	11.798
438.39	12.575
438.75	12.224
439.10	12.382
439.45	11.467
439.81	12.108
440.16	11.584
440.51	11.706
440.86	11.799
441.22	11.498
441.57	12.158
441.92	12.020
442.27	12.013
442.63	12.554
442.98	11.738
443.33	12.576
443.68	11.725
444.03	12.181
444.39	11.943
444.74	12.665
445.09	11.623
445.44	12.493
445.79	11.882
446.15	12.048
446.50	11.486
446.85	12.468
447.20	11.491
447.55	11.823
447.91	11.847
448.26	12.067
448.61	11.488
448.96	11.765
449.31	11.274
449.66	12.135
450.02	11.967
450.37	11.826
450.72	11.525
451.07	12.005
451.42	11.896
451.77	11.550
452.12	11.800
452.47	12.783
452.83	11.357
453.18	11.322
453.53	11.505
453.88	11.483
454.23	11.306
454.58	12.803
454.93	12.217
455.28	11.727
455.63	12.408
455.98	12.108
456.34	10.864
456.69	11.820
457.04	12.354
457.39	11.663
457.74	11.872
458.09	12.355
458.44	12.471
458.79	11.547
459.14	12.265
459.49	12.611
459.84	12.198
460.19	11.695
460.54	11.434
460.89	11.267
461.24	11.415
461.59	12.896
461.94	11.776
462.29	11.852
462.64	11.792
462.99	12.450
463.34	12.762
463.69	11.832
464.04	11.716
464.39	11.708
464.74	11.820
465.09	11.606
465.44	11.788
465.79	12.352
466.14	12.371
466.49	11.917
466.84	12.545
467.19	11.721
467.54	11.456
467.89	11.961
468.24	12.114
468.59	11.993
468.94	11.897
469.29	11.631
469.64	12.534
469.99	12.424
470.34	12.358
470.68	12.209
471.03	12.939
471.38	11.181
471.73	11.538
472.08	12.249
472.43	12.162
472.78	11.667
473.13	11.862
473.48	11.934
473.83	11.663
474.17	12.611
474.52	13.747
474.87	12.179
475.22	11.563
475.57	11.556
475.92	12.257
476.27	11.771
476.61	11.380
476.96	11.738
477.31	11.518
477.66	11.954
478.01	11.994
478.36	11.891
478.70	12.226
479.05	12.655
479.40	11.606
479.75	11.876
480.10	11.607
480.45	11.460
480.79	12.192
481.14	11.892
481.49	12.052
481.84	12.390
482.19	12.471
482.53	11.932
482.88	11.438
483.23	11.878
483.58	12.997
483.92	12.136
484.27	11.608
484.62	12.268
484.97	12.276
485.31	11.424
485.66	12.471
486.01	12.298
486.36	12.411
486.70	12.510
487.05	12.430
487.40	12.046
487.75	12.100
488.09	11.519
488.44	12.179
488.79	11.638
489.13	11.792
489.48	12.276
489.83	11.616
490.17	11.972
490.52	12.409
490.87	11.085
491.22	12.050
491.56	12.176
491.91	12.691
492.26	12.075
492.60	11.703
492.95	11.947
493.30	11.863
493.64	11.378
493.99	12.046
494.34	11.524
494.68	11.985
495.03	12.094
495.37	10.816
495.72	11.788
496.07	12.154
496.41	12.135
496.76	11.461
497.11	12.058
497.45	12.787
497.80	11.756
498.14	12.132
498.49	11.502
498.84	11.650
499.18	13.012
499.53	11.982
499.87	11.873
500.22	12.157
500.56	11.656
500.91	12.118
501.26	12.130
501.60	11.748
501.95	12.271
502.29	11.715
502.64	12.730
502.98	11.644
503.33	12.453
503.67	11.542
504.02	12.168
504.36	12.304
504.71	11.550
505.06	12.132
505.40	12.874
505.75	12.348
506.09	12.133
506.44	12.180
506.78	11.540
507.13	12.255
507.47	11.946
507.82	12.184
508.16	11.969
508.51	11.643
508.85	12.112
509.19	11.669
509.54	11.945
509.88	12.021
510.23	12.421
510.57	12.646
510.92	12.299
511.26	11.643
511.61	11.609
511.95	12.392
512.30	12.369
512.64	11.408
512.98	11.936
513.33	12.576
513.67	11.893
514.02	12.472
514.36	11.911
514.70	11.941
515.05	12.521
515.39	11.707
515.74	12.275
516.08	12.795
516.42	12.238
516.77	12.016
517.11	11.442
517.46	12.560
517.80	11.673
518.14	11.353
518.49	11.476
518.83	12.047
519.17	13.262
519.52	12.030
519.86	12.903
520.20	12.225
520.55	11.446
520.89	12.336
521.23	12.210
521.58	12.539
521.92	12.666
522.26	12.698
522.61	11.977
522.95	11.870
523.29	12.665
523.64	12.367
523.98	11.649
524.32	12.696
524.66	11.366
525.01	11.625
525.35	12.436
525.69	12.036
526.04	12.337
526.38	12.476
526.72	11.877
527.06	13.086
527.41	11.749
527.75	11.155
528.09	11.449
528.43	12.459
528.78	12.186
529.12	13.124
529.46	12.307
529.80	11.427
530.15	13.329
530.49	12.225
530.83	13.752
531.17	12.256
531.51	11.520
531.86	12.706
532.20	13.090
532.54	13.302
532.88	12.846
533.22	11.832
533.57	12.663
533.91	12.110
534.25	12.068
534.59	12.430
534.93	12.197
535.27	12.775
535.62	13.555
535.96	12.799
536.30	12.173
536.64	12.151
536.98	11.794
537.32	11.748
537.66	11.881
538.01	12.165
538.35	12.838
538.69	11.698
539.03	11.645
539.37	12.641
539.71	12.475
540.05	12.063
540.39	12.465
540.73	12.370
541.07	12.978
541.42	11.546
541.76	11.827
542.10	12.559
542.44	12.125
542.78	12.551
543.12	11.677
543.46	11.370
543.80	12.174
544.14	11.753
544.48	13.714
544.82	12.720
545.16	11.938
545.50	11.709
545.84	13.074
546.18	11.650
546.52	12.020
546.86	11.681
547.20	12.377
547.54	12.534
547.88	11.612
548.22	11.927
548.56	11.957
548.90	12.332
549.24	11.633
549.58	11.927
549.92	12.650
550.26	12.934
550.60	11.878
550.94	11.825
551.28	13.093
551.62	11.817
551.96	12.229
552.30	12.822
552.64	12.878
552.98	12.404
553.32	11.905
553.66	12.185
554.00	12.509
554.34	12.058
554.68	12.135
555.02	12.590
555.36	12.725
555.69	12.464
556.03	12.281
556.37	12.020
556.71	12.312
557.05	12.491
557.39	11.136
557.73	11.962
558.07	11.680
558.41	11.219
558.75	12.548
559.08	10.739
559.42	10.949
559.76	13.113
560.10	13.199
560.44	12.789
560.78	13.500
561.12	12.491
561.45	11.712
561.79	13.171
562.13	12.272
562.47	12.395
562.81	12.376
563.15	12.106
563.48	12.163
563.82	11.900
564.16	12.508
564.50	12.500
564.84	12.169
565.17	11.273
565.51	12.386
565.85	12.779
566.19	12.648
566.52	12.524
566.86	11.441
567.20	12.833
567.54	12.936
567.88	12.507
568.21	12.136
568.55	12.195
568.89	12.873
569.23	12.818
569.56	12.106
569.90	12.628
570.24	12.777
570.57	12.619
570.91	12.411
571.25	13.132
571.59	12.551
571.92	12.798
572.26	12.552
572.60	12.380
572.93	12.326
573.27	12.317
573.61	12.188
573.95	12.507
574.28	12.170
574.62	12.964
574.96	12.089
575.29	12.551
575.63	12.264
575.97	12.001
576.30	12.688
576.64	12.245
576.98	13.088
577.31	12.658
577.65	12.794
577.98	12.435
578.32	12.461
578.66	12.735
578.99	12.682
579.33	12.861
579.67	12.402
580.00	12.401
580.34	12.476
580.67	12.037
581.01	12.409
581.35	13.002
581.68	12.500
582.02	13.108
582.35	12.937
582.69	12.819
583.02	12.511
583.36	12.059
583.70	12.135
584.03	12.311
584.37	12.152
584.70	12.635
585.04	12.228
585.37	12.243
585.71	12.337
586.04	12.335
586.38	12.537
586.72	12.627
587.05	12.631
587.39	12.510
587.72	12.424
588.06	11.939
588.39	12.361
588.73	12.311
589.06	12.564
589.40	13.123
589.73	12.429
590.07	12.090
590.40	12.768
590.73	11.995
591.07	12.459
591.40	12.738
591.74	12.076
592.07	11.982
592.41	12.272
592.74	12.875
593.08	13.045
593.41	12.829
593.75	12.166
594.08	12.185
594.41	12.643
594.75	12.760
595.08	12.594
595.42	12.681
595.75	12.201
596.09	12.068
596.42	12.643
596.75	12.419
597.09	13.535
597.42	12.047
597.75	12.267
598.09	12.291
598.42	11.666
598.76	11.836
599.09	12.470
599.42	12.303
599.76	12.420
600.09	12.977
600.42	12.723
600.76	12.467
601.09	12.913
601.42	12.109
601.76	12.656
602.09	12.147
602.42	11.975
602.76	11.799
603.09	12.863
603.42	12.288
603.76	12.724
604.09	12.335
604.42	12.073
604.76	11.906
605.09	12.251
605.42	12.677
605.75	11.859
606.09	12.329
606.42	12.275
606.75	12.022
607.09	12.483
607.42	11.708
607.75	12.053
608.08	12.878
608.42	11.779
608.75	11.822
609.08	12.226
609.41	12.506
609.75	12.384
610.08	13.039
610.41	12.530
610.74	12.863
611.07	12.170
611.41	12.305
611.74	12.442
612.07	13.373
612.40	12.420
612.73	12.170
613.07	11.558
613.40	12.917
613.73	12.589
614.06	11.971
614.39	12.570
614.72	11.732
615.06	11.957
615.39	12.588
615.72	12.059
616.05	11.264
616.38	12.014
616.71	12.492
617.05	12.666
617.38	12.012
617.71	11.855
618.04	11.739
618.37	11.635
618.70	13.494
619.03	11.171
619.36	11.980
619.69	12.563
620.03	11.708
620.36	12.588
620.69	12.276
621.02	11.796
621.35	12.258
621.68	11.230
622.01	11.408
622.34	12.888
622.67	11.563
623.00	12.012
623.33	12.910
623.66	11.817
623.99	11.654
624.32	11.682
624.65	11.773
624.99	11.949
625.32	11.751
625.65	11.500
625.98	11.268
626.31	11.664
626.64	11.715
626.97	12.158
627.30	11.830
627.63	10.708
627.96	11.140
628.29	10.662
628.62	11.652
628.95	11.713
629.28	9.680
629.61	10.991
629.94	10.397
630.26	12.127
630.59	12.261
630.92	11.411
631.25	12.198
631.58	11.534
631.91	11.170
632.24	10.333
632.57	11.111
632.90	10.690
633.23	10.631
633.56	10.994
633.89	11.557
634.22	11.334
634.55	11.659
634.88	11.004
635.20	9.613
635.53	11.323
635.86	9.824
636.19	11.233
636.52	9.438
636.85	10.229
637.18	10.375
637.51	11.152
637.83	10.519
638.16	9.474
638.49	10.069
638.82	10.296
639.15	12.581
639.48	10.117
639.81	11.757
640.13	10.135
640.46	10.826
640.79	10.224
641.12	12.553
641.45	10.617
641.77	10.180
642.10	9.063
642.43	10.622
642.76	8.976
643.09	8.889
643.41	13.016
643.74	11.129
644.07	11.388
644.40	11.831
644.73	11.221
645.05	9.516
645.38	12.086
645.71	12.027
646.04	12.941
646.36	8.901
646.69	10.554
647.02	9.206
647.35	9.567
647.67	10.219
648.00	10.369
648.33	11.130
648.66	8.065
648.98	12.102
649.31	11.231
649.64	10.156
649.96	9.890
650.29	10.164
650.62	11.015
650.94	9.781
651.27	12.478
651.60	9.689
651.92	12.842
652.25	11.686
652.58	10.221
652.90	9.470
653.23	10.161
653.56	8.528
653.88	10.328
654.21	10.906
654.54	10.797
654.86	10.433
655.19	10.745
655.52	12.018
655.84	13.636
656.17	14.668
656.49	19.829
656.82	20.168
657.15	14.798
657.47	10.872
657.80	8.374
658.13	9.420
658.45	11.882
658.78	11.195
659.10	11.133
659.43	10.808
659.75	10.818
660.08	9.948
660.41	10.446
660.73	9.571
661.06	10.290
661.38	11.786
661.71	12.046
662.03	9.476
662.36	9.382
662.68	7.806
663.01	8.068
663.33	9.524
663.66	12.232
663.98	4.688
664.31	10.067
664.63	13.274
664.96	9.544
665.28	7.809
665.61	8.879
665.93	11.934
666.26	8.704
666.58	9.979
666.91	8.018
667.23	11.842
667.56	10.204
667.88	10.181
668.21	11.751
668.53	9.346
668.86	9.931
669.18	8.676
669.50	6.308
669.83	8.273
670.15	7.623
670.48	8.411
670.80	7.289
671.13	8.578
671.45	9.234
671.77	10.493
672.10	9.467
672.42	10.886
672.75	12.000
673.07	9.550
673.39	10.929
673.72	11.220
674.04	9.342
674.37	9.691
674.69	10.041
675.01	9.149
675.34	7.809
675.66	12.311
675.98	10.573
676.31	11.086
676.63	8.276
676.95	11.283
677.28	10.209
677.60	12.217
677.92	10.352
678.25	9.409
678.57	11.317
678.89	10.063
679.22	10.692
679.54	12.426
679.86	8.200
680.18	11.597
680.51	8.939
680.83	12.000
681.15	10.019
681.48	11.765
681.80	7.661
682.12	10.060
682.44	9.037
682.77	6.277
683.09	12.369
683.41	10.841
683.73	6.393
684.06	9.462
684.38	11.297
684.70	9.465
685.02	8.661
685.34	11.696
685.67	8.333
685.99	8.318
686.31	10.772
686.63	9.397
686.96	12.200
687.28	10.597
687.60	10.742
687.92	8.755
688.24	10.630
688.56	8.818
688.89	7.906
689.21	10.722
689.53	12.184
689.85	11.581
690.17	10.762
690.49	7.621
690.82	9.880
691.14	8.019
691.46	11.308
691.78	12.115
692.10	12.924
692.42	9.111
692.74	8.155
693.06	11.461
693.39	10.515
693.71	9.707
694.03	10.151
694.35	9.932
694.67	7.092
694.99	8.440
695.31	9.184
695.63	8.163
695.95	9.181
696.27	7.731
696.59	9.358
696.91	10.955
697.23	11.198
697.56	7.692
697.88	7.658
698.20	9.636
698.52	7.623
698.84	12.136
699.16	10.238
699.48	7.750
699.80	9.524
700.12	11.587
700.44	7.821
700.76	6.122
701.08	9.593
701.40	3.625
701.72	8.951
702.04	8.013
702.36	10.241
702.68	9.880
703.00	7.826
703.32	7.736
703.64	11.471
703.96	12.500
704.28	11.243
704.60	6.646
704.91	2.540
705.23	8.414
705.55	5.405
705.87	8.191
706.19	6.597
706.51	9.028
706.83	10.164
707.15	10.191
707.47	12.121
707.79	8.505
708.11	6.616
708.43	11.970
708.74	7.792
709.06	9.749
709.38	10.057
709.70	4.688
710.02	9.816
710.34	6.271
710.66	7.302
710.98	8.202
711.29	8.387
711.61	7.987
711.93	8.852
712.25	10.631
712.57	4.530
712.89	7.554
713.20	11.684
713.52	4.104
713.84	4.626
714.16	9.836
714.48	11.746
714.80	8.308
715.11	11.527
715.43	13.554
715.75	11.526
716.07	4.262
716.39	10.702
716.70	11.498
717.02	9.259
717.34	4.962
717.66	7.884
717.97	1.639
718.29	9.664
718.61	11.111
718.93	10.394
719.24	4.412
719.56	3.019
719.88	11.273
720.20	6.367
720.51	11.654
720.83	4.016
721.15	8.197
721.46	3.922
721.78	8.812
722.10	10.000
722.42	4.132
722.73	9.163
723.05	5.221
723.37	9.804
723.68	3.644
724.00	10.163
724.32	8.642
724.63	5.809
724.95	10.744
725.27	5.263
725.58	7.759
725.90	6.349
726.22	11.439
726.53	7.224
726.85	4.706
727.16	6.391
727.48	8.077
727.80	5.738
728.11	7.143
728.43	5.785
728.74	8.984
729.06	10.985
729.38	5.837
729.69	2.362
730.01	11.024
730.32	-0.398
730.64	9.158
730.96	11.194
731.27	6.071
731.59	8.682
731.90	12.270
732.22	8.282
732.53	10.596
732.85	10.067
733.16	7.246
733.48	8.711
733.80	9.253
734.11	7.931
734.43	10.204
734.74	10.386
735.06	7.837
735.37	9.786
735.69	4.516
736.00	7.407
736.32	11.258
736.63	6.897
736.95	7.246
737.26	7.616
737.58	8.633
737.89	11.470
738.21	4.887
738.52	6.154
738.83	8.203
739.15	8.974
739.46	13.710
739.78	9.091
740.09	10.490
740.41	5.944
740.72	9.489
741.04	6.349
741.35	2.165
741.66	6.944
741.98	5.238
742.29	16.901
742.61	6.952
742.92	10.748
743.23	7.456
743.55	7.658
743.86	11.556
744.18	0.476
744.49	11.330
744.80	9.645
745.12	3.093
745.43	7.035
745.74	12.136
746.06	3.902
746.37	7.489
746.68	12.438
747.00	8.377
747.31	7.212
747.62	8.295
747.94	6.987
748.25	10.233
748.56	6.667
748.88	1.087
749.19	7.981
749.50	17.157
749.82	8.000
750.13	8.811
750.44	7.724
750.75	8.800
751.07	8.929
751.38	8.487
751.69	6.107
752.01	8.846
752.32	3.113
752.63	6.538
752.94	5.556
753.26	10.000
753.57	7.589
753.88	6.897
754.19	6.639
754.51	8.203
754.82	6.719
755.13	7.407
755.44	8.678
755.75	9.877
756.07	8.032
756.38	6.250
756.69	12.635
757.00	10.105
757.31	8.054
757.63	14.330
757.94	9.827
758.25	8.721
758.56	12.129
758.87	10.511
759.18	8.667
759.50	11.032
759.81	7.299
760.12	8.108
760.43	14.563
760.74	11.563
761.05	9.551
761.36	10.778
761.67	10.651
761.99	8.710
762.30	9.420
762.61	11.321
762.92	11.211
763.23	5.213
763.54	8.000
763.85	11.392
764.16	6.939
764.47	9.746
764.78	9.363
765.10	8.273
765.41	7.419
765.72	12.893
766.03	4.594
766.34	9.398
766.65	12.955
766.96	1.500
767.27	7.812
767.58	6.395
767.89	6.452
768.20	19.632
768.51	3.825
768.82	9.730
769.13	8.500
769.44	8.772
769.75	6.061
770.06	16.055
770.37	7.981
770.68	8.854
770.99	6.931
771.30	11.650
771.61	3.704
771.92	6.494
772.23	9.346
772.54	6.383
772.85	4.142
773.16	2.439
773.47	4.819
773.78	12.088
774.09	7.333
774.39	13.580
774.70	2.013
775.01	6.522
775.32	-1.493
775.63	-14.050
775.94	9.023
776.25	5.000
776.56	6.557
776.87	2.655
777.18	7.080
777.48	6.364
777.79	0.000
778.10	1.835
778.41	10.169
778.72	9.917
779.03	4.478
779.34	9.774
779.65	16.340
779.95	6.522
780.26	-0.680
780.57	-3.448
780.88	3.704
781.19	-1.010
781.50	-2.400
781.80	1.961
782.11	3.205
782.42	6.627
782.73	4.380
783.04	10.811
783.34	2.273
783.65	0.000
783.96	3.252
784.27	4.274
784.57	7.317
784.88	5.691
785.19	7.895
785.50	-16.495
785.81	-2.857
786.11	0.000
786.42	2.727
786.73	10.811
787.04	-3.960
787.34	3.810
787.65	-0.952
787.96	-10.784
788.26	0.901
788.57	7.258
788.88	1.562
789.19	-1.709
789.49	0.000
789.80	2.564
790.11	11.504
790.41	2.020
790.72	16.038
791.03	-11.111
791.33	0.000
791.64	11.828
791.95	-13.333
792.25	-8.571
792.56	-3.659
792.87	8.163
793.17	-7.895
793.48	-13.514
793.79	-1.408
794.09	5.063
794.40	-5.319
794.70	-0.935
795.01	-7.895
795.32	2.727
795.62	5.357
795.93	-2.062
796.23	-9.890
796.54	1.053
796.85	-9.589
797.15	-4.167
797.46	6.849
797.76	5.634
798.07	11.250
798.37	7.353
798.68	2.857
798.99	8.571
799.29	5.263
799.60	0.000
799.90	-19.444
800.21	-7.813
800.51	-9.524
800.82	0.000
801.12	-7.018
801.43	-11.268
801.73	-5.085
802.04	-4.918
802.34	-30.909
802.65	-23.077
802.95	-9.259
803.26	-42.500
803.56	-19.231
803.87	-10.526
804.17	1.613
804.48	-4.615
804.78	-12.821
805.09	-20.930
805.39	-28.125
805.70	-28.302
806.00	21.053
806.30	13.514
806.61	-11.765
806.91	18.519
807.22	-6.667
807.52	-1.493
807.83	-4.839
808.13	-15.873
808.43	-14.545
808.74	1.515
809.04	-3.774
809.35	4.110
809.65	5.263
809.95	16.176
810.26	-1.961
810.56	-20.000
810.86	-26.531
811.17	-34.286
811.47	-13.462
811.77	-6.452
812.08	-68.421
812.38	-7.143
812.69	-4.348
812.99	-35.484
813.29	-14.286
813.59	-77.778
813.90	-12.766
814.20	-34.884
814.50	-14.583
814.81	-13.333
815.11	-34.146
815.41	-33.333
815.72	-2.857
816.02	-11.111
816.32	0.000
816.62	-29.730
816.93	-35.294
817.23	6.522
817.53	-29.412
817.84	-23.529
818.14	-34.375
818.44	-37.931
818.74	-16.129
819.04	-70.370
819.35	-53.333
819.65	-60.000
819.95	-10.000
820.25	-80.000
820.56	5.263
820.86	-52.500
821.16	6.383
821.46	-10.345
821.76	-38.462
822.07	-27.500
822.37	-37.209
822.67	-23.333
822.97	-10.811
823.27	5.405
823.57	0.000
823.88	-21.622
824.18	-95.238
824.48	-15.385
824.78	-169.231
825.08	-13.043
825.38	-4.167
825.69	-25.000
825.99	-50.000
826.29	-18.919
826.59	-17.647
826.89	4.000
827.19	-8.571
827.49	7.895
827.79	6.250
828.09	-76.667
828.39	-30.435
828.70	-31.034
829.00	-34.483
829.30	-16.667
829.60	15.625
829.90	-83.333
830.20	-57.692
830.50	-85.714
830.80	-35.714
831.10	2.564
831.40	-33.333
831.70	-17.647
832.00	0.000
832.30	-63.158
832.60	-68.750
832.90	-158.333
833.20	-100.000
833.50	-133.333
833.80	-120.000
834.10	-5.000
834.40	-41.667
834.70	-16.667
835.00	7.692
835.30	-54.167
835.60	-10.345
835.90	-66.667
836.20	-127.273
836.50	-125.000
836.80	5.714
837.10	20.000
837.40	-76.471
837.70	-154.545
838.00	-33.333
838.30	6.250
838.60	4.762
838.90	-10.000
839.19	-30.435
839.49	-8.696
839.79	-88.889
840.09	-30.435
840.39	-72.727
840.69	-37.500
840.99	-10.526
841.29	-93.750
841.59	-121.429
841.88	-77.778
842.18	-66.667
842.48	-58.824
842.78	-20.690
843.08	-50.000
843.38	-46.154
843.68	-122.222
843.97	-53.846
844.27	-100.000
844.57	-280.000
844.87	48.000
845.17	-120.000
845.47	-71.429
845.76	-77.778
846.06	0.000
846.36	-525.000
846.66	-110.000
846.96	-57.895
847.25	-20.833
847.55	-100.000
847.85	53.333
848.15	-120.000
848.44	7.692
848.74	-73.684
849.04	500.000
849.34	-77.778
849.63	-68.421
849.93	0.000
850.23	-70.000
850.53	-14.286
850.82	-4.000
851.12	5.263
851.42	-1050.000
851.71	-14.286
852.01	-58.333
852.31	-94.118
852.61	-40.000
852.90	-42.857
853.20	-233.333
853.50	0.000
853.79	-68.421
854.09	-53.333
854.39	10.714
854.68	-17.391
854.98	-208.333
855.28	-20.690
855.57	-25.000
855.87	-30.000
856.17	-86.667
856.46	-17.241
856.76	-20.000
857.05	-52.941
857.35	-192.308
857.65	-172.727
857.94	-37.037
858.24	-78.571
858.53	-92.857
858.83	-33.333
859.13	-222.222
859.42	19.048
859.72	-200.000
860.01	-333.333
860.31	-125.000
860.60	-280.000
860.90	-177.778
861.20	0.000
861.49	-142.857
861.79	-47.059
862.08	-1100.000
862.38	-116.667
862.67	-38.462
862.97	41.176
863.26	5.000
863.56	0.000
863.85	300.000
864.15	-90.000
864.44	-61.538
864.74	-15.000
865.03	-212.500
865.33	-350.000
865.62	-47.059
865.92	-575.000
866.21	-64.286
866.51	-75.000
866.80	-100.000
867.10	-733.333
867.39	-64.706
867.69	0.000
867.98	-171.429
868.27	-680.000
868.57	-81.250
868.86	-145.455
869.16	0.000
869.45	-66.667
869.75	-171.429
870.04	1600.000
870.33	-83.333
870.63	0.000
870.92	-55.556
871.22	8.333
871.51	-72.727
871.80	8.333
872.10	-130.000
>>>>>End Processed Spectral Data<<<<<
