SpectraSuite Data File
++++++++++++++++++++++++++++++++++++
Date: Sat May 16 11:30:31 PDT 2015
User: schluterlab
Dark Spectrum Present: Yes
Reference Spectrum Present: Yes
Number of Sampled Component Spectra: 1
Spectrometers: USB2E3373
Integration Time (usec): 3000 (USB2E3373)
Spectra Averaged: 3 (USB2E3373)
Boxcar Smoothing: 0 (USB2E3373)
Correct for Electrical Dark: No (USB2E3373)
Strobe/Lamp Enabled: No (USB2E3373)
Correct for Detector Non-linearity: No (USB2E3373)
Correct for Stray Light: No (USB2E3373)
Number of Pixels in Processed Spectrum: 2048
>>>>>Begin Processed Spectral Data<<<<<
178.53	0.000
178.91	106.667
179.29	533.333
179.67	-700.000
180.04	-61.538
180.42	1000.000
180.80	400.000
181.18	450.000
181.56	-150.000
181.94	1100.000
182.31	375.000
182.69	-76.923
183.07	-333.333
183.45	1600.000
183.83	300.000
184.20	-271.429
184.58	-250.000
184.96	-500.000
185.34	112.500
185.72	-475.000
186.09	300.000
186.47	-150.000
186.85	-112.500
187.23	-62.500
187.61	-525.000
187.98	-350.000
188.36	-137.500
188.74	-200.000
189.12	-0.000
189.49	200.000
189.87	-41.667
190.25	500.000
190.63	-78.571
191.00	-244.444
191.38	260.000
191.76	26.667
192.14	440.000
192.51	-320.000
192.89	-200.000
193.27	0.000
193.65	-133.333
194.02	-271.429
194.40	533.333
194.78	-60.000
195.15	-1000.000
195.53	-100.000
195.91	-516.667
196.29	300.000
196.66	-633.333
197.04	1200.000
197.42	-50.000
197.79	26.667
198.17	-433.333
198.55	-850.000
198.92	-2300.000
199.30	175.000
199.68	-850.000
200.05	-77.778
200.43	-166.667
200.81	-1000.000
201.18	-91.667
201.56	228.571
201.94	-86.667
202.31	18.182
202.69	40.000
203.07	-110.000
203.44	400.000
203.82	-366.667
204.19	-275.000
204.57	-200.000
204.95	-500.000
205.32	-12.500
205.70	1300.000
206.08	-2900.000
206.45	-55.556
206.83	-1150.000
207.20	-750.000
207.58	-633.333
207.96	-300.000
208.33	-87.500
208.71	-144.444
209.08	120.000
209.46	-271.429
209.84	900.000
210.21	0.000
210.59	75.000
210.96	1000.000
211.34	-166.667
211.71	-633.333
212.09	475.000
212.46	700.000
212.84	-2300.000
213.22	566.667
213.59	166.667
213.97	-155.556
214.34	190.000
214.72	-160.000
215.09	-300.000
215.47	-166.667
215.84	-120.000
216.22	-140.000
216.59	-46.667
216.97	-400.000
217.34	550.000
217.72	-142.857
218.09	-233.333
218.47	-228.571
218.84	42.857
219.22	-100.000
219.59	0.000
219.97	271.429
220.34	325.000
220.72	162.500
221.09	-92.308
221.47	0.000
221.84	133.333
222.22	-750.000
222.59	1400.000
222.97	-150.000
223.34	-700.000
223.72	-433.333
224.09	-42.857
224.46	-200.000
224.84	7.143
225.21	-185.714
225.59	-72.727
225.96	-187.500
226.34	-57.143
226.71	-244.444
227.08	20.000
227.46	1200.000
227.83	-142.857
228.21	-250.000
228.58	1000.000
228.95	-31.250
229.33	-2300.000
229.70	-260.000
230.08	-700.000
230.45	-91.667
230.82	-233.333
231.20	-2100.000
231.57	-700.000
231.95	1900.000
232.32	-4.762
232.69	-144.444
233.07	-114.286
233.44	-450.000
233.81	-60.000
234.19	-177.778
234.56	-50.000
234.93	0.000
235.31	-157.143
235.68	-157.143
236.05	-58.824
236.43	-113.636
236.80	6.452
237.17	-29.167
237.55	-47.619
237.92	-68.182
238.29	14.286
238.67	5.882
239.04	2.778
239.41	-41.935
239.79	-17.949
240.16	-26.190
240.53	0.000
240.91	-2.564
241.28	21.818
241.65	26.154
242.02	13.115
242.40	8.197
242.77	15.152
243.14	15.254
243.51	0.000
243.89	17.722
244.26	4.494
244.63	14.737
245.00	16.842
245.38	18.644
245.75	19.469
246.12	14.400
246.49	17.323
246.87	15.447
247.24	5.085
247.61	9.322
247.98	11.268
248.36	3.497
248.73	20.253
249.10	11.465
249.47	23.392
249.84	19.886
250.22	14.286
250.59	20.904
250.96	17.801
251.33	17.062
251.70	16.346
252.08	16.588
252.45	16.114
252.82	17.143
253.19	22.128
253.56	18.952
253.94	18.143
254.31	16.738
254.68	24.390
255.05	19.355
255.42	20.635
255.79	15.771
256.16	17.647
256.54	20.588
256.91	20.455
257.28	17.216
257.65	22.340
258.02	24.843
258.39	23.077
258.76	18.581
259.14	20.062
259.51	22.295
259.88	23.171
260.25	24.224
260.62	19.936
260.99	20.178
261.36	21.341
261.73	19.942
262.10	25.000
262.47	19.373
262.85	25.429
263.22	22.350
263.59	17.846
263.96	17.391
264.33	25.745
264.70	22.652
265.07	23.077
265.44	19.638
265.81	21.189
266.18	21.013
266.55	18.873
266.92	21.914
267.29	23.002
267.66	20.000
268.03	24.879
268.40	17.136
268.77	22.169
269.14	21.346
269.51	21.609
269.88	19.954
270.25	19.347
270.62	20.824
270.99	21.847
271.36	21.212
271.73	20.404
272.10	22.426
272.47	20.444
272.84	24.000
273.21	21.101
273.58	20.440
273.95	18.860
274.32	20.362
274.69	24.289
275.06	21.881
275.43	19.866
275.80	22.607
276.17	21.339
276.54	22.811
276.91	21.399
277.28	21.095
277.65	17.975
278.02	21.503
278.39	21.415
278.76	22.311
279.13	21.344
279.50	22.266
279.87	22.833
280.23	20.850
280.60	20.676
280.97	21.359
281.34	21.277
281.71	22.692
282.08	21.371
282.45	21.589
282.82	20.543
283.19	21.273
283.56	21.795
283.92	22.968
284.29	21.004
284.66	18.525
285.03	23.351
285.40	21.218
285.77	23.158
286.14	20.578
286.51	22.025
286.87	18.512
287.24	21.672
287.61	20.000
287.98	18.371
288.35	17.190
288.72	18.846
289.08	17.458
289.45	19.529
289.82	16.782
290.19	20.361
290.56	18.347
290.93	18.124
291.29	18.963
291.66	18.680
292.03	20.094
292.40	19.277
292.77	16.770
293.13	17.561
293.50	16.642
293.87	17.485
294.24	16.591
294.60	15.909
294.97	20.030
295.34	17.926
295.71	17.411
296.08	15.668
296.44	16.595
296.81	16.667
297.18	16.620
297.55	18.503
297.91	17.434
298.28	17.534
298.65	14.644
299.02	17.914
299.38	16.578
299.75	16.440
300.12	16.154
300.48	17.391
300.85	16.383
301.22	15.912
301.59	15.605
301.95	17.884
302.32	14.342
302.69	15.300
303.05	15.018
303.42	15.750
303.79	15.311
304.15	15.284
304.52	14.819
304.89	15.230
305.25	15.263
305.62	14.806
305.99	16.372
306.35	16.870
306.72	15.148
307.09	16.913
307.45	13.394
307.82	14.302
308.19	12.864
308.55	14.488
308.92	14.178
309.29	15.351
309.65	15.695
310.02	13.823
310.38	12.324
310.75	14.652
311.12	14.773
311.48	13.779
311.85	15.036
312.22	14.624
312.58	14.649
312.95	14.883
313.31	15.285
313.68	15.276
314.05	14.639
314.41	12.575
314.78	13.586
315.14	14.116
315.51	13.273
315.87	15.586
316.24	14.286
316.61	14.012
316.97	15.224
317.34	14.066
317.70	14.100
318.07	15.019
318.43	13.951
318.80	15.023
319.16	13.227
319.53	13.534
319.89	12.135
320.26	14.510
320.62	14.038
320.99	14.229
321.35	12.414
321.72	13.101
322.08	14.243
322.45	13.168
322.81	13.929
323.18	15.178
323.54	13.216
323.91	13.068
324.27	13.973
324.64	13.711
325.00	14.485
325.37	13.756
325.73	15.573
326.10	13.818
326.46	13.923
326.83	13.532
327.19	14.012
327.56	15.077
327.92	14.953
328.29	13.853
328.65	13.545
329.01	13.516
329.38	14.005
329.74	14.744
330.11	13.690
330.47	12.716
330.84	14.482
331.20	13.538
331.56	13.765
331.93	13.499
332.29	15.068
332.66	13.960
333.02	13.394
333.38	13.799
333.75	14.248
334.11	14.400
334.48	13.945
334.84	14.436
335.20	14.007
335.57	13.718
335.93	15.309
336.29	15.058
336.66	12.863
337.02	14.685
337.38	13.280
337.75	14.311
338.11	14.222
338.47	14.591
338.84	13.793
339.20	13.269
339.56	14.884
339.93	13.845
340.29	13.818
340.65	14.685
341.02	14.334
341.38	13.142
341.74	13.633
342.11	13.737
342.47	13.734
342.83	13.686
343.20	14.005
343.56	12.327
343.92	14.691
344.28	14.130
344.65	12.624
345.01	13.445
345.37	14.452
345.73	12.684
346.10	13.164
346.46	12.835
346.82	13.312
347.19	11.915
347.55	13.483
347.91	12.205
348.27	13.286
348.63	13.489
349.00	13.922
349.36	11.397
349.72	14.331
350.08	12.751
350.45	12.845
350.81	13.057
351.17	12.379
351.53	12.888
351.89	13.500
352.26	14.574
352.62	14.055
352.98	12.658
353.34	13.349
353.70	11.969
354.07	13.061
354.43	13.043
354.79	12.916
355.15	12.061
355.51	13.359
355.87	12.253
356.24	12.708
356.60	13.376
356.96	13.241
357.32	13.460
357.68	12.644
358.04	12.625
358.40	12.684
358.77	12.365
359.13	12.701
359.49	12.320
359.85	13.186
360.21	12.709
360.57	13.479
360.93	13.333
361.29	12.556
361.66	12.195
362.02	13.240
362.38	13.573
362.74	12.821
363.10	12.482
363.46	13.960
363.82	12.318
364.18	12.663
364.54	13.724
364.90	12.648
365.26	12.268
365.62	13.257
365.98	13.798
366.35	13.239
366.71	12.403
367.07	12.773
367.43	13.178
367.79	12.715
368.15	12.447
368.51	13.077
368.87	13.599
369.23	13.404
369.59	12.778
369.95	13.672
370.31	13.854
370.67	11.424
371.03	13.484
371.39	13.437
371.75	13.805
372.11	12.769
372.47	13.087
372.83	12.656
373.19	12.786
373.55	13.582
373.91	13.514
374.27	13.279
374.63	12.698
374.99	13.074
375.35	13.257
375.71	14.180
376.07	13.689
376.42	11.921
376.78	13.660
377.14	13.288
377.50	12.701
377.86	12.874
378.22	13.317
378.58	13.959
378.94	12.947
379.30	12.736
379.66	13.054
380.02	13.131
380.38	13.353
380.74	12.427
381.09	13.240
381.45	13.186
381.81	13.430
382.17	12.970
382.53	13.070
382.89	13.876
383.25	13.426
383.61	13.502
383.97	13.656
384.32	14.205
384.68	14.087
385.04	12.379
385.40	13.390
385.76	13.415
386.12	13.554
386.48	13.676
386.83	13.436
387.19	14.465
387.55	14.113
387.91	13.930
388.27	12.485
388.62	13.882
388.98	12.841
389.34	13.647
389.70	14.799
390.06	13.424
390.42	13.782
390.77	13.691
391.13	13.665
391.49	13.288
391.85	14.464
392.20	14.381
392.56	13.745
392.92	14.661
393.28	14.638
393.64	14.131
393.99	13.354
394.35	14.659
394.71	13.897
395.07	14.501
395.42	12.574
395.78	13.576
396.14	14.517
396.50	14.373
396.85	14.374
397.21	13.913
397.57	14.529
397.92	14.696
398.28	14.222
398.64	13.920
399.00	15.225
399.35	13.923
399.71	13.589
400.07	14.866
400.42	14.112
400.78	13.894
401.14	13.772
401.49	13.856
401.85	13.911
402.21	14.303
402.57	14.078
402.92	14.412
403.28	13.787
403.63	13.841
403.99	13.984
404.35	13.285
404.70	13.400
405.06	13.552
405.42	13.899
405.77	13.857
406.13	13.742
406.49	14.739
406.84	13.917
407.20	14.723
407.55	14.440
407.91	13.018
408.27	14.645
408.62	13.650
408.98	14.676
409.34	13.772
409.69	14.997
410.05	13.948
410.40	14.040
410.76	14.464
411.11	14.277
411.47	13.939
411.83	13.875
412.18	13.800
412.54	13.911
412.89	14.216
413.25	13.400
413.60	13.426
413.96	12.877
414.31	13.517
414.67	13.270
415.03	13.777
415.38	13.208
415.74	13.402
416.09	14.322
416.45	14.220
416.80	13.849
417.16	13.887
417.51	15.167
417.87	14.110
418.22	14.412
418.58	13.864
418.93	14.040
419.29	14.680
419.64	13.819
420.00	13.852
420.35	13.483
420.71	14.466
421.06	14.024
421.42	13.349
421.77	13.512
422.12	14.214
422.48	14.003
422.83	14.237
423.19	14.421
423.54	14.006
423.90	14.170
424.25	13.914
424.61	13.993
424.96	14.160
425.31	13.583
425.67	13.983
426.02	13.712
426.38	13.612
426.73	14.436
427.09	14.154
427.44	14.034
427.79	13.663
428.15	14.542
428.50	14.839
428.85	14.209
429.21	14.112
429.56	14.115
429.92	14.379
430.27	14.307
430.62	14.054
430.98	13.696
431.33	14.354
431.68	14.424
432.04	14.717
432.39	14.359
432.74	13.849
433.10	15.025
433.45	13.529
433.80	14.334
434.16	14.293
434.51	14.082
434.86	14.411
435.22	14.421
435.57	14.259
435.92	13.892
436.28	14.362
436.63	13.850
436.98	13.173
437.34	14.058
437.69	15.169
438.04	13.727
438.39	14.561
438.75	13.446
439.10	14.436
439.45	13.699
439.81	14.639
440.16	13.856
440.51	14.294
440.86	13.997
441.22	13.488
441.57	13.947
441.92	13.708
442.27	13.582
442.63	14.324
442.98	13.939
443.33	14.058
443.68	14.070
444.03	13.998
444.39	13.950
444.74	14.152
445.09	13.651
445.44	13.506
445.79	14.023
446.15	14.294
446.50	13.664
446.85	14.418
447.20	14.351
447.55	14.254
447.91	14.599
448.26	14.190
448.61	14.544
448.96	14.622
449.31	13.754
449.66	14.482
450.02	13.684
450.37	13.391
450.72	13.559
451.07	14.268
451.42	14.436
451.77	14.303
452.12	14.005
452.47	15.239
452.83	13.745
453.18	13.662
453.53	14.739
453.88	14.833
454.23	14.692
454.58	14.978
454.93	14.484
455.28	14.085
455.63	14.128
455.98	14.699
456.34	14.549
456.69	14.759
457.04	14.505
457.39	14.175
457.74	14.235
458.09	14.385
458.44	15.185
458.79	14.350
459.14	14.432
459.49	14.091
459.84	14.390
460.19	14.260
460.54	14.761
460.89	14.742
461.24	15.240
461.59	14.478
461.94	13.686
462.29	14.235
462.64	13.439
462.99	14.391
463.34	14.180
463.69	14.377
464.04	14.294
464.39	14.456
464.74	14.421
465.09	14.672
465.44	13.706
465.79	15.454
466.14	15.247
466.49	14.393
466.84	14.586
467.19	14.651
467.54	14.557
467.89	15.783
468.24	14.371
468.59	14.179
468.94	14.148
469.29	13.710
469.64	15.364
469.99	14.045
470.34	14.896
470.68	14.826
471.03	14.178
471.38	13.889
471.73	14.965
472.08	14.659
472.43	15.058
472.78	14.467
473.13	14.248
473.48	15.252
473.83	14.268
474.17	14.650
474.52	15.665
474.87	14.452
475.22	14.631
475.57	14.500
475.92	15.065
476.27	14.171
476.61	14.930
476.96	14.757
477.31	14.693
477.66	14.499
478.01	14.479
478.36	14.510
478.70	15.163
479.05	15.251
479.40	14.508
479.75	14.781
480.10	14.633
480.45	14.023
480.79	15.054
481.14	15.454
481.49	14.956
481.84	14.887
482.19	15.349
482.53	14.773
482.88	14.381
483.23	14.742
483.58	15.726
483.92	15.050
484.27	14.488
484.62	14.989
484.97	14.263
485.31	14.368
485.66	14.420
486.01	14.430
486.36	14.928
486.70	15.304
487.05	14.911
487.40	15.037
487.75	14.683
488.09	14.145
488.44	13.735
488.79	14.255
489.13	14.644
489.48	15.131
489.83	14.192
490.17	15.150
490.52	15.217
490.87	14.226
491.22	15.133
491.56	14.907
491.91	14.647
492.26	14.623
492.60	15.271
492.95	15.040
493.30	15.245
493.64	15.092
493.99	15.010
494.34	14.571
494.68	15.918
495.03	15.296
495.37	14.503
495.72	14.293
496.07	15.673
496.41	15.748
496.76	15.205
497.11	15.261
497.45	15.900
497.80	15.458
498.14	15.472
498.49	14.214
498.84	15.388
499.18	16.033
499.53	15.490
499.87	15.203
500.22	15.833
500.56	15.508
500.91	15.665
501.26	16.254
501.60	15.262
501.95	15.797
502.29	14.832
502.64	16.407
502.98	15.046
503.33	15.226
503.67	15.469
504.02	15.403
504.36	15.833
504.71	15.046
505.06	15.676
505.40	15.619
505.75	14.888
506.09	15.925
506.44	16.642
506.78	16.006
507.13	15.963
507.47	16.223
507.82	15.591
508.16	16.010
508.51	16.177
508.85	15.424
509.19	15.594
509.54	15.962
509.88	16.330
510.23	16.195
510.57	16.243
510.92	16.488
511.26	16.108
511.61	15.983
511.95	16.110
512.30	15.558
512.64	15.415
512.98	16.117
513.33	16.145
513.67	15.634
514.02	15.436
514.36	16.454
514.70	16.412
515.05	16.810
515.39	16.263
515.74	17.452
516.08	16.715
516.42	16.431
516.77	16.638
517.11	16.476
517.46	16.806
517.80	16.245
518.14	16.123
518.49	17.035
518.83	16.973
519.17	17.407
519.52	15.847
519.86	15.950
520.20	16.565
520.55	16.554
520.89	16.093
521.23	17.399
521.58	16.865
521.92	17.923
522.26	16.698
522.61	16.223
522.95	15.954
523.29	16.614
523.64	16.615
523.98	16.996
524.32	15.839
524.66	16.398
525.01	17.469
525.35	17.461
525.69	16.981
526.04	17.167
526.38	16.868
526.72	16.156
527.06	17.253
527.41	16.634
527.75	16.436
528.09	16.942
528.43	17.115
528.78	17.714
529.12	17.542
529.46	16.495
529.80	16.591
530.15	17.386
530.49	16.882
530.83	17.289
531.17	16.902
531.51	17.147
531.86	16.919
532.20	16.464
532.54	17.513
532.88	17.128
533.22	16.310
533.57	16.710
533.91	16.916
534.25	17.033
534.59	16.490
534.93	16.055
535.27	17.558
535.62	17.199
535.96	17.001
536.30	16.427
536.64	17.131
536.98	17.232
537.32	16.586
537.66	16.701
538.01	16.770
538.35	17.297
538.69	16.176
539.03	16.994
539.37	17.498
539.71	17.145
540.05	17.135
540.39	17.036
540.73	16.793
541.07	16.872
541.42	16.340
541.76	16.080
542.10	17.286
542.44	17.722
542.78	16.621
543.12	16.565
543.46	16.301
543.80	16.522
544.14	16.118
544.48	17.060
544.82	17.050
545.16	16.633
545.50	16.622
545.84	17.177
546.18	17.060
546.52	17.852
546.86	17.023
547.20	17.370
547.54	16.460
547.88	17.253
548.22	16.514
548.56	17.101
548.90	17.183
549.24	16.608
549.58	17.361
549.92	17.951
550.26	17.847
550.60	16.501
550.94	16.423
551.28	17.833
551.62	17.504
551.96	17.438
552.30	17.422
552.64	17.030
552.98	18.010
553.32	16.522
553.66	18.673
554.00	18.053
554.34	16.173
554.68	17.325
555.02	17.800
555.36	17.038
555.69	16.547
556.03	16.982
556.37	17.496
556.71	16.893
557.05	17.443
557.39	16.407
557.73	17.214
558.07	17.332
558.41	16.455
558.75	16.730
559.08	15.175
559.42	16.922
559.76	18.021
560.10	17.524
560.44	18.858
560.78	18.024
561.12	17.391
561.45	17.877
561.79	16.725
562.13	17.041
562.47	17.577
562.81	16.407
563.15	17.215
563.48	17.623
563.82	17.782
564.16	16.836
564.50	17.339
564.84	17.130
565.17	17.573
565.51	16.884
565.85	17.377
566.19	17.194
566.52	17.482
566.86	16.941
567.20	17.373
567.54	18.074
567.88	17.588
568.21	17.617
568.55	17.073
568.89	16.451
569.23	16.937
569.56	17.108
569.90	17.703
570.24	16.873
570.57	16.766
570.91	16.763
571.25	16.894
571.59	17.109
571.92	17.024
572.26	16.777
572.60	16.817
572.93	15.980
573.27	16.250
573.61	16.203
573.95	16.658
574.28	16.753
574.62	16.548
574.96	16.301
575.29	16.565
575.63	16.883
575.97	16.235
576.30	16.607
576.64	16.736
576.98	16.522
577.31	16.329
577.65	16.641
577.98	16.525
578.32	16.081
578.66	16.096
578.99	16.503
579.33	16.604
579.67	16.257
580.00	16.121
580.34	16.389
580.67	16.328
581.01	15.859
581.35	16.474
581.68	16.107
582.02	16.651
582.35	16.374
582.69	16.764
583.02	16.844
583.36	17.064
583.70	16.206
584.03	17.080
584.37	16.617
584.70	15.887
585.04	16.354
585.37	15.776
585.71	16.449
586.04	16.489
586.38	15.691
586.72	16.432
587.05	16.907
587.39	16.498
587.72	16.830
588.06	16.699
588.39	16.633
588.73	17.019
589.06	17.391
589.40	17.108
589.73	16.926
590.07	16.205
590.40	16.753
590.73	16.593
591.07	16.721
591.40	17.071
591.74	16.811
592.07	16.622
592.41	17.028
592.74	17.333
593.08	16.958
593.41	17.072
593.75	16.683
594.08	16.822
594.41	16.636
594.75	17.139
595.08	17.030
595.42	17.305
595.75	16.428
596.09	16.725
596.42	17.103
596.75	16.386
597.09	17.142
597.42	16.979
597.75	16.652
598.09	16.493
598.42	16.748
598.76	16.694
599.09	16.890
599.42	17.378
599.76	16.837
600.09	17.290
600.42	17.015
600.76	16.949
601.09	16.901
601.42	16.383
601.76	17.251
602.09	16.196
602.42	16.955
602.76	16.660
603.09	16.492
603.42	17.043
603.76	16.992
604.09	16.900
604.42	16.445
604.76	16.703
605.09	17.722
605.42	17.243
605.75	16.990
606.09	17.435
606.42	16.716
606.75	16.531
607.09	17.468
607.42	17.121
607.75	16.600
608.08	18.030
608.42	17.171
608.75	16.402
609.08	17.633
609.41	17.339
609.75	17.114
610.08	17.255
610.41	17.349
610.74	17.166
611.07	17.039
611.41	16.591
611.74	17.481
612.07	17.777
612.40	17.324
612.73	16.424
613.07	17.501
613.40	17.625
613.73	17.548
614.06	16.804
614.39	17.587
614.72	16.369
615.06	16.522
615.39	16.603
615.72	17.816
616.05	16.731
616.38	17.353
616.71	17.778
617.05	17.310
617.38	16.904
617.71	17.445
618.04	17.702
618.37	17.296
618.70	17.601
619.03	17.536
619.36	18.182
619.69	18.521
620.03	16.598
620.36	17.300
620.69	17.085
621.02	17.352
621.35	17.258
621.68	17.541
622.01	17.718
622.34	17.624
622.67	17.187
623.00	18.210
623.33	18.582
623.66	16.839
623.99	17.669
624.32	17.411
624.65	17.734
624.99	17.028
625.32	17.290
625.65	18.182
625.98	16.901
626.31	18.679
626.64	18.075
626.97	17.723
627.30	16.936
627.63	17.271
627.96	17.929
628.29	17.647
628.62	17.479
628.95	18.012
629.28	17.481
629.61	17.272
629.94	18.053
630.26	18.290
630.59	20.402
630.92	17.117
631.25	18.548
631.58	18.095
631.91	17.128
632.24	17.889
632.57	18.333
632.90	17.471
633.23	18.107
633.56	17.310
633.89	18.750
634.22	16.765
634.55	18.750
634.88	18.742
635.20	16.729
635.53	18.448
635.86	16.625
636.19	17.094
636.52	17.324
636.85	18.051
637.18	15.875
637.51	18.340
637.83	17.044
638.16	15.921
638.49	16.552
638.82	17.375
639.15	18.029
639.48	15.435
639.81	18.257
640.13	17.568
640.46	19.088
640.79	18.207
641.12	17.489
641.45	17.791
641.77	18.563
642.10	16.767
642.43	17.906
642.76	19.370
643.09	16.190
643.41	18.730
643.74	19.555
644.07	17.941
644.40	17.180
644.73	19.142
645.05	17.529
645.38	19.205
645.71	18.213
646.04	19.496
646.36	19.197
646.69	19.550
647.02	18.231
647.35	18.953
647.67	17.518
648.00	20.035
648.33	20.236
648.66	16.613
648.98	19.745
649.31	18.923
649.64	18.125
649.96	17.268
650.29	16.393
650.62	19.105
650.94	17.369
651.27	18.198
651.60	16.955
651.92	19.178
652.25	17.028
652.58	15.673
652.90	17.657
653.23	16.290
653.56	18.729
653.88	19.016
654.21	19.966
654.54	20.930
654.86	16.533
655.19	17.765
655.52	18.065
655.84	18.071
656.17	19.620
656.49	26.618
656.82	27.221
657.15	20.058
657.47	14.656
657.80	10.934
658.13	12.218
658.45	16.352
658.78	15.101
659.10	14.919
659.43	14.299
659.75	14.280
660.08	15.312
660.41	14.463
660.73	14.741
661.06	18.696
661.38	17.500
661.71	18.164
662.03	19.960
662.36	17.697
662.68	17.932
663.01	17.410
663.33	19.274
663.66	18.670
663.98	16.741
664.31	17.450
664.63	21.903
664.96	16.703
665.28	16.703
665.61	14.588
665.93	18.930
666.26	17.206
666.58	18.087
666.91	18.263
667.23	18.202
667.56	18.594
667.88	18.326
668.21	16.590
668.53	17.757
668.86	16.859
669.18	17.808
669.50	16.822
669.83	17.762
670.15	19.507
670.48	18.692
670.80	16.629
671.13	17.381
671.45	17.568
671.77	20.557
672.10	19.724
672.42	18.819
672.75	16.364
673.07	16.577
673.39	16.940
673.72	15.945
674.04	15.287
674.37	16.289
674.69	16.803
675.01	18.085
675.34	17.354
675.66	20.086
675.98	17.181
676.31	19.457
676.63	19.080
676.95	15.265
677.28	17.865
677.60	18.100
677.92	18.722
678.25	17.287
678.57	18.107
678.89	17.400
679.22	15.723
679.54	18.935
679.86	13.800
680.18	17.300
680.51	16.387
680.83	15.619
681.15	17.534
681.48	17.241
681.80	15.524
682.12	18.712
682.44	16.896
682.77	15.368
683.09	17.820
683.41	18.142
683.73	14.612
684.06	17.849
684.38	18.410
684.70	18.313
685.02	17.323
685.34	15.595
685.67	16.288
685.99	16.635
686.31	18.671
686.63	15.780
686.96	16.266
687.28	17.148
687.60	17.578
687.92	13.230
688.24	19.291
688.56	16.032
688.89	18.162
689.21	16.849
689.53	15.632
689.85	17.149
690.17	15.022
690.49	15.242
690.82	15.181
691.14	15.802
691.46	16.851
691.78	17.621
692.10	16.525
692.42	17.111
692.74	18.455
693.06	17.753
693.39	19.239
693.71	15.576
694.03	20.950
694.35	14.221
694.67	16.548
694.99	15.345
695.31	20.918
695.63	14.031
695.95	17.866
696.27	16.958
696.59	17.112
696.91	15.449
697.23	16.667
697.56	18.269
697.88	15.766
698.20	17.987
698.52	15.695
698.84	17.718
699.16	18.333
699.48	15.000
699.80	16.040
700.12	18.388
700.44	16.480
700.76	17.201
701.08	17.442
701.40	11.480
701.72	17.901
702.04	17.949
702.36	16.867
702.68	18.862
703.00	17.681
703.32	16.619
703.64	18.824
703.96	17.733
704.28	16.568
704.60	14.557
704.91	14.603
705.23	15.210
705.55	16.892
705.87	16.382
706.19	14.236
706.51	13.542
706.83	18.689
707.15	14.650
707.47	17.355
707.79	19.072
708.11	15.522
708.43	18.454
708.74	17.403
709.06	13.649
709.38	18.966
709.70	15.625
710.02	21.779
710.34	15.842
710.66	16.190
710.98	13.565
711.29	12.581
711.61	12.780
711.93	16.066
712.25	18.605
712.57	19.164
712.89	17.626
713.20	22.337
713.52	8.955
713.84	13.167
714.16	18.689
714.48	15.556
714.80	16.000
715.11	17.867
715.43	15.663
715.75	21.807
716.07	14.098
716.39	15.385
716.70	16.028
717.02	12.963
717.34	14.122
717.66	21.992
717.97	10.246
718.29	10.924
718.61	18.651
718.93	19.355
719.24	12.500
719.56	17.736
719.88	17.455
720.20	15.730
720.51	18.045
720.83	19.277
721.15	12.295
721.46	19.608
721.78	13.793
722.10	18.000
722.42	9.504
722.73	17.928
723.05	12.851
723.37	14.902
723.68	18.623
724.00	18.293
724.32	18.930
724.63	14.938
724.95	19.835
725.27	13.596
725.58	13.793
725.90	11.111
726.22	25.830
726.53	15.970
726.85	12.549
727.16	16.165
727.48	13.077
727.80	12.705
728.11	14.286
728.43	18.182
728.74	16.797
729.06	20.076
729.38	17.510
729.69	16.535
730.01	16.535
730.32	12.351
730.64	21.978
730.96	15.672
731.27	13.929
731.59	13.505
731.90	14.724
732.22	14.724
732.53	21.854
732.85	16.107
733.16	14.130
733.48	16.028
733.80	10.676
734.11	15.862
734.43	16.667
734.74	16.320
735.06	18.809
735.37	17.737
735.69	12.903
736.00	8.418
736.32	16.556
736.63	9.655
736.95	14.130
737.26	20.199
737.58	11.511
737.89	21.505
738.21	12.030
738.52	16.154
738.83	17.187
739.15	13.675
739.46	16.129
739.78	14.336
740.09	15.035
740.41	15.385
740.72	16.058
741.04	17.063
741.35	8.225
741.66	15.741
741.98	11.905
742.29	16.432
742.61	20.321
742.92	18.224
743.23	11.842
743.55	16.667
743.86	16.000
744.18	16.667
744.49	19.212
744.80	12.183
745.12	19.072
745.43	17.588
745.74	15.534
746.06	16.585
746.37	22.026
746.68	17.413
747.00	14.660
747.31	14.423
747.62	14.747
747.94	13.537
748.25	16.744
748.56	12.857
748.88	9.239
749.19	18.310
749.50	20.588
749.82	20.000
750.13	20.705
750.44	16.667
750.75	15.200
751.07	19.643
751.38	12.915
751.69	9.542
752.01	16.923
752.32	13.619
752.63	16.154
752.94	15.476
753.26	14.783
753.57	23.661
753.88	18.534
754.19	13.693
754.51	14.453
754.82	16.996
755.13	15.226
755.44	14.876
755.75	15.638
756.07	9.237
756.38	13.281
756.69	18.412
757.00	17.073
757.31	16.107
757.63	18.069
757.94	15.318
758.25	15.407
758.56	19.677
758.87	13.636
759.18	14.000
759.50	12.456
759.81	9.489
760.12	10.135
760.43	16.505
760.74	18.750
761.05	14.326
761.36	16.766
761.67	15.680
761.99	17.097
762.30	13.406
762.61	18.868
762.92	15.695
763.23	11.848
763.54	13.333
763.85	13.080
764.16	15.918
764.47	17.373
764.78	11.610
765.10	18.705
765.41	13.226
765.72	18.868
766.03	10.247
766.34	13.158
766.65	10.526
766.96	13.500
767.27	17.187
767.58	16.860
767.89	10.968
768.20	17.791
768.51	15.301
768.82	10.811
769.13	12.500
769.44	14.035
769.75	14.286
770.06	18.807
770.37	17.371
770.68	16.146
770.99	17.822
771.30	11.165
771.61	15.278
771.92	12.121
772.23	15.421
772.54	6.383
772.85	10.059
773.16	15.244
773.47	13.253
773.78	17.033
774.09	7.333
774.39	14.198
774.70	12.081
775.01	8.696
775.32	5.970
775.63	8.264
775.94	14.286
776.25	20.000
776.56	15.574
776.87	18.584
777.18	15.929
777.48	1.818
777.79	6.087
778.10	6.422
778.41	5.932
778.72	13.223
779.03	14.925
779.34	19.549
779.65	16.340
779.95	12.319
780.26	8.163
780.57	1.724
780.88	15.741
781.19	3.030
781.50	0.000
781.80	9.150
782.11	12.821
782.42	9.036
782.73	2.920
783.04	14.189
783.34	17.424
783.65	12.403
783.96	18.699
784.27	5.128
784.57	15.447
784.88	0.000
785.19	12.281
785.50	-12.371
785.81	6.667
786.11	0.980
786.42	2.727
786.73	11.712
787.04	14.851
787.34	1.905
787.65	1.905
787.96	2.941
788.26	15.315
788.57	12.903
788.88	4.688
789.19	1.709
789.49	3.361
789.80	8.547
790.11	12.389
790.41	7.071
790.72	20.755
791.03	-15.278
791.33	7.895
791.64	9.677
791.95	9.333
792.25	2.857
792.56	8.537
792.87	13.265
793.17	-2.632
793.48	-20.270
793.79	-5.634
794.09	17.722
794.40	11.702
794.70	9.346
795.01	2.632
795.32	3.636
795.62	6.250
795.93	-5.155
796.23	-7.692
796.54	3.158
796.85	2.740
797.15	-18.056
797.46	20.548
797.76	-1.408
798.07	15.000
798.37	4.412
798.68	7.143
798.99	-8.571
799.29	18.421
799.60	5.000
799.90	4.167
800.21	-9.375
800.51	12.698
800.82	-9.836
801.12	-5.263
801.43	11.268
801.73	-23.729
802.04	21.311
802.34	-5.455
802.65	-13.462
802.95	0.000
803.26	-40.000
803.56	7.692
803.87	-23.684
804.17	3.226
804.48	-1.538
804.78	-46.154
805.09	2.326
805.39	-18.750
805.70	-18.868
806.00	24.561
806.30	9.459
806.61	0.000
806.91	12.346
807.22	5.333
807.52	7.463
807.83	17.742
808.13	-1.587
808.43	-5.455
808.74	0.000
809.04	11.321
809.35	9.589
809.65	8.772
809.95	-2.941
810.26	-23.529
810.56	-28.000
810.86	-18.367
811.17	-20.000
811.47	-21.154
811.77	-38.710
812.08	-36.842
812.38	0.000
812.69	-4.348
812.99	3.226
813.29	-38.095
813.59	-55.556
813.90	-2.128
814.20	-20.930
814.50	4.167
814.81	-8.333
815.11	0.000
815.41	-36.667
815.72	-5.714
816.02	-30.556
816.32	7.692
816.62	-18.919
816.93	-73.529
817.23	-15.217
817.53	-35.294
817.84	14.706
818.14	-21.875
818.44	-20.690
818.74	-87.097
819.04	-66.667
819.35	-60.000
819.65	-48.000
819.95	-46.667
820.25	-72.000
820.56	-18.421
820.86	-17.500
821.16	0.000
821.46	-5.172
821.76	-20.513
822.07	-35.000
822.37	-23.256
822.67	-3.333
822.97	-35.135
823.27	0.000
823.57	16.000
823.88	13.514
824.18	-61.905
824.48	-3.846
824.78	-153.846
825.08	-17.391
825.38	-12.500
825.69	-12.500
825.99	-50.000
826.29	-29.730
826.59	-26.471
826.89	-4.000
827.19	-20.000
827.49	-26.316
827.79	-62.500
828.09	-30.000
828.39	30.435
828.70	-44.828
829.00	-24.138
829.30	-41.667
829.60	46.875
829.90	-55.556
830.20	-26.923
830.50	-76.190
830.80	-64.286
831.10	-2.564
831.40	-42.857
831.70	-11.765
832.00	-45.833
832.30	-52.632
832.60	-37.500
832.90	-150.000
833.20	-100.000
833.50	-153.333
833.80	-80.000
834.10	20.000
834.40	-45.833
834.70	-50.000
835.00	-38.462
835.30	-58.333
835.60	-20.690
835.90	-83.333
836.20	-163.636
836.50	-183.333
836.80	11.429
837.10	31.429
837.40	-47.059
837.70	-145.455
838.00	-29.167
838.30	-87.500
838.60	-42.857
838.90	5.000
839.19	-34.783
839.49	-26.087
839.79	-55.556
840.09	-43.478
840.39	-40.909
840.69	-62.500
840.99	-21.053
841.29	-75.000
841.59	-92.857
841.88	-33.333
842.18	-4.167
842.48	-76.471
842.78	-24.138
843.08	14.286
843.38	-53.846
843.68	-244.444
843.97	-123.077
844.27	-63.636
844.57	-320.000
844.87	12.000
845.17	-300.000
845.47	-92.857
845.76	-66.667
846.06	0.000
846.36	-475.000
846.66	-230.000
846.96	-15.789
847.25	-25.000
847.55	-58.333
847.85	-33.333
848.15	-170.000
848.44	-3.846
848.74	-15.789
849.04	366.667
849.34	-77.778
849.63	-57.895
849.93	0.000
850.23	-60.000
850.53	-57.143
850.82	-24.000
851.12	-21.053
851.42	-700.000
851.71	-50.000
852.01	-141.667
852.31	-94.118
852.61	-46.667
852.90	-109.524
853.20	-300.000
853.50	-22.222
853.79	-121.053
854.09	-66.667
854.39	-28.571
854.68	-34.783
854.98	-166.667
855.28	-31.034
855.57	-81.250
855.87	-110.000
856.17	-73.333
856.46	3.448
856.76	-126.667
857.05	-70.588
857.35	-161.538
857.65	-90.909
857.94	-18.519
858.24	-92.857
858.53	-85.714
858.83	-133.333
859.13	-244.444
859.42	-42.857
859.72	-162.500
860.01	-666.667
860.31	-37.500
860.60	-440.000
860.90	-155.556
861.20	-212.500
861.49	-200.000
861.79	-35.294
862.08	-1050.000
862.38	-141.667
862.67	-7.692
862.97	-17.647
863.26	-20.000
863.56	-111.765
863.85	700.000
864.15	-170.000
864.44	-76.923
864.74	0.000
865.03	-275.000
865.33	-350.000
865.62	-23.529
865.92	-575.000
866.21	-135.714
866.51	-175.000
866.80	-2200.000
867.10	-366.667
867.39	-29.412
867.69	17.391
867.98	-200.000
868.27	-380.000
868.57	-75.000
868.86	-145.455
869.16	5.882
869.45	-133.333
869.75	-242.857
870.04	1900.000
870.33	-83.333
870.63	-100.000
870.92	-144.444
871.22	-50.000
871.51	-54.545
871.80	-100.000
872.10	-40.000
>>>>>End Processed Spectral Data<<<<<
