SpectraSuite Data File
++++++++++++++++++++++++++++++++++++
Date: Sat May 16 11:29:37 PDT 2015
User: schluterlab
Dark Spectrum Present: Yes
Reference Spectrum Present: Yes
Number of Sampled Component Spectra: 1
Spectrometers: USB2E3373
Integration Time (usec): 3000 (USB2E3373)
Spectra Averaged: 3 (USB2E3373)
Boxcar Smoothing: 0 (USB2E3373)
Correct for Electrical Dark: No (USB2E3373)
Strobe/Lamp Enabled: No (USB2E3373)
Correct for Detector Non-linearity: No (USB2E3373)
Correct for Stray Light: No (USB2E3373)
Number of Pixels in Processed Spectrum: 2048
>>>>>Begin Processed Spectral Data<<<<<
178.53	0.000
178.91	140.000
179.29	766.667
179.67	-1000.000
180.04	-176.923
180.42	400.000
180.80	275.000
181.18	450.000
181.56	-137.500
181.94	800.000
182.31	225.000
182.69	-30.769
183.07	-566.667
183.45	1500.000
183.83	333.333
184.20	-100.000
184.58	-262.500
184.96	-425.000
185.34	181.250
185.72	-675.000
186.09	250.000
186.47	-175.000
186.85	-212.500
187.23	-150.000
187.61	-550.000
187.98	-350.000
188.36	-125.000
188.74	-112.500
189.12	2100.000
189.49	371.429
189.87	-33.333
190.25	675.000
190.63	-85.714
191.00	-144.444
191.38	400.000
191.76	-53.333
192.14	480.000
192.51	-180.000
192.89	-500.000
193.27	0.000
193.65	-211.111
194.02	-228.571
194.40	800.000
194.78	-90.000
195.15	-1000.000
195.53	-127.273
195.91	-300.000
196.29	240.000
196.66	-733.333
197.04	1600.000
197.42	-225.000
197.79	-13.333
198.17	-533.333
198.55	-850.000
198.92	-1800.000
199.30	237.500
199.68	-850.000
200.05	-55.556
200.43	-300.000
200.81	-2000.000
201.18	-91.667
201.56	185.714
201.94	-20.000
202.31	-22.727
202.69	60.000
203.07	-20.000
203.44	533.333
203.82	-333.333
204.19	-350.000
204.57	-325.000
204.95	-900.000
205.32	0.000
205.70	1300.000
206.08	-1900.000
206.45	-55.556
206.83	-900.000
207.20	0.000
207.58	-900.000
207.96	-566.667
208.33	-137.500
208.71	-266.667
209.08	220.000
209.46	-342.857
209.84	900.000
210.21	0.000
210.59	-25.000
210.96	400.000
211.34	-300.000
211.71	-66.667
212.09	350.000
212.46	1050.000
212.84	-2100.000
213.22	1000.000
213.59	191.667
213.97	11.111
214.34	190.000
214.72	-40.000
215.09	-466.667
215.47	-233.333
215.84	-190.000
216.22	-70.000
216.59	-26.667
216.97	-475.000
217.34	550.000
217.72	-214.286
218.09	-350.000
218.47	-242.857
218.84	185.714
219.22	-85.714
219.59	0.000
219.97	185.714
220.34	350.000
220.72	275.000
221.09	-115.385
221.47	0.000
221.84	366.667
222.22	-500.000
222.59	1700.000
222.97	-162.500
223.34	-100.000
223.72	-266.667
224.09	-150.000
224.46	-475.000
224.84	-64.286
225.21	-257.143
225.59	-27.273
225.96	-150.000
226.34	-171.429
226.71	-100.000
227.08	-65.000
227.46	1600.000
227.83	-71.429
228.21	-200.000
228.58	600.000
228.95	-87.500
229.33	-2200.000
229.70	-200.000
230.08	-600.000
230.45	-100.000
230.82	-350.000
231.20	-1100.000
231.57	-650.000
231.95	2000.000
232.32	28.571
232.69	-244.444
233.07	-328.571
233.44	-1300.000
233.81	-86.667
234.19	-233.333
234.56	-43.750
234.93	-15.625
235.31	-228.571
235.68	-114.286
236.05	-94.118
236.43	-77.273
236.80	-32.258
237.17	-12.500
237.55	-85.714
237.92	-54.545
238.29	-25.714
238.67	-61.765
239.04	-30.556
239.41	-67.742
239.79	-61.538
240.16	-23.810
240.53	-27.273
240.91	-7.692
241.28	-7.273
241.65	6.154
242.02	-19.672
242.40	-22.951
242.77	-4.545
243.14	-28.814
243.51	-22.857
243.89	-8.861
244.26	-6.742
244.63	-6.316
245.00	-8.421
245.38	-2.542
245.75	-5.310
246.12	-4.000
246.49	-6.299
246.87	-12.195
247.24	-14.407
247.61	-8.475
247.98	-2.113
248.36	-5.594
248.73	-5.063
249.10	-8.280
249.47	-5.848
249.84	0.568
250.22	-7.738
250.59	0.000
250.96	-0.524
251.33	3.791
251.70	-1.442
252.08	3.318
252.45	-6.635
252.82	-0.952
253.19	-1.702
253.56	-1.613
253.94	-5.485
254.31	0.858
254.68	-1.220
255.05	-1.210
255.42	1.190
255.79	-1.075
256.16	-0.392
256.54	-3.309
256.91	-0.379
257.28	-1.465
257.65	-0.355
258.02	3.459
258.39	2.007
258.76	0.000
259.14	-1.543
259.51	1.639
259.88	0.305
260.25	0.932
260.62	-0.965
260.99	-0.593
261.36	1.524
261.73	1.156
262.10	1.389
262.47	0.570
262.85	2.286
263.22	-0.573
263.59	-2.462
263.96	1.449
264.33	2.168
264.70	2.486
265.07	1.099
265.44	-0.258
265.81	-2.067
266.18	0.506
266.55	-0.735
266.92	2.267
267.29	2.421
267.66	0.000
268.03	3.865
268.40	0.469
268.77	2.410
269.14	1.856
269.51	2.529
269.88	-3.211
270.25	-1.166
270.62	-0.915
270.99	1.126
271.36	3.030
271.73	0.448
272.10	-0.686
272.47	1.111
272.84	3.333
273.21	1.606
273.58	0.220
273.95	-0.877
274.32	0.000
274.69	2.845
275.06	2.249
275.43	-3.348
275.80	3.259
276.17	0.837
276.54	2.037
276.91	2.263
277.28	-1.217
277.65	-1.033
278.02	3.132
278.39	4.322
278.76	1.394
279.13	2.569
279.50	0.398
279.87	2.748
280.23	2.429
280.60	1.590
280.97	1.942
281.34	1.547
281.71	2.885
282.08	2.016
282.45	-2.240
282.82	2.326
283.19	3.818
283.56	5.495
283.92	3.180
284.29	2.416
284.66	1.978
285.03	4.100
285.40	0.923
285.77	3.509
286.14	1.986
286.51	0.355
286.87	5.082
287.24	3.584
287.61	2.810
287.98	3.293
288.35	3.802
288.72	2.886
289.08	1.356
289.45	3.030
289.82	0.865
290.19	2.627
290.56	0.496
290.93	2.544
291.29	0.648
291.66	1.932
292.03	4.082
292.40	4.518
292.77	2.795
293.13	2.927
293.50	4.160
293.87	3.528
294.24	3.469
294.60	2.121
294.97	5.008
295.34	2.667
295.71	3.571
296.08	1.843
296.44	2.718
296.81	2.137
297.18	2.676
297.55	5.085
297.91	4.881
298.28	4.110
298.65	3.347
299.02	4.947
299.38	3.342
299.75	3.261
300.12	3.590
300.48	4.348
300.85	4.456
301.22	3.881
301.59	5.332
301.95	6.423
302.32	3.129
302.69	4.284
303.05	4.396
303.42	4.875
303.79	5.742
304.15	5.806
304.52	3.967
304.89	4.604
305.25	3.663
305.62	4.348
305.99	6.714
306.35	5.438
306.72	4.100
307.09	5.108
307.45	5.562
307.82	4.581
308.19	7.271
308.55	6.754
308.92	3.759
309.29	5.297
309.65	5.302
310.02	5.508
310.38	4.649
310.75	5.533
311.12	5.579
311.48	5.115
311.85	5.767
312.22	6.076
312.58	6.612
312.95	5.097
313.31	5.994
313.68	6.533
314.05	6.231
314.41	5.533
314.78	4.695
315.14	6.120
315.51	6.282
315.87	5.615
316.24	5.637
316.61	7.102
316.97	7.164
317.34	6.551
317.70	6.030
318.07	6.530
318.43	5.712
318.80	7.324
319.16	6.098
319.53	6.109
319.89	6.115
320.26	6.863
320.62	6.250
320.99	6.468
321.35	6.108
321.72	6.346
322.08	7.517
322.45	6.139
322.81	8.165
323.18	7.301
323.54	7.116
323.91	7.878
324.27	6.464
324.64	6.307
325.00	6.894
325.37	7.511
325.73	9.186
326.10	5.580
326.46	7.618
326.83	6.809
327.19	6.839
327.56	8.433
327.92	7.647
328.29	7.013
328.65	6.636
329.01	8.569
329.38	7.493
329.74	7.509
330.11	8.613
330.47	6.721
330.84	10.174
331.20	8.032
331.56	6.837
331.93	7.993
332.29	7.215
332.66	7.726
333.02	8.145
333.38	8.065
333.75	7.925
334.11	6.756
334.48	7.414
334.84	9.186
335.20	7.713
335.57	7.491
335.93	7.789
336.29	8.060
336.66	6.960
337.02	7.117
337.38	7.932
337.75	7.024
338.11	8.676
338.47	8.007
338.84	6.987
339.20	6.854
339.56	9.893
339.93	7.407
340.29	8.149
340.65	6.906
341.02	7.589
341.38	8.425
341.74	7.705
342.11	8.020
342.47	6.867
342.83	7.053
343.20	7.344
343.56	7.510
343.92	8.848
344.28	8.242
344.65	7.096
345.01	6.975
345.37	6.977
345.73	6.956
346.10	6.950
346.46	7.311
346.82	7.779
347.19	7.477
347.55	7.143
347.91	8.110
348.27	6.921
348.63	7.593
349.00	7.955
349.36	5.543
349.72	8.201
350.08	7.378
350.45	6.383
350.81	8.280
351.17	7.315
351.53	7.239
351.89	7.276
352.26	7.364
352.62	8.449
352.98	6.566
353.34	7.354
353.70	7.336
354.07	7.553
354.43	7.431
354.79	7.290
355.15	7.188
355.51	6.641
355.87	7.984
356.24	7.307
356.60	6.930
356.96	8.237
357.32	7.759
357.68	7.433
358.04	7.929
358.40	7.038
358.77	6.491
359.13	7.728
359.49	7.559
359.85	6.631
360.21	6.925
360.57	7.229
360.93	7.111
361.29	7.100
361.66	5.945
362.02	7.396
362.38	6.970
362.74	7.473
363.10	7.245
363.46	7.906
363.82	7.289
364.18	7.453
364.54	8.435
364.90	6.918
365.26	6.348
365.62	7.840
365.98	8.250
366.35	7.465
366.71	6.906
367.07	7.763
367.43	8.511
367.79	7.216
368.15	7.326
368.51	7.972
368.87	8.929
369.23	8.351
369.59	7.292
369.95	7.541
370.31	8.298
370.67	6.869
371.03	6.924
371.39	6.860
371.75	7.582
372.11	8.106
372.47	7.448
372.83	9.110
373.19	7.214
373.55	7.811
373.91	7.610
374.27	7.666
374.63	7.453
374.99	7.719
375.35	7.066
375.71	9.251
376.07	7.255
376.42	6.755
376.78	7.582
377.14	7.458
377.50	7.092
377.86	8.127
378.22	8.291
378.58	7.659
378.94	7.830
379.30	8.470
379.66	8.318
380.02	7.724
380.38	7.855
380.74	7.679
381.09	8.436
381.45	8.532
381.81	7.623
382.17	7.832
382.53	6.930
382.89	7.955
383.25	8.429
383.61	7.547
383.97	8.145
384.32	7.509
384.68	8.646
385.04	8.696
385.40	7.851
385.76	8.049
386.12	7.808
386.48	8.416
386.83	8.405
387.19	8.428
387.55	8.056
387.91	7.943
388.27	8.444
388.62	8.113
388.98	7.450
389.34	7.466
389.70	8.039
390.06	7.085
390.42	8.205
390.77	8.391
391.13	9.193
391.49	8.671
391.85	8.292
392.20	7.767
392.56	8.064
392.92	8.214
393.28	8.898
393.64	8.358
393.99	8.185
394.35	8.333
394.71	8.153
395.07	9.102
395.42	7.092
395.78	8.297
396.14	9.346
396.50	8.440
396.85	8.513
397.21	8.262
397.57	8.267
397.92	8.548
398.28	9.000
398.64	8.626
399.00	9.326
399.35	7.892
399.71	8.537
400.07	8.716
400.42	8.820
400.78	8.169
401.14	8.144
401.49	8.667
401.85	8.420
402.21	8.880
402.57	8.495
402.92	8.936
403.28	7.966
403.63	7.909
403.99	9.198
404.35	7.669
404.70	8.484
405.06	7.555
405.42	7.749
405.77	7.805
406.13	7.893
406.49	7.909
406.84	8.338
407.20	9.364
407.55	7.726
407.91	7.642
408.27	9.069
408.62	7.637
408.98	9.036
409.34	8.288
409.69	8.129
410.05	8.854
410.40	8.522
410.76	9.010
411.11	9.040
411.47	8.248
411.83	9.291
412.18	8.354
412.54	8.115
412.89	8.445
413.25	7.792
413.60	8.141
413.96	8.380
414.31	8.073
414.67	8.127
415.03	9.120
415.38	8.393
415.74	8.247
416.09	8.824
416.45	7.540
416.80	8.257
417.16	7.973
417.51	9.586
417.87	8.026
418.22	8.344
418.58	8.472
418.93	8.461
419.29	8.720
419.64	8.731
420.00	9.235
420.35	8.102
420.71	9.184
421.06	8.817
421.42	8.255
421.77	8.878
422.12	9.793
422.48	8.177
422.83	8.998
423.19	8.073
423.54	7.954
423.90	8.676
424.25	8.032
424.61	9.228
424.96	9.070
425.31	7.993
425.67	9.054
426.02	8.204
426.38	8.772
426.73	9.059
427.09	8.456
427.44	8.920
427.79	9.070
428.15	8.737
428.50	9.208
428.85	8.933
429.21	8.190
429.56	8.698
429.92	9.168
430.27	8.923
430.62	9.195
430.98	9.252
431.33	8.965
431.68	9.169
432.04	9.065
432.39	9.744
432.74	9.173
433.10	8.497
433.45	8.578
433.80	8.847
434.16	8.812
434.51	8.877
434.86	10.076
435.22	9.187
435.57	7.956
435.92	9.437
436.28	9.199
436.63	8.592
436.98	8.247
437.34	9.451
437.69	8.926
438.04	9.075
438.39	9.326
438.75	9.662
439.10	8.939
439.45	8.509
439.81	8.976
440.16	9.483
440.51	8.941
440.86	8.965
441.22	8.292
441.57	9.368
441.92	9.463
442.27	9.091
442.63	9.442
442.98	8.409
443.33	9.445
443.68	9.380
444.03	9.921
444.39	9.887
444.74	9.031
445.09	9.649
445.44	9.904
445.79	9.128
446.15	9.474
446.50	8.764
446.85	9.800
447.20	8.887
447.55	9.448
447.91	9.545
448.26	9.441
448.61	9.225
448.96	9.636
449.31	9.076
449.66	9.616
450.02	8.920
450.37	9.333
450.72	9.322
451.07	9.365
451.42	9.356
451.77	9.575
452.12	9.178
452.47	9.950
452.83	8.853
453.18	10.879
453.53	10.137
453.88	8.852
454.23	9.008
454.58	9.695
454.93	9.446
455.28	8.732
455.63	9.398
455.98	10.482
456.34	8.259
456.69	9.631
457.04	10.141
457.39	9.151
457.74	9.510
458.09	9.687
458.44	9.815
458.79	8.857
459.14	9.412
459.49	10.302
459.84	9.893
460.19	9.606
460.54	9.014
460.89	9.809
461.24	10.322
461.59	10.375
461.94	9.484
462.29	10.125
462.64	9.684
462.99	10.241
463.34	9.858
463.69	10.433
464.04	9.842
464.39	9.916
464.74	9.397
465.09	9.982
465.44	9.814
465.79	10.321
466.14	10.299
466.49	9.269
466.84	10.084
467.19	9.289
467.54	9.494
467.89	9.433
468.24	10.036
468.59	9.369
468.94	9.196
469.29	8.317
469.64	10.916
469.99	10.331
470.34	9.018
470.68	10.102
471.03	10.874
471.38	9.236
471.73	10.070
472.08	9.839
472.43	9.588
472.78	9.933
473.13	9.013
473.48	10.338
473.83	9.988
474.17	10.064
474.52	11.253
474.87	10.373
475.22	8.909
475.57	10.000
475.92	10.097
476.27	10.286
476.61	10.085
476.96	9.614
477.31	9.957
477.66	9.463
478.01	10.103
478.36	10.424
478.70	10.198
479.05	9.302
479.40	10.725
479.75	10.143
480.10	9.871
480.45	9.188
480.79	10.809
481.14	9.734
481.49	10.503
481.84	9.986
482.19	10.553
482.53	10.275
482.88	9.872
483.23	10.376
483.58	10.731
483.92	9.603
484.27	9.792
484.62	10.670
484.97	10.171
485.31	9.856
485.66	10.110
486.01	10.129
486.36	10.328
486.70	10.620
487.05	9.998
487.40	10.230
487.75	10.219
488.09	10.500
488.44	10.217
488.79	10.683
489.13	10.308
489.48	10.685
489.83	10.568
490.17	10.797
490.52	10.824
490.87	10.485
491.22	10.089
491.56	11.065
491.91	10.687
492.26	10.425
492.60	10.419
492.95	10.519
493.30	10.338
493.64	10.531
493.99	9.943
494.34	10.524
494.68	10.861
495.03	10.038
495.37	10.128
495.72	11.100
496.07	10.699
496.41	11.116
496.76	10.822
497.11	10.363
497.45	11.351
497.80	10.455
498.14	10.511
498.49	10.497
498.84	9.806
499.18	11.062
499.53	10.375
499.87	10.521
500.22	9.951
500.56	10.755
500.91	11.330
501.26	11.014
501.60	10.014
501.95	10.821
502.29	10.581
502.64	11.410
502.98	10.350
503.33	10.479
503.67	10.057
504.02	10.381
504.36	10.980
504.71	10.132
505.06	10.534
505.40	11.577
505.75	9.959
506.09	11.223
506.44	11.378
506.78	10.738
507.13	10.093
507.47	11.320
507.82	10.842
508.16	10.259
508.51	10.407
508.85	10.404
509.19	10.623
509.54	11.152
509.88	11.064
510.23	10.535
510.57	10.688
510.92	11.332
511.26	11.005
511.61	10.691
511.95	10.453
512.30	10.885
512.64	10.295
512.98	11.166
513.33	10.818
513.67	10.888
514.02	10.906
514.36	11.080
514.70	10.640
515.05	11.264
515.39	10.554
515.74	11.576
516.08	11.354
516.42	11.275
516.77	10.976
517.11	11.670
517.46	11.663
517.80	11.312
518.14	10.688
518.49	10.699
518.83	11.098
519.17	10.894
519.52	10.816
519.86	11.529
520.20	11.064
520.55	11.385
520.89	10.457
521.23	11.783
521.58	10.345
521.92	10.640
522.26	10.857
522.61	11.090
522.95	10.402
523.29	10.533
523.64	11.305
523.98	11.139
524.32	11.502
524.66	11.242
525.01	10.854
525.35	10.760
525.69	11.126
526.04	11.031
526.38	11.776
526.72	10.920
527.06	11.784
527.41	10.297
527.75	10.231
528.09	11.979
528.43	11.410
528.78	11.307
529.12	11.140
529.46	11.340
529.80	11.233
530.15	10.753
530.49	10.673
530.83	11.788
531.17	10.842
531.51	10.583
531.86	11.126
532.20	10.594
532.54	10.829
532.88	10.870
533.22	11.230
533.57	10.836
533.91	10.674
534.25	10.874
534.59	10.993
534.93	10.579
535.27	11.454
535.62	11.253
535.96	10.989
536.30	10.013
536.64	11.886
536.98	10.734
537.32	10.919
537.66	10.659
538.01	10.584
538.35	11.284
538.69	11.029
539.03	11.578
539.37	10.912
539.71	11.207
540.05	10.350
540.39	11.496
540.73	11.541
541.07	11.544
541.42	10.533
541.76	10.365
542.10	11.884
542.44	12.258
542.78	11.126
543.12	10.862
543.46	9.658
543.80	10.769
544.14	10.275
544.48	11.220
544.82	10.825
545.16	11.201
545.50	10.027
545.84	11.961
546.18	10.472
546.52	11.380
546.86	11.111
547.20	10.759
547.54	10.331
547.88	11.281
548.22	9.961
548.56	11.022
548.90	10.175
549.24	10.441
549.58	10.586
549.92	11.519
550.26	11.488
550.60	11.380
550.94	11.460
551.28	10.910
551.62	10.266
551.96	11.505
552.30	10.941
552.64	11.752
552.98	11.142
553.32	10.534
553.66	11.608
554.00	11.727
554.34	10.686
554.68	10.673
555.02	11.288
555.36	10.712
555.69	10.673
556.03	10.877
556.37	10.740
556.71	11.525
557.05	10.643
557.39	10.393
557.73	11.524
558.07	11.153
558.41	11.219
558.75	11.407
559.08	9.961
559.42	11.639
559.76	11.196
560.10	11.484
560.44	10.838
560.78	12.109
561.12	11.594
561.45	11.164
561.79	11.080
562.13	11.290
562.47	10.854
562.81	10.679
563.15	10.357
563.48	11.887
563.82	11.224
564.16	10.277
564.50	10.618
564.84	11.310
565.17	10.942
565.51	11.343
565.85	11.291
566.19	11.265
566.52	11.676
566.86	11.820
567.20	11.562
567.54	12.286
567.88	11.390
568.21	10.962
568.55	10.976
568.89	10.835
569.23	11.106
569.56	11.223
569.90	11.644
570.24	11.236
570.57	10.967
570.91	11.663
571.25	11.219
571.59	11.208
571.92	10.893
572.26	11.114
572.60	11.542
572.93	11.087
573.27	11.037
573.61	10.324
573.95	11.150
574.28	10.875
574.62	11.007
574.96	11.142
575.29	11.179
575.63	10.512
575.97	10.680
576.30	10.770
576.64	11.097
576.98	11.023
577.31	10.846
577.65	11.228
577.98	11.127
578.32	10.587
578.66	11.010
578.99	11.010
579.33	10.826
579.67	10.931
580.00	10.615
580.34	10.690
580.67	10.591
581.01	10.672
581.35	11.109
581.68	10.935
582.02	11.034
582.35	10.897
582.69	10.747
583.02	11.074
583.36	11.201
583.70	10.881
584.03	11.126
584.37	10.988
584.70	10.970
585.04	10.785
585.37	10.835
585.71	11.030
586.04	11.246
586.38	10.879
586.72	11.161
587.05	11.215
587.39	11.008
587.72	11.096
588.06	10.702
588.39	10.937
588.73	11.436
589.06	11.541
589.40	11.302
589.73	11.508
590.07	10.706
590.40	11.292
590.73	10.876
591.07	11.516
591.40	11.352
591.74	11.425
592.07	10.586
592.41	10.913
592.74	11.261
593.08	11.088
593.41	11.086
593.75	10.748
594.08	10.640
594.41	11.165
594.75	11.552
595.08	11.241
595.42	11.633
595.75	11.172
596.09	11.215
596.42	10.434
596.75	10.824
597.09	11.799
597.42	11.523
597.75	11.072
598.09	10.935
598.42	11.401
598.76	10.963
599.09	10.813
599.42	10.996
599.76	10.646
600.09	11.565
600.42	11.584
600.76	11.827
601.09	11.394
601.42	11.001
601.76	11.526
602.09	10.798
602.42	10.988
602.76	10.885
603.09	11.331
603.42	11.362
603.76	10.810
604.09	10.933
604.42	10.741
604.76	11.339
605.09	11.076
605.42	11.702
605.75	11.169
606.09	11.914
606.42	10.725
606.75	11.207
607.09	11.292
607.42	10.915
607.75	11.302
608.08	12.110
608.42	10.833
608.75	11.121
609.08	11.690
609.41	11.011
609.75	10.726
610.08	11.716
610.41	11.807
610.74	11.460
611.07	11.105
611.41	11.145
611.74	11.517
612.07	11.923
612.40	11.780
612.73	11.470
613.07	11.117
613.40	11.877
613.73	11.499
614.06	10.653
614.39	11.838
614.72	11.173
615.06	10.489
615.39	11.232
615.72	11.190
616.05	11.320
616.38	11.434
616.71	11.952
617.05	11.399
617.38	11.331
617.71	10.749
618.04	11.491
618.37	11.635
618.70	12.451
619.03	11.239
619.36	11.980
619.69	12.347
620.03	11.846
620.36	11.322
620.69	11.917
621.02	12.253
621.35	11.452
621.68	12.705
622.01	11.570
622.34	11.568
622.67	11.328
623.00	11.094
623.33	11.716
623.66	12.038
623.99	11.053
624.32	11.682
624.65	11.847
624.99	11.352
625.32	11.003
625.65	11.189
625.98	10.798
626.31	12.398
626.64	11.381
626.97	11.558
627.30	12.255
627.63	11.399
627.96	12.446
628.29	11.673
628.62	11.843
628.95	11.811
629.28	11.654
629.61	10.795
629.94	11.909
630.26	13.718
630.59	12.362
630.92	11.411
631.25	13.105
631.58	13.862
631.91	9.681
632.24	11.556
632.57	11.667
632.90	11.494
633.23	12.383
633.56	10.994
633.89	11.321
634.22	11.924
634.55	12.019
634.88	10.762
635.20	10.986
635.53	10.941
635.86	10.831
636.19	10.379
636.52	12.067
636.85	11.552
637.18	10.000
637.51	13.755
637.83	10.386
638.16	9.737
638.49	10.483
638.82	12.741
639.15	12.840
639.48	10.117
639.81	12.725
640.13	12.838
640.46	11.396
640.79	13.305
641.12	12.412
641.45	11.621
641.77	12.425
642.10	11.178
642.43	11.077
642.76	11.654
643.09	12.540
643.41	12.857
643.74	12.401
644.07	12.949
644.40	12.642
644.73	11.881
645.05	10.518
645.38	12.252
645.71	13.918
646.04	11.597
646.36	11.518
646.69	12.630
647.02	9.928
647.35	11.191
647.67	10.036
648.00	11.248
648.33	13.997
648.66	9.677
648.98	12.261
649.31	12.308
649.64	10.938
649.96	12.873
650.29	11.148
650.62	11.876
650.94	12.648
651.27	11.092
651.60	13.841
651.92	13.185
652.25	11.185
652.58	11.244
652.90	10.273
653.23	12.419
653.56	12.876
653.88	8.689
654.21	13.758
654.54	14.784
654.86	11.557
655.19	10.458
655.52	11.489
655.84	11.475
656.17	12.560
656.49	17.072
656.82	17.968
657.15	13.463
657.47	9.819
657.80	7.603
658.13	8.629
658.45	11.750
658.78	11.087
659.10	11.407
659.43	11.482
659.75	11.487
660.08	11.042
660.41	10.153
660.73	10.891
661.06	11.014
661.38	12.321
661.71	10.899
662.03	12.298
662.36	11.301
662.68	9.916
663.01	14.437
663.33	12.925
663.66	13.948
663.98	10.938
664.31	9.172
664.63	12.832
664.96	7.592
665.28	12.581
665.61	12.262
665.93	12.963
666.26	11.943
666.58	12.474
666.91	11.359
667.23	13.377
667.56	9.751
667.88	11.312
668.21	11.521
668.53	14.252
668.86	11.085
669.18	10.274
669.50	10.981
669.83	9.246
670.15	11.659
670.48	12.850
670.80	12.073
671.13	12.867
671.45	9.685
671.77	13.062
672.10	11.440
672.42	14.022
672.75	12.545
673.07	8.468
673.39	14.026
673.72	13.189
674.04	11.253
674.37	9.897
674.69	12.295
675.01	9.574
675.34	10.195
675.66	12.959
675.98	10.573
676.31	12.896
676.63	13.563
676.95	9.513
677.28	13.689
677.60	13.801
677.92	10.352
678.25	10.941
678.57	11.728
678.89	9.015
679.22	10.482
679.54	13.412
679.86	10.600
680.18	11.787
680.51	12.291
680.83	13.905
681.15	13.102
681.48	12.170
681.80	12.097
682.12	11.066
682.44	11.984
682.77	11.255
683.09	14.675
683.41	13.274
683.73	9.361
684.06	9.677
684.38	10.251
684.70	14.609
685.02	11.220
685.34	11.501
685.67	11.174
685.99	11.153
686.31	13.465
686.63	13.121
686.96	12.569
687.28	12.139
687.60	9.570
687.92	8.949
688.24	11.811
688.56	11.022
688.89	9.829
689.21	11.816
689.53	10.345
689.85	11.804
690.17	11.659
690.49	12.009
690.82	9.639
691.14	9.670
691.46	11.530
691.78	11.454
692.10	11.864
692.42	11.778
692.74	11.159
693.06	11.910
693.39	12.752
693.71	10.384
694.03	15.119
694.35	11.287
694.67	13.475
694.99	9.974
695.31	9.439
695.63	9.694
695.95	11.166
696.27	12.469
696.59	10.428
696.91	9.831
697.23	13.542
697.56	9.135
697.88	8.333
698.20	12.206
698.52	10.314
698.84	12.379
699.16	11.429
699.48	10.000
699.80	12.281
700.12	15.365
700.44	11.173
700.76	8.163
701.08	9.884
701.40	11.480
701.72	9.259
702.04	12.500
702.36	10.241
702.68	11.377
703.00	8.986
703.32	10.029
703.64	15.294
703.96	14.826
704.28	10.651
704.60	8.228
704.91	8.889
705.23	7.443
705.55	11.486
705.87	9.215
706.19	11.111
706.51	7.986
706.83	13.115
707.15	10.828
707.47	11.019
707.79	12.371
708.11	10.941
708.43	12.469
708.74	9.091
709.06	10.585
709.38	12.931
709.70	10.625
710.02	9.202
710.34	5.611
710.66	11.111
710.98	12.618
711.29	7.097
711.61	8.626
711.93	10.164
712.25	10.631
712.57	10.105
712.89	14.748
713.20	14.777
713.52	8.955
713.84	8.897
714.16	8.525
714.48	11.429
714.80	15.077
715.11	11.816
715.43	15.663
715.75	14.642
716.07	13.770
716.39	9.365
716.70	11.150
717.02	10.000
717.34	12.977
717.66	8.714
717.97	9.836
718.29	4.622
718.61	14.286
718.93	12.903
719.24	6.250
719.56	6.415
719.88	10.909
720.20	11.985
720.51	11.654
720.83	10.040
721.15	10.246
721.46	9.412
721.78	8.046
722.10	14.400
722.42	9.504
722.73	13.147
723.05	12.450
723.37	15.686
723.68	10.526
724.00	14.634
724.32	9.465
724.63	14.938
724.95	15.289
725.27	10.088
725.58	4.741
725.90	7.143
726.22	14.022
726.53	10.266
726.85	5.490
727.16	6.767
727.48	11.923
727.80	10.246
728.11	8.403
728.43	11.983
728.74	14.844
729.06	12.879
729.38	6.615
729.69	6.693
730.01	10.236
730.32	6.773
730.64	13.553
730.96	13.806
731.27	9.286
731.59	13.505
731.90	9.816
732.22	13.497
732.53	12.914
732.85	11.074
733.16	10.145
733.48	7.666
733.80	9.964
734.11	7.931
734.43	12.925
734.74	17.804
735.06	10.345
735.37	9.174
735.69	10.323
736.00	7.407
736.32	10.596
736.63	5.172
736.95	7.246
737.26	12.583
737.58	10.791
737.89	10.036
738.21	5.639
738.52	14.615
738.83	10.156
739.15	7.692
739.46	12.500
739.78	10.140
740.09	11.189
740.41	9.790
740.72	10.949
741.04	9.524
741.35	4.329
741.66	9.722
741.98	6.667
742.29	8.920
742.61	8.556
742.92	13.084
743.23	7.895
743.55	12.613
743.86	18.222
744.18	9.048
744.49	12.808
744.80	9.645
745.12	11.340
745.43	10.553
745.74	7.767
746.06	10.732
746.37	15.419
746.68	13.433
747.00	9.948
747.31	6.250
747.62	7.373
747.94	18.341
748.25	11.628
748.56	8.571
748.88	6.522
749.19	5.164
749.50	17.647
749.82	12.889
750.13	15.859
750.44	8.943
750.75	10.800
751.07	13.571
751.38	10.701
751.69	8.779
752.01	8.077
752.32	8.949
752.63	6.923
752.94	8.333
753.26	7.391
753.57	11.607
753.88	7.759
754.19	11.618
754.51	8.594
754.82	11.067
755.13	13.580
755.44	11.157
755.75	10.700
756.07	4.016
756.38	4.297
756.69	11.552
757.00	11.847
757.31	10.403
757.63	13.707
757.94	10.405
758.25	9.593
758.56	12.668
758.87	14.489
759.18	6.667
759.50	7.473
759.81	4.745
760.12	5.405
760.43	9.709
760.74	12.812
761.05	14.045
761.36	9.581
761.67	12.426
761.99	11.290
762.30	13.768
762.61	12.075
762.92	8.520
763.23	10.900
763.54	7.556
763.85	15.190
764.16	11.837
764.47	12.712
764.78	10.861
765.10	15.108
765.41	8.710
765.72	9.434
766.03	3.887
766.34	13.534
766.65	9.717
766.96	2.500
767.27	9.896
767.58	11.047
767.89	7.097
768.20	3.681
768.51	8.743
768.82	10.811
769.13	4.000
769.44	6.579
769.75	12.554
770.06	9.633
770.37	9.859
770.68	4.167
770.99	5.941
771.30	6.796
771.61	10.648
771.92	7.359
772.23	11.215
772.54	11.170
772.85	2.367
773.16	11.585
773.47	9.639
773.78	14.835
774.09	8.000
774.39	9.877
774.70	5.369
775.01	6.522
775.32	5.970
775.63	-0.826
775.94	18.045
776.25	10.000
776.56	12.295
776.87	7.965
777.18	0.885
777.48	4.545
777.79	4.348
778.10	1.835
778.41	1.695
778.72	4.959
779.03	11.940
779.34	8.271
779.65	8.497
779.95	10.145
780.26	7.483
780.57	5.172
780.88	4.630
781.19	-2.020
781.50	1.600
781.80	3.922
782.11	6.410
782.42	3.614
782.73	-1.460
783.04	8.108
783.34	9.848
783.65	-1.550
783.96	8.943
784.27	9.402
784.57	8.943
784.88	2.439
785.19	2.632
785.50	-12.371
785.81	-3.810
786.11	5.882
786.42	13.636
786.73	4.505
787.04	2.970
787.34	2.857
787.65	-9.524
787.96	7.843
788.26	1.802
788.57	10.484
788.88	2.344
789.19	-1.709
789.49	3.361
789.80	4.274
790.11	7.080
790.41	7.071
790.72	15.094
791.03	-15.278
791.33	-2.632
791.64	2.151
791.95	12.000
792.25	-7.143
792.56	-3.659
792.87	17.347
793.17	0.000
793.48	-14.865
793.79	-18.310
794.09	-3.797
794.40	11.702
794.70	-8.411
795.01	-6.140
795.32	-2.727
795.62	7.143
795.93	-4.124
796.23	4.396
796.54	6.316
796.85	-8.219
797.15	-1.389
797.46	12.329
797.76	0.000
798.07	-6.250
798.37	4.412
798.68	10.000
798.99	8.571
799.29	2.632
799.60	-10.000
799.90	-1.389
800.21	-1.563
800.51	-19.048
800.82	-4.918
801.12	-7.018
801.43	-7.042
801.73	-3.390
802.04	13.115
802.34	-18.182
802.65	-13.462
802.95	-11.111
803.26	-37.500
803.56	1.923
803.87	-28.947
804.17	-6.452
804.48	12.308
804.78	-33.333
805.09	-13.953
805.39	-50.000
805.70	-13.208
806.00	17.544
806.30	2.703
806.61	-8.824
806.91	8.642
807.22	2.667
807.52	20.896
807.83	1.613
808.13	-6.349
808.43	-5.455
808.74	-9.091
809.04	11.321
809.35	8.219
809.65	-8.772
809.95	17.647
810.26	-21.569
810.56	-10.000
810.86	-12.245
811.17	-20.000
811.47	1.923
811.77	-3.226
812.08	-50.000
812.38	-19.048
812.69	-10.870
812.99	-32.258
813.29	-14.286
813.59	-37.037
813.90	-23.404
814.20	-44.186
814.50	4.167
814.81	3.333
815.11	-21.951
815.41	-30.000
815.72	-11.429
816.02	-69.444
816.32	5.128
816.62	13.514
816.93	-67.647
817.23	-19.565
817.53	-29.412
817.84	-20.588
818.14	-43.750
818.44	0.000
818.74	-67.742
819.04	-66.667
819.35	6.667
819.65	-40.000
819.95	-23.333
820.25	4.000
820.56	-36.842
820.86	-20.000
821.16	-6.383
821.46	6.897
821.76	-30.769
822.07	-27.500
822.37	-25.581
822.67	-40.000
822.97	-32.432
823.27	0.000
823.57	0.000
823.88	5.405
824.18	-52.381
824.48	19.231
824.78	-192.308
825.08	-47.826
825.38	-37.500
825.69	-20.833
825.99	-75.000
826.29	-18.919
826.59	-20.588
826.89	28.000
827.19	2.857
827.49	5.263
827.79	-28.125
828.09	-30.000
828.39	21.739
828.70	-48.276
829.00	-44.828
829.30	-33.333
829.60	9.375
829.90	-38.889
830.20	-80.769
830.50	-33.333
830.80	-42.857
831.10	-25.641
831.40	-85.714
831.70	-14.706
832.00	-16.667
832.30	-26.316
832.60	-68.750
832.90	-141.667
833.20	-135.294
833.50	-120.000
833.80	-173.333
834.10	-25.000
834.40	-33.333
834.70	-22.222
835.00	-11.538
835.30	-62.500
835.60	-27.586
835.90	-61.111
836.20	-172.727
836.50	-133.333
836.80	11.429
837.10	14.286
837.40	-41.176
837.70	-127.273
838.00	-12.500
838.30	-100.000
838.60	-61.905
838.90	20.000
839.19	-47.826
839.49	-43.478
839.79	-66.667
840.09	-47.826
840.39	-77.273
840.69	-93.750
840.99	-42.105
841.29	-112.500
841.59	-35.714
841.88	-83.333
842.18	-4.167
842.48	-82.353
842.78	-6.897
843.08	-28.571
843.38	-69.231
843.68	-177.778
843.97	-115.385
844.27	-90.909
844.57	-280.000
844.87	-4.000
845.17	-80.000
845.47	-92.857
845.76	-177.778
846.06	0.000
846.36	-375.000
846.66	-240.000
846.96	-31.579
847.25	-41.667
847.55	-66.667
847.85	-33.333
848.15	-160.000
848.44	3.846
848.74	-26.316
849.04	900.000
849.34	-100.000
849.63	-84.211
849.93	0.000
850.23	-105.000
850.53	-47.619
850.82	-24.000
851.12	-84.211
851.42	-1100.000
851.71	-64.286
852.01	-116.667
852.31	-64.706
852.61	-53.333
852.90	-66.667
853.20	-266.667
853.50	-11.111
853.79	-52.632
854.09	-93.333
854.39	-39.286
854.68	-17.391
854.98	-141.667
855.28	20.690
855.57	-100.000
855.87	-50.000
856.17	-100.000
856.46	-3.448
856.76	-113.333
857.05	-76.471
857.35	-130.769
857.65	-109.091
857.94	18.519
858.24	-142.857
858.53	-100.000
858.83	-75.000
859.13	-177.778
859.42	66.667
859.72	-137.500
860.01	-433.333
860.31	-187.500
860.60	-460.000
860.90	-244.444
861.20	-212.500
861.49	-200.000
861.79	-88.235
862.08	-800.000
862.38	-175.000
862.67	-130.769
862.97	-23.529
863.26	5.000
863.56	-52.941
863.85	800.000
864.15	-170.000
864.44	-146.154
864.74	-30.000
865.03	-175.000
865.33	-316.667
865.62	-47.059
865.92	-525.000
866.21	-178.571
866.51	-241.667
866.80	-1700.000
867.10	-66.667
867.39	-5.882
867.69	-39.130
867.98	14.286
868.27	-260.000
868.57	-87.500
868.86	-154.545
869.16	-64.706
869.45	-166.667
869.75	-328.571
870.04	800.000
870.33	-58.333
870.63	-220.000
870.92	-200.000
871.22	-50.000
871.51	-136.364
871.80	-108.333
872.10	0.000
>>>>>End Processed Spectral Data<<<<<
