SpectraSuite Data File
++++++++++++++++++++++++++++++++++++
Date: Sat May 16 11:15:12 PDT 2015
User: schluterlab
Dark Spectrum Present: Yes
Reference Spectrum Present: Yes
Number of Sampled Component Spectra: 1
Spectrometers: USB2E3373
Integration Time (usec): 3000 (USB2E3373)
Spectra Averaged: 3 (USB2E3373)
Boxcar Smoothing: 0 (USB2E3373)
Correct for Electrical Dark: No (USB2E3373)
Strobe/Lamp Enabled: No (USB2E3373)
Correct for Detector Non-linearity: No (USB2E3373)
Correct for Stray Light: No (USB2E3373)
Number of Pixels in Processed Spectrum: 2048
>>>>>Begin Processed Spectral Data<<<<<
178.53	0.000
178.91	120.000
179.29	466.667
179.67	-500.000
180.04	-84.615
180.42	-300.000
180.80	300.000
181.18	75.000
181.56	0.000
181.94	-500.000
182.31	300.000
182.69	-23.077
183.07	-333.333
183.45	1050.000
183.83	433.333
184.20	-57.143
184.58	12.500
184.96	-300.000
185.34	106.250
185.72	-250.000
186.09	250.000
186.47	-12.500
186.85	-62.500
187.23	0.000
187.61	125.000
187.98	-250.000
188.36	-37.500
188.74	-75.000
189.12	500.000
189.49	300.000
189.87	-16.667
190.25	200.000
190.63	-21.429
191.00	-144.444
191.38	320.000
191.76	46.667
192.14	500.000
192.51	-60.000
192.89	100.000
193.27	0.000
193.65	-122.222
194.02	-85.714
194.40	566.667
194.78	-40.000
195.15	600.000
195.53	-127.273
195.91	-350.000
196.29	280.000
196.66	-600.000
197.04	600.000
197.42	-25.000
197.79	26.667
198.17	66.667
198.55	-500.000
198.92	-1000.000
199.30	112.500
199.68	-150.000
200.05	-77.778
200.43	-144.444
200.81	-2000.000
201.18	-91.667
201.56	171.429
201.94	-33.333
202.31	27.273
202.69	80.000
203.07	0.000
203.44	600.000
203.82	-216.667
204.19	-300.000
204.57	50.000
204.95	0.000
205.32	-18.750
205.70	1100.000
206.08	-1500.000
206.45	22.222
206.83	-850.000
207.20	-500.000
207.58	-466.667
207.96	-66.667
208.33	-125.000
208.71	-22.222
209.08	100.000
209.46	-171.429
209.84	700.000
210.21	0.000
210.59	65.000
210.96	1300.000
211.34	-216.667
211.71	-333.333
212.09	325.000
212.46	650.000
212.84	-1000.000
213.22	500.000
213.59	141.667
213.97	0.000
214.34	70.000
214.72	10.000
215.09	-266.667
215.47	33.333
215.84	-80.000
216.22	40.000
216.59	13.333
216.97	-200.000
217.34	450.000
217.72	-42.857
218.09	-183.333
218.47	-142.857
218.84	128.571
219.22	85.714
219.59	0.000
219.97	328.571
220.34	250.000
220.72	162.500
221.09	15.385
221.47	0.000
221.84	100.000
222.22	-650.000
222.59	600.000
222.97	-62.500
223.34	0.000
223.72	-100.000
224.09	-42.857
224.46	-275.000
224.84	-35.714
225.21	-128.571
225.59	27.273
225.96	-162.500
226.34	71.429
226.71	-155.556
227.08	-40.000
227.46	1600.000
227.83	-85.714
228.21	-187.500
228.58	550.000
228.95	56.250
229.33	-1200.000
229.70	-340.000
230.08	-250.000
230.45	16.667
230.82	-150.000
231.20	-900.000
231.57	-250.000
231.95	1300.000
232.32	19.048
232.69	-200.000
233.07	-242.857
233.44	-700.000
233.81	-133.333
234.19	-100.000
234.56	-56.250
234.93	-21.875
235.31	-57.143
235.68	-42.857
236.05	-35.294
236.43	-50.000
236.80	-16.129
237.17	-33.333
237.55	-104.762
237.92	-40.909
238.29	-17.143
238.67	11.765
239.04	-5.556
239.41	-19.355
239.79	-15.385
240.16	-19.048
240.53	-7.273
240.91	-23.077
241.28	3.636
241.65	9.231
242.02	1.639
242.40	0.000
242.77	-4.545
243.14	-38.983
243.51	-28.571
243.89	-11.392
244.26	-5.618
244.63	2.105
245.00	-5.263
245.38	-4.237
245.75	2.655
246.12	-1.600
246.49	-6.299
246.87	-5.691
247.24	-10.169
247.61	-0.847
247.98	-5.634
248.36	-13.287
248.73	-1.266
249.10	-6.369
249.47	-4.094
249.84	-2.273
250.22	-8.929
250.59	-3.390
250.96	0.000
251.33	-0.948
251.70	3.365
252.08	-4.739
252.45	-5.213
252.82	-3.333
253.19	-0.851
253.56	-2.016
253.94	-0.844
254.31	-2.575
254.68	0.407
255.05	-4.032
255.42	1.587
255.79	-3.943
256.16	0.784
256.54	-1.103
256.91	-6.818
257.28	-5.495
257.65	-4.255
258.02	0.000
258.39	-4.013
258.76	-3.716
259.14	-1.235
259.51	-0.984
259.88	-0.610
260.25	-0.932
260.62	-3.537
260.99	-2.374
261.36	-1.220
261.73	0.289
262.10	1.389
262.47	-1.994
262.85	1.143
263.22	-1.719
263.59	-3.385
263.96	-0.580
264.33	0.542
264.70	1.934
265.07	-3.022
265.44	0.258
265.81	-1.809
266.18	-3.291
266.55	-1.225
266.92	0.756
267.29	-0.242
267.66	-2.469
268.03	2.174
268.40	1.408
268.77	-0.482
269.14	-0.232
269.51	0.920
269.88	-2.294
270.25	-5.361
270.62	0.229
270.99	-1.802
271.36	-2.564
271.73	-2.915
272.10	-0.686
272.47	-2.889
272.84	3.111
273.21	-0.688
273.58	-1.538
273.95	-1.535
274.32	-1.131
274.69	2.845
275.06	-0.613
275.43	-0.893
275.80	1.018
276.17	-1.883
276.54	3.259
276.91	-2.263
277.28	-0.406
277.65	-1.446
278.02	0.418
278.39	0.000
278.76	0.000
279.13	-1.779
279.50	-2.386
279.87	-0.634
280.23	-0.202
280.60	-1.193
280.97	-2.913
281.34	-2.128
281.71	0.769
282.08	0.000
282.45	-3.259
282.82	-0.194
283.19	0.545
283.56	0.733
283.92	0.353
284.29	-2.230
284.66	-1.079
285.03	1.248
285.40	1.107
285.77	0.351
286.14	0.722
286.51	-0.533
286.87	0.363
287.24	-0.683
287.61	1.322
287.98	-0.347
288.35	-1.488
288.72	-0.509
289.08	-2.712
289.45	-0.673
289.82	-0.865
290.19	0.821
290.56	-2.975
290.93	-0.477
291.29	-1.621
291.66	-2.738
292.03	0.314
292.40	-0.151
292.77	-0.466
293.13	-0.813
293.50	-1.486
293.87	-1.687
294.24	0.000
294.60	-2.424
294.97	0.759
295.34	-1.185
295.71	-0.446
296.08	-3.226
296.44	-2.575
296.81	0.427
297.18	-1.408
297.55	0.424
297.91	1.116
298.28	-0.822
298.65	-1.813
299.02	0.535
299.38	-0.401
299.75	0.136
300.12	0.897
300.48	0.000
300.85	-0.917
301.22	0.129
301.59	-1.300
301.95	1.134
302.32	-1.304
302.69	0.367
303.05	-0.244
303.42	-0.375
303.79	-0.120
304.15	-0.118
304.52	1.867
304.89	-0.826
305.25	-1.099
305.62	0.705
305.99	0.707
306.35	0.555
306.72	-0.342
307.09	1.249
307.45	-0.114
307.82	-0.894
308.19	0.112
308.55	0.109
308.92	0.967
309.29	0.108
309.65	-0.636
310.02	0.540
310.38	0.000
310.75	1.127
311.12	1.240
311.48	0.626
311.85	0.824
312.22	1.648
312.58	0.610
312.95	0.917
313.31	1.798
313.68	1.307
314.05	2.176
314.41	0.101
314.78	0.200
315.14	2.172
315.51	0.203
315.87	2.904
316.24	2.332
316.61	3.839
316.97	2.587
317.34	2.119
317.70	1.855
318.07	3.078
318.43	2.060
318.80	3.756
319.16	2.345
319.53	3.477
319.89	2.540
320.26	3.137
320.62	2.596
320.99	5.373
321.35	3.350
321.72	3.889
322.08	5.638
322.45	3.762
322.81	5.091
323.18	4.995
323.54	4.898
323.91	5.190
324.27	5.513
324.64	5.484
325.00	5.585
325.37	5.882
325.73	7.874
326.10	6.200
326.46	6.217
326.83	5.872
327.19	7.840
327.56	8.177
327.92	7.222
328.29	7.965
328.65	6.909
329.01	7.951
329.38	7.761
329.74	8.425
330.11	7.525
330.47	8.629
330.84	9.808
331.20	8.574
331.56	9.389
331.93	8.615
332.29	7.854
332.66	9.131
333.02	9.140
333.38	10.663
333.75	9.350
334.11	9.867
334.48	9.444
334.84	11.024
335.20	9.840
335.57	10.289
335.93	10.654
336.29	9.832
336.66	8.987
337.02	9.820
337.38	9.893
337.75	8.955
338.11	10.018
338.47	9.875
338.84	9.165
339.20	9.490
339.56	11.230
339.93	10.053
340.29	9.832
340.65	9.353
341.02	10.877
341.38	10.447
341.74	10.076
342.11	9.642
342.47	9.785
342.83	9.488
343.20	10.760
343.56	9.061
343.92	11.185
344.28	10.513
344.65	10.644
345.01	10.000
345.37	11.379
345.73	8.920
346.10	9.240
346.46	9.667
346.82	10.024
347.19	9.532
347.55	10.353
347.91	11.181
348.27	8.831
348.63	10.985
349.00	10.103
349.36	9.602
349.72	10.510
350.08	10.746
350.45	9.377
350.81	11.146
351.17	9.325
351.53	8.910
351.89	10.914
352.26	9.302
352.62	10.983
352.98	10.364
353.34	10.631
353.70	9.189
354.07	11.094
354.43	10.435
354.79	11.252
355.15	9.904
355.51	9.687
355.87	10.514
356.24	10.405
356.60	11.201
356.96	10.239
357.32	10.847
357.68	10.345
358.04	10.547
358.40	10.363
358.77	10.742
359.13	10.099
359.49	11.262
359.85	10.366
360.21	11.263
360.57	11.069
360.93	10.370
361.29	10.090
361.66	10.671
362.02	9.837
362.38	9.758
362.74	10.183
363.10	10.976
363.46	11.895
363.82	11.224
364.18	12.012
364.54	12.152
364.90	10.692
365.26	10.770
365.62	10.905
365.98	12.091
366.35	11.338
366.71	10.430
367.07	11.503
367.43	12.080
367.79	11.409
368.15	11.878
368.51	11.818
368.87	12.431
369.23	12.070
369.59	11.250
369.95	12.403
370.31	12.096
370.67	11.135
371.03	12.536
371.39	11.457
371.75	11.159
372.11	12.195
372.47	11.786
372.83	12.448
373.19	11.429
373.55	13.089
373.91	11.878
374.27	12.183
374.63	12.491
374.99	12.656
375.35	11.575
375.71	13.167
376.07	12.183
376.42	10.993
376.78	12.418
377.14	12.542
377.50	12.573
377.86	12.549
378.22	12.626
378.58	12.106
378.94	13.132
379.30	13.163
379.66	12.204
380.02	13.191
380.38	12.568
380.74	13.130
381.09	13.943
381.45	13.186
381.81	12.644
382.17	12.093
382.53	13.191
382.89	12.739
383.25	13.125
383.61	12.205
383.97	13.227
384.32	13.267
384.68	13.059
385.04	13.104
385.40	12.964
385.76	13.720
386.12	13.117
386.48	13.428
386.83	13.129
387.19	14.226
387.55	13.083
387.91	13.515
388.27	12.907
388.62	13.462
388.98	13.325
389.34	13.158
389.70	13.155
390.06	12.927
390.42	13.397
390.77	13.502
391.13	14.783
391.49	14.660
391.85	13.404
392.20	13.653
392.56	13.439
392.92	14.261
393.28	14.466
393.64	14.191
393.99	14.708
394.35	14.659
394.71	13.897
395.07	13.810
395.42	12.932
395.78	13.011
396.14	14.766
396.50	14.740
396.85	14.806
397.21	13.852
397.57	14.164
397.92	14.696
398.28	13.667
398.64	13.920
399.00	14.663
399.35	13.867
399.71	14.518
400.07	14.687
400.42	14.903
400.78	13.894
401.14	14.311
401.49	13.797
401.85	13.667
402.21	14.243
402.57	14.199
402.92	14.223
403.28	14.093
403.63	14.020
403.99	14.170
404.35	13.285
404.70	14.394
405.06	15.052
405.42	13.469
405.77	13.122
406.13	13.799
406.49	14.380
406.84	13.917
407.20	14.723
407.55	13.616
407.91	14.119
408.27	14.522
408.62	13.891
408.98	14.857
409.34	14.016
409.69	14.493
410.05	14.554
410.40	13.366
410.76	14.226
411.11	14.526
411.47	13.427
411.83	14.181
412.18	14.295
412.54	13.789
412.89	14.824
413.25	13.695
413.60	14.034
413.96	13.062
414.31	15.107
414.67	13.714
415.03	14.166
415.38	14.379
415.74	14.626
416.09	14.066
416.45	13.757
416.80	14.824
417.16	13.688
417.51	15.758
417.87	14.563
418.22	14.159
418.58	13.992
418.93	14.408
419.29	14.429
419.64	14.133
420.00	14.642
420.35	13.897
420.71	14.886
421.06	14.615
421.42	13.876
421.77	14.964
422.12	14.382
422.48	14.324
422.83	14.408
423.19	14.644
423.54	14.986
423.90	14.806
424.25	14.253
424.61	15.440
424.96	15.097
425.31	15.204
425.67	14.499
426.02	13.884
426.38	15.003
426.73	15.371
427.09	15.074
427.44	15.114
427.79	14.419
428.15	15.260
428.50	15.718
428.85	14.568
429.21	15.053
429.56	14.635
429.92	14.479
430.27	14.606
430.62	14.890
430.98	15.369
431.33	15.048
431.68	15.710
432.04	15.781
432.39	15.840
432.74	14.688
433.10	15.363
433.45	14.220
433.80	15.510
434.16	16.174
434.51	14.685
434.86	16.403
435.22	15.924
435.57	15.483
435.92	15.416
436.28	15.549
436.63	15.263
436.98	15.292
437.34	15.889
437.69	14.936
438.04	15.712
438.39	16.245
438.75	15.483
439.10	15.880
439.45	14.967
439.81	16.024
440.16	16.127
440.51	16.294
440.86	15.616
441.22	15.257
441.57	15.947
441.92	15.806
442.27	15.422
442.63	15.451
442.98	15.293
443.33	16.035
443.68	16.154
444.03	16.012
444.39	16.104
444.74	16.685
445.09	15.406
445.44	16.151
445.79	15.655
446.15	16.156
446.50	15.732
446.85	16.008
447.20	16.343
447.55	16.077
447.91	16.676
448.26	15.922
448.61	15.733
448.96	16.022
449.31	15.840
449.66	16.714
450.02	15.734
450.37	16.232
450.72	15.706
451.07	16.970
451.42	15.737
451.77	15.799
452.12	16.150
452.47	16.562
452.83	16.191
453.18	17.521
453.53	15.858
453.88	16.687
454.23	16.264
454.58	17.091
454.93	16.814
455.28	16.571
455.63	17.199
455.98	17.289
456.34	16.328
456.69	17.636
457.04	16.288
457.39	16.268
457.74	17.188
458.09	16.937
458.44	17.610
458.79	16.143
459.14	17.114
459.49	17.348
459.84	17.482
460.19	16.348
460.54	16.092
460.89	16.760
461.24	17.183
461.59	17.819
461.94	16.741
462.29	16.677
462.64	17.457
462.99	17.001
463.34	16.070
463.69	16.985
464.04	15.876
464.39	16.786
464.74	17.199
465.09	16.897
465.44	16.413
465.79	16.582
466.14	17.319
466.49	17.271
466.84	17.287
467.19	15.960
467.54	15.759
467.89	16.769
468.24	16.924
468.59	16.427
468.94	16.592
469.29	17.479
469.64	16.779
469.99	17.893
470.34	17.101
470.68	17.442
471.03	17.206
471.38	16.389
471.73	16.923
472.08	16.934
472.43	16.474
472.78	17.733
473.13	16.634
473.48	17.486
473.83	18.052
474.17	17.325
474.52	17.967
474.87	17.483
475.22	16.578
475.57	16.889
475.92	16.793
476.27	17.086
476.61	16.056
476.96	16.881
477.31	17.761
477.66	17.045
478.01	18.476
478.36	17.129
478.70	17.726
479.05	17.739
479.40	17.513
479.75	16.972
480.10	17.659
480.45	16.634
480.79	17.818
481.14	16.859
481.49	18.006
481.84	17.707
482.19	17.588
482.53	17.898
482.88	17.418
483.23	17.981
483.58	18.270
483.92	18.012
484.27	17.457
484.62	17.408
484.97	17.186
485.31	16.832
485.66	17.148
486.01	17.096
486.36	17.428
486.70	17.954
487.05	17.076
487.40	17.735
487.75	17.631
488.09	17.078
488.44	17.693
488.79	17.899
489.13	17.497
489.48	17.618
489.83	17.948
490.17	17.675
490.52	17.980
490.87	18.199
491.22	17.282
491.56	17.130
491.91	18.273
492.26	17.830
492.60	17.650
492.95	17.611
493.30	17.389
493.64	17.207
493.99	17.878
494.34	17.810
494.68	18.352
495.03	17.352
495.37	17.207
495.72	17.485
496.07	17.785
496.41	17.554
496.76	17.763
497.11	18.323
497.45	18.247
497.80	18.059
498.14	18.861
498.49	18.132
498.84	18.252
499.18	18.129
499.53	18.315
499.87	18.098
500.22	18.137
500.56	18.059
500.91	18.276
501.26	18.292
501.60	17.188
501.95	18.647
502.29	17.855
502.64	18.105
502.98	17.441
503.33	17.857
503.67	17.960
504.02	18.059
504.36	17.941
504.71	18.034
505.06	17.174
505.40	17.814
505.75	18.445
506.09	18.099
506.44	18.346
506.78	18.565
507.13	18.280
507.47	17.945
507.82	18.276
508.16	19.171
508.51	18.135
508.85	17.909
509.19	18.053
509.54	18.975
509.88	19.468
510.23	18.239
510.57	18.413
510.92	18.582
511.26	18.075
511.61	18.359
511.95	18.642
512.30	17.592
512.64	18.475
512.98	19.142
513.33	18.506
513.67	18.314
514.02	17.953
514.36	18.283
514.70	18.393
515.05	18.353
515.39	18.339
515.74	18.499
516.08	18.444
516.42	18.357
516.77	18.891
517.11	18.421
517.46	19.139
517.80	18.532
518.14	18.237
518.49	18.350
518.83	18.635
519.17	19.301
519.52	18.566
519.86	18.459
520.20	19.621
520.55	19.262
520.89	18.848
521.23	19.414
521.58	18.683
521.92	19.506
522.26	19.111
522.61	18.885
522.95	18.379
523.29	18.370
523.64	18.114
523.98	19.669
524.32	18.605
524.66	18.385
525.01	18.048
525.35	18.299
525.69	18.478
526.04	19.517
526.38	19.924
526.72	18.199
527.06	19.661
527.41	19.142
527.75	18.548
528.09	18.729
528.43	19.213
528.78	19.284
529.12	19.846
529.46	19.330
529.80	18.722
530.15	19.253
530.49	19.146
530.83	20.039
531.17	18.855
531.51	19.558
531.86	18.960
532.20	18.421
532.54	18.650
532.88	19.170
533.22	19.385
533.57	19.713
533.91	19.101
534.25	18.856
534.59	18.488
534.93	18.108
535.27	19.132
535.62	20.460
535.96	18.358
536.30	18.979
536.64	19.788
536.98	18.856
537.32	19.143
537.66	20.163
538.01	19.381
538.35	19.797
538.69	18.717
539.03	19.431
539.37	19.428
539.71	20.147
540.05	18.574
540.39	19.460
540.73	20.180
541.07	19.945
541.42	18.433
541.76	18.272
542.10	20.324
542.44	20.253
542.78	19.403
543.12	19.077
543.46	18.219
543.80	18.528
544.14	18.805
544.48	20.472
544.82	19.147
545.16	19.517
545.50	18.708
545.84	19.332
546.18	18.655
546.52	19.275
546.86	18.803
547.20	20.464
547.54	19.628
547.88	19.244
548.22	19.069
548.56	18.904
548.90	19.474
549.24	19.131
549.58	19.760
549.92	19.576
550.26	20.231
550.60	18.634
550.94	19.343
551.28	19.338
551.62	19.793
551.96	19.392
552.30	20.000
552.64	19.353
552.98	19.271
553.32	19.625
553.66	19.971
554.00	19.900
554.34	18.556
554.68	19.883
555.02	19.175
555.36	19.554
555.69	19.771
556.03	20.070
556.37	19.986
556.71	20.043
557.05	19.364
557.39	19.599
557.73	20.569
558.07	20.573
558.41	18.998
558.75	19.392
559.08	18.599
559.42	18.989
559.76	20.706
560.10	20.656
560.44	19.220
560.78	19.555
561.12	19.945
561.45	19.178
561.79	20.139
562.13	20.266
562.47	19.748
562.81	20.014
563.15	20.084
563.48	20.249
563.82	19.878
564.16	19.067
564.50	19.624
564.84	18.783
565.17	20.027
565.51	19.687
565.85	20.284
566.19	19.829
566.52	19.700
566.86	18.963
567.20	20.581
567.54	19.610
567.88	19.151
568.21	19.911
568.55	19.300
568.89	19.433
569.23	19.065
569.56	19.168
569.90	19.709
570.24	20.030
570.57	18.946
570.91	19.347
571.25	19.520
571.59	19.669
571.92	19.762
572.26	19.652
572.60	19.361
572.93	18.705
573.27	19.146
573.61	18.784
573.95	19.133
574.28	19.135
574.62	19.395
574.96	19.018
575.29	19.029
575.63	19.618
575.97	18.662
576.30	19.238
576.64	19.086
576.98	19.433
577.31	19.619
577.65	19.392
577.98	19.514
578.32	19.175
578.66	19.655
578.99	19.322
579.33	19.367
579.67	19.452
580.00	19.221
580.34	19.203
580.67	19.662
581.01	19.036
581.35	19.293
581.68	19.179
582.02	19.203
582.35	19.150
582.69	19.561
583.02	19.584
583.36	19.733
583.70	19.406
584.03	19.585
584.37	19.296
584.70	19.297
585.04	19.722
585.37	19.284
585.71	19.473
586.04	19.782
586.38	19.113
586.72	19.645
587.05	19.654
587.39	19.831
587.72	20.042
588.06	19.807
588.39	19.396
588.73	19.916
589.06	19.693
589.40	20.199
589.73	19.618
590.07	19.519
590.40	19.742
590.73	19.992
591.07	19.631
591.40	19.281
591.74	20.070
592.07	19.189
592.41	19.618
592.74	20.715
593.08	19.808
593.41	19.803
593.75	19.683
594.08	20.273
594.41	20.444
594.75	19.630
595.08	19.962
595.42	20.014
595.75	19.625
596.09	19.752
596.42	20.704
596.75	19.922
597.09	20.125
597.42	19.904
597.75	20.593
598.09	19.747
598.42	19.576
598.76	19.394
599.09	19.811
599.42	19.723
599.76	19.932
600.09	20.153
600.42	19.711
600.76	20.113
601.09	19.711
601.42	19.826
601.76	20.327
602.09	19.550
602.42	20.782
602.76	19.360
603.09	20.524
603.42	19.984
603.76	19.824
604.09	19.824
604.42	19.900
604.76	19.974
605.09	20.298
605.42	19.858
605.75	20.181
606.09	19.801
606.42	19.941
606.75	20.395
607.09	20.423
607.42	20.114
607.75	20.044
608.08	21.464
608.42	19.536
608.75	20.187
609.08	19.776
609.41	19.930
609.75	19.698
610.08	20.784
610.41	20.096
610.74	20.890
611.07	20.132
611.41	19.718
611.74	21.028
612.07	20.999
612.40	19.350
612.73	20.355
613.07	20.473
613.40	20.854
613.73	20.708
614.06	20.154
614.39	20.575
614.72	19.888
615.06	19.402
615.39	19.642
615.72	19.989
616.05	20.320
616.38	20.429
616.71	20.180
617.05	20.386
617.38	20.681
617.71	20.209
618.04	20.435
618.37	20.189
618.70	20.469
619.03	20.582
619.36	21.142
619.69	20.890
620.03	19.835
620.36	20.042
620.69	21.321
621.02	20.320
621.35	20.242
621.68	20.656
622.01	20.388
622.34	21.506
622.67	21.094
623.00	22.035
623.33	20.224
623.66	19.202
623.99	20.226
624.32	20.685
624.65	20.603
624.99	21.060
625.32	20.883
625.65	21.212
625.98	20.188
626.31	22.023
626.64	21.088
626.97	20.548
627.30	21.362
627.63	19.430
627.96	20.801
628.29	20.404
628.62	20.248
628.95	21.654
629.28	20.019
629.61	20.805
629.94	21.267
630.26	19.881
630.59	21.608
630.92	19.920
631.25	21.270
631.58	20.423
631.91	19.468
632.24	20.556
632.57	21.222
632.90	23.103
633.23	20.911
633.56	21.170
633.89	22.288
634.22	21.133
634.55	21.755
634.88	20.556
635.20	19.850
635.53	20.102
635.86	18.388
636.19	20.391
636.52	20.669
636.85	21.059
637.18	19.750
637.51	21.437
637.83	21.571
638.16	20.921
638.49	19.586
638.82	19.434
639.15	20.882
639.48	20.623
639.81	24.620
640.13	21.486
640.46	21.225
640.79	20.588
641.12	20.592
641.45	21.808
641.77	19.910
642.10	20.544
642.43	20.789
642.76	20.315
643.09	20.000
643.41	21.111
643.74	21.781
644.07	20.905
644.40	20.583
644.73	21.122
645.05	18.364
645.38	21.854
645.71	23.196
646.04	21.008
646.36	22.164
646.69	20.069
647.02	19.675
647.35	20.758
647.67	23.540
648.00	22.320
648.33	23.103
648.66	18.387
648.98	21.815
649.31	21.231
649.64	20.937
649.96	21.036
650.29	19.016
650.62	21.515
650.94	19.730
651.27	21.144
651.60	20.934
651.92	23.288
652.25	22.705
652.58	20.443
652.90	21.509
653.23	20.645
653.56	19.732
653.88	21.311
654.21	19.966
654.54	21.595
654.86	21.027
655.19	19.914
655.52	21.088
655.84	20.423
656.17	22.644
656.49	31.164
656.82	31.878
657.15	23.899
657.47	17.396
657.80	13.477
658.13	15.465
658.45	20.275
658.78	19.983
659.10	19.776
659.43	19.106
659.75	19.906
660.08	19.844
660.41	19.722
660.73	19.142
661.06	22.174
661.38	22.143
661.71	20.459
662.03	21.976
662.36	21.748
662.68	20.886
663.01	22.505
663.33	22.222
663.66	21.888
663.98	20.759
664.31	19.463
664.63	24.779
664.96	20.174
665.28	18.004
665.61	20.930
665.93	22.016
666.26	21.053
666.58	22.245
666.91	20.935
667.23	19.737
667.56	19.048
667.88	25.113
668.21	19.585
668.53	20.093
668.86	22.633
669.18	21.005
669.50	22.196
669.83	18.735
670.15	19.955
670.48	22.897
670.80	20.273
671.13	19.639
671.45	22.297
671.77	19.486
672.10	22.288
672.42	20.480
672.75	21.273
673.07	18.739
673.39	21.676
673.72	20.079
674.04	22.081
674.37	21.237
674.69	21.721
675.01	22.766
675.34	19.957
675.66	22.246
675.98	19.383
676.31	21.719
676.63	21.149
676.95	22.566
677.28	22.042
677.60	24.208
677.92	20.044
678.25	21.663
678.57	23.045
678.89	21.174
679.22	20.335
679.54	23.077
679.86	21.000
680.18	21.483
680.51	21.043
680.83	22.476
681.15	19.461
681.48	21.501
681.80	20.363
682.12	19.115
682.44	20.039
682.77	19.697
683.09	21.174
683.41	20.796
683.73	20.091
684.06	21.075
684.38	22.176
684.70	20.988
685.02	20.472
685.34	18.908
685.67	19.886
685.99	17.958
686.31	20.646
686.63	19.326
686.96	20.702
687.28	20.039
687.60	22.852
687.92	19.650
688.24	20.276
688.56	20.842
688.89	20.085
689.21	19.912
689.53	20.000
689.85	20.045
690.17	19.283
690.49	21.478
690.82	19.759
691.14	18.632
691.46	20.843
691.78	21.806
692.10	21.610
692.42	19.333
692.74	22.532
693.06	22.022
693.39	18.568
693.71	22.348
694.03	19.654
694.35	20.542
694.67	19.858
694.99	19.182
695.31	22.704
695.63	23.469
695.95	21.340
696.27	22.943
696.59	20.053
696.91	19.944
697.23	17.448
697.56	18.990
697.88	19.820
698.20	21.199
698.52	18.161
698.84	19.903
699.16	20.476
699.48	19.250
699.80	23.308
700.12	23.174
700.44	19.274
700.76	20.991
701.08	18.605
701.40	20.242
701.72	21.605
702.04	21.795
702.36	18.976
702.68	21.257
703.00	17.391
703.32	18.625
703.64	24.118
703.96	24.128
704.28	20.710
704.60	18.354
704.91	15.238
705.23	21.683
705.55	18.919
705.87	22.867
706.19	15.625
706.51	16.667
706.83	21.311
707.15	15.287
707.47	20.661
707.79	19.330
708.11	18.066
708.43	21.197
708.74	20.779
709.06	17.827
709.38	18.391
709.70	17.812
710.02	21.779
710.34	20.792
710.66	22.857
710.98	20.820
711.29	15.161
711.61	14.696
711.93	18.033
712.25	19.269
712.57	19.164
712.89	21.942
713.20	16.495
713.52	18.657
713.84	20.996
714.16	22.951
714.48	20.635
714.80	20.615
715.11	19.308
715.43	22.892
715.75	19.626
716.07	21.639
716.39	19.398
716.70	16.725
717.02	22.222
717.34	22.137
717.66	22.407
717.97	17.213
718.29	18.487
718.61	22.619
718.93	21.147
719.24	19.118
719.56	14.717
719.88	20.727
720.20	18.727
720.51	21.805
720.83	18.474
721.15	18.033
721.46	20.000
721.78	17.625
722.10	18.000
722.42	18.595
722.73	18.327
723.05	19.277
723.37	22.745
723.68	16.194
724.00	19.919
724.32	20.165
724.63	18.257
724.95	21.901
725.27	14.912
725.58	12.931
725.90	19.048
726.22	26.937
726.53	17.110
726.85	16.863
727.16	16.541
727.48	16.154
727.80	14.754
728.11	20.168
728.43	20.661
728.74	22.656
729.06	18.182
729.38	19.066
729.69	14.961
730.01	16.535
730.32	17.131
730.64	21.245
730.96	21.642
731.27	17.143
731.59	19.936
731.90	19.325
732.22	17.485
732.53	18.212
732.85	16.107
733.16	19.928
733.48	19.861
733.80	16.726
734.11	18.966
734.43	20.068
734.74	22.552
735.06	15.674
735.37	19.572
735.69	15.161
736.00	19.529
736.32	23.510
736.63	14.483
736.95	17.029
737.26	21.854
737.58	23.022
737.89	22.222
738.21	18.421
738.52	18.077
738.83	16.797
739.15	18.803
739.46	17.742
739.78	24.126
740.09	22.028
740.41	14.336
740.72	24.818
741.04	17.857
741.35	16.883
741.66	17.130
741.98	13.810
742.29	23.005
742.61	20.856
742.92	23.832
743.23	21.930
743.55	22.072
743.86	21.778
744.18	17.143
744.49	25.123
744.80	17.766
745.12	22.680
745.43	22.613
745.74	19.417
746.06	15.610
746.37	24.670
746.68	18.408
747.00	19.372
747.31	17.788
747.62	18.433
747.94	20.961
748.25	23.721
748.56	20.952
748.88	14.130
749.19	21.127
749.50	27.451
749.82	21.778
750.13	19.824
750.44	17.886
750.75	19.600
751.07	21.429
751.38	19.188
751.69	14.122
752.01	16.923
752.32	18.288
752.63	17.308
752.94	16.667
753.26	16.087
753.57	25.000
753.88	16.810
754.19	17.012
754.51	16.797
754.82	16.601
755.13	20.576
755.44	22.727
755.75	20.576
756.07	16.466
756.38	17.969
756.69	20.939
757.00	18.467
757.31	19.128
757.63	23.364
757.94	19.942
758.25	16.860
758.56	22.911
758.87	17.898
759.18	14.000
759.50	13.879
759.81	16.423
760.12	16.892
760.43	22.654
760.74	20.312
761.05	20.225
761.36	20.060
761.67	18.343
761.99	18.387
762.30	26.087
762.61	26.038
762.92	19.731
763.23	22.749
763.54	14.667
763.85	20.253
764.16	15.918
764.47	24.576
764.78	13.109
765.10	21.583
765.41	16.452
765.72	20.755
766.03	15.901
766.34	19.173
766.65	17.814
766.96	16.000
767.27	17.708
767.58	20.349
767.89	20.645
768.20	14.724
768.51	21.311
768.82	18.378
769.13	20.000
769.44	21.930
769.75	18.615
770.06	21.101
770.37	15.023
770.68	15.625
770.99	13.366
771.30	14.078
771.61	15.278
771.92	13.853
772.23	21.028
772.54	19.681
772.85	7.692
773.16	21.341
773.47	21.084
773.78	19.780
774.09	19.333
774.39	13.580
774.70	12.081
775.01	21.014
775.32	11.194
775.63	10.744
775.94	19.549
776.25	20.000
776.56	25.410
776.87	18.584
777.18	24.779
777.48	16.364
777.79	14.783
778.10	0.917
778.41	8.475
778.72	19.008
779.03	24.627
779.34	12.782
779.65	22.222
779.95	17.391
780.26	14.966
780.57	3.448
780.88	11.111
781.19	5.051
781.50	7.200
781.80	13.725
782.11	23.077
782.42	12.048
782.73	5.109
783.04	15.541
783.34	21.212
783.65	13.178
783.96	17.886
784.27	11.966
784.57	8.130
784.88	17.886
785.19	21.053
785.50	6.186
785.81	11.429
786.11	13.725
786.42	3.636
786.73	21.622
787.04	23.762
787.34	16.190
787.65	15.238
787.96	16.667
788.26	20.721
788.57	16.129
788.88	8.594
789.19	13.675
789.49	23.529
789.80	13.675
790.11	12.389
790.41	17.172
790.72	29.245
791.03	8.333
791.33	22.368
791.64	24.731
791.95	12.000
792.25	-1.429
792.56	12.195
792.87	17.347
793.17	18.421
793.48	-12.162
793.79	1.408
794.09	12.658
794.40	21.277
794.70	15.888
795.01	10.526
795.32	13.636
795.62	7.143
795.93	13.402
796.23	-5.495
796.54	21.053
796.85	23.288
797.15	8.333
797.46	19.178
797.76	12.676
798.07	16.250
798.37	2.941
798.68	15.714
798.99	24.286
799.29	9.211
799.60	26.667
799.90	0.000
800.21	7.812
800.51	14.286
800.82	6.557
801.12	1.754
801.43	9.859
801.73	-5.085
802.04	3.279
802.34	-14.545
802.65	7.692
802.95	0.000
803.26	-15.000
803.56	13.462
803.87	-2.632
804.17	8.065
804.48	3.077
804.78	-10.256
805.09	6.977
805.39	-37.500
805.70	-5.660
806.00	31.579
806.30	13.514
806.61	11.765
806.91	8.642
807.22	13.333
807.52	7.463
807.83	0.000
808.13	-14.286
808.43	14.545
808.74	9.091
809.04	1.887
809.35	2.740
809.65	17.544
809.95	10.294
810.26	3.922
810.56	-4.000
810.86	2.041
811.17	-2.857
811.47	11.538
811.77	16.129
812.08	-47.368
812.38	33.333
812.69	10.870
812.99	-25.806
813.29	0.000
813.59	-44.444
813.90	-8.511
814.20	-25.581
814.50	-4.167
814.81	8.333
815.11	34.146
815.41	-6.667
815.72	22.857
816.02	-47.222
816.32	25.641
816.62	10.811
816.93	-8.824
817.23	6.522
817.53	11.765
817.84	-5.882
818.14	-25.000
818.44	-13.793
818.74	-29.032
819.04	-3.704
819.35	-13.333
819.65	-16.000
819.95	0.000
820.25	-4.000
820.56	-13.158
820.86	-5.000
821.16	6.383
821.46	10.345
821.76	-12.821
822.07	2.500
822.37	32.558
822.67	-16.667
822.97	-2.703
823.27	-16.216
823.57	8.000
823.88	16.216
824.18	-114.286
824.48	11.538
824.78	-76.923
825.08	-34.783
825.38	-75.000
825.69	-33.333
825.99	-60.000
826.29	-27.027
826.59	23.529
826.89	4.000
827.19	-14.286
827.49	-2.632
827.79	-15.625
828.09	-26.667
828.39	13.043
828.70	-3.448
829.00	3.448
829.30	-16.667
829.60	40.625
829.90	-38.889
830.20	15.385
830.50	-76.190
830.80	-25.000
831.10	15.385
831.40	-38.095
831.70	-11.765
832.00	58.333
832.30	-31.579
832.60	-31.250
832.90	-33.333
833.20	-58.824
833.50	-60.000
833.80	-26.667
834.10	-35.000
834.40	54.167
834.70	-33.333
835.00	7.692
835.30	-29.167
835.60	0.000
835.90	-105.556
836.20	-45.455
836.50	-108.333
836.80	0.000
837.10	40.000
837.40	17.647
837.70	-81.818
838.00	33.333
838.30	-75.000
838.60	23.810
838.90	-10.000
839.19	-60.870
839.49	0.000
839.79	-33.333
840.09	-34.783
840.39	-9.091
840.69	-100.000
840.99	-78.947
841.29	-75.000
841.59	-100.000
841.88	5.556
842.18	16.667
842.48	-35.294
842.78	13.793
843.08	7.143
843.38	-92.308
843.68	-33.333
843.97	-123.077
844.27	-18.182
844.57	-240.000
844.87	36.000
845.17	-140.000
845.47	-42.857
845.76	-55.556
846.06	0.000
846.36	-225.000
846.66	-40.000
846.96	-15.789
847.25	4.167
847.55	-133.333
847.85	26.667
848.15	-80.000
848.44	65.385
848.74	-10.526
849.04	666.667
849.34	-22.222
849.63	-31.579
849.93	0.000
850.23	-5.000
850.53	-4.762
850.82	-36.000
851.12	-57.895
851.42	-250.000
851.71	14.286
852.01	-108.333
852.31	-35.294
852.61	46.667
852.90	-19.048
853.20	-66.667
853.50	-33.333
853.79	-47.368
854.09	0.000
854.39	42.857
854.68	-34.783
854.98	-191.667
855.28	3.448
855.57	-25.000
855.87	-45.000
856.17	-53.333
856.46	27.586
856.76	-40.000
857.05	-47.059
857.35	-107.692
857.65	-9.091
857.94	-11.111
858.24	-78.571
858.53	-85.714
858.83	-16.667
859.13	-66.667
859.42	28.571
859.72	-175.000
860.01	-533.333
860.31	0.000
860.60	-320.000
860.90	-100.000
861.20	-25.000
861.49	-157.143
861.79	11.765
862.08	-350.000
862.38	-108.333
862.67	-76.923
862.97	35.294
863.26	35.000
863.56	-64.706
863.85	233.333
864.15	-50.000
864.44	-7.692
864.74	0.000
865.03	-150.000
865.33	-350.000
865.62	-5.882
865.92	-450.000
866.21	-135.714
866.51	-33.333
866.80	200.000
867.10	-33.333
867.39	-11.765
867.69	26.087
867.98	-42.857
868.27	-120.000
868.57	-56.250
868.86	-118.182
869.16	-5.882
869.45	-166.667
869.75	-314.286
870.04	1300.000
870.33	-8.333
870.63	20.000
870.92	-177.778
871.22	-25.000
871.51	-72.727
871.80	-8.333
872.10	110.000
>>>>>End Processed Spectral Data<<<<<
