SpectraSuite Data File
++++++++++++++++++++++++++++++++++++
Date: Sat May 16 11:41:29 PDT 2015
User: schluterlab
Dark Spectrum Present: Yes
Reference Spectrum Present: Yes
Number of Sampled Component Spectra: 1
Spectrometers: USB2E3373
Integration Time (usec): 3000 (USB2E3373)
Spectra Averaged: 3 (USB2E3373)
Boxcar Smoothing: 0 (USB2E3373)
Correct for Electrical Dark: No (USB2E3373)
Strobe/Lamp Enabled: No (USB2E3373)
Correct for Detector Non-linearity: No (USB2E3373)
Correct for Stray Light: No (USB2E3373)
Number of Pixels in Processed Spectrum: 2048
>>>>>Begin Processed Spectral Data<<<<<
178.53	0.000
178.91	146.667
179.29	333.333
179.67	-900.000
180.04	-200.000
180.42	1400.000
180.80	275.000
181.18	250.000
181.56	-62.500
181.94	1300.000
182.31	675.000
182.69	7.692
183.07	-400.000
183.45	1600.000
183.83	533.333
184.20	-328.571
184.58	-150.000
184.96	-425.000
185.34	118.750
185.72	-800.000
186.09	-16.667
186.47	-300.000
186.85	-225.000
187.23	-50.000
187.61	-125.000
187.98	-262.500
188.36	-162.500
188.74	-125.000
189.12	1400.000
189.49	371.429
189.87	-75.000
190.25	400.000
190.63	-100.000
191.00	-188.889
191.38	420.000
191.76	-20.000
192.14	620.000
192.51	-220.000
192.89	-633.333
193.27	0.000
193.65	-11.111
194.02	-128.571
194.40	666.667
194.78	-70.000
195.15	-1100.000
195.53	-172.727
195.91	-433.333
196.29	360.000
196.66	-900.000
197.04	2800.000
197.42	-175.000
197.79	20.000
198.17	-200.000
198.55	-400.000
198.92	-1100.000
199.30	262.500
199.68	-550.000
200.05	-177.778
200.43	-288.889
200.81	-1500.000
201.18	-50.000
201.56	242.857
201.94	-113.333
202.31	0.000
202.69	30.000
203.07	-30.000
203.44	800.000
203.82	-250.000
204.19	-325.000
204.57	-125.000
204.95	-600.000
205.32	31.250
205.70	700.000
206.08	-1300.000
206.45	-77.778
206.83	-450.000
207.20	-150.000
207.58	-866.667
207.96	-366.667
208.33	12.500
208.71	-144.444
209.08	250.000
209.46	-214.286
209.84	300.000
210.21	0.000
210.59	-15.000
210.96	500.000
211.34	-166.667
211.71	-266.667
212.09	325.000
212.46	1150.000
212.84	-2300.000
213.22	333.333
213.59	141.667
213.97	-111.111
214.34	180.000
214.72	-90.000
215.09	-633.333
215.47	-250.000
215.84	-20.000
216.22	-60.000
216.59	-46.667
216.97	-525.000
217.34	900.000
217.72	-114.286
218.09	-266.667
218.47	-128.571
218.84	328.571
219.22	-242.857
219.59	0.000
219.97	242.857
220.34	400.000
220.72	237.500
221.09	-46.154
221.47	0.000
221.84	400.000
222.22	-400.000
222.59	1800.000
222.97	-212.500
223.34	-700.000
223.72	-533.333
224.09	-107.143
224.46	-175.000
224.84	-100.000
225.21	-214.286
225.59	-45.455
225.96	-162.500
226.34	-271.429
226.71	-188.889
227.08	45.000
227.46	2200.000
227.83	-200.000
228.21	-300.000
228.58	300.000
228.95	-62.500
229.33	-2400.000
229.70	-400.000
230.08	-650.000
230.45	-58.333
230.82	-133.333
231.20	-100.000
231.57	-500.000
231.95	1100.000
232.32	14.286
232.69	-111.111
233.07	-242.857
233.44	-700.000
233.81	-113.333
234.19	-155.556
234.56	-56.250
234.93	15.625
235.31	-214.286
235.68	-142.857
236.05	-76.471
236.43	-72.727
236.80	-70.968
237.17	-37.500
237.55	-28.571
237.92	-63.636
238.29	-25.714
238.67	-32.353
239.04	-11.111
239.41	-54.839
239.79	-28.205
240.16	-38.095
240.53	-21.818
240.91	-12.821
241.28	-7.273
241.65	20.000
242.02	6.557
242.40	-19.672
242.77	3.030
243.14	-18.644
243.51	-15.714
243.89	-6.329
244.26	-5.618
244.63	12.632
245.00	-4.211
245.38	4.237
245.75	2.655
246.12	-8.800
246.49	3.150
246.87	-1.626
247.24	-4.237
247.61	-12.712
247.98	5.634
248.36	3.497
248.73	0.000
249.10	-4.459
249.47	-0.585
249.84	3.409
250.22	-7.738
250.59	4.520
250.96	1.047
251.33	9.005
251.70	1.923
252.08	6.635
252.45	3.791
252.82	2.857
253.19	4.681
253.56	7.258
253.94	2.532
254.31	0.858
254.68	6.504
255.05	0.806
255.42	5.556
255.79	2.509
256.16	3.137
256.54	3.309
256.91	0.758
257.28	2.198
257.65	2.482
258.02	8.176
258.39	6.355
258.76	4.392
259.14	6.173
259.51	7.869
259.88	5.793
260.25	5.590
260.62	3.859
260.99	6.825
261.36	5.488
261.73	6.936
262.10	5.556
262.47	3.989
262.85	6.857
263.22	7.450
263.59	2.769
263.96	4.058
264.33	6.504
264.70	7.459
265.07	4.670
265.44	5.168
265.81	5.168
266.18	6.582
266.55	3.676
266.92	9.320
267.29	6.053
267.66	6.667
268.03	8.696
268.40	8.216
268.77	4.096
269.14	4.640
269.51	7.356
269.88	4.587
270.25	2.098
270.62	5.263
270.99	5.180
271.36	7.226
271.73	6.951
272.10	3.890
272.47	4.889
272.84	6.000
273.21	5.046
273.58	6.813
273.95	6.579
274.32	8.145
274.69	7.659
275.06	7.771
275.43	2.232
275.80	6.517
276.17	8.577
276.54	5.703
276.91	5.556
277.28	4.868
277.65	3.926
278.02	6.054
278.39	8.841
278.76	4.582
279.13	7.312
279.50	6.163
279.87	4.017
280.23	6.478
280.60	6.163
280.97	6.214
281.34	3.675
281.71	6.346
282.08	5.847
282.45	6.110
282.82	6.008
283.19	6.364
283.56	5.128
283.92	6.360
284.29	4.647
284.66	5.396
285.03	8.021
285.40	7.380
285.77	7.368
286.14	5.957
286.51	6.039
286.87	5.626
287.24	6.485
287.61	5.289
287.98	4.333
288.35	3.802
288.72	3.396
289.08	6.610
289.45	5.387
289.82	5.190
290.19	7.389
290.56	3.471
290.93	4.928
291.29	5.348
291.66	5.475
292.03	6.279
292.40	7.229
292.77	6.522
293.13	5.366
293.50	7.132
293.87	4.601
294.24	6.335
294.60	5.455
294.97	5.766
295.34	3.852
295.71	5.952
296.08	3.687
296.44	5.150
296.81	5.271
297.18	4.225
297.55	4.096
297.91	7.531
298.28	4.384
298.65	5.858
299.02	7.353
299.38	5.481
299.75	4.891
300.12	5.128
300.48	5.371
300.85	4.849
301.22	4.398
301.59	4.941
301.95	7.179
302.32	4.302
302.69	6.120
303.05	5.250
303.42	5.000
303.79	6.220
304.15	4.502
304.52	6.301
304.89	5.667
305.25	5.006
305.62	3.878
305.99	6.949
306.35	6.104
306.72	3.872
307.09	7.264
307.45	4.881
307.82	4.916
308.19	7.047
308.55	5.773
308.92	4.941
309.29	4.324
309.65	6.151
310.02	6.911
310.38	5.514
310.75	7.275
311.12	7.231
311.48	8.559
311.85	8.033
312.22	7.209
312.58	7.833
312.95	6.320
313.31	8.891
313.68	8.643
314.05	8.605
314.41	6.942
314.78	7.992
315.14	10.069
315.51	9.119
315.87	9.487
316.24	9.329
316.61	11.516
316.97	9.851
317.34	10.886
317.70	10.946
318.07	12.500
318.43	11.891
318.80	13.615
319.16	12.570
319.53	13.064
319.89	13.641
320.26	13.725
320.62	13.173
320.99	14.925
321.35	13.695
321.72	15.763
322.08	16.617
322.45	15.446
322.81	16.715
323.18	16.523
323.54	18.022
323.91	18.072
324.27	19.487
324.64	17.733
325.00	19.284
325.37	20.362
325.73	21.960
326.10	20.992
326.46	22.329
326.83	23.149
327.19	22.936
327.56	24.020
327.92	23.195
328.29	25.022
328.65	24.364
329.01	25.707
329.38	25.335
329.74	27.289
330.11	26.927
330.47	27.702
330.84	28.781
331.20	26.444
331.56	28.350
331.93	29.041
332.29	29.680
332.66	28.973
333.02	29.502
333.38	30.824
333.75	30.899
334.11	29.333
334.48	30.450
334.84	32.283
335.20	32.624
335.57	30.776
335.93	33.035
336.29	31.355
336.66	31.806
337.02	32.883
337.38	31.729
337.75	32.221
338.11	33.184
338.47	34.609
338.84	32.668
339.20	33.040
339.56	33.244
339.93	32.628
340.29	31.887
340.65	33.741
341.02	31.788
341.38	32.519
341.74	33.362
342.11	32.679
342.47	33.391
342.83	32.997
343.20	34.159
343.56	31.429
343.92	33.139
344.28	34.903
344.65	33.168
345.01	33.277
345.37	34.884
345.73	32.651
346.10	33.034
346.46	32.819
346.82	34.162
347.19	33.607
347.55	33.628
347.91	34.409
348.27	33.731
348.63	34.330
349.00	35.004
349.36	31.928
349.72	35.589
350.08	35.926
350.45	34.043
350.81	34.873
351.17	34.244
351.53	33.890
351.89	34.519
352.26	34.496
352.62	34.946
352.98	35.206
353.34	34.452
353.70	33.977
354.07	35.090
354.43	34.941
354.79	34.311
355.15	33.946
355.51	34.609
355.87	34.783
356.24	34.710
356.60	37.309
356.96	37.105
357.32	35.471
357.68	35.479
358.04	35.489
358.40	35.886
358.77	35.703
359.13	35.807
359.49	36.054
359.85	36.357
360.21	37.062
360.57	36.521
360.93	37.185
361.29	36.472
361.66	34.832
362.02	37.352
362.38	37.564
362.74	38.535
363.10	36.585
363.46	38.105
363.82	36.662
364.18	37.120
364.54	38.242
364.90	37.107
365.26	37.874
365.62	38.346
365.98	37.553
366.35	37.254
366.71	37.421
367.07	39.661
367.43	38.916
367.79	38.832
368.15	38.905
368.51	39.021
368.87	39.423
369.23	38.246
369.59	39.792
369.95	39.323
370.31	40.084
370.67	38.973
371.03	40.598
371.39	39.675
371.75	40.415
372.11	40.961
372.47	39.262
372.83	41.725
373.19	41.357
373.55	41.802
373.91	42.532
374.27	40.657
374.63	40.511
374.99	41.933
375.35	41.252
375.71	44.159
376.07	42.710
376.42	41.854
376.78	42.288
377.14	44.814
377.50	43.778
377.86	43.693
378.22	43.656
378.58	43.298
378.94	43.527
379.30	44.607
379.66	43.534
380.02	43.672
380.38	45.015
380.74	44.549
381.09	44.405
381.45	46.181
381.81	45.977
382.17	45.301
382.53	44.863
382.89	46.411
383.25	45.575
383.61	45.991
383.97	46.111
384.32	47.872
384.68	48.126
385.04	47.403
385.40	48.144
385.76	48.902
386.12	48.720
386.48	49.196
386.83	49.264
387.19	49.014
387.55	48.577
387.91	49.555
388.27	49.216
388.62	49.159
388.98	50.151
389.34	48.898
389.70	49.939
390.06	50.466
390.42	51.410
390.77	50.915
391.13	50.435
391.49	50.717
391.85	51.995
392.20	51.214
392.56	49.786
392.92	52.196
393.28	52.067
393.64	51.954
393.99	53.354
394.35	51.642
394.71	52.007
395.07	53.296
395.42	52.443
395.78	52.546
396.14	51.963
396.50	52.477
396.85	53.239
397.21	52.916
397.57	52.948
397.92	53.396
398.28	54.111
398.64	53.123
399.00	54.045
399.35	53.946
399.71	53.310
400.07	53.791
400.42	54.319
400.78	53.965
401.14	54.012
401.49	53.302
401.85	53.996
402.21	54.052
402.57	54.490
402.92	56.325
403.28	54.779
403.63	53.325
403.99	54.506
404.35	54.650
404.70	54.535
405.06	54.152
405.42	53.629
405.77	53.054
406.13	54.003
406.49	54.763
406.84	54.289
407.20	55.771
407.55	55.035
407.91	55.117
408.27	55.331
408.62	55.562
408.98	55.064
409.34	55.820
409.69	55.640
410.05	54.336
410.40	55.487
410.76	54.772
411.11	56.172
411.47	55.691
411.83	56.663
412.18	55.817
412.54	55.461
412.89	56.136
413.25	54.664
413.60	55.468
413.96	56.131
414.31	56.697
414.67	57.016
415.03	55.821
415.38	57.775
415.74	57.603
416.09	57.417
416.45	55.423
416.80	56.762
417.16	55.814
417.51	56.271
417.87	56.828
418.22	58.470
418.58	56.996
418.93	58.063
419.29	56.148
419.64	57.475
420.00	58.141
420.35	57.658
420.71	58.944
421.06	58.698
421.42	57.026
421.77	58.124
422.12	57.862
422.48	57.509
422.83	58.599
423.19	57.461
423.54	58.329
423.90	58.762
424.25	58.371
424.61	59.891
424.96	59.977
425.31	58.413
425.67	59.255
426.02	59.266
426.38	59.347
426.73	59.147
427.09	60.417
427.44	58.864
427.79	60.988
428.15	60.024
428.50	60.117
428.85	59.832
429.21	59.657
429.56	60.417
429.92	60.671
430.27	59.621
430.62	60.763
430.98	59.697
431.33	61.099
431.68	61.769
432.04	62.339
432.39	61.709
432.74	61.571
433.10	61.733
433.45	61.370
433.80	62.654
434.16	61.956
434.51	62.356
434.86	63.503
435.22	63.029
435.57	61.506
435.92	61.489
436.28	62.493
436.63	61.391
436.98	61.054
437.34	62.197
437.69	63.069
438.04	64.209
438.39	62.395
438.75	61.292
439.10	62.410
439.45	62.704
439.81	63.735
440.16	62.351
440.51	63.824
440.86	64.025
441.22	62.134
441.57	63.053
441.92	63.836
442.27	64.502
442.63	63.036
442.98	63.431
443.33	63.262
443.68	63.054
444.03	64.980
444.39	64.121
444.74	64.537
445.09	65.077
445.44	65.110
445.79	64.406
446.15	64.732
446.50	63.636
446.85	63.776
447.20	63.534
447.55	64.641
447.91	65.469
448.26	63.017
448.61	64.120
448.96	64.874
449.31	63.360
449.66	64.511
450.02	64.598
450.37	64.464
450.72	63.729
451.07	66.248
451.42	63.445
451.77	64.871
452.12	64.303
452.47	65.113
452.83	65.230
453.18	65.528
453.53	64.988
453.88	65.311
454.23	64.389
454.58	65.507
454.93	65.239
455.28	64.563
455.63	65.111
455.98	66.386
456.34	64.231
456.69	65.041
457.04	65.950
457.39	66.208
457.74	65.564
458.09	65.023
458.44	65.185
458.79	66.424
459.14	64.746
459.49	66.371
459.84	64.699
460.19	64.499
460.54	65.154
460.89	65.527
461.24	65.149
461.59	65.299
461.94	65.563
462.29	65.158
462.64	66.535
462.99	66.533
463.34	65.226
463.69	65.649
464.04	64.089
464.39	64.158
464.74	64.775
465.09	64.281
465.44	65.426
465.79	64.636
466.14	65.305
466.49	64.940
466.84	63.806
467.19	65.150
467.54	65.380
467.89	65.536
468.24	66.508
468.59	66.084
468.94	66.817
469.29	66.277
469.64	65.499
469.99	66.307
470.34	66.934
470.68	68.314
471.03	66.139
471.38	66.528
471.73	68.112
472.08	65.863
472.43	65.766
472.78	66.933
473.13	64.811
473.48	66.752
473.83	66.129
474.17	66.943
474.52	68.095
474.87	65.210
475.22	66.313
475.57	65.111
475.92	64.687
476.27	65.086
476.61	65.746
476.96	65.959
477.31	65.823
477.66	65.191
478.01	67.045
478.36	64.327
478.70	67.592
479.05	66.739
479.40	66.684
479.75	65.291
480.10	65.079
480.45	64.894
480.79	66.436
481.14	65.630
481.49	66.360
481.84	66.204
482.19	66.697
482.53	66.430
482.88	65.401
483.23	65.117
483.58	65.726
483.92	66.364
484.27	64.732
484.62	65.788
484.97	63.757
485.31	63.584
485.66	61.417
486.01	63.235
486.36	64.433
486.70	66.249
487.05	65.045
487.40	64.797
487.75	64.149
488.09	64.114
488.44	65.426
488.79	64.804
489.13	65.196
489.48	65.457
489.83	66.157
490.17	66.304
490.52	66.259
490.87	65.866
491.22	65.950
491.56	66.852
491.91	66.221
492.26	66.604
492.60	65.937
492.95	65.778
493.30	65.174
493.64	65.820
493.99	67.782
494.34	68.143
494.68	66.854
495.03	66.635
495.37	67.552
495.72	67.141
496.07	67.105
496.41	66.327
496.76	66.164
497.11	65.756
497.45	67.050
497.80	67.434
498.14	66.503
498.49	66.801
498.84	65.680
499.18	67.885
499.53	67.219
499.87	65.975
500.22	66.961
500.56	69.085
500.91	67.340
501.26	67.006
501.60	66.827
501.95	68.986
502.29	67.123
502.64	66.997
502.98	67.178
503.33	67.058
503.67	67.050
504.02	66.876
504.36	66.569
504.71	67.781
505.06	67.149
505.40	67.715
505.75	68.750
506.09	68.605
506.44	68.571
506.78	67.336
507.13	68.847
507.47	69.275
507.82	67.682
508.16	68.342
508.51	67.439
508.85	69.151
509.19	68.341
509.54	68.235
509.88	69.947
510.23	68.553
510.57	70.000
510.92	70.354
511.26	68.049
511.61	68.952
511.95	69.073
512.30	69.929
512.64	68.336
512.98	69.252
513.33	68.424
513.67	68.844
514.02	69.128
514.36	69.307
514.70	69.496
515.05	69.297
515.39	69.896
515.74	70.797
516.08	69.337
516.42	69.405
516.77	70.653
517.11	69.680
517.46	72.249
517.80	72.684
518.14	70.894
518.49	71.010
518.83	70.623
519.17	70.930
519.52	68.942
519.86	72.043
520.20	71.822
520.55	70.954
520.89	70.445
521.23	70.940
521.58	71.411
521.92	71.691
522.26	72.444
522.61	71.610
522.95	69.943
523.29	72.163
523.64	70.456
523.98	72.183
524.32	71.779
524.66	70.186
525.01	71.162
525.35	70.812
525.69	72.154
526.04	71.802
526.38	72.502
526.72	71.137
527.06	72.591
527.41	72.013
527.75	71.089
528.09	72.998
528.43	72.393
528.78	71.106
529.12	73.111
529.46	73.518
529.80	71.788
530.15	72.634
530.49	71.928
530.83	73.281
531.17	72.323
531.51	73.610
531.86	70.309
532.20	72.065
532.54	71.190
532.88	71.871
533.22	72.928
533.57	72.650
533.91	69.600
534.25	70.962
534.59	70.706
534.93	69.633
535.27	70.422
535.62	70.396
535.96	70.394
536.30	70.419
536.64	71.049
536.98	73.517
537.32	73.186
537.66	72.369
538.01	72.027
538.35	73.378
538.69	71.992
539.03	71.361
539.37	71.391
539.71	70.781
540.05	73.132
540.39	73.961
540.73	72.149
541.07	73.497
541.42	72.856
541.76	71.827
542.10	72.721
542.44	71.552
542.78	71.370
543.12	71.690
543.46	70.616
543.80	71.104
544.14	71.860
544.48	72.966
544.82	72.395
545.16	73.172
545.50	72.005
545.84	72.323
546.18	72.191
546.52	71.764
546.86	72.293
547.20	74.262
547.54	71.074
547.88	72.595
548.22	70.380
548.56	71.276
548.90	71.968
549.24	72.950
549.58	72.759
549.92	72.721
550.26	73.844
550.60	71.195
550.94	72.774
551.28	73.740
551.62	73.781
551.96	73.227
552.30	71.847
552.64	73.821
552.98	73.160
553.32	72.727
553.66	74.549
554.00	71.286
554.34	71.986
554.68	71.930
555.02	72.648
555.36	72.969
555.69	73.424
556.03	72.491
556.37	73.044
556.71	73.228
557.05	73.466
557.39	73.794
557.73	74.398
558.07	74.830
558.41	73.598
558.75	73.688
559.08	73.307
559.42	74.809
559.76	74.617
560.10	73.154
560.44	73.844
560.78	73.138
561.12	72.671
561.45	72.740
561.79	73.937
562.13	72.090
562.47	72.899
562.81	72.702
563.15	73.408
563.48	72.149
563.82	72.955
564.16	73.631
564.50	72.581
564.84	71.693
565.17	72.016
565.51	72.229
565.85	75.254
566.19	73.518
566.52	73.125
566.86	71.997
567.20	73.547
567.54	72.711
567.88	70.519
568.21	73.434
568.55	72.004
568.89	70.477
569.23	70.893
569.56	68.810
569.90	70.653
570.24	69.598
570.57	68.155
570.91	68.174
571.25	68.936
571.59	69.216
571.92	68.036
572.26	67.885
572.60	68.166
572.93	67.049
573.27	67.835
573.61	66.533
573.95	67.669
574.28	66.908
574.62	67.616
574.96	67.024
575.29	67.429
575.63	67.587
575.97	66.370
576.30	66.648
576.64	67.755
576.98	66.136
577.31	66.698
577.65	66.562
577.98	66.950
578.32	67.375
578.66	67.566
578.99	67.160
579.33	66.767
579.67	66.675
580.00	66.592
580.34	66.781
580.67	67.296
581.01	66.065
581.35	66.632
581.68	66.565
582.02	66.973
582.35	66.969
582.69	68.183
583.02	68.192
583.36	67.207
583.70	67.665
584.03	68.481
584.37	68.011
584.70	67.645
585.04	67.367
585.37	67.184
585.71	66.957
586.04	67.503
586.38	67.950
586.72	67.418
587.05	68.394
587.39	67.577
587.72	68.038
588.06	68.776
588.39	67.645
588.73	68.014
589.06	68.606
589.40	68.533
589.73	68.272
590.07	69.228
590.40	67.897
590.73	69.372
591.07	69.836
591.40	70.277
591.74	70.287
592.07	69.910
592.41	70.149
592.74	69.101
593.08	68.349
593.41	69.309
593.75	68.249
594.08	69.626
594.41	69.575
594.75	70.593
595.08	70.827
595.42	69.256
595.75	68.872
596.09	70.276
596.42	70.827
596.75	70.246
597.09	70.525
597.42	70.537
597.75	69.796
598.09	69.679
598.42	69.907
598.76	69.145
599.09	69.771
599.42	69.243
599.76	69.611
600.09	69.046
600.42	69.502
600.76	70.094
601.09	69.313
601.42	69.727
601.76	69.509
602.09	69.407
602.42	69.630
602.76	69.423
603.09	70.766
603.42	70.467
603.76	71.241
604.09	69.844
604.42	69.775
604.76	71.391
605.09	70.886
605.42	70.479
605.75	69.426
606.09	70.984
606.42	70.591
606.75	69.000
607.09	69.740
607.42	70.114
607.75	70.375
608.08	70.854
608.42	71.003
608.75	69.860
609.08	71.359
609.41	71.699
609.75	70.648
610.08	70.882
610.41	71.133
610.74	71.905
611.07	72.008
611.41	69.692
611.74	71.620
612.07	72.825
612.40	71.055
612.73	71.190
613.07	72.207
613.40	73.344
613.73	72.316
614.06	70.016
614.39	74.014
614.72	71.955
615.06	70.435
615.39	69.615
615.72	72.515
616.05	69.851
616.38	71.619
616.71	72.312
617.05	72.376
617.38	73.498
617.71	72.420
618.04	73.354
618.37	72.579
618.70	74.185
619.03	72.580
619.36	73.714
619.69	74.803
620.03	73.003
620.36	73.066
620.69	73.869
621.02	74.962
621.35	75.887
621.68	75.984
622.01	74.353
622.34	74.224
622.67	74.453
623.00	75.210
623.33	74.627
623.66	73.929
623.99	74.060
624.32	73.661
624.65	74.393
624.99	74.981
625.32	75.075
625.65	74.981
625.98	74.961
626.31	75.693
626.64	75.146
626.97	75.514
627.30	76.085
627.63	77.116
627.96	75.979
628.29	77.298
628.62	76.313
628.95	79.035
629.28	76.880
629.61	78.018
629.94	77.599
630.26	79.125
630.59	79.799
630.92	77.477
631.25	78.528
631.58	77.989
631.91	79.787
632.24	81.000
632.57	78.222
632.90	78.506
633.23	80.958
633.56	80.117
633.89	79.481
634.22	78.749
634.55	78.846
634.88	79.202
635.20	78.027
635.53	82.697
635.86	79.219
636.19	79.121
636.52	77.897
636.85	80.265
637.18	79.500
637.51	81.289
637.83	83.089
638.16	81.316
638.49	82.345
638.82	78.378
639.15	80.415
639.48	77.043
639.81	84.232
640.13	79.730
640.46	81.197
640.79	81.232
641.12	80.818
641.45	81.923
641.77	82.635
642.10	82.477
642.43	79.666
642.76	80.472
643.09	80.159
643.41	83.175
643.74	83.307
644.07	82.683
644.40	85.089
644.73	83.498
645.05	85.142
645.38	83.444
645.71	85.223
646.04	84.538
646.36	82.024
646.69	84.602
647.02	84.116
647.35	81.588
647.67	84.672
648.00	83.304
648.33	85.497
648.66	79.839
648.98	79.618
649.31	81.231
649.64	83.281
649.96	79.749
650.29	80.820
650.62	83.133
650.94	79.427
651.27	79.896
651.60	81.834
651.92	82.534
652.25	80.301
652.58	81.090
652.90	79.133
653.23	82.581
653.56	82.609
653.88	75.738
654.21	82.718
654.54	80.233
654.86	81.862
655.19	80.229
655.52	73.394
655.84	68.738
656.17	73.638
656.49	98.039
656.82	100.000
657.15	77.898
657.47	57.469
657.80	44.387
658.13	50.407
658.45	68.182
658.78	67.650
659.10	66.675
659.43	66.228
659.75	66.365
660.08	67.292
660.41	67.348
660.73	71.947
661.06	76.232
661.38	82.500
661.71	82.600
662.03	82.863
662.36	85.714
662.68	83.122
663.01	83.864
663.33	85.714
663.66	82.833
663.98	87.946
664.31	84.564
664.63	85.177
664.96	81.779
665.28	86.117
665.61	79.281
665.93	79.218
666.26	81.377
666.58	80.457
666.91	83.742
667.23	83.991
667.56	82.540
667.88	86.425
668.21	83.180
668.53	84.112
668.86	84.988
669.18	86.301
669.50	84.346
669.83	90.998
670.15	82.960
670.48	85.514
670.80	82.005
671.13	84.199
671.45	84.459
671.77	83.726
672.10	82.446
672.42	80.258
672.75	82.000
673.07	79.099
673.39	76.685
673.72	81.299
674.04	83.864
674.37	82.474
674.69	81.967
675.01	79.787
675.34	78.525
675.66	81.641
675.98	84.141
676.31	83.484
676.63	84.828
676.95	81.858
677.28	82.367
677.60	84.615
677.92	83.480
678.25	83.151
678.57	80.864
678.89	81.761
679.22	77.987
679.54	80.473
679.86	82.200
680.18	81.939
680.51	78.026
680.83	80.000
681.15	78.227
681.48	78.905
681.80	77.218
682.12	78.471
682.44	77.407
682.77	79.221
683.09	80.922
683.41	82.080
683.73	78.995
684.06	77.634
684.38	80.962
684.70	83.951
685.02	78.150
685.34	78.752
685.67	78.788
685.99	78.072
686.31	80.610
686.63	77.305
686.96	77.079
687.28	75.723
687.60	80.273
687.92	77.237
688.24	79.331
688.56	77.956
688.89	76.496
689.21	82.713
689.53	82.759
689.85	78.174
690.17	80.269
690.49	78.522
690.82	77.349
691.14	77.830
691.46	83.592
691.78	82.819
692.10	81.780
692.42	79.333
692.74	78.326
693.06	83.146
693.39	78.747
693.71	78.555
694.03	77.970
694.35	78.781
694.67	75.414
694.99	79.284
695.31	82.143
695.63	76.786
695.95	77.667
696.27	77.556
696.59	80.481
696.91	83.708
697.23	83.333
697.56	78.365
697.88	77.477
698.20	75.161
698.52	75.785
698.84	81.553
699.16	79.286
699.48	77.500
699.80	79.198
700.12	76.574
700.44	79.609
700.76	78.426
701.08	80.814
701.40	81.571
701.72	83.951
702.04	87.500
702.36	82.229
702.68	78.144
703.00	80.290
703.32	78.223
703.64	83.235
703.96	80.523
704.28	81.657
704.60	81.329
704.91	81.587
705.23	81.877
705.55	80.068
705.87	84.300
706.19	78.472
706.51	79.167
706.83	86.885
707.15	83.758
707.47	80.441
707.79	79.124
708.11	72.265
708.43	79.800
708.74	76.623
709.06	78.830
709.38	75.575
709.70	84.062
710.02	79.141
710.34	80.198
710.66	72.698
710.98	77.603
711.29	75.484
711.61	75.080
711.93	78.361
712.25	76.412
712.57	76.655
712.89	86.691
713.20	79.725
713.52	83.209
713.84	80.427
714.16	80.000
714.48	78.413
714.80	77.231
715.11	76.369
715.43	78.916
715.75	79.751
716.07	75.082
716.39	77.926
716.70	77.003
717.02	82.593
717.34	80.153
717.66	82.573
717.97	80.738
718.29	82.353
718.61	83.730
718.93	73.835
719.24	74.265
719.56	74.717
719.88	81.455
720.20	80.899
720.51	80.075
720.83	81.526
721.15	80.328
721.46	83.922
721.78	82.759
722.10	77.600
722.42	80.165
722.73	83.267
723.05	74.699
723.37	76.078
723.68	71.660
724.00	79.268
724.32	77.778
724.63	76.349
724.95	83.058
725.27	75.439
725.58	78.448
725.90	77.778
726.22	78.598
726.53	80.228
726.85	71.765
727.16	77.820
727.48	74.615
727.80	78.689
728.11	76.891
728.43	80.579
728.74	79.688
729.06	75.000
729.38	74.319
729.69	73.228
730.01	77.953
730.32	78.486
730.64	83.150
730.96	83.209
731.27	73.214
731.59	71.383
731.90	72.699
732.22	73.313
732.53	74.834
732.85	70.805
733.16	75.362
733.48	72.125
733.80	71.530
734.11	74.483
734.43	73.810
734.74	72.700
735.06	74.608
735.37	71.560
735.69	72.258
736.00	75.084
736.32	73.510
736.63	71.379
736.95	73.913
737.26	74.172
737.58	71.583
737.89	77.061
738.21	74.812
738.52	75.000
738.83	79.297
739.15	75.214
739.46	79.435
739.78	72.727
740.09	73.077
740.41	74.126
740.72	75.182
741.04	73.413
741.35	74.459
741.66	72.222
741.98	70.476
742.29	75.587
742.61	74.866
742.92	77.570
743.23	73.246
743.55	76.577
743.86	73.778
744.18	74.762
744.49	79.310
744.80	76.142
745.12	76.289
745.43	76.884
745.74	75.728
746.06	74.634
746.37	77.533
746.68	74.627
747.00	84.293
747.31	76.923
747.62	67.742
747.94	74.236
748.25	75.814
748.56	79.048
748.88	75.543
749.19	74.648
749.50	80.392
749.82	77.778
750.13	78.414
750.44	73.171
750.75	84.000
751.07	72.500
751.38	74.908
751.69	74.427
752.01	71.538
752.32	71.595
752.63	72.308
752.94	69.841
753.26	74.348
753.57	76.339
753.88	75.000
754.19	76.349
754.51	73.047
754.82	77.075
755.13	73.251
755.44	78.099
755.75	75.720
756.07	71.084
756.38	70.703
756.69	78.700
757.00	68.293
757.31	72.483
757.63	71.651
757.94	67.919
758.25	70.640
758.56	74.394
758.87	66.193
759.18	71.333
759.50	71.886
759.81	74.088
760.12	67.568
760.43	73.786
760.74	74.062
761.05	67.697
761.36	75.150
761.67	67.751
761.99	70.968
762.30	77.536
762.61	68.679
762.92	72.197
763.23	78.673
763.54	69.778
763.85	78.059
764.16	69.388
764.47	78.390
764.78	73.408
765.10	75.180
765.41	66.129
765.72	67.296
766.03	67.491
766.34	73.684
766.65	72.065
766.96	72.000
767.27	71.875
767.58	73.256
767.89	71.613
768.20	80.368
768.51	65.574
768.82	77.838
769.13	80.000
769.44	67.544
769.75	69.697
770.06	70.183
770.37	68.075
770.68	69.792
770.99	75.248
771.30	75.243
771.61	73.611
771.92	70.130
772.23	64.953
772.54	69.149
772.85	68.639
773.16	73.171
773.47	78.313
773.78	71.978
774.09	72.667
774.39	71.605
774.70	73.154
775.01	71.739
775.32	71.642
775.63	59.504
775.94	71.429
776.25	72.143
776.56	81.148
776.87	76.106
777.18	72.566
777.48	70.909
777.79	66.957
778.10	62.385
778.41	71.186
778.72	69.421
779.03	72.388
779.34	70.677
779.65	71.895
779.95	81.884
780.26	59.184
780.57	70.690
780.88	75.926
781.19	73.737
781.50	66.400
781.80	72.549
782.11	68.590
782.42	62.651
782.73	57.664
783.04	58.108
783.34	72.727
783.65	68.217
783.96	73.171
784.27	61.538
784.57	72.358
784.88	57.724
785.19	68.421
785.50	56.701
785.81	62.857
786.11	64.706
786.42	60.909
786.73	71.171
787.04	74.257
787.34	66.667
787.65	63.810
787.96	71.569
788.26	70.270
788.57	67.742
788.88	64.844
789.19	65.812
789.49	56.303
789.80	52.137
790.11	62.832
790.41	58.586
790.72	60.377
791.03	79.167
791.33	80.263
791.64	67.742
791.95	73.333
792.25	71.429
792.56	57.317
792.87	59.184
793.17	55.263
793.48	55.405
793.79	64.789
794.09	50.633
794.40	62.766
794.70	66.355
795.01	54.386
795.32	68.182
795.62	63.393
795.93	64.948
796.23	60.440
796.54	55.789
796.85	50.685
797.15	37.500
797.46	47.945
797.76	60.563
798.07	73.750
798.37	52.941
798.68	77.143
798.99	57.143
799.29	64.474
799.60	73.333
799.90	52.778
800.21	62.500
800.51	47.619
800.82	70.492
801.12	54.386
801.43	39.437
801.73	49.153
802.04	54.098
802.34	67.273
802.65	78.846
802.95	38.889
803.26	50.000
803.56	53.846
803.87	78.947
804.17	35.484
804.48	55.385
804.78	51.282
805.09	72.093
805.39	28.125
805.70	43.396
806.00	73.684
806.30	66.216
806.61	60.294
806.91	51.852
807.22	50.667
807.52	56.716
807.83	51.613
808.13	60.317
808.43	54.545
808.74	63.636
809.04	58.491
809.35	49.315
809.65	70.175
809.95	57.353
810.26	72.549
810.56	62.000
810.86	69.388
811.17	77.143
811.47	67.308
811.77	93.548
812.08	7.895
812.38	52.381
812.69	26.087
812.99	106.452
813.29	35.714
813.59	3.704
813.90	40.426
814.20	32.558
814.50	47.917
814.81	38.333
815.11	51.220
815.41	90.000
815.72	102.857
816.02	13.889
816.32	61.538
816.62	32.432
816.93	5.882
817.23	41.304
817.53	29.412
817.84	35.294
818.14	6.250
818.44	10.345
818.74	54.839
819.04	3.704
819.35	36.667
819.65	52.000
819.95	30.000
820.25	56.000
820.56	44.737
820.86	65.000
821.16	36.170
821.46	31.034
821.76	38.462
822.07	25.000
822.37	39.535
822.67	66.667
822.97	35.135
823.27	59.459
823.57	76.000
823.88	29.730
824.18	80.952
824.48	30.769
824.78	-30.769
825.08	39.130
825.38	58.333
825.69	20.833
825.99	5.000
826.29	8.108
826.59	23.529
826.89	68.000
827.19	42.857
827.49	44.737
827.79	34.375
828.09	-13.333
828.39	82.609
828.70	-10.345
829.00	62.069
829.30	5.556
829.60	81.250
829.90	50.000
830.20	7.692
830.50	4.762
830.80	3.571
831.10	41.026
831.40	-4.762
831.70	11.765
832.00	41.667
832.30	-5.263
832.60	-6.250
832.90	-41.667
833.20	-11.765
833.50	-33.333
833.80	33.333
834.10	30.000
834.40	0.000
834.70	61.111
835.00	88.462
835.30	-25.000
835.60	48.276
835.90	-38.889
836.20	9.091
836.50	-66.667
836.80	11.429
837.10	57.143
837.40	-17.647
837.70	-27.273
838.00	33.333
838.30	-6.250
838.60	28.571
838.90	15.000
839.19	-4.348
839.49	8.696
839.79	-50.000
840.09	-8.696
840.39	-18.182
840.69	37.500
840.99	-21.053
841.29	6.250
841.59	-7.143
841.88	-44.444
842.18	16.667
842.48	-47.059
842.78	3.448
843.08	7.143
843.38	-30.769
843.68	-100.000
843.97	-53.846
844.27	-9.091
844.57	-120.000
844.87	72.000
845.17	-160.000
845.47	-7.143
845.76	-33.333
846.06	0.000
846.36	-150.000
846.66	-140.000
846.96	-31.579
847.25	-8.333
847.55	-41.667
847.85	13.333
848.15	-20.000
848.44	26.923
848.74	36.842
849.04	300.000
849.34	-77.778
849.63	15.789
849.93	0.000
850.23	-40.000
850.53	14.286
850.82	8.000
851.12	26.316
851.42	50.000
851.71	28.571
852.01	-41.667
852.31	47.059
852.61	-13.333
852.90	-57.143
853.20	-133.333
853.50	38.889
853.79	-47.368
854.09	-60.000
854.39	-3.571
854.68	4.348
854.98	-83.333
855.28	6.897
855.57	-43.750
855.87	45.000
856.17	6.667
856.46	-3.448
856.76	-33.333
857.05	-5.882
857.35	-53.846
857.65	-63.636
857.94	11.111
858.24	-107.143
858.53	-21.429
858.83	-41.667
859.13	-44.444
859.42	-9.524
859.72	0.000
860.01	66.667
860.31	-25.000
860.60	-400.000
860.90	-122.222
861.20	-175.000
861.49	-57.143
861.79	35.294
862.08	-800.000
862.38	-33.333
862.67	-30.769
862.97	-58.824
863.26	10.000
863.56	-41.176
863.85	466.667
864.15	-130.000
864.44	-100.000
864.74	30.000
865.03	-225.000
865.33	-366.667
865.62	-11.765
865.92	-325.000
866.21	14.286
866.51	-75.000
866.80	-2100.000
867.10	-133.333
867.39	-11.765
867.69	34.783
867.98	-28.571
868.27	-280.000
868.57	-12.500
868.86	-154.545
869.16	-11.765
869.45	-16.667
869.75	-14.286
870.04	1100.000
870.33	-66.667
870.63	-80.000
870.92	-77.778
871.22	91.667
871.51	-109.091
871.80	-150.000
872.10	140.000
>>>>>End Processed Spectral Data<<<<<
