SpectraSuite Data File
++++++++++++++++++++++++++++++++++++
Date: Sat May 16 11:17:15 PDT 2015
User: schluterlab
Dark Spectrum Present: Yes
Reference Spectrum Present: Yes
Number of Sampled Component Spectra: 1
Spectrometers: USB2E3373
Integration Time (usec): 3000 (USB2E3373)
Spectra Averaged: 3 (USB2E3373)
Boxcar Smoothing: 0 (USB2E3373)
Correct for Electrical Dark: No (USB2E3373)
Strobe/Lamp Enabled: No (USB2E3373)
Correct for Detector Non-linearity: No (USB2E3373)
Correct for Stray Light: No (USB2E3373)
Number of Pixels in Processed Spectrum: 2048
>>>>>Begin Processed Spectral Data<<<<<
178.53	0.000
178.91	133.333
179.29	566.667
179.67	-800.000
180.04	-46.154
180.42	400.000
180.80	400.000
181.18	75.000
181.56	-125.000
181.94	1200.000
182.31	350.000
182.69	-69.231
183.07	-333.333
183.45	1250.000
183.83	400.000
184.20	-28.571
184.58	-162.500
184.96	-100.000
185.34	118.750
185.72	-250.000
186.09	116.667
186.47	-187.500
186.85	-112.500
187.23	-12.500
187.61	50.000
187.98	-200.000
188.36	-137.500
188.74	-137.500
189.12	1700.000
189.49	328.571
189.87	-108.333
190.25	100.000
190.63	21.429
191.00	-66.667
191.38	200.000
191.76	-6.667
192.14	340.000
192.51	-140.000
192.89	-566.667
193.27	0.000
193.65	-200.000
194.02	-242.857
194.40	133.333
194.78	-80.000
195.15	-600.000
195.53	-18.182
195.91	-266.667
196.29	220.000
196.66	-333.333
197.04	1400.000
197.42	-100.000
197.79	40.000
198.17	-233.333
198.55	-300.000
198.92	-1200.000
199.30	337.500
199.68	-450.000
200.05	-222.222
200.43	-133.333
200.81	-1300.000
201.18	-58.333
201.56	214.286
201.94	33.333
202.31	45.455
202.69	20.000
203.07	-120.000
203.44	233.333
203.82	-216.667
204.19	-175.000
204.57	75.000
204.95	-1200.000
205.32	50.000
205.70	600.000
206.08	-1200.000
206.45	-33.333
206.83	-500.000
207.20	750.000
207.58	-466.667
207.96	-466.667
208.33	-62.500
208.71	-22.222
209.08	150.000
209.46	-128.571
209.84	300.000
210.21	0.000
210.59	-45.000
210.96	500.000
211.34	-216.667
211.71	-200.000
212.09	175.000
212.46	900.000
212.84	-1500.000
213.22	533.333
213.59	83.333
213.97	-77.778
214.34	70.000
214.72	-20.000
215.09	-266.667
215.47	-150.000
215.84	100.000
216.22	30.000
216.59	40.000
216.97	-125.000
217.34	950.000
217.72	-71.429
218.09	-333.333
218.47	-85.714
218.84	57.143
219.22	-100.000
219.59	0.000
219.97	200.000
220.34	300.000
220.72	162.500
221.09	-38.462
221.47	0.000
221.84	133.333
222.22	-300.000
222.59	-200.000
222.97	125.000
223.34	-900.000
223.72	-600.000
224.09	-78.571
224.46	-200.000
224.84	-14.286
225.21	-157.143
225.59	-81.818
225.96	-175.000
226.34	0.000
226.71	-100.000
227.08	75.000
227.46	1700.000
227.83	42.857
228.21	-37.500
228.58	350.000
228.95	6.250
229.33	-900.000
229.70	-200.000
230.08	-500.000
230.45	16.667
230.82	166.667
231.20	700.000
231.57	-150.000
231.95	-0.000
232.32	61.905
232.69	-111.111
233.07	-185.714
233.44	-700.000
233.81	-86.667
234.19	-88.889
234.56	12.500
234.93	0.000
235.31	-14.286
235.68	-50.000
236.05	-64.706
236.43	-36.364
236.80	-6.452
237.17	20.833
237.55	4.762
237.92	-50.000
238.29	0.000
238.67	-8.824
239.04	-11.111
239.41	9.677
239.79	-10.256
240.16	11.905
240.53	23.636
240.91	25.641
241.28	34.545
241.65	33.846
242.02	19.672
242.40	18.033
242.77	36.364
243.14	13.559
243.51	21.429
243.89	21.519
244.26	28.090
244.63	29.474
245.00	27.368
245.38	32.203
245.75	34.513
246.12	39.200
246.49	25.197
246.87	29.268
247.24	27.966
247.61	28.814
247.98	21.831
248.36	27.972
248.73	32.911
249.10	31.847
249.47	39.181
249.84	35.227
250.22	25.595
250.59	33.898
250.96	32.461
251.33	36.019
251.70	33.173
252.08	33.175
252.45	33.175
252.82	30.476
253.19	31.489
253.56	28.629
253.94	27.426
254.31	35.622
254.68	33.333
255.05	32.258
255.42	36.111
255.79	29.032
256.16	35.294
256.54	32.721
256.91	32.576
257.28	32.967
257.65	32.624
258.02	32.704
258.39	33.779
258.76	30.068
259.14	30.864
259.51	36.721
259.88	28.963
260.25	34.783
260.62	31.833
260.99	29.970
261.36	32.012
261.73	32.370
262.10	35.556
262.47	34.473
262.85	38.571
263.22	31.232
263.59	28.308
263.96	36.522
264.33	32.520
264.70	33.425
265.07	32.967
265.44	35.142
265.81	32.817
266.18	29.873
266.55	32.353
266.92	34.005
267.29	35.109
267.66	34.321
268.03	32.850
268.40	35.681
268.77	32.771
269.14	33.411
269.51	33.563
269.88	31.651
270.25	28.904
270.62	32.952
270.99	31.081
271.36	31.469
271.73	34.978
272.10	35.698
272.47	33.556
272.84	36.000
273.21	34.404
273.58	33.626
273.95	30.921
274.32	35.068
274.69	35.230
275.06	33.538
275.43	33.259
275.80	35.845
276.17	33.891
276.54	32.994
276.91	34.568
277.28	31.440
277.65	32.645
278.02	32.985
278.39	33.792
278.76	32.470
279.13	33.004
279.50	32.406
279.87	33.827
280.23	36.235
280.60	33.598
280.97	34.757
281.34	31.141
281.71	34.038
282.08	33.871
282.45	33.198
282.82	34.884
283.19	33.273
283.56	32.418
283.92	31.449
284.29	31.041
284.66	31.655
285.03	33.868
285.40	32.472
285.77	33.509
286.14	33.935
286.51	32.504
286.87	33.212
287.24	32.423
287.61	31.405
287.98	32.062
288.35	30.083
288.72	32.258
289.08	30.169
289.45	32.155
289.82	29.758
290.19	30.870
290.56	30.413
290.93	31.161
291.29	30.794
291.66	28.663
292.03	29.670
292.40	27.711
292.77	28.106
293.13	29.756
293.50	27.192
293.87	29.141
294.24	28.658
294.60	25.758
294.97	28.680
295.34	27.259
295.71	26.786
296.08	25.653
296.44	27.468
296.81	27.635
297.18	25.915
297.55	29.237
297.91	28.452
298.28	26.712
298.65	23.570
299.02	25.936
299.38	24.465
299.75	26.495
300.12	25.000
300.48	25.064
300.85	23.198
301.22	26.391
301.59	24.447
301.95	25.567
302.32	23.468
302.69	23.133
303.05	24.298
303.42	23.000
303.79	24.163
304.15	24.171
304.52	24.387
304.89	22.550
305.25	23.687
305.62	22.914
305.99	24.499
306.35	23.418
306.72	23.462
307.09	24.064
307.45	23.269
307.82	23.799
308.19	23.043
308.55	21.895
308.92	23.093
309.29	23.568
309.65	21.739
310.02	23.866
310.38	22.486
310.75	22.643
311.12	23.037
311.48	22.651
311.85	23.790
312.22	22.451
312.58	21.974
312.95	21.305
313.31	22.078
313.68	23.920
314.05	23.244
314.41	22.233
314.78	22.577
315.14	22.507
315.51	22.087
315.87	22.072
316.24	22.643
316.61	22.937
316.97	23.881
317.34	22.062
317.70	21.058
318.07	20.989
318.43	21.067
318.80	22.629
319.16	21.201
319.53	22.650
319.89	20.132
320.26	20.686
320.62	21.250
320.99	21.095
321.35	20.493
321.72	21.085
322.08	21.068
322.45	20.693
322.81	20.941
323.18	20.749
323.54	21.349
323.91	21.409
324.27	20.627
324.64	20.567
325.00	20.157
325.37	20.814
325.73	21.435
326.10	20.283
326.46	20.578
326.83	20.255
327.19	20.934
327.56	22.232
327.92	21.410
328.29	20.779
328.65	19.636
329.01	21.025
329.38	20.963
329.74	21.337
330.11	21.668
330.47	20.436
330.84	21.540
331.20	21.119
331.56	19.417
331.93	20.959
332.29	20.365
332.66	21.422
333.02	20.543
333.38	20.161
333.75	20.837
334.11	20.533
334.48	20.035
334.84	22.397
335.20	20.567
335.57	20.668
335.93	21.307
336.29	20.372
336.66	19.207
337.02	20.090
337.38	20.945
337.75	19.403
338.11	19.857
338.47	19.751
338.84	19.782
339.20	19.859
339.56	20.856
339.93	19.665
340.29	19.486
340.65	19.930
341.02	19.646
341.38	19.545
341.74	19.390
342.11	19.881
342.47	20.000
342.83	19.395
343.20	19.641
343.56	19.510
343.92	20.451
344.28	20.269
344.65	18.564
345.01	18.571
345.37	20.515
345.73	18.576
346.10	17.907
346.46	18.684
346.82	18.845
347.19	20.214
347.55	18.941
347.91	20.315
348.27	18.536
348.63	20.032
349.00	19.809
349.36	17.799
349.72	18.869
350.08	19.567
350.45	18.991
350.81	20.303
351.17	19.453
351.53	18.775
351.89	18.513
352.26	18.372
352.62	19.201
352.98	18.908
353.34	18.625
353.70	18.069
354.07	19.197
354.43	18.893
354.79	18.938
355.15	19.089
355.51	17.656
355.87	18.103
356.24	18.745
356.60	19.662
356.96	19.630
357.32	19.319
357.68	18.621
358.04	19.477
358.40	18.020
358.77	17.929
359.13	18.057
359.49	18.292
359.85	18.521
360.21	17.960
360.57	19.503
360.93	19.185
361.29	17.862
361.66	18.521
362.02	18.121
362.38	18.048
362.74	18.755
363.10	17.647
363.46	19.444
363.82	18.149
364.18	18.669
364.54	20.372
364.90	17.470
365.26	18.117
365.62	19.601
365.98	19.346
366.35	18.451
366.71	16.350
367.07	19.266
367.43	19.286
367.79	18.213
368.15	17.568
368.51	19.091
368.87	19.437
369.23	19.088
369.59	18.681
369.95	19.309
370.31	20.042
370.67	17.209
371.03	18.513
371.39	17.680
371.75	18.741
372.11	18.293
372.47	17.932
372.83	18.915
373.19	19.143
373.55	19.141
373.91	18.848
374.27	18.344
374.63	18.219
374.99	18.359
375.35	18.237
375.71	19.244
376.07	18.207
376.42	17.086
376.78	18.693
377.14	18.847
377.50	18.956
377.86	18.596
378.22	18.593
378.58	17.542
378.94	17.756
379.30	18.464
379.66	18.822
380.02	18.182
380.38	18.792
380.74	18.464
381.09	19.215
381.45	19.272
381.81	18.209
382.17	18.421
382.53	17.994
382.89	18.301
383.25	18.242
383.61	18.337
383.97	18.677
384.32	18.836
384.68	19.105
385.04	18.599
385.40	18.624
385.76	18.537
386.12	19.238
386.48	19.307
386.83	18.957
387.19	19.725
387.55	18.655
387.91	19.028
388.27	17.250
388.62	19.411
388.98	18.534
389.34	18.666
389.70	19.184
390.06	18.334
390.42	19.615
390.77	18.927
391.13	19.503
391.49	18.278
391.85	18.828
392.20	18.689
392.56	19.243
392.92	18.768
393.28	19.288
393.64	19.182
393.99	19.262
394.35	19.039
394.71	18.468
395.07	19.648
395.42	18.415
395.78	18.353
396.14	19.439
396.50	19.572
396.85	18.939
397.21	18.712
397.57	19.027
397.92	18.794
398.28	19.278
398.64	19.096
399.00	18.876
399.35	18.602
399.71	19.512
400.07	19.104
400.42	19.951
400.78	18.903
401.14	18.743
401.49	18.278
401.85	19.158
402.21	19.249
402.57	19.114
402.92	19.824
403.28	18.873
403.63	18.754
403.99	19.640
404.35	18.841
404.70	19.017
405.06	19.204
405.42	18.758
405.77	18.891
406.13	18.455
406.49	18.814
406.84	19.016
407.20	19.965
407.55	18.619
407.91	18.588
408.27	19.608
408.62	19.002
408.98	19.466
409.34	19.622
409.69	19.093
410.05	18.678
410.40	19.375
410.76	19.680
411.11	19.389
411.47	18.734
411.83	19.193
412.18	18.007
412.54	18.731
412.89	19.502
413.25	18.477
413.60	18.834
413.96	18.484
414.31	19.511
414.67	18.667
415.03	19.728
415.38	19.063
415.74	19.588
416.09	18.670
416.45	17.791
416.80	19.376
417.16	18.472
417.51	20.092
417.87	19.547
418.22	19.406
418.58	19.063
418.93	19.497
419.29	19.448
419.64	18.405
420.00	19.380
420.35	19.042
420.71	18.007
421.06	19.645
421.42	18.443
421.77	18.760
422.12	19.474
422.48	19.081
422.83	19.533
423.19	18.820
423.54	19.308
423.90	18.508
424.25	18.665
424.61	19.300
424.96	19.427
425.31	18.893
425.67	18.682
426.02	18.244
426.38	18.633
426.73	19.053
427.09	18.873
427.44	18.523
427.79	19.477
428.15	19.689
428.50	20.117
428.85	19.125
429.21	18.871
429.56	19.167
429.92	19.790
430.27	19.840
430.62	18.704
430.98	18.662
431.33	19.530
431.68	19.571
432.04	19.418
432.39	19.601
432.74	18.525
433.10	19.527
433.45	19.689
433.80	19.205
434.16	19.398
434.51	19.507
434.86	19.684
435.22	19.098
435.57	18.972
435.92	19.168
436.28	19.703
436.63	19.333
436.98	19.244
437.34	19.433
437.69	18.786
438.04	18.775
438.39	19.795
438.75	18.510
439.10	19.545
439.45	19.010
439.81	19.157
440.16	18.683
440.51	19.941
440.86	19.318
441.22	18.961
441.57	19.421
441.92	18.721
442.27	19.210
442.63	18.777
442.98	18.341
443.33	18.836
443.68	18.395
444.03	19.401
444.39	20.215
444.74	19.934
445.09	19.079
445.44	19.133
445.79	19.480
446.15	19.715
446.50	18.998
446.85	19.702
447.20	19.305
447.55	19.061
447.91	19.315
448.26	19.497
448.61	18.619
448.96	19.104
449.31	18.658
449.66	19.691
450.02	18.837
450.37	18.435
450.72	18.870
451.07	18.919
451.42	18.525
451.77	19.509
452.12	19.964
452.47	19.710
452.83	18.579
453.18	19.165
453.53	18.781
453.88	19.498
454.23	19.468
454.58	20.820
454.93	19.710
455.28	19.758
455.63	19.410
455.98	19.578
456.34	19.377
456.69	20.013
457.04	20.529
457.39	19.318
457.74	19.315
458.09	19.722
458.44	19.515
458.79	19.339
459.14	19.852
459.49	19.420
459.84	19.449
460.19	19.451
460.54	19.419
460.89	19.395
461.24	19.915
461.59	19.871
461.94	19.605
462.29	19.357
462.64	20.158
462.99	20.080
463.34	18.974
463.69	20.674
464.04	20.387
464.39	18.817
464.74	20.035
465.09	18.942
465.44	18.951
465.79	19.684
466.14	20.541
466.49	19.574
466.84	19.988
467.19	20.387
467.54	18.861
467.89	19.051
468.24	19.952
468.59	19.113
468.94	19.743
469.29	19.428
469.64	20.350
469.99	20.122
470.34	19.238
470.68	20.203
471.03	19.752
471.38	19.931
471.73	20.839
472.08	19.946
472.43	19.434
472.78	20.133
473.13	19.549
473.48	19.655
473.83	19.851
474.17	19.427
474.52	21.100
474.87	19.639
475.22	20.000
475.57	19.889
475.92	19.168
476.27	19.943
476.61	19.944
476.96	20.906
477.31	19.107
477.66	20.365
478.01	21.178
478.36	20.010
478.70	20.235
479.05	20.173
479.40	19.948
479.75	19.980
480.10	20.437
480.45	20.068
480.79	20.336
481.14	20.723
481.49	20.039
481.84	19.464
482.19	20.466
482.53	20.123
482.88	20.123
483.23	19.953
483.58	20.490
483.92	20.210
484.27	19.539
484.62	19.525
484.97	19.408
485.31	19.296
485.66	18.959
486.01	19.283
486.36	19.875
486.70	20.214
487.05	19.728
487.40	19.952
487.75	20.101
488.09	19.364
488.44	19.959
488.79	19.809
489.13	20.274
489.48	19.984
489.83	20.917
490.17	20.331
490.52	20.743
490.87	19.815
491.22	19.617
491.56	20.185
491.91	20.277
492.26	20.660
492.60	20.457
492.95	20.990
493.30	20.248
493.64	19.652
493.99	20.124
494.34	20.619
494.68	22.144
495.03	20.650
495.37	20.305
495.72	19.745
496.07	20.319
496.41	21.491
496.76	20.502
497.11	20.490
497.45	20.738
497.80	20.810
498.14	21.120
498.49	21.246
498.84	20.874
499.18	21.199
499.53	21.335
499.87	20.463
500.22	20.441
500.56	20.910
500.91	20.690
501.26	21.980
501.60	20.607
501.95	21.594
502.29	21.020
502.64	21.735
502.98	20.700
503.33	21.382
503.67	20.690
504.02	21.873
504.36	21.765
504.71	20.669
505.06	20.320
505.40	20.958
505.75	20.884
506.09	21.385
506.44	21.404
506.78	21.626
507.13	20.906
507.47	21.753
507.82	21.941
508.16	22.228
508.51	21.278
508.85	21.636
509.19	20.984
509.54	21.353
509.88	21.968
510.23	21.646
510.57	21.958
510.92	21.966
511.26	20.840
511.61	21.598
511.95	21.983
512.30	21.880
512.64	21.536
512.98	22.827
513.33	21.691
513.67	22.111
514.02	22.204
514.36	22.715
514.70	21.958
515.05	22.927
515.39	22.837
515.74	23.793
516.08	22.248
516.42	22.436
516.77	23.686
517.11	23.227
517.46	23.445
517.80	23.887
518.14	22.766
518.49	24.148
518.83	23.680
519.17	22.972
519.52	23.829
519.86	24.313
520.20	23.411
520.55	23.077
520.89	22.417
521.23	24.054
521.58	22.947
521.92	23.369
522.26	23.365
522.61	23.384
522.95	23.101
523.29	23.260
523.64	22.986
523.98	23.552
524.32	23.193
524.66	22.733
525.01	23.121
525.35	24.420
525.69	24.008
526.04	23.956
526.38	24.570
526.72	23.819
527.06	23.503
527.41	23.630
527.75	23.894
528.09	23.627
528.43	24.000
528.78	23.869
529.12	24.392
529.46	23.518
529.80	24.532
530.15	23.889
530.49	23.480
530.83	24.951
531.17	23.838
531.51	23.443
531.86	24.621
532.20	24.224
532.54	25.334
532.88	24.506
533.22	24.733
533.57	24.217
533.91	23.596
534.25	24.261
534.59	23.673
534.93	23.647
535.27	24.229
535.62	25.000
535.96	23.853
536.30	24.607
536.64	24.369
536.98	23.941
537.32	24.672
537.66	24.576
538.01	23.780
538.35	25.473
538.69	24.332
539.03	24.848
539.37	24.152
539.71	24.283
540.05	23.852
540.39	24.446
540.73	24.464
541.07	24.454
541.42	23.160
541.76	23.721
542.10	24.308
542.44	23.851
542.78	25.441
543.12	24.372
543.46	23.767
543.80	23.545
544.14	23.976
544.48	23.425
544.82	24.966
545.16	23.206
545.50	24.226
545.84	24.965
546.18	24.272
546.52	24.609
546.86	25.641
547.20	25.035
547.54	23.967
547.88	24.154
548.22	23.657
548.56	23.781
548.90	24.798
549.24	23.966
549.58	25.124
549.92	24.311
550.26	24.350
550.60	25.178
550.94	24.526
551.28	24.078
551.62	24.815
551.96	25.398
552.30	24.530
552.64	24.208
552.98	26.139
553.32	23.016
553.66	24.658
554.00	24.591
554.34	24.404
554.68	24.781
555.02	26.194
555.36	24.299
555.69	24.642
556.03	25.474
556.37	24.040
556.71	25.268
557.05	25.203
557.39	23.905
557.73	25.383
558.07	23.813
558.41	24.458
558.75	24.867
559.08	24.047
559.42	24.579
559.76	25.000
560.10	24.683
560.44	25.361
560.78	24.635
561.12	24.155
561.45	25.205
561.79	24.390
562.13	24.684
562.47	24.020
562.81	24.752
563.15	24.563
563.48	24.188
563.82	24.408
564.16	25.152
564.50	24.866
564.84	25.463
565.17	23.674
565.51	24.250
565.85	24.949
566.19	24.704
566.52	24.918
566.86	23.072
567.20	24.516
567.54	24.335
567.88	22.892
568.21	24.776
568.55	23.277
568.89	23.012
569.23	23.045
569.56	23.203
569.90	23.289
570.24	23.300
570.57	22.636
570.91	22.815
571.25	22.990
571.59	22.760
571.92	23.065
572.26	22.079
572.60	22.495
572.93	22.515
573.27	22.378
573.61	21.795
573.95	22.512
574.28	22.268
574.62	22.344
574.96	22.283
575.29	22.409
575.63	21.848
575.97	22.330
576.30	22.280
576.64	22.454
576.98	22.244
577.31	22.026
577.65	22.411
577.98	22.005
578.32	21.974
578.66	22.131
578.99	21.949
579.33	22.281
579.67	21.887
580.00	22.321
580.34	22.578
580.67	21.991
581.01	21.778
581.35	22.070
581.68	21.698
582.02	22.030
582.35	22.059
582.69	22.077
583.02	22.303
583.36	22.116
583.70	22.222
584.03	22.468
584.37	22.733
584.70	22.072
585.04	22.304
585.37	21.193
585.71	21.505
586.04	22.391
586.38	21.973
586.72	22.632
587.05	22.430
587.39	22.043
587.72	22.830
588.06	22.118
588.39	22.387
588.73	22.933
589.06	23.082
589.40	22.982
589.73	22.273
590.07	22.505
590.40	22.620
590.73	22.831
591.07	23.566
591.40	23.224
591.74	23.545
592.07	23.018
592.41	22.590
592.74	22.982
593.08	23.241
593.41	22.072
593.75	22.387
594.08	23.832
594.41	23.475
594.75	22.386
595.08	23.045
595.42	22.941
595.75	22.161
596.09	22.972
596.42	22.750
596.75	22.898
597.09	23.998
597.42	23.309
597.75	23.384
598.09	23.588
598.42	22.536
598.76	23.048
599.09	21.626
599.42	22.491
599.76	22.273
600.09	23.588
600.42	23.243
600.76	23.013
601.09	22.332
601.42	22.913
601.76	23.131
602.09	22.822
602.42	23.251
602.76	22.019
603.09	22.540
603.42	23.288
603.76	22.696
604.09	22.387
604.42	22.440
604.76	23.375
605.09	23.101
605.42	23.138
605.75	22.467
606.09	23.329
606.42	22.329
606.75	22.885
607.09	23.291
607.42	23.327
607.75	22.340
608.08	23.814
608.42	23.510
608.75	22.150
609.08	23.478
609.41	22.870
609.75	22.916
610.08	23.922
610.41	23.036
610.74	24.468
611.07	23.986
611.41	22.138
611.74	23.959
612.07	23.631
612.40	23.241
612.73	22.886
613.07	23.005
613.40	24.904
613.73	22.997
614.06	23.449
614.39	24.295
614.72	24.022
615.06	22.989
615.39	23.114
615.72	23.520
616.05	22.584
616.38	23.970
616.71	23.363
617.05	23.703
617.38	23.777
617.71	22.604
618.04	24.348
618.37	23.836
618.70	24.120
619.03	24.645
619.36	24.665
619.69	25.054
620.03	23.416
620.36	23.910
620.69	24.408
621.02	23.212
621.35	24.839
621.68	24.344
622.01	25.081
622.34	24.379
622.67	24.375
623.00	25.172
623.33	24.254
623.66	23.338
623.99	24.361
624.32	23.810
624.65	23.841
624.99	23.376
625.32	23.653
625.65	24.476
625.98	23.396
626.31	25.612
626.64	23.682
626.97	25.000
627.30	25.532
627.63	24.180
627.96	26.371
628.29	24.632
628.62	25.692
628.95	25.787
629.28	25.564
629.61	25.613
629.94	26.276
630.26	24.453
630.59	25.226
630.92	25.325
631.25	26.310
631.58	24.656
631.91	23.617
632.24	26.222
632.57	25.444
632.90	25.747
633.23	26.752
633.56	25.731
633.89	25.354
634.22	25.502
634.55	26.322
634.88	26.602
635.20	25.343
635.53	25.318
635.86	24.559
636.19	26.252
636.52	24.731
636.85	24.308
637.18	24.375
637.51	27.633
637.83	26.764
638.16	25.658
638.49	24.828
638.82	26.898
639.15	26.978
639.48	25.940
639.81	27.248
640.13	26.622
640.46	27.350
640.79	26.190
641.12	25.670
641.45	26.973
641.77	26.946
642.10	24.924
642.43	28.832
642.76	25.827
643.09	27.619
643.41	27.937
643.74	26.709
644.07	26.365
644.40	26.580
644.73	27.393
645.05	25.376
645.38	27.649
645.71	29.725
646.04	25.882
646.36	26.527
646.69	27.509
647.02	29.783
647.35	26.715
647.67	26.825
648.00	27.592
648.33	27.656
648.66	25.000
648.98	27.707
649.31	25.385
649.64	27.656
649.96	25.903
650.29	26.066
650.62	27.539
650.94	24.958
651.27	26.343
651.60	25.606
651.92	28.425
652.25	23.372
652.58	26.235
652.90	26.485
653.23	26.290
653.56	24.916
653.88	24.754
654.21	26.342
654.54	25.914
654.86	26.164
655.19	25.788
655.52	23.734
655.84	21.138
656.17	23.141
656.49	31.695
656.82	32.743
657.15	24.746
657.47	18.166
657.80	13.888
658.13	15.878
658.45	21.294
658.78	21.328
659.10	21.071
659.43	21.555
659.75	21.991
660.08	22.083
660.41	22.571
660.73	23.982
661.06	25.362
661.38	26.607
661.71	25.430
662.03	27.016
662.36	27.719
662.68	27.215
663.01	28.662
663.33	27.891
663.66	27.039
663.98	25.670
664.31	21.924
664.63	29.867
664.96	26.681
665.28	25.380
665.61	23.467
665.93	27.572
666.26	27.126
666.58	28.482
666.91	27.171
667.23	30.263
667.56	24.263
667.88	30.543
668.21	27.650
668.53	28.505
668.86	27.021
669.18	29.452
669.50	27.804
669.83	24.818
670.15	26.233
670.48	24.766
670.80	25.513
671.13	27.088
671.45	24.550
671.77	26.338
672.10	25.838
672.42	27.306
672.75	25.273
673.07	22.523
673.39	24.590
673.72	28.543
674.04	22.081
674.37	25.361
674.69	26.844
675.01	23.191
675.34	25.163
675.66	27.430
675.98	26.432
676.31	26.697
676.63	25.517
676.95	26.106
677.28	26.682
677.60	28.281
677.92	27.313
678.25	25.383
678.57	27.160
678.89	27.673
679.22	24.528
679.54	26.824
679.86	25.000
680.18	28.137
680.51	24.953
680.83	25.905
681.15	25.626
681.48	27.383
681.80	24.194
682.12	25.352
682.44	24.754
682.77	23.810
683.09	27.463
683.41	25.000
683.73	24.886
684.06	25.591
684.38	26.569
684.70	25.103
685.02	25.984
685.34	25.926
685.67	25.758
685.99	22.117
686.31	24.955
686.63	26.418
686.96	22.551
687.28	23.892
687.60	24.805
687.92	23.541
688.24	26.378
688.56	24.649
688.89	23.504
689.21	24.508
689.53	24.368
689.85	24.722
690.17	24.439
690.49	26.097
690.82	23.373
691.14	24.528
691.46	26.608
691.78	26.432
692.10	26.483
692.42	23.556
692.74	27.039
693.06	22.921
693.39	26.174
693.71	27.088
694.03	26.566
694.35	25.508
694.67	21.749
694.99	23.529
695.31	25.510
695.63	23.724
695.95	26.055
696.27	24.938
696.59	28.075
696.91	25.000
697.23	25.000
697.56	24.038
697.88	25.225
698.20	26.124
698.52	23.991
698.84	23.058
699.16	27.143
699.48	23.000
699.80	26.817
700.12	29.723
700.44	25.698
700.76	27.114
701.08	25.000
701.40	21.148
701.72	23.765
702.04	27.564
702.36	24.398
702.68	24.551
703.00	24.928
703.32	22.923
703.64	26.471
703.96	26.744
704.28	26.331
704.60	23.418
704.91	23.175
705.23	23.301
705.55	26.689
705.87	25.939
706.19	28.819
706.51	24.653
706.83	29.508
707.15	25.159
707.47	25.620
707.79	25.773
708.11	24.427
708.43	23.940
708.74	24.675
709.06	25.348
709.38	20.115
709.70	24.375
710.02	28.528
710.34	25.083
710.66	20.952
710.98	25.868
711.29	20.000
711.61	25.879
711.93	22.295
712.25	25.914
712.57	21.254
712.89	28.417
713.20	27.491
713.52	19.776
713.84	27.402
714.16	23.934
714.48	23.810
714.80	23.385
715.11	23.919
715.43	26.205
715.75	25.234
716.07	22.623
716.39	27.759
716.70	27.875
717.02	23.704
717.34	24.427
717.66	25.311
717.97	23.361
718.29	26.471
718.61	26.587
718.93	22.222
719.24	20.221
719.56	24.151
719.88	25.455
720.20	22.097
720.51	26.316
720.83	23.293
721.15	28.689
721.46	23.137
721.78	26.054
722.10	24.000
722.42	23.140
722.73	22.311
723.05	27.309
723.37	25.490
723.68	21.862
724.00	30.894
724.32	25.103
724.63	19.087
724.95	28.099
725.27	17.982
725.58	21.983
725.90	19.444
726.22	28.044
726.53	27.376
726.85	15.686
727.16	22.180
727.48	25.385
727.80	21.311
728.11	20.168
728.43	26.446
728.74	23.437
729.06	24.621
729.38	26.848
729.69	21.260
730.01	24.016
730.32	19.920
730.64	24.908
730.96	26.493
731.27	25.000
731.59	22.830
731.90	23.313
732.22	20.552
732.53	26.490
732.85	22.148
733.16	23.913
733.48	18.815
733.80	21.352
734.11	22.069
734.43	23.469
734.74	23.145
735.06	20.376
735.37	22.324
735.69	22.258
736.00	22.896
736.32	24.172
736.63	20.690
736.95	19.928
737.26	21.192
737.58	21.942
737.89	26.523
738.21	18.421
738.52	26.154
738.83	22.266
739.15	21.368
739.46	27.823
739.78	23.427
740.09	22.727
740.41	22.028
740.72	19.708
741.04	19.048
741.35	18.182
741.66	18.981
741.98	24.762
742.29	25.352
742.61	22.460
742.92	28.037
743.23	19.737
743.55	22.523
743.86	24.889
744.18	22.857
744.49	29.064
744.80	25.381
745.12	22.680
745.43	28.141
745.74	26.214
746.06	27.805
746.37	25.551
746.68	24.876
747.00	31.414
747.31	24.038
747.62	25.806
747.94	20.087
748.25	27.907
748.56	26.190
748.88	20.109
749.19	25.822
749.50	33.333
749.82	27.556
750.13	25.110
750.44	21.138
750.75	22.400
751.07	24.643
751.38	23.247
751.69	20.992
752.01	26.923
752.32	22.957
752.63	22.692
752.94	17.857
753.26	25.652
753.57	21.429
753.88	21.552
754.19	23.651
754.51	22.656
754.82	20.553
755.13	20.576
755.44	24.380
755.75	26.337
756.07	22.088
756.38	26.172
756.69	23.105
757.00	25.087
757.31	24.832
757.63	24.299
757.94	21.387
758.25	24.128
758.56	23.989
758.87	22.159
759.18	20.000
759.50	25.979
759.81	18.978
760.12	15.541
760.43	25.243
760.74	24.062
761.05	24.157
761.36	25.449
761.67	20.414
761.99	23.548
762.30	18.841
762.61	23.396
762.92	19.731
763.23	20.853
763.54	27.556
763.85	24.051
764.16	24.490
764.47	22.034
764.78	21.348
765.10	23.381
765.41	20.968
765.72	22.013
766.03	21.201
766.34	18.421
766.65	22.672
766.96	14.500
767.27	23.958
767.58	16.860
767.89	20.645
768.20	18.405
768.51	21.311
768.82	16.757
769.13	22.000
769.44	21.930
769.75	22.078
770.06	27.064
770.37	19.718
770.68	20.312
770.99	22.277
771.30	21.845
771.61	22.685
771.92	17.749
772.23	22.897
772.54	22.872
772.85	14.201
773.16	28.659
773.47	22.892
773.78	26.374
774.09	15.333
774.39	14.815
774.70	16.779
775.01	21.014
775.32	15.672
775.63	20.661
775.94	24.812
776.25	22.143
776.56	30.328
776.87	26.549
777.18	30.088
777.48	5.455
777.79	20.000
778.10	9.174
778.41	16.102
778.72	24.793
779.03	26.119
779.34	23.308
779.65	21.569
779.95	18.116
780.26	19.728
780.57	12.931
780.88	12.963
781.19	7.071
781.50	10.400
781.80	18.954
782.11	21.154
782.42	15.060
782.73	14.599
783.04	18.919
783.34	26.515
783.65	21.705
783.96	24.390
784.27	21.368
784.57	16.260
784.88	18.699
785.19	32.456
785.50	2.062
785.81	17.143
786.11	23.529
786.42	11.818
786.73	20.721
787.04	19.802
787.34	17.143
787.65	20.000
787.96	12.745
788.26	11.712
788.57	14.516
788.88	12.500
789.19	11.966
789.49	15.966
789.80	24.786
790.11	21.239
790.41	9.091
790.72	26.415
791.03	6.944
791.33	6.579
791.64	17.204
791.95	20.000
792.25	30.000
792.56	17.073
792.87	20.408
793.17	3.947
793.48	2.703
793.79	9.859
794.09	17.722
794.40	19.149
794.70	15.888
795.01	19.298
795.32	17.273
795.62	14.286
795.93	8.247
796.23	23.077
796.54	15.789
796.85	16.438
797.15	5.556
797.46	24.658
797.76	18.310
798.07	21.250
798.37	23.529
798.68	35.714
798.99	20.000
799.29	13.158
799.60	16.667
799.90	11.111
800.21	14.063
800.51	7.937
800.82	14.754
801.12	15.789
801.43	-2.817
801.73	-22.034
802.04	4.918
802.34	3.636
802.65	1.923
802.95	11.111
803.26	7.500
803.56	17.308
803.87	-34.211
804.17	0.000
804.48	15.385
804.78	-7.692
805.09	13.953
805.39	-15.625
805.70	-9.434
806.00	31.579
806.30	29.730
806.61	5.882
806.91	22.222
807.22	9.333
807.52	14.925
807.83	9.677
808.13	7.937
808.43	-7.273
808.74	18.182
809.04	13.208
809.35	12.329
809.65	21.053
809.95	19.118
810.26	29.412
810.56	0.000
810.86	12.245
811.17	-28.571
811.47	-3.846
811.77	25.806
812.08	-36.842
812.38	23.810
812.69	6.522
812.99	-9.677
813.29	-16.667
813.59	0.000
813.90	12.766
814.20	-6.977
814.50	-2.083
814.81	15.000
815.11	-31.707
815.41	-30.000
815.72	14.286
816.02	-38.889
816.32	17.949
816.62	45.946
816.93	14.706
817.23	8.696
817.53	26.471
817.84	-14.706
818.14	-9.375
818.44	-51.724
818.74	-16.129
819.04	14.815
819.35	-33.333
819.65	-40.000
819.95	26.667
820.25	-24.000
820.56	-23.684
820.86	-2.500
821.16	14.894
821.46	8.621
821.76	0.000
822.07	-12.500
822.37	9.302
822.67	-16.667
822.97	-35.135
823.27	10.811
823.57	28.000
823.88	-16.216
824.18	-28.571
824.48	15.385
824.78	-138.462
825.08	-73.913
825.38	8.333
825.69	-41.667
825.99	-55.000
826.29	8.108
826.59	-29.412
826.89	32.000
827.19	-20.000
827.49	21.053
827.79	-6.250
828.09	0.000
828.39	0.000
828.70	-27.586
829.00	-10.345
829.30	30.556
829.60	12.500
829.90	-44.444
830.20	-23.077
830.50	-14.286
830.80	-39.286
831.10	17.949
831.40	-57.143
831.70	2.941
832.00	-41.667
832.30	-21.053
832.60	-68.750
832.90	-8.333
833.20	-11.765
833.50	-66.667
833.80	-46.667
834.10	-70.000
834.40	-58.333
834.70	33.333
835.00	26.923
835.30	20.833
835.60	34.483
835.90	-44.444
836.20	-145.455
836.50	-141.667
836.80	14.286
837.10	40.000
837.40	-29.412
837.70	-63.636
838.00	-4.167
838.30	-37.500
838.60	-28.571
838.90	5.000
839.19	8.696
839.49	-26.087
839.79	-94.444
840.09	-4.348
840.39	-27.273
840.69	-12.500
840.99	-36.842
841.29	0.000
841.59	-42.857
841.88	-16.667
842.18	-54.167
842.48	-52.941
842.78	-3.448
843.08	50.000
843.38	-15.385
843.68	-77.778
843.97	-69.231
844.27	-63.636
844.57	-320.000
844.87	12.000
845.17	-500.000
845.47	-57.143
845.76	-55.556
846.06	0.000
846.36	-275.000
846.66	-100.000
846.96	-21.053
847.25	-25.000
847.55	-91.667
847.85	20.000
848.15	-70.000
848.44	34.615
848.74	-10.526
849.04	233.333
849.34	-144.444
849.63	-52.632
849.93	0.000
850.23	-70.000
850.53	-38.095
850.82	-24.000
851.12	68.421
851.42	-1250.000
851.71	7.143
852.01	-50.000
852.31	23.529
852.61	-26.667
852.90	19.048
853.20	-333.333
853.50	-44.444
853.79	-15.789
854.09	-33.333
854.39	17.857
854.68	-39.130
854.98	-183.333
855.28	3.448
855.57	-12.500
855.87	-20.000
856.17	-60.000
856.46	-41.379
856.76	-73.333
857.05	-52.941
857.35	-92.308
857.65	-45.455
857.94	18.519
858.24	-78.571
858.53	-28.571
858.83	-83.333
859.13	-122.222
859.42	61.905
859.72	-112.500
860.01	-466.667
860.31	-62.500
860.60	-180.000
860.90	-122.222
861.20	-162.500
861.49	-128.571
861.79	-35.294
862.08	50.000
862.38	-133.333
862.67	-38.462
862.97	64.706
863.26	25.000
863.56	-11.765
863.85	300.000
864.15	-90.000
864.44	-84.615
864.74	35.000
865.03	-137.500
865.33	-150.000
865.62	-47.059
865.92	-475.000
866.21	-107.143
866.51	-125.000
866.80	-200.000
867.10	-200.000
867.39	17.647
867.69	-13.043
867.98	-128.571
868.27	-360.000
868.57	-56.250
868.86	-154.545
869.16	29.412
869.45	-233.333
869.75	-71.429
870.04	800.000
870.33	0.000
870.63	-40.000
870.92	-155.556
871.22	-66.667
871.51	-45.455
871.80	50.000
872.10	0.000
>>>>>End Processed Spectral Data<<<<<
