SpectraSuite Data File
++++++++++++++++++++++++++++++++++++
Date: Sat May 16 11:29:22 PDT 2015
User: schluterlab
Dark Spectrum Present: Yes
Reference Spectrum Present: Yes
Number of Sampled Component Spectra: 1
Spectrometers: USB2E3373
Integration Time (usec): 3000 (USB2E3373)
Spectra Averaged: 3 (USB2E3373)
Boxcar Smoothing: 0 (USB2E3373)
Correct for Electrical Dark: No (USB2E3373)
Strobe/Lamp Enabled: No (USB2E3373)
Correct for Detector Non-linearity: No (USB2E3373)
Correct for Stray Light: No (USB2E3373)
Number of Pixels in Processed Spectrum: 2048
>>>>>Begin Processed Spectral Data<<<<<
178.53	0.000
178.91	100.000
179.29	533.333
179.67	-200.000
180.04	-61.538
180.42	1600.000
180.80	375.000
181.18	500.000
181.56	0.000
181.94	1100.000
182.31	400.000
182.69	-38.462
183.07	-600.000
183.45	1900.000
183.83	633.333
184.20	-242.857
184.58	-125.000
184.96	-450.000
185.34	62.500
185.72	-550.000
186.09	200.000
186.47	-187.500
186.85	-200.000
187.23	-112.500
187.61	-225.000
187.98	-337.500
188.36	-37.500
188.74	-175.000
189.12	2200.000
189.49	314.286
189.87	-108.333
190.25	275.000
190.63	-142.857
191.00	-211.111
191.38	260.000
191.76	-100.000
192.14	480.000
192.51	-260.000
192.89	-33.333
193.27	0.000
193.65	-88.889
194.02	-42.857
194.40	566.667
194.78	-130.000
195.15	-1200.000
195.53	-109.091
195.91	-250.000
196.29	300.000
196.66	-433.333
197.04	2500.000
197.42	150.000
197.79	20.000
198.17	-433.333
198.55	-1300.000
198.92	-800.000
199.30	187.500
199.68	-650.000
200.05	-88.889
200.43	-144.444
200.81	-400.000
201.18	-133.333
201.56	185.714
201.94	-6.667
202.31	-45.455
202.69	90.000
203.07	-80.000
203.44	400.000
203.82	-366.667
204.19	-175.000
204.57	-300.000
204.95	0.000
205.32	-93.750
205.70	600.000
206.08	-1400.000
206.45	-5.556
206.83	-550.000
207.20	50.000
207.58	-633.333
207.96	-200.000
208.33	-200.000
208.71	-200.000
209.08	130.000
209.46	-128.571
209.84	550.000
210.21	0.000
210.59	25.000
210.96	1500.000
211.34	-216.667
211.71	-233.333
212.09	200.000
212.46	1350.000
212.84	-1700.000
213.22	600.000
213.59	166.667
213.97	-22.222
214.34	60.000
214.72	-150.000
215.09	-533.333
215.47	-216.667
215.84	-60.000
216.22	-150.000
216.59	13.333
216.97	-325.000
217.34	900.000
217.72	-157.143
218.09	-266.667
218.47	-314.286
218.84	285.714
219.22	-14.286
219.59	0.000
219.97	328.571
220.34	500.000
220.72	125.000
221.09	-38.462
221.47	0.000
221.84	233.333
222.22	-300.000
222.59	1200.000
222.97	-262.500
223.34	-600.000
223.72	-866.667
224.09	-107.143
224.46	-350.000
224.84	42.857
225.21	-242.857
225.59	-54.545
225.96	-237.500
226.34	-185.714
226.71	-233.333
227.08	-60.000
227.46	2200.000
227.83	-42.857
228.21	-175.000
228.58	350.000
228.95	-81.250
229.33	-1500.000
229.70	-140.000
230.08	-600.000
230.45	0.000
230.82	-100.000
231.20	-2200.000
231.57	-900.000
231.95	1500.000
232.32	-4.762
232.69	-177.778
233.07	-357.143
233.44	-1350.000
233.81	-86.667
234.19	11.111
234.56	-62.500
234.93	0.000
235.31	-214.286
235.68	-135.714
236.05	-70.588
236.43	-127.273
236.80	-48.387
237.17	-16.667
237.55	-33.333
237.92	-81.818
238.29	-34.286
238.67	11.765
239.04	2.778
239.41	-64.516
239.79	-30.769
240.16	-23.810
240.53	-18.182
240.91	-17.949
241.28	-14.545
241.65	3.077
242.02	-11.475
242.40	-13.115
242.77	-18.182
243.14	-20.339
243.51	-2.857
243.89	-8.861
244.26	-11.236
244.63	10.526
245.00	-2.105
245.38	5.085
245.75	-0.885
246.12	7.200
246.49	-3.150
246.87	-0.813
247.24	-7.627
247.61	-7.627
247.98	-1.408
248.36	0.699
248.73	3.797
249.10	5.732
249.47	9.357
249.84	7.386
250.22	-7.738
250.59	5.650
250.96	4.712
251.33	9.005
251.70	-0.481
252.08	3.318
252.45	5.213
252.82	2.381
253.19	4.681
253.56	7.661
253.94	5.063
254.31	3.004
254.68	8.130
255.05	0.806
255.42	8.730
255.79	1.434
256.16	7.451
256.54	7.353
256.91	5.682
257.28	4.029
257.65	4.610
258.02	11.635
258.39	5.017
258.76	4.392
259.14	2.778
259.51	7.213
259.88	7.012
260.25	9.627
260.62	7.395
260.99	5.045
261.36	8.537
261.73	8.671
262.10	9.167
262.47	2.849
262.85	8.857
263.22	6.590
263.59	2.154
263.96	6.667
264.33	8.130
264.70	6.630
265.07	6.593
265.44	5.168
265.81	5.943
266.18	4.557
266.55	4.657
266.92	7.809
267.29	6.780
267.66	5.432
268.03	9.179
268.40	8.216
268.77	6.506
269.14	6.497
269.51	7.586
269.88	6.881
270.25	5.361
270.62	5.950
270.99	6.532
271.36	6.760
271.73	6.726
272.10	7.780
272.47	5.333
272.84	8.889
273.21	5.734
273.58	6.593
273.95	5.482
274.32	7.014
274.69	9.409
275.06	7.566
275.43	6.696
275.80	7.332
276.17	7.113
276.54	6.925
276.91	7.202
277.28	6.897
277.65	5.785
278.02	6.263
278.39	8.055
278.76	8.167
279.13	8.103
279.50	7.555
279.87	6.977
280.23	6.275
280.60	7.555
280.97	6.214
281.34	5.222
281.71	6.731
282.08	7.863
282.45	4.277
282.82	6.783
283.19	5.455
283.56	8.791
283.92	8.304
284.29	5.576
284.66	7.554
285.03	7.487
285.40	8.303
285.77	8.596
286.14	7.040
286.51	7.638
286.87	6.534
287.24	7.167
287.61	5.785
287.98	8.492
288.35	6.281
288.72	5.772
289.08	4.915
289.45	6.061
289.82	4.152
290.19	8.867
290.56	5.620
290.93	8.267
291.29	4.700
291.66	6.119
292.03	8.948
292.40	8.584
292.77	7.143
293.13	7.967
293.50	6.984
293.87	7.669
294.24	8.899
294.60	4.697
294.97	7.132
295.34	7.111
295.71	7.589
296.08	5.837
296.44	6.152
296.81	7.265
297.18	5.634
297.55	7.203
297.91	7.950
298.28	7.671
298.65	6.555
299.02	7.487
299.38	6.016
299.75	7.201
300.12	6.538
300.48	8.440
300.85	6.553
301.22	8.021
301.59	7.412
301.95	8.060
302.32	5.346
302.69	9.058
303.05	6.960
303.42	7.250
303.79	7.895
304.15	7.583
304.52	8.401
304.89	6.375
305.25	7.204
305.62	6.698
305.99	7.774
306.35	7.769
306.72	7.403
307.09	9.421
307.45	8.286
307.82	6.592
308.19	7.159
308.55	7.190
308.92	6.552
309.29	8.649
309.65	8.378
310.02	8.099
310.38	6.486
310.75	8.607
311.12	8.368
311.48	7.724
311.85	8.548
312.22	8.857
312.58	9.461
312.95	7.645
313.31	8.492
313.68	8.844
314.05	8.506
314.41	7.545
314.78	6.893
315.14	8.588
315.51	8.815
315.87	9.584
316.24	8.844
316.61	8.829
316.97	8.259
317.34	8.382
317.70	6.865
318.07	8.302
318.43	8.052
318.80	10.235
319.16	6.942
319.53	8.553
319.89	8.749
320.26	7.647
320.62	7.788
320.99	9.751
321.35	6.601
321.72	9.928
322.08	9.397
322.45	8.317
322.81	9.510
323.18	9.318
323.54	9.982
323.91	8.619
324.27	10.266
324.64	9.598
325.00	9.773
325.37	10.226
325.73	10.411
326.10	8.680
326.46	9.282
326.83	10.213
327.19	10.008
327.56	11.244
327.92	10.025
328.29	10.736
328.65	9.909
329.01	11.131
329.38	11.062
329.74	11.813
330.11	10.335
330.47	11.717
330.84	12.374
331.20	12.365
331.56	11.486
331.93	12.522
332.29	12.694
332.66	11.062
333.02	12.851
333.38	11.828
333.75	12.912
334.11	12.533
334.48	12.445
334.84	13.911
335.20	12.589
335.57	12.455
335.93	14.235
336.29	13.286
336.66	12.247
337.02	14.144
337.38	13.191
337.75	13.960
338.11	13.327
338.47	12.722
338.84	12.704
339.20	13.357
339.56	14.795
339.93	13.757
340.29	13.286
340.65	13.374
341.02	13.406
341.38	13.816
341.74	13.294
342.11	14.078
342.47	13.219
342.83	14.610
343.20	13.151
343.56	13.061
343.92	14.023
344.28	14.298
344.65	13.861
345.01	14.034
345.37	13.704
345.73	13.421
346.10	12.674
346.46	13.323
346.82	13.553
347.19	13.722
347.55	13.965
347.91	13.780
348.27	13.206
348.63	14.943
349.00	14.320
349.36	12.568
349.72	14.729
350.08	13.953
350.45	14.500
350.81	14.570
351.17	12.540
351.53	12.092
351.89	14.066
352.26	14.574
352.62	15.361
352.98	13.449
353.34	13.269
353.70	13.050
354.07	13.533
354.43	14.071
354.79	14.659
355.15	13.099
355.51	14.531
355.87	12.806
356.24	13.741
356.60	15.310
356.96	14.473
357.32	13.698
357.68	14.636
358.04	15.166
358.40	13.070
358.77	13.679
359.13	13.695
359.49	15.193
359.85	14.024
360.21	14.460
360.57	15.060
360.93	14.519
361.29	14.948
361.66	13.720
362.02	15.089
362.38	15.040
362.74	15.165
363.10	14.204
363.46	15.242
363.82	15.816
364.18	15.195
364.54	16.726
364.90	15.374
365.26	13.766
365.62	15.966
365.98	15.220
366.35	16.197
366.71	14.940
367.07	15.808
367.43	16.266
367.79	15.120
368.15	15.647
368.51	15.594
368.87	16.621
369.23	16.140
369.59	15.694
369.95	16.138
370.31	16.315
370.67	15.618
371.03	16.035
371.39	14.710
371.75	17.024
372.11	15.782
372.47	14.967
372.83	16.829
373.19	17.357
373.55	16.538
373.91	17.212
374.27	16.290
374.63	16.425
374.99	18.011
375.35	16.824
375.71	17.353
376.07	16.975
376.42	16.424
376.78	17.255
377.14	18.237
377.50	18.246
377.86	17.620
378.22	18.090
378.58	18.036
378.94	17.571
379.30	18.403
379.66	17.911
380.02	17.706
380.38	17.583
380.74	17.937
381.09	18.629
381.45	18.914
381.81	18.209
382.17	18.233
382.53	18.602
382.89	18.481
383.25	19.145
383.61	19.281
383.97	19.902
384.32	19.650
384.68	20.193
385.04	19.444
385.40	18.624
385.76	19.512
386.12	20.050
386.48	19.802
386.83	20.429
387.19	20.442
387.55	19.624
387.91	19.976
388.27	19.843
388.62	20.553
388.98	20.472
389.34	20.073
389.70	19.915
390.06	20.323
390.42	21.090
390.77	20.063
391.13	20.994
391.49	20.711
391.85	20.262
392.20	19.964
392.56	19.976
392.92	20.536
393.28	21.527
393.64	20.806
393.99	21.108
394.35	21.107
394.71	21.804
395.07	21.406
395.42	20.381
395.78	20.050
396.14	21.994
396.50	21.407
396.85	20.975
397.21	21.081
397.57	20.790
397.92	20.609
398.28	21.722
398.64	20.880
399.00	22.416
399.35	20.800
399.71	21.835
400.07	21.612
400.42	22.202
400.78	20.394
401.14	21.018
401.49	20.814
401.85	20.744
402.21	22.110
402.57	21.723
402.92	22.907
403.28	22.120
403.63	21.330
403.99	21.815
404.35	21.920
404.70	21.416
405.06	21.396
405.42	21.279
405.77	20.758
406.13	22.033
406.49	22.229
406.84	21.536
407.20	22.850
407.55	22.483
407.91	21.373
408.27	22.488
408.62	22.129
408.98	22.013
409.34	21.450
409.69	22.621
410.05	21.225
410.40	21.888
410.76	22.584
411.11	22.880
411.47	21.419
411.83	22.066
412.18	21.720
412.54	20.927
412.89	22.539
413.25	21.015
413.60	22.053
413.96	20.764
414.31	22.080
414.67	20.762
415.03	21.928
415.38	21.731
415.74	22.745
416.09	22.442
416.45	21.495
416.80	22.562
417.16	22.193
417.51	23.047
417.87	22.071
418.22	22.630
418.58	22.208
418.93	23.299
419.29	22.208
419.64	21.608
420.00	23.572
420.35	22.590
420.71	21.669
421.06	22.604
421.42	22.014
421.77	22.334
422.12	24.119
422.48	22.662
422.83	22.893
423.19	22.606
423.54	22.363
423.90	23.308
424.25	22.285
424.61	22.618
424.96	23.230
425.31	22.694
425.67	23.152
426.02	22.146
426.38	23.351
426.73	23.729
427.09	23.591
427.44	23.295
427.79	22.209
428.15	22.980
428.50	23.519
428.85	23.261
429.21	24.184
429.56	23.594
429.92	23.146
430.27	22.832
430.62	23.302
430.98	23.105
431.33	23.426
431.68	24.290
432.04	23.335
432.39	22.963
432.74	24.041
433.10	23.523
433.45	24.122
433.80	23.348
434.16	24.181
434.51	23.507
434.86	25.015
435.22	24.276
435.57	23.807
435.92	23.916
436.28	24.392
436.63	24.025
436.98	24.227
437.34	24.335
437.69	23.979
438.04	24.390
438.39	25.030
438.75	23.574
439.10	24.708
439.45	24.140
439.81	24.940
440.16	23.509
440.51	24.706
440.86	24.696
441.22	24.655
441.57	24.316
441.92	24.808
442.27	23.810
442.63	24.142
442.98	23.928
443.33	24.163
443.68	24.075
444.03	24.853
444.39	24.425
444.74	25.055
445.09	25.274
445.44	25.098
445.79	25.344
446.15	25.794
446.50	23.789
446.85	25.192
447.20	25.026
447.55	24.420
447.91	25.042
448.26	24.525
448.61	25.071
448.96	25.266
449.31	25.028
449.66	24.556
450.02	23.712
450.37	24.348
450.72	25.650
451.07	25.204
451.42	24.969
451.77	25.075
452.12	25.745
452.47	26.071
452.83	25.743
453.18	25.806
453.53	25.435
453.88	26.136
454.23	25.030
454.58	26.911
454.93	26.637
455.28	25.112
455.63	26.536
455.98	26.325
456.34	24.778
456.69	26.454
457.04	26.060
457.39	25.658
457.74	26.757
458.09	25.522
458.44	26.674
458.79	26.009
459.14	26.355
459.49	25.873
459.84	26.138
460.19	26.313
460.54	26.316
460.89	26.289
461.24	26.108
461.59	26.319
461.94	26.926
462.29	26.861
462.64	26.614
462.99	26.171
463.34	27.076
463.69	25.573
464.04	25.776
464.39	26.225
464.74	26.005
465.09	26.939
465.44	26.396
465.79	27.750
466.14	27.215
466.49	26.310
466.84	27.071
467.19	26.247
467.54	25.823
467.89	26.880
468.24	27.316
468.59	26.608
468.94	27.267
469.29	27.031
469.64	26.146
469.99	28.089
470.34	28.591
470.68	28.852
471.03	29.181
471.38	26.944
471.73	28.252
472.08	27.309
472.43	27.220
472.78	28.400
473.13	27.038
473.48	28.143
473.83	26.427
474.17	28.471
474.52	29.220
474.87	27.506
475.22	27.788
475.57	26.889
475.92	27.322
476.27	28.457
476.61	28.056
476.96	28.172
477.31	28.525
477.66	28.500
478.01	28.201
478.36	27.082
478.70	28.617
479.05	29.313
479.40	28.964
479.75	28.287
480.10	28.869
480.45	28.046
480.79	29.319
481.14	29.052
481.49	28.267
481.84	27.924
482.19	28.049
482.53	29.214
482.88	28.809
483.23	28.498
483.58	29.695
483.92	28.571
484.27	28.223
484.62	28.337
484.97	28.293
485.31	27.232
485.66	26.020
486.01	26.305
486.36	26.905
486.70	27.671
487.05	26.976
487.40	27.484
487.75	27.625
488.09	27.548
488.44	28.552
488.79	28.688
489.13	28.033
489.48	28.834
489.83	29.694
490.17	28.994
490.52	29.212
490.87	29.330
491.22	29.379
491.56	29.306
491.91	29.580
492.26	29.811
492.60	30.304
492.95	29.938
493.30	28.823
493.64	28.961
493.99	30.306
494.34	30.714
494.68	30.243
495.03	29.589
495.37	29.990
495.72	29.862
496.07	30.690
496.41	30.199
496.76	30.228
497.11	30.382
497.45	30.364
497.80	30.015
498.14	29.568
498.49	30.537
498.84	29.417
499.18	30.750
499.53	30.833
499.87	30.261
500.22	30.637
500.56	30.815
500.91	30.443
501.26	31.004
501.60	30.140
501.95	31.111
502.29	31.034
502.64	30.929
502.98	30.283
503.33	30.357
503.67	30.747
504.02	31.048
504.36	30.833
504.71	30.952
505.06	29.955
505.40	30.888
505.75	31.352
506.09	32.204
506.44	31.128
506.78	31.811
507.13	31.359
507.47	32.029
507.82	31.595
508.16	32.124
508.51	31.170
508.85	31.781
509.19	31.293
509.54	32.294
509.88	31.915
510.23	32.652
510.57	32.222
510.92	32.546
511.26	31.207
511.61	31.641
511.95	32.651
512.30	32.655
512.64	32.165
512.98	33.168
513.33	33.608
513.67	33.445
514.02	32.383
514.36	33.186
514.70	32.711
515.05	33.047
515.39	32.468
515.74	33.682
516.08	32.161
516.42	32.975
516.77	34.200
517.11	34.497
517.46	35.108
517.80	34.116
518.14	33.635
518.49	33.652
518.83	33.056
519.17	34.577
519.52	33.892
519.86	34.409
520.20	34.474
520.55	33.908
520.89	34.565
521.23	34.432
521.58	34.984
521.92	33.946
522.26	34.667
522.61	34.284
522.95	33.121
523.29	34.295
523.64	33.854
523.98	34.628
524.32	34.758
524.66	34.037
525.01	34.425
525.35	34.472
525.69	34.548
526.04	34.269
526.38	34.755
526.72	33.972
527.06	35.352
527.41	34.917
527.75	34.521
528.09	35.076
528.43	34.820
528.78	35.239
529.12	35.980
529.46	34.149
529.80	35.055
530.15	35.608
530.49	34.347
530.83	35.756
531.17	34.343
531.51	35.231
531.86	35.945
532.20	35.560
532.54	34.826
532.88	34.980
533.22	35.027
533.57	34.465
533.91	34.332
534.25	34.632
534.59	33.729
534.93	34.225
535.27	34.487
535.62	34.399
535.96	34.195
536.30	33.966
536.64	34.661
536.98	35.593
537.32	34.485
537.66	35.709
538.01	34.845
538.35	35.541
538.69	35.227
539.03	34.733
539.37	34.664
539.71	35.157
540.05	35.367
540.39	36.150
540.73	34.969
541.07	35.178
541.42	34.031
541.76	33.355
542.10	34.639
542.44	35.510
542.78	34.735
543.12	34.487
543.46	33.425
543.80	33.980
544.14	34.318
544.48	35.761
544.82	33.829
545.16	35.345
545.50	34.253
545.84	35.883
546.18	35.229
546.52	34.922
546.86	35.185
547.20	35.302
547.54	33.540
547.88	34.240
548.22	34.273
548.56	34.202
548.90	34.838
549.24	33.707
549.58	34.580
549.92	35.265
550.26	36.199
550.60	35.491
550.94	35.109
551.28	36.644
551.62	35.672
551.96	34.877
552.30	34.983
552.64	35.398
552.98	35.109
553.32	35.354
553.66	35.905
554.00	35.252
554.34	35.307
554.68	35.234
555.02	35.456
555.36	36.377
555.69	34.384
556.03	34.807
556.37	34.922
556.71	36.292
557.05	35.994
557.39	34.744
557.73	36.324
558.07	36.850
558.41	35.976
558.75	35.665
559.08	34.163
559.42	36.217
559.76	36.120
560.10	34.825
560.44	36.055
560.78	35.421
561.12	34.507
561.45	36.370
561.79	35.958
562.13	35.273
562.47	35.364
562.81	34.866
563.15	34.080
563.48	36.282
563.82	35.903
564.16	34.821
564.50	34.946
564.84	35.582
565.17	33.355
565.51	34.876
565.85	35.227
566.19	34.453
566.52	34.768
566.86	35.777
567.20	35.230
567.54	34.141
567.88	33.724
568.21	34.004
568.55	33.351
568.89	32.157
569.23	32.392
569.56	31.568
569.90	31.275
570.24	31.680
570.57	31.002
570.91	30.704
571.25	30.447
571.59	30.565
571.92	30.060
572.26	30.407
572.60	30.065
572.93	29.762
573.27	30.213
573.61	30.141
573.95	29.830
574.28	29.337
574.62	30.020
574.96	29.212
575.29	29.548
575.63	29.918
575.97	28.776
576.30	29.488
576.64	29.426
576.98	29.211
577.31	29.035
577.65	29.188
577.98	28.607
578.32	28.836
578.66	29.140
578.99	29.544
579.33	29.390
579.67	29.825
580.00	29.191
580.34	29.697
580.67	29.615
581.01	28.633
581.35	28.824
581.68	28.225
582.02	28.511
582.35	28.933
582.69	29.342
583.02	29.288
583.36	29.385
583.70	29.800
584.03	29.741
584.37	29.689
584.70	29.950
585.04	29.570
585.37	28.711
585.71	29.076
586.04	29.331
586.38	29.618
586.72	29.791
587.05	29.765
587.39	29.637
587.72	29.413
588.06	29.739
588.39	30.276
588.73	30.416
589.06	30.211
589.40	30.986
589.73	30.772
590.07	30.626
590.40	31.218
590.73	30.788
591.07	30.738
591.40	31.239
591.74	31.017
592.07	31.081
592.41	31.677
592.74	31.245
593.08	30.141
593.41	30.066
593.75	29.773
594.08	30.877
594.41	31.534
594.75	30.993
595.08	31.504
595.42	30.564
595.75	30.614
596.09	30.733
596.42	31.669
596.75	30.660
597.09	31.256
597.42	31.558
597.75	31.887
598.09	32.219
598.42	30.446
598.76	30.025
599.09	30.584
599.42	30.450
599.76	30.464
600.09	31.336
600.42	30.232
600.76	30.998
601.09	31.029
601.42	30.748
601.76	31.036
602.09	30.634
602.42	31.276
602.76	30.536
603.09	30.565
603.42	31.467
603.76	30.634
604.09	30.837
604.42	31.266
604.76	31.182
605.09	31.555
605.42	31.117
605.75	31.522
606.09	30.760
606.42	30.792
606.75	30.743
607.09	31.054
607.42	31.294
607.75	31.435
608.08	31.179
608.42	31.883
608.75	30.607
609.08	31.466
609.41	31.290
609.75	31.643
610.08	32.353
610.41	31.229
610.74	32.544
611.07	31.795
611.41	31.165
611.74	31.928
612.07	32.760
612.40	32.143
612.73	32.418
613.07	31.425
613.40	33.498
613.73	32.098
614.06	31.631
614.39	33.145
614.72	32.402
615.06	32.065
615.39	32.339
615.72	33.188
616.05	32.358
616.38	32.908
616.71	32.072
617.05	33.957
617.38	33.189
617.71	31.695
618.04	32.422
618.37	32.704
618.70	33.833
619.03	33.243
619.36	34.672
619.69	34.745
620.03	33.196
620.36	32.630
620.69	34.243
621.02	34.855
621.35	35.000
621.68	36.885
622.01	35.275
622.34	34.239
622.67	34.297
623.00	35.042
623.33	34.328
623.66	33.900
623.99	33.684
624.32	34.449
624.65	33.407
624.99	34.429
625.32	34.281
625.65	34.577
625.98	33.099
626.31	35.808
626.64	36.067
626.97	36.729
627.30	35.745
627.63	35.406
627.96	36.554
628.29	35.570
628.62	35.912
628.95	36.220
629.28	35.432
629.61	36.408
629.94	35.917
630.26	35.984
630.59	37.085
630.92	36.336
631.25	38.710
631.58	37.037
631.91	36.915
632.24	40.222
632.57	38.111
632.90	38.966
633.23	37.500
633.56	36.842
633.89	38.561
634.22	39.197
634.55	38.221
634.88	38.210
635.20	36.579
635.53	38.550
635.86	38.287
636.19	36.264
636.52	37.634
636.85	36.582
637.18	37.250
637.51	40.520
637.83	38.881
638.16	37.763
638.49	39.172
638.82	36.551
639.15	37.484
639.48	38.651
639.81	39.281
640.13	37.973
640.46	40.313
640.79	39.916
641.12	39.351
641.45	38.737
641.77	39.970
642.10	39.577
642.43	40.061
642.76	40.157
643.09	40.635
643.41	40.952
643.74	40.541
644.07	40.874
644.40	43.922
644.73	41.089
645.05	40.902
645.38	42.384
645.71	43.471
646.04	41.513
646.36	40.663
646.69	41.349
647.02	43.321
647.35	43.863
647.67	40.328
648.00	42.179
648.33	42.496
648.66	40.645
648.98	39.968
649.31	40.615
649.64	41.719
649.96	41.758
650.29	37.869
650.62	41.824
650.94	39.123
651.27	41.421
651.60	40.830
651.92	41.781
652.25	39.900
652.58	40.545
652.90	40.128
653.23	40.645
653.56	39.465
653.88	39.836
654.21	40.604
654.54	40.033
654.86	38.202
655.19	37.536
655.52	33.787
655.84	27.829
656.17	29.181
656.49	39.889
656.82	41.423
657.15	31.169
657.47	23.294
657.80	18.323
658.13	20.789
658.45	28.065
658.78	28.618
659.10	28.842
659.43	29.486
659.75	29.858
660.08	30.625
660.41	32.140
660.73	34.653
661.06	37.101
661.38	39.821
661.71	39.197
662.03	42.540
662.36	42.857
662.68	41.561
663.01	44.798
663.33	45.125
663.66	42.918
663.98	42.411
664.31	44.295
664.63	44.912
664.96	40.130
665.28	41.432
665.61	41.438
665.93	42.798
666.26	40.891
666.58	39.917
666.91	44.098
667.23	43.860
667.56	43.537
667.88	43.665
668.21	40.323
668.53	40.187
668.86	46.420
669.18	41.781
669.50	43.692
669.83	41.606
670.15	41.704
670.48	40.654
670.80	42.369
671.13	41.084
671.45	38.964
671.77	40.471
672.10	39.842
672.42	38.930
672.75	37.636
673.07	37.838
673.39	38.434
673.72	40.551
674.04	37.155
674.37	38.557
674.69	39.139
675.01	39.574
675.34	41.649
675.66	43.413
675.98	38.326
676.31	43.665
676.63	43.908
676.95	40.708
677.28	41.763
677.60	44.570
677.92	43.392
678.25	36.543
678.57	42.181
678.89	38.994
679.22	38.574
679.54	39.645
679.86	34.600
680.18	40.304
680.51	35.754
680.83	40.762
681.15	38.343
681.48	38.540
681.80	38.710
682.12	38.229
682.44	38.703
682.77	38.095
683.09	39.203
683.41	38.938
683.73	39.269
684.06	39.785
684.38	40.377
684.70	38.477
685.02	37.205
685.34	38.986
685.67	37.500
685.99	36.106
686.31	35.548
686.63	35.284
686.96	36.599
687.28	33.141
687.60	38.086
687.92	35.409
688.24	38.780
688.56	37.475
688.89	37.821
689.21	39.168
689.53	40.000
689.85	36.526
690.17	39.238
690.49	39.723
690.82	36.145
691.14	38.679
691.46	39.690
691.78	38.767
692.10	38.347
692.42	37.333
692.74	36.910
693.06	39.775
693.39	38.702
693.71	36.795
694.03	40.389
694.35	38.149
694.67	36.879
694.99	34.271
695.31	38.010
695.63	37.245
695.95	40.695
696.27	38.155
696.59	40.909
696.91	39.888
697.23	39.583
697.56	33.894
697.88	36.937
698.20	32.548
698.52	34.978
698.84	39.563
699.16	37.143
699.48	35.750
699.80	35.088
700.12	37.028
700.44	34.637
700.76	39.650
701.08	38.081
701.40	38.066
701.72	41.049
702.04	41.667
702.36	39.458
702.68	37.725
703.00	39.710
703.32	35.530
703.64	37.353
703.96	37.209
704.28	39.349
704.60	35.443
704.91	39.048
705.23	39.159
705.55	39.189
705.87	42.662
706.19	36.458
706.51	35.764
706.83	40.328
707.15	35.350
707.47	39.118
707.79	37.371
708.11	31.552
708.43	36.658
708.74	35.065
709.06	35.097
709.38	32.471
709.70	36.250
710.02	41.104
710.34	34.983
710.66	38.730
710.98	35.331
711.29	33.226
711.61	35.783
711.93	40.000
712.25	40.199
712.57	36.237
712.89	38.489
713.20	37.457
713.52	36.194
713.84	38.078
714.16	40.656
714.48	38.413
714.80	33.846
715.11	33.141
715.43	36.446
715.75	42.368
716.07	32.131
716.39	35.786
716.70	37.979
717.02	37.407
717.34	40.458
717.66	41.079
717.97	38.934
718.29	36.134
718.61	34.524
718.93	37.634
719.24	37.500
719.56	36.981
719.88	39.273
720.20	35.581
720.51	37.218
720.83	37.349
721.15	38.525
721.46	31.765
721.78	35.249
722.10	38.400
722.42	39.256
722.73	37.052
723.05	37.751
723.37	33.333
723.68	31.579
724.00	36.992
724.32	35.391
724.63	35.270
724.95	36.364
725.27	38.596
725.58	37.069
725.90	32.143
726.22	38.007
726.53	34.221
726.85	33.725
727.16	33.083
727.48	33.846
727.80	34.016
728.11	33.613
728.43	30.579
728.74	35.156
729.06	35.606
729.38	37.743
729.69	30.709
730.01	38.976
730.32	31.474
730.64	32.601
730.96	36.567
731.27	38.214
731.59	35.048
731.90	33.742
732.22	31.595
732.53	36.755
732.85	32.550
733.16	35.870
733.48	32.056
733.80	33.808
734.11	34.483
734.43	31.973
734.74	31.751
735.06	31.975
735.37	32.110
735.69	25.484
736.00	28.620
736.32	31.126
736.63	33.448
736.95	32.971
737.26	34.106
737.58	34.892
737.89	37.634
738.21	32.707
738.52	39.615
738.83	38.281
739.15	33.333
739.46	36.290
739.78	27.622
740.09	30.420
740.41	32.168
740.72	34.307
741.04	30.952
741.35	29.004
741.66	34.259
741.98	30.476
742.29	33.803
742.61	39.037
742.92	35.047
743.23	32.456
743.55	38.288
743.86	36.889
744.18	33.810
744.49	41.379
744.80	36.548
745.12	38.660
745.43	38.693
745.74	35.922
746.06	34.634
746.37	38.326
746.68	37.811
747.00	34.031
747.31	35.577
747.62	33.180
747.94	32.751
748.25	36.744
748.56	34.286
748.88	33.696
749.19	38.967
749.50	41.667
749.82	36.444
750.13	37.004
750.44	36.992
750.75	34.000
751.07	32.500
751.38	33.948
751.69	32.824
752.01	36.154
752.32	28.016
752.63	23.077
752.94	30.159
753.26	34.348
753.57	38.839
753.88	31.897
754.19	29.461
754.51	28.516
754.82	34.387
755.13	32.922
755.44	37.603
755.75	37.449
756.07	31.727
756.38	33.984
756.69	34.296
757.00	27.178
757.31	30.872
757.63	35.202
757.94	30.636
758.25	27.035
758.56	32.345
758.87	28.693
759.18	30.333
759.50	30.605
759.81	29.197
760.12	28.716
760.43	34.304
760.74	38.125
761.05	30.056
761.36	28.144
761.67	27.515
761.99	25.484
762.30	34.783
762.61	33.962
762.92	35.426
763.23	33.175
763.54	31.556
763.85	35.865
764.16	35.102
764.47	30.508
764.78	32.584
765.10	30.935
765.41	26.452
765.72	29.874
766.03	26.148
766.34	30.451
766.65	32.389
766.96	29.500
767.27	37.500
767.58	34.884
767.89	33.548
768.20	31.288
768.51	34.426
768.82	33.514
769.13	31.500
769.44	30.263
769.75	30.736
770.06	31.651
770.37	30.047
770.68	27.604
770.99	34.158
771.30	30.583
771.61	29.630
771.92	29.870
772.23	32.710
772.54	35.106
772.85	24.260
773.16	37.195
773.47	39.759
773.78	35.714
774.09	28.000
774.39	34.568
774.70	29.530
775.01	33.333
775.32	26.866
775.63	27.273
775.94	36.842
776.25	27.143
776.56	37.705
776.87	43.363
777.18	41.593
777.48	17.273
777.79	24.348
778.10	29.358
778.41	23.729
778.72	23.967
779.03	33.582
779.34	34.586
779.65	28.105
779.95	37.681
780.26	25.850
780.57	15.517
780.88	23.148
781.19	22.222
781.50	22.400
781.80	27.451
782.11	28.846
782.42	23.494
782.73	25.547
783.04	26.351
783.34	16.667
783.65	31.008
783.96	30.894
784.27	35.043
784.57	21.138
784.88	11.382
785.19	27.193
785.50	20.619
785.81	23.810
786.11	22.549
786.42	20.909
786.73	28.829
787.04	31.683
787.34	27.619
787.65	25.714
787.96	26.471
788.26	32.432
788.57	28.226
788.88	21.875
789.19	25.641
789.49	31.092
789.80	23.077
790.11	25.664
790.41	23.232
790.72	38.679
791.03	5.556
791.33	28.947
791.64	20.430
791.95	25.333
792.25	32.857
792.56	26.829
792.87	31.633
793.17	18.421
793.48	14.865
793.79	21.127
794.09	22.785
794.40	29.787
794.70	28.972
795.01	10.526
795.32	20.000
795.62	17.857
795.93	21.649
796.23	23.077
796.54	32.632
796.85	24.658
797.15	18.056
797.46	34.247
797.76	29.577
798.07	28.750
798.37	32.353
798.68	14.286
798.99	18.571
799.29	27.632
799.60	13.333
799.90	23.611
800.21	12.500
800.51	30.159
800.82	24.590
801.12	7.018
801.43	18.310
801.73	-6.780
802.04	42.623
802.34	9.091
802.65	11.538
802.95	9.259
803.26	0.000
803.56	28.846
803.87	0.000
804.17	11.290
804.48	32.308
804.78	0.000
805.09	32.558
805.39	-15.625
805.70	3.774
806.00	31.579
806.30	20.270
806.61	35.294
806.91	20.988
807.22	26.667
807.52	11.940
807.83	11.290
808.13	15.873
808.43	14.545
808.74	30.303
809.04	7.547
809.35	13.699
809.65	35.088
809.95	25.000
810.26	27.451
810.56	32.000
810.86	6.122
811.17	14.286
811.47	0.000
811.77	35.484
812.08	-18.421
812.38	26.190
812.69	21.739
812.99	16.129
813.29	4.762
813.59	-51.852
813.90	19.149
814.20	9.302
814.50	12.500
814.81	23.333
815.11	12.195
815.41	6.667
815.72	17.143
816.02	8.333
816.32	5.128
816.62	-2.703
816.93	-5.882
817.23	21.739
817.53	11.765
817.84	26.471
818.14	-9.375
818.44	3.448
818.74	-19.355
819.04	29.630
819.35	33.333
819.65	-24.000
819.95	6.667
820.25	-8.000
820.56	-31.579
820.86	-22.500
821.16	34.043
821.46	18.966
821.76	-12.821
822.07	-2.500
822.37	11.628
822.67	20.000
822.97	-16.216
823.27	43.243
823.57	40.000
823.88	8.108
824.18	-61.905
824.48	11.538
824.78	-130.769
825.08	-26.087
825.38	37.500
825.69	-25.000
825.99	-40.000
826.29	2.703
826.59	8.824
826.89	12.000
827.19	25.714
827.49	-2.632
827.79	-21.875
828.09	-6.667
828.39	-8.696
828.70	-17.241
829.00	-13.793
829.30	-19.444
829.60	40.625
829.90	38.889
830.20	3.846
830.50	-9.524
830.80	3.571
831.10	2.564
831.40	9.524
831.70	11.765
832.00	8.333
832.30	-5.263
832.60	-43.750
832.90	-25.000
833.20	-58.824
833.50	-26.667
833.80	-33.333
834.10	0.000
834.40	-4.167
834.70	-5.556
835.00	11.538
835.30	-16.667
835.60	27.586
835.90	-33.333
836.20	-36.364
836.50	-108.333
836.80	0.000
837.10	31.429
837.40	11.765
837.70	-109.091
838.00	25.000
838.30	-56.250
838.60	-4.762
838.90	70.000
839.19	-56.522
839.49	-17.391
839.79	-44.444
840.09	0.000
840.39	-54.545
840.69	-12.500
840.99	-15.789
841.29	-75.000
841.59	-7.143
841.88	-55.556
842.18	-25.000
842.48	-58.824
842.78	-6.897
843.08	21.429
843.38	0.000
843.68	-88.889
843.97	-84.615
844.27	-118.182
844.57	80.000
844.87	-12.000
845.17	-160.000
845.47	-42.857
845.76	-44.444
846.06	0.000
846.36	-175.000
846.66	-130.000
846.96	-47.368
847.25	-20.833
847.55	-41.667
847.85	-40.000
848.15	-100.000
848.44	73.077
848.74	0.000
849.04	266.667
849.34	-88.889
849.63	-84.211
849.93	0.000
850.23	-90.000
850.53	19.048
850.82	-12.000
851.12	-36.842
851.42	-600.000
851.71	21.429
852.01	-150.000
852.31	-23.529
852.61	6.667
852.90	-61.905
853.20	-233.333
853.50	-5.556
853.79	-52.632
854.09	-46.667
854.39	17.857
854.68	-13.043
854.98	-150.000
855.28	13.793
855.57	-31.250
855.87	-15.000
856.17	-33.333
856.46	10.345
856.76	-13.333
857.05	0.000
857.35	-130.769
857.65	-9.091
857.94	-66.667
858.24	-135.714
858.53	-7.143
858.83	-50.000
859.13	-155.556
859.42	19.048
859.72	-137.500
860.01	-66.667
860.31	-225.000
860.60	-240.000
860.90	-100.000
861.20	-100.000
861.49	-257.143
861.79	-17.647
862.08	-600.000
862.38	-66.667
862.67	-161.538
862.97	-29.412
863.26	25.000
863.56	-58.824
863.85	333.333
864.15	30.000
864.44	-107.692
864.74	-25.000
865.03	-287.500
865.33	-266.667
865.62	-82.353
865.92	-700.000
866.21	-21.429
866.51	-125.000
866.80	-800.000
867.10	-300.000
867.39	-17.647
867.69	-17.391
867.98	0.000
868.27	-460.000
868.57	-50.000
868.86	-118.182
869.16	5.882
869.45	-116.667
869.75	-157.143
870.04	400.000
870.33	16.667
870.63	-220.000
870.92	-166.667
871.22	-33.333
871.51	-72.727
871.80	-108.333
872.10	10.000
>>>>>End Processed Spectral Data<<<<<
