SpectraSuite Data File
++++++++++++++++++++++++++++++++++++
Date: Sat May 16 11:43:31 PDT 2015
User: schluterlab
Dark Spectrum Present: Yes
Reference Spectrum Present: Yes
Number of Sampled Component Spectra: 1
Spectrometers: USB2E3373
Integration Time (usec): 3000 (USB2E3373)
Spectra Averaged: 3 (USB2E3373)
Boxcar Smoothing: 0 (USB2E3373)
Correct for Electrical Dark: No (USB2E3373)
Strobe/Lamp Enabled: No (USB2E3373)
Correct for Detector Non-linearity: No (USB2E3373)
Correct for Stray Light: No (USB2E3373)
Number of Pixels in Processed Spectrum: 2048
>>>>>Begin Processed Spectral Data<<<<<
178.53	0.000
178.91	146.667
179.29	433.333
179.67	-800.000
180.04	-92.308
180.42	1400.000
180.80	125.000
181.18	400.000
181.56	-12.500
181.94	900.000
182.31	325.000
182.69	-23.077
183.07	-466.667
183.45	1400.000
183.83	333.333
184.20	-200.000
184.58	-225.000
184.96	-325.000
185.34	106.250
185.72	-475.000
186.09	233.333
186.47	-137.500
186.85	-225.000
187.23	-100.000
187.61	-300.000
187.98	-275.000
188.36	-200.000
188.74	-175.000
189.12	1500.000
189.49	342.857
189.87	-50.000
190.25	425.000
190.63	-35.714
191.00	-144.444
191.38	240.000
191.76	-60.000
192.14	560.000
192.51	-460.000
192.89	-666.667
193.27	0.000
193.65	-77.778
194.02	-85.714
194.40	166.667
194.78	-120.000
195.15	-1700.000
195.53	-72.727
195.91	-383.333
196.29	140.000
196.66	-366.667
197.04	2900.000
197.42	-175.000
197.79	26.667
198.17	-266.667
198.55	-600.000
198.92	-500.000
199.30	150.000
199.68	50.000
200.05	-144.444
200.43	-177.778
200.81	-1300.000
201.18	-66.667
201.56	185.714
201.94	13.333
202.31	-4.545
202.69	10.000
203.07	-40.000
203.44	700.000
203.82	-400.000
204.19	-325.000
204.57	-325.000
204.95	-1300.000
205.32	-37.500
205.70	1200.000
206.08	-1600.000
206.45	-27.778
206.83	-550.000
207.20	-50.000
207.58	-833.333
207.96	-600.000
208.33	-187.500
208.71	-188.889
209.08	90.000
209.46	-157.143
209.84	1100.000
210.21	0.000
210.59	30.000
210.96	1300.000
211.34	-300.000
211.71	-66.667
212.09	300.000
212.46	650.000
212.84	-2600.000
213.22	366.667
213.59	150.000
213.97	-55.556
214.34	170.000
214.72	-70.000
215.09	-766.667
215.47	-50.000
215.84	-90.000
216.22	-80.000
216.59	-73.333
216.97	-350.000
217.34	950.000
217.72	-128.571
218.09	-200.000
218.47	-228.571
218.84	385.714
219.22	-57.143
219.59	0.000
219.97	157.143
220.34	325.000
220.72	212.500
221.09	-46.154
221.47	0.000
221.84	400.000
222.22	-500.000
222.59	1800.000
222.97	-137.500
223.34	-1150.000
223.72	-633.333
224.09	-85.714
224.46	-150.000
224.84	-64.286
225.21	-257.143
225.59	-118.182
225.96	-150.000
226.34	-114.286
226.71	-44.444
227.08	-25.000
227.46	1800.000
227.83	-214.286
228.21	-125.000
228.58	550.000
228.95	-75.000
229.33	-1800.000
229.70	-340.000
230.08	-1050.000
230.45	-33.333
230.82	-50.000
231.20	-1200.000
231.57	-400.000
231.95	1100.000
232.32	-14.286
232.69	-111.111
233.07	-257.143
233.44	-950.000
233.81	33.333
234.19	-111.111
234.56	-43.750
234.93	15.625
235.31	-257.143
235.68	-42.857
236.05	-52.941
236.43	-31.818
236.80	19.355
237.17	-4.167
237.55	0.000
237.92	-54.545
238.29	2.857
238.67	8.824
239.04	-16.667
239.41	0.000
239.79	-28.205
240.16	7.143
240.53	12.727
240.91	23.077
241.28	18.182
241.65	9.231
242.02	11.475
242.40	9.836
242.77	12.121
243.14	18.644
243.51	18.571
243.89	16.456
244.26	13.483
244.63	25.263
245.00	13.684
245.38	28.814
245.75	18.584
246.12	20.000
246.49	26.772
246.87	16.260
247.24	22.034
247.61	27.966
247.98	24.648
248.36	28.671
248.73	24.684
249.10	18.471
249.47	29.240
249.84	26.136
250.22	20.238
250.59	27.684
250.96	26.178
251.33	27.014
251.70	27.404
252.08	28.910
252.45	24.645
252.82	24.286
253.19	25.532
253.56	27.016
253.94	27.848
254.31	30.901
254.68	26.829
255.05	27.016
255.42	28.571
255.79	24.014
256.16	28.235
256.54	31.985
256.91	27.652
257.28	28.571
257.65	28.369
258.02	27.987
258.39	27.759
258.76	24.324
259.14	25.617
259.51	29.836
259.88	28.659
260.25	31.366
260.62	27.653
260.99	23.442
261.36	28.049
261.73	34.104
262.10	28.889
262.47	27.635
262.85	31.714
263.22	30.372
263.59	25.231
263.96	30.725
264.33	28.184
264.70	30.110
265.07	30.495
265.44	27.907
265.81	26.873
266.18	27.848
266.55	28.186
266.92	28.463
267.29	30.024
267.66	27.901
268.03	28.744
268.40	26.526
268.77	27.952
269.14	28.074
269.51	30.575
269.88	27.523
270.25	25.874
270.62	28.833
270.99	30.405
271.36	27.739
271.73	30.717
272.10	27.689
272.47	28.667
272.84	29.556
273.21	27.523
273.58	30.549
273.95	26.316
274.32	30.317
274.69	30.853
275.06	29.039
275.43	27.009
275.80	29.532
276.17	29.916
276.54	29.939
276.91	29.012
277.28	30.629
277.65	30.165
278.02	27.766
278.39	30.845
278.76	28.486
279.13	31.621
279.50	28.429
279.87	27.696
280.23	29.555
280.60	28.429
280.97	29.320
281.34	29.981
281.71	30.385
282.08	30.242
282.45	28.717
282.82	29.651
283.19	28.182
283.56	29.670
283.92	30.389
284.29	28.810
284.66	29.496
285.03	29.055
285.40	30.443
285.77	30.526
286.14	29.603
286.51	30.551
286.87	31.579
287.24	29.522
287.61	30.413
287.98	28.076
288.35	28.595
288.72	31.919
289.08	29.322
289.45	30.471
289.82	28.547
290.19	31.034
290.56	27.603
290.93	29.094
291.29	29.335
291.66	28.824
292.03	31.711
292.40	30.572
292.77	29.193
293.13	32.033
293.50	30.758
293.87	30.061
294.24	29.110
294.60	29.697
294.97	30.653
295.34	28.889
295.71	29.315
296.08	27.496
296.44	27.468
296.81	31.909
297.18	28.451
297.55	31.073
297.91	29.847
298.28	27.945
298.65	29.428
299.02	29.011
299.38	29.144
299.75	29.212
300.12	28.590
300.48	29.156
300.85	31.848
301.22	29.625
301.59	30.039
301.95	30.605
302.32	28.031
302.69	28.274
303.05	29.915
303.42	28.875
303.79	30.383
304.15	28.910
304.52	30.922
304.89	29.988
305.25	30.647
305.62	28.790
305.99	30.860
306.35	30.078
306.72	28.588
307.09	31.555
307.45	30.420
307.82	28.603
308.19	29.866
308.55	31.264
308.92	30.505
309.29	30.378
309.65	29.905
310.02	29.374
310.38	31.676
310.75	30.225
311.12	30.269
311.48	32.881
311.85	31.411
312.22	32.647
312.58	30.621
312.95	30.275
313.31	30.869
313.68	31.859
314.05	32.443
314.41	30.080
314.78	30.969
315.14	31.096
315.51	31.611
315.87	30.978
316.24	30.612
316.61	31.958
316.97	32.438
317.34	31.696
317.70	31.633
318.07	32.463
318.43	32.116
318.80	34.178
319.16	31.801
319.53	32.707
319.89	33.020
320.26	34.706
320.62	34.615
320.99	33.532
321.35	33.596
321.72	33.367
322.08	36.004
322.45	34.752
322.81	34.966
323.18	36.599
323.54	37.616
323.91	37.349
324.27	38.498
324.64	38.300
325.00	37.609
325.37	40.543
325.73	41.207
326.10	38.795
326.46	41.856
326.83	43.404
327.19	43.703
327.56	44.037
327.92	44.520
328.29	44.848
328.65	45.364
329.01	47.173
329.38	45.852
329.74	48.535
330.11	47.416
330.47	49.319
330.84	49.679
331.20	49.458
331.56	49.225
331.93	49.201
332.29	52.694
332.66	51.536
333.02	51.855
333.38	51.971
333.75	53.072
334.11	51.822
334.48	53.133
334.84	53.018
335.20	54.167
335.57	54.152
335.93	55.774
336.29	53.676
336.66	55.419
337.02	56.577
337.38	54.902
337.75	55.926
338.11	57.066
338.47	54.715
338.84	56.715
339.20	56.678
339.56	57.130
339.93	57.937
340.29	55.624
340.65	55.682
341.02	56.661
341.38	56.192
341.74	57.409
342.11	57.509
342.47	57.339
342.83	58.018
343.20	57.387
343.56	56.408
343.92	56.678
344.28	58.705
344.65	56.601
345.01	56.555
345.37	58.887
345.73	56.628
346.10	57.318
346.46	58.408
346.82	58.220
347.19	58.012
347.55	58.266
347.91	57.559
348.27	57.200
348.63	56.381
349.00	59.905
349.36	55.504
349.72	59.475
350.08	57.979
350.45	57.604
350.81	58.439
351.17	57.315
351.53	56.563
351.89	58.771
352.26	58.372
352.62	58.141
352.98	58.307
353.34	60.032
353.70	57.606
354.07	59.559
354.43	59.130
354.79	59.271
355.15	61.182
355.51	59.531
355.87	59.130
356.24	59.809
356.60	62.208
356.96	60.508
357.32	60.808
357.68	59.540
358.04	59.199
358.40	58.855
358.77	60.433
359.13	59.679
359.49	59.410
359.85	58.689
360.21	58.371
360.57	60.843
360.93	61.481
361.29	60.389
361.66	60.213
362.02	61.169
362.38	60.602
362.74	61.392
363.10	60.545
363.46	61.111
363.82	61.006
364.18	59.262
364.54	61.758
364.90	61.705
365.26	62.126
365.62	62.153
365.98	62.233
366.35	61.761
366.71	60.606
367.07	60.692
367.43	60.879
367.79	60.687
368.15	61.095
368.51	60.350
368.87	63.324
369.23	60.912
369.59	60.208
369.95	60.395
370.31	62.588
370.67	61.533
371.03	61.516
371.39	63.083
371.75	63.019
372.11	62.841
372.47	61.678
372.83	63.700
373.19	63.286
373.55	61.928
373.91	65.007
374.27	61.807
374.63	61.836
374.99	63.074
375.35	61.911
375.71	63.268
376.07	63.313
376.42	61.457
376.78	63.922
377.14	64.203
377.50	61.960
377.86	62.549
378.22	63.191
378.58	63.064
378.94	63.625
379.30	63.681
379.66	63.084
380.02	63.042
380.38	63.807
380.74	63.072
381.09	62.097
381.45	64.141
381.81	64.126
382.17	64.223
382.53	62.979
382.89	63.397
383.25	63.034
383.61	63.031
383.97	63.319
384.32	65.582
384.68	63.906
385.04	63.225
385.40	64.455
385.76	64.146
386.12	63.148
386.48	64.542
386.83	62.822
387.19	63.598
387.55	64.385
387.91	62.774
388.27	63.390
388.62	62.981
388.98	63.537
389.34	63.586
389.70	63.276
390.06	62.088
390.42	63.654
390.77	62.839
391.13	64.224
391.49	62.944
391.85	64.713
392.20	63.228
392.56	63.409
392.92	63.434
393.28	63.146
393.64	64.642
393.99	63.815
394.35	63.200
394.71	63.558
395.07	64.407
395.42	62.932
395.78	63.105
396.14	64.673
396.50	63.425
396.85	63.233
397.21	63.426
397.57	63.040
397.92	62.705
398.28	63.389
398.64	63.177
399.00	63.933
399.35	63.360
399.71	64.518
400.07	64.179
400.42	63.382
400.78	62.373
401.14	62.575
401.49	63.031
401.85	62.843
402.21	63.290
402.57	61.468
402.92	62.807
403.28	62.439
403.63	62.612
403.99	62.585
404.35	62.923
404.70	62.317
405.06	62.284
405.42	63.038
405.77	62.330
406.13	62.294
406.49	62.912
406.84	61.548
407.20	62.367
407.55	62.381
407.91	62.047
408.27	63.725
408.62	61.575
408.98	60.764
409.34	60.268
409.69	61.941
410.05	61.249
410.40	63.151
410.76	62.596
411.11	62.968
411.47	62.980
411.83	61.980
412.18	62.686
412.54	61.135
412.89	62.394
413.25	61.157
413.60	61.482
413.96	60.136
414.31	63.119
414.67	62.286
415.03	61.449
415.38	63.240
415.74	61.856
416.09	61.701
416.45	60.847
416.80	61.053
417.16	61.130
417.51	62.377
417.87	63.172
418.22	63.085
418.58	61.746
418.93	61.864
419.29	62.108
419.64	62.940
420.00	63.183
420.35	63.276
420.71	63.325
421.06	61.124
421.42	62.412
421.77	61.753
422.12	62.227
422.48	61.464
422.83	62.528
423.19	62.027
423.54	62.363
423.90	62.637
424.25	61.538
424.61	63.088
424.96	63.546
425.31	63.331
425.67	63.725
426.02	61.847
426.38	64.791
426.73	64.290
427.09	63.542
427.44	63.125
427.79	63.256
428.15	63.674
428.50	63.636
428.85	64.209
429.21	63.033
429.56	63.281
429.92	63.026
430.27	63.509
430.62	63.480
430.98	64.088
431.33	63.874
431.68	64.826
432.04	65.193
432.39	65.356
432.74	64.269
433.10	64.041
433.45	64.249
433.80	64.950
434.16	64.804
434.51	66.356
434.86	65.964
435.22	65.479
435.57	65.361
435.92	65.358
436.28	66.231
436.63	65.235
436.98	65.349
437.34	64.619
437.69	64.352
438.04	65.797
438.39	65.945
438.75	64.377
439.10	65.186
439.45	65.661
439.81	65.301
440.16	65.985
440.51	65.824
440.86	65.818
441.22	65.064
441.57	65.211
441.92	66.650
442.27	64.827
442.63	65.933
442.98	65.971
443.33	65.074
443.68	65.972
444.03	66.110
444.39	65.688
444.74	65.694
445.09	66.831
445.44	66.517
445.79	66.701
446.15	66.539
446.50	66.140
446.85	65.726
447.20	65.679
447.55	65.138
447.91	67.715
448.26	66.257
448.61	66.384
448.96	65.938
449.31	66.573
449.66	66.686
450.02	64.986
450.37	66.783
450.72	66.723
451.07	67.442
451.42	66.914
451.77	67.564
452.12	67.700
452.47	67.065
452.83	67.094
453.18	68.311
453.53	67.600
453.88	69.318
454.23	67.412
454.58	70.106
454.93	68.073
455.28	68.579
455.63	67.998
455.98	67.229
456.34	67.662
456.69	69.168
457.04	67.671
457.39	68.242
457.74	68.281
458.09	68.794
458.44	68.880
458.79	68.498
459.14	68.853
459.49	68.561
459.84	68.578
460.19	67.601
460.54	69.449
460.89	69.507
461.24	69.095
461.59	68.875
461.94	69.001
462.29	68.553
462.64	70.817
462.99	68.541
463.34	69.142
463.69	68.511
464.04	67.135
464.39	69.355
464.74	68.262
465.09	67.348
465.44	68.133
465.79	67.287
466.14	70.368
466.49	68.739
466.84	69.808
467.19	69.701
467.54	68.481
467.89	69.544
468.24	69.952
468.59	69.519
468.94	71.447
469.29	70.435
469.64	69.474
469.99	72.451
470.34	71.543
470.68	70.349
471.03	70.888
471.38	70.764
471.73	73.497
472.08	71.285
472.43	70.270
472.78	70.067
473.13	70.775
473.48	73.261
473.83	71.154
474.17	72.994
474.52	72.506
474.87	70.862
475.22	70.147
475.57	70.056
475.92	71.976
476.27	71.029
476.61	71.268
476.96	71.381
477.31	73.089
477.66	71.942
478.01	72.663
478.36	69.932
478.70	71.970
479.05	72.688
479.40	73.575
479.75	70.489
480.10	70.982
480.45	71.228
480.79	72.310
481.14	72.704
481.49	72.652
481.84	71.429
482.19	71.996
482.53	73.627
482.88	71.239
483.23	72.864
483.58	73.173
483.92	73.770
484.27	71.068
484.62	70.842
484.97	71.434
485.31	68.576
485.66	66.896
486.01	66.562
486.36	68.825
486.70	70.481
487.05	70.007
487.40	70.032
487.75	70.185
488.09	69.734
488.44	70.399
488.79	70.074
489.13	72.499
489.48	73.165
489.83	74.367
490.17	72.442
490.52	75.000
490.87	74.134
491.22	74.965
491.56	74.769
491.91	74.571
492.26	73.679
492.60	74.263
492.95	73.917
493.30	73.702
493.64	74.330
493.99	75.048
494.34	74.524
494.68	76.030
495.03	75.143
495.37	74.582
495.72	75.246
496.07	75.176
496.41	76.610
496.76	75.708
497.11	76.307
497.45	75.862
497.80	77.339
498.14	76.130
498.49	77.549
498.84	74.175
499.18	76.998
499.53	75.645
499.87	75.627
500.22	76.373
500.56	77.839
500.91	75.961
501.26	76.274
501.60	76.456
501.95	77.295
502.29	74.823
502.64	76.096
502.98	75.946
503.33	75.987
503.67	76.389
504.02	76.050
504.36	77.549
504.71	78.419
505.06	75.936
505.40	77.545
505.75	77.591
506.09	78.160
506.44	76.792
506.78	77.421
507.13	77.909
507.47	79.082
507.82	77.233
508.16	79.378
508.51	78.774
508.85	78.986
509.19	79.226
509.54	79.281
509.88	79.947
510.23	78.983
510.57	79.735
510.92	79.216
511.26	78.575
511.61	79.968
511.95	78.610
512.30	79.549
512.64	78.464
512.98	79.648
513.33	80.066
513.67	80.458
514.02	79.306
514.36	80.554
514.70	80.419
515.05	80.732
515.39	81.488
515.74	82.024
516.08	82.767
516.42	80.623
516.77	82.265
517.11	82.323
517.46	83.612
517.80	84.657
518.14	81.099
518.49	82.726
518.83	82.136
519.17	83.067
519.52	80.625
519.86	84.528
520.20	85.819
520.55	84.123
520.89	83.594
521.23	83.761
521.58	83.950
521.92	84.737
522.26	85.524
522.61	84.094
522.95	84.684
523.29	84.765
523.64	83.760
523.98	85.805
524.32	83.658
524.66	83.540
525.01	83.301
525.35	84.407
525.69	86.272
526.04	85.966
526.38	86.251
526.72	83.908
527.06	84.049
527.41	84.950
527.75	86.073
528.09	85.837
528.43	84.984
528.78	83.606
529.12	85.339
529.46	86.662
529.80	85.862
530.15	83.967
530.49	85.188
530.83	85.527
531.17	85.522
531.51	84.796
531.86	84.266
532.20	84.278
532.54	84.893
532.88	85.573
533.22	85.094
533.57	84.334
533.91	82.272
534.25	82.652
534.59	83.573
534.93	84.007
535.27	82.190
535.62	84.847
535.96	85.068
536.30	83.050
536.64	84.794
536.98	86.158
537.32	83.068
537.66	84.589
538.01	84.811
538.35	84.865
538.69	84.425
539.03	84.902
539.37	84.631
539.71	84.323
540.05	86.086
540.39	84.834
540.73	85.764
541.07	84.904
541.42	83.592
541.76	82.458
542.10	86.226
542.44	83.611
542.78	83.243
543.12	84.657
543.46	84.521
543.80	84.214
544.14	84.755
544.48	84.777
544.82	85.589
545.16	84.775
545.50	83.715
545.84	84.631
546.18	85.853
546.52	84.780
546.86	85.541
547.20	85.513
547.54	81.887
547.88	83.610
548.22	82.503
548.56	85.438
548.90	85.916
549.24	86.545
549.58	85.674
549.92	86.572
550.26	85.621
550.60	84.424
550.94	85.109
551.28	85.628
551.62	86.780
551.96	86.541
552.30	82.648
552.64	85.292
552.98	85.564
553.32	86.869
553.66	87.094
554.00	86.070
554.34	86.426
554.68	84.942
555.02	85.166
555.36	85.334
555.69	84.312
556.03	84.211
556.37	85.775
556.71	86.829
557.05	86.253
557.39	85.895
557.73	86.579
558.07	87.792
558.41	87.435
558.75	85.323
559.08	87.626
559.42	88.132
559.76	86.887
560.10	85.235
560.44	85.043
560.78	84.969
561.12	84.817
561.45	85.137
561.79	84.599
562.13	84.572
562.47	86.415
562.81	84.583
563.15	86.494
563.48	84.174
563.82	84.990
564.16	82.759
564.50	84.341
564.84	82.804
565.17	83.422
565.51	82.725
565.85	84.111
566.19	84.519
566.52	84.736
566.86	82.743
567.20	82.990
567.54	83.875
567.88	80.011
568.21	82.159
568.55	80.594
568.89	80.020
569.23	78.528
569.56	76.503
569.90	76.869
570.24	76.700
570.57	74.271
570.91	74.396
571.25	74.838
571.59	74.399
571.92	73.125
572.26	73.158
572.60	72.944
572.93	72.871
573.27	72.500
573.61	71.724
573.95	72.326
574.28	71.517
574.62	72.547
574.96	70.165
575.29	71.367
575.63	70.693
575.97	71.278
576.30	71.307
576.64	71.749
576.98	70.316
577.31	70.513
577.65	70.745
577.98	70.085
578.32	70.869
578.66	70.484
578.99	71.818
579.33	71.012
579.67	70.479
580.00	70.511
580.34	70.793
580.67	71.218
581.01	69.493
581.35	70.124
581.68	69.198
582.02	69.690
582.35	69.424
582.69	70.980
583.02	71.552
583.36	70.234
583.70	71.096
584.03	72.468
584.37	71.069
584.70	71.160
585.04	70.253
585.37	69.451
585.71	71.214
586.04	71.606
586.38	71.558
586.72	70.378
587.05	71.396
587.39	71.319
587.72	71.410
588.06	71.664
588.39	71.660
588.73	71.666
589.06	72.762
589.40	74.133
589.73	73.088
590.07	73.052
590.40	73.247
590.73	74.730
591.07	74.221
591.40	76.516
591.74	74.718
592.07	75.270
592.41	74.480
592.74	73.713
593.08	73.086
593.41	72.961
593.75	72.404
594.08	73.113
594.41	74.233
594.75	73.311
595.08	73.835
595.42	72.905
595.75	72.951
596.09	72.487
596.42	74.264
596.75	73.652
597.09	74.800
597.42	73.592
597.75	73.118
598.09	74.740
598.42	73.928
598.76	72.799
599.09	72.494
599.42	72.357
599.76	72.707
600.09	74.198
600.42	72.541
600.76	73.070
601.09	73.073
601.42	72.576
601.76	71.846
602.09	73.129
602.42	72.757
602.76	73.286
603.09	72.298
603.42	73.127
603.76	73.674
604.09	72.287
604.42	72.148
604.76	72.918
605.09	73.825
605.42	73.759
605.75	73.911
606.09	71.980
606.42	72.266
606.75	72.821
607.09	73.092
607.42	71.743
607.75	73.333
608.08	73.475
608.42	73.983
608.75	72.850
609.08	73.551
609.41	73.842
609.75	72.550
610.08	74.412
610.41	74.410
610.74	74.952
611.07	75.000
611.41	72.617
611.74	73.676
612.07	76.262
612.40	73.561
612.73	73.667
613.07	73.528
613.40	75.151
613.73	75.695
614.06	74.135
614.39	75.705
614.72	75.140
615.06	73.913
615.39	73.304
615.72	75.448
616.05	72.722
616.38	75.508
616.71	76.036
617.05	74.910
617.38	76.409
617.71	75.491
618.04	74.658
618.37	75.912
618.70	77.901
619.03	77.522
619.36	78.295
619.69	77.818
620.03	75.207
620.36	78.200
620.69	78.536
621.02	79.300
621.35	79.919
621.68	79.918
622.01	79.773
622.34	77.950
622.67	78.047
623.00	78.271
623.33	77.910
623.66	77.326
623.99	78.120
624.32	78.497
624.65	77.336
624.99	78.193
625.32	77.021
625.65	78.632
625.98	78.169
626.31	79.527
626.64	79.079
626.97	80.822
627.30	78.894
627.63	78.411
627.96	79.809
628.29	81.066
628.62	80.420
628.95	82.677
629.28	81.955
629.61	82.924
629.94	81.191
630.26	83.897
630.59	82.211
630.92	80.380
631.25	82.056
631.58	82.540
631.91	83.723
632.24	85.222
632.57	85.778
632.90	86.552
633.23	84.930
633.56	84.912
633.89	82.665
634.22	84.534
634.55	85.216
634.88	84.522
635.20	85.393
635.53	85.878
635.86	84.509
636.19	82.173
636.52	83.513
636.85	82.792
637.18	86.125
637.51	84.882
637.83	90.013
638.16	87.500
638.49	88.966
638.82	83.912
639.15	86.641
639.48	84.306
639.81	89.212
640.13	85.135
640.46	89.886
640.79	87.535
641.12	86.601
641.45	87.374
641.77	88.323
642.10	87.009
642.43	88.164
642.76	87.087
643.09	87.143
643.41	90.159
643.74	90.938
644.07	87.207
644.40	89.951
644.73	86.964
645.05	89.316
645.38	87.252
645.71	93.643
646.04	89.748
646.36	87.609
646.69	87.370
647.02	93.141
647.35	91.155
647.67	90.328
648.00	89.455
648.33	90.556
648.66	85.645
648.98	86.943
649.31	85.231
649.64	84.688
649.96	85.400
650.29	84.590
650.62	89.157
650.94	84.654
651.27	85.269
651.60	86.678
651.92	86.986
652.25	84.140
652.58	86.201
652.90	85.233
653.23	81.935
653.56	83.946
653.88	84.262
654.21	86.074
654.54	85.382
654.86	83.628
655.19	80.516
655.52	71.731
655.84	62.428
656.17	66.047
656.49	87.979
656.82	90.079
657.15	68.352
657.47	51.228
657.80	40.098
658.13	45.532
658.45	61.335
658.78	61.250
659.10	61.171
659.43	62.584
659.75	64.083
660.08	65.625
660.41	67.495
660.73	72.387
661.06	79.420
661.38	86.607
661.71	85.277
662.03	87.903
662.36	91.684
662.68	88.608
663.01	90.021
663.33	91.156
663.66	85.622
663.98	91.741
664.31	91.946
664.63	88.053
664.96	88.286
665.28	88.286
665.61	86.469
665.93	87.037
666.26	85.628
666.58	84.823
666.91	85.969
667.23	86.623
667.56	85.488
667.88	89.140
668.21	91.244
668.53	91.355
668.86	87.298
669.18	87.443
669.50	87.383
669.83	90.511
670.15	85.874
670.48	89.486
670.80	83.827
671.13	85.553
671.45	84.910
671.77	85.225
672.10	81.854
672.42	80.812
672.75	79.091
673.07	81.081
673.39	78.871
673.72	81.299
674.04	85.350
674.37	81.649
674.69	85.451
675.01	84.255
675.34	83.080
675.66	84.233
675.98	85.242
676.31	86.878
676.63	85.977
676.95	82.080
677.28	82.831
677.60	83.937
677.92	85.903
678.25	83.807
678.57	80.864
678.89	79.245
679.22	80.503
679.54	80.868
679.86	79.200
680.18	79.848
680.51	77.467
680.83	75.619
681.15	76.879
681.48	80.730
681.80	79.234
682.12	82.495
682.44	77.407
682.77	80.519
683.09	80.084
683.41	81.858
683.73	81.507
684.06	80.215
684.38	80.753
684.70	78.395
685.02	75.000
685.34	78.947
685.67	76.515
685.99	77.505
686.31	76.302
686.63	75.532
686.96	77.449
687.28	73.410
687.60	76.367
687.92	75.292
688.24	76.969
688.56	74.148
688.89	75.427
689.21	80.744
689.53	80.920
689.85	79.733
690.17	77.803
690.49	78.522
690.82	80.723
691.14	75.943
691.46	77.827
691.78	78.414
692.10	79.873
692.42	79.333
692.74	76.824
693.06	77.528
693.39	78.300
693.71	76.749
694.03	74.514
694.35	75.847
694.67	75.887
694.99	80.818
695.31	79.337
695.63	73.724
695.95	77.667
696.27	75.312
696.59	77.807
696.91	84.831
697.23	79.427
697.56	78.846
697.88	76.351
698.20	74.304
698.52	71.076
698.84	78.155
699.16	73.571
699.48	75.500
699.80	74.185
700.12	76.071
700.44	79.330
700.76	81.050
701.08	78.779
701.40	80.363
701.72	85.185
702.04	85.897
702.36	79.217
702.68	80.838
703.00	75.362
703.32	78.797
703.64	80.000
703.96	81.105
704.28	80.473
704.60	79.747
704.91	77.460
705.23	78.964
705.55	78.041
705.87	80.887
706.19	80.903
706.51	80.556
706.83	85.574
707.15	78.025
707.47	75.482
707.79	75.000
708.11	72.774
708.43	73.317
708.74	70.390
709.06	76.602
709.38	78.736
709.70	74.688
710.02	76.994
710.34	77.558
710.66	72.381
710.98	70.978
711.29	71.935
711.61	74.760
711.93	74.098
712.25	75.748
712.57	78.397
712.89	81.295
713.20	80.069
713.52	78.358
713.84	75.801
714.16	77.049
714.48	76.508
714.80	70.154
715.11	71.182
715.43	75.602
715.75	75.078
716.07	71.803
716.39	73.244
716.70	73.519
717.02	75.185
717.34	74.427
717.66	82.158
717.97	75.820
718.29	76.891
718.61	87.698
718.93	73.835
719.24	70.588
719.56	70.943
719.88	77.091
720.20	75.655
720.51	81.203
720.83	74.699
721.15	73.361
721.46	75.294
721.78	72.797
722.10	77.200
722.42	77.273
722.73	76.096
723.05	77.912
723.37	76.471
723.68	71.660
724.00	77.236
724.32	76.132
724.63	76.349
724.95	74.380
725.27	74.561
725.58	72.414
725.90	69.841
726.22	71.956
726.53	73.764
726.85	68.627
727.16	75.564
727.48	67.308
727.80	66.803
728.11	69.748
728.43	62.810
728.74	73.047
729.06	70.076
729.38	75.875
729.69	66.929
730.01	68.504
730.32	73.307
730.64	69.963
730.96	73.507
731.27	71.071
731.59	67.524
731.90	65.644
732.22	66.564
732.53	74.503
732.85	64.430
733.16	68.478
733.48	66.202
733.80	73.310
734.11	65.172
734.43	66.327
734.74	69.733
735.06	68.025
735.37	65.443
735.69	64.839
736.00	67.003
736.32	67.881
736.63	64.138
736.95	64.855
737.26	66.887
737.58	69.424
737.89	73.118
738.21	68.045
738.52	69.615
738.83	67.578
739.15	71.795
739.46	72.581
739.78	64.336
740.09	63.287
740.41	65.734
740.72	66.058
741.04	72.222
741.35	61.472
741.66	73.611
741.98	65.714
742.29	73.239
742.61	81.283
742.92	71.963
743.23	70.614
743.55	71.622
743.86	72.889
744.18	68.571
744.49	75.369
744.80	76.650
745.12	74.227
745.43	75.377
745.74	72.330
746.06	68.780
746.37	68.722
746.68	72.139
747.00	77.487
747.31	66.346
747.62	68.664
747.94	70.306
748.25	69.302
748.56	69.524
748.88	71.196
749.19	73.709
749.50	75.000
749.82	67.111
750.13	70.925
750.44	65.854
750.75	68.400
751.07	62.500
751.38	63.838
751.69	60.687
752.01	67.308
752.32	63.813
752.63	64.615
752.94	63.889
753.26	71.739
753.57	75.446
753.88	69.828
754.19	69.295
754.51	63.672
754.82	66.008
755.13	68.313
755.44	65.289
755.75	73.663
756.07	66.265
756.38	73.828
756.69	67.870
757.00	61.324
757.31	62.752
757.63	62.617
757.94	60.116
758.25	64.244
758.56	64.420
758.87	62.500
759.18	61.333
759.50	63.701
759.81	62.409
760.12	61.824
760.43	68.285
760.74	62.812
761.05	59.551
761.36	66.168
761.67	58.876
761.99	59.032
762.30	64.855
762.61	63.396
762.92	66.816
763.23	65.877
763.54	61.778
763.85	66.245
764.16	63.265
764.47	64.407
764.78	60.300
765.10	63.669
765.41	63.548
765.72	61.635
766.03	63.958
766.34	65.414
766.65	56.275
766.96	59.500
767.27	65.625
767.58	66.860
767.89	65.161
768.20	79.141
768.51	65.574
768.82	61.622
769.13	64.500
769.44	64.035
769.75	61.905
770.06	63.303
770.37	62.441
770.68	65.625
770.99	62.871
771.30	64.078
771.61	68.519
771.92	55.844
772.23	62.150
772.54	64.362
772.85	60.355
773.16	72.561
773.47	65.060
773.78	65.934
774.09	69.333
774.39	59.877
774.70	62.416
775.01	68.841
775.32	63.433
775.63	67.769
775.94	72.932
776.25	56.429
776.56	67.213
776.87	70.796
777.18	63.717
777.48	60.000
777.79	65.217
778.10	67.890
778.41	62.712
778.72	65.289
779.03	61.940
779.34	64.662
779.65	64.052
779.95	73.913
780.26	61.905
780.57	65.517
780.88	63.889
781.19	45.455
781.50	66.400
781.80	63.399
782.11	64.744
782.42	58.434
782.73	64.234
783.04	60.811
783.34	65.152
783.65	69.767
783.96	68.293
784.27	64.957
784.57	57.724
784.88	62.602
785.19	62.281
785.50	45.361
785.81	56.190
786.11	63.725
786.42	57.273
786.73	62.162
787.04	68.317
787.34	62.857
787.65	64.762
787.96	62.745
788.26	63.063
788.57	59.677
788.88	59.375
789.19	56.410
789.49	47.899
789.80	55.556
790.11	54.867
790.41	51.515
790.72	59.434
791.03	48.611
791.33	61.842
791.64	60.215
791.95	66.667
792.25	54.286
792.56	63.415
792.87	58.163
793.17	60.526
793.48	48.649
793.79	47.887
794.09	56.962
794.40	69.149
794.70	62.617
795.01	42.105
795.32	54.545
795.62	61.607
795.93	55.670
796.23	56.044
796.54	55.789
796.85	42.466
797.15	44.444
797.46	64.384
797.76	57.746
798.07	62.500
798.37	58.824
798.68	54.286
798.99	61.429
799.29	56.579
799.60	58.333
799.90	52.778
800.21	51.563
800.51	55.556
800.82	65.574
801.12	47.368
801.43	40.845
801.73	54.237
802.04	60.656
802.34	61.818
802.65	51.923
802.95	68.519
803.26	50.000
803.56	48.077
803.87	47.368
804.17	66.129
804.48	53.846
804.78	94.872
805.09	76.744
805.39	53.125
805.70	22.642
806.00	78.947
806.30	54.054
806.61	45.588
806.91	41.975
807.22	56.000
807.52	59.701
807.83	40.323
808.13	57.143
808.43	54.545
808.74	37.879
809.04	52.830
809.35	43.836
809.65	70.175
809.95	44.118
810.26	47.059
810.56	26.000
810.86	44.898
811.17	65.714
811.47	55.769
811.77	61.290
812.08	7.895
812.38	26.190
812.69	47.826
812.99	45.161
813.29	45.238
813.59	74.074
813.90	40.426
814.20	44.186
814.50	45.833
814.81	50.000
815.11	53.659
815.41	73.333
815.72	77.143
816.02	36.111
816.32	97.436
816.62	45.946
816.93	17.647
817.23	50.000
817.53	52.941
817.84	35.294
818.14	34.375
818.44	55.172
818.74	12.903
819.04	40.741
819.35	60.000
819.65	40.000
819.95	70.000
820.25	48.000
820.56	26.316
820.86	37.500
821.16	27.660
821.46	37.931
821.76	46.154
822.07	32.500
822.37	32.558
822.67	40.000
822.97	16.216
823.27	48.649
823.57	20.000
823.88	27.027
824.18	-38.095
824.48	23.077
824.78	-30.769
825.08	73.913
825.38	62.500
825.69	58.333
825.99	0.000
826.29	0.000
826.59	35.294
826.89	64.000
827.19	22.857
827.49	36.842
827.79	3.125
828.09	10.000
828.39	47.826
828.70	-20.690
829.00	55.172
829.30	63.889
829.60	71.875
829.90	94.444
830.20	15.385
830.50	-9.524
830.80	21.429
831.10	46.154
831.40	33.333
831.70	23.529
832.00	4.167
832.30	36.842
832.60	31.250
832.90	0.000
833.20	-52.941
833.50	-13.333
833.80	40.000
834.10	-15.000
834.40	45.833
834.70	77.778
835.00	57.692
835.30	12.500
835.60	13.793
835.90	-27.778
836.20	-9.091
836.50	0.000
836.80	28.571
837.10	45.714
837.40	29.412
837.70	9.091
838.00	50.000
838.30	62.500
838.60	0.000
838.90	55.000
839.19	4.348
839.49	34.783
839.79	-27.778
840.09	8.696
840.39	-18.182
840.69	0.000
840.99	5.263
841.29	-12.500
841.59	14.286
841.88	22.222
842.18	37.500
842.48	-17.647
842.78	20.690
843.08	78.571
843.38	38.462
843.68	-44.444
843.97	-7.692
844.27	63.636
844.57	-180.000
844.87	32.000
845.17	-260.000
845.47	-21.429
845.76	22.222
846.06	0.000
846.36	-75.000
846.66	-20.000
846.96	73.684
847.25	-20.833
847.55	-8.333
847.85	6.667
848.15	-30.000
848.44	84.615
848.74	5.263
849.04	300.000
849.34	122.222
849.63	26.316
849.93	0.000
850.23	-50.000
850.53	76.190
850.82	-12.000
851.12	-5.263
851.42	-50.000
851.71	0.000
852.01	41.667
852.31	0.000
852.61	-40.000
852.90	-23.810
853.20	16.667
853.50	-38.889
853.79	-10.526
854.09	0.000
854.39	14.286
854.68	0.000
854.98	-116.667
855.28	41.379
855.57	31.250
855.87	-25.000
856.17	-20.000
856.46	3.448
856.76	0.000
857.05	-58.824
857.35	-38.462
857.65	-90.909
857.94	44.444
858.24	-14.286
858.53	-21.429
858.83	25.000
859.13	11.111
859.42	28.571
859.72	-75.000
860.01	0.000
860.31	12.500
860.60	-320.000
860.90	-155.556
861.20	-12.500
861.49	-100.000
861.79	-5.882
862.08	-600.000
862.38	-141.667
862.67	-15.385
862.97	-29.412
863.26	40.000
863.56	-58.824
863.85	566.667
864.15	-20.000
864.44	-53.846
864.74	60.000
865.03	-187.500
865.33	-200.000
865.62	-11.765
865.92	-400.000
866.21	-28.571
866.51	-100.000
866.80	-400.000
867.10	-33.333
867.39	-11.765
867.69	4.348
867.98	14.286
868.27	-220.000
868.57	-43.750
868.86	-72.727
869.16	76.471
869.45	-166.667
869.75	-214.286
870.04	1300.000
870.33	25.000
870.63	-60.000
870.92	-55.556
871.22	-41.667
871.51	-36.364
871.80	-50.000
872.10	10.000
>>>>>End Processed Spectral Data<<<<<
