SpectraSuite Data File
++++++++++++++++++++++++++++++++++++
Date: Sat May 16 11:46:17 PDT 2015
User: schluterlab
Dark Spectrum Present: Yes
Reference Spectrum Present: Yes
Number of Sampled Component Spectra: 1
Spectrometers: USB2E3373
Integration Time (usec): 3000 (USB2E3373)
Spectra Averaged: 3 (USB2E3373)
Boxcar Smoothing: 0 (USB2E3373)
Correct for Electrical Dark: No (USB2E3373)
Strobe/Lamp Enabled: No (USB2E3373)
Correct for Detector Non-linearity: No (USB2E3373)
Correct for Stray Light: No (USB2E3373)
Number of Pixels in Processed Spectrum: 2048
>>>>>Begin Processed Spectral Data<<<<<
178.53	0.000
178.91	140.000
179.29	566.667
179.67	-800.000
180.04	-53.846
180.42	1300.000
180.80	100.000
181.18	700.000
181.56	-150.000
181.94	1400.000
182.31	350.000
182.69	-53.846
183.07	-433.333
183.45	1500.000
183.83	433.333
184.20	-100.000
184.58	-162.500
184.96	-250.000
185.34	118.750
185.72	-475.000
186.09	100.000
186.47	-225.000
186.85	-312.500
187.23	-87.500
187.61	-225.000
187.98	-325.000
188.36	-75.000
188.74	-125.000
189.12	1900.000
189.49	285.714
189.87	-58.333
190.25	625.000
190.63	-35.714
191.00	-211.111
191.38	320.000
191.76	-20.000
192.14	480.000
192.51	-240.000
192.89	-366.667
193.27	0.000
193.65	-177.778
194.02	-242.857
194.40	433.333
194.78	-50.000
195.15	-1600.000
195.53	-190.909
195.91	-400.000
196.29	300.000
196.66	-800.000
197.04	2700.000
197.42	-225.000
197.79	13.333
198.17	-366.667
198.55	-600.000
198.92	-1200.000
199.30	225.000
199.68	-450.000
200.05	-111.111
200.43	-211.111
200.81	-1600.000
201.18	-91.667
201.56	271.429
201.94	-73.333
202.31	-9.091
202.69	50.000
203.07	-70.000
203.44	766.667
203.82	-266.667
204.19	-350.000
204.57	-375.000
204.95	-1200.000
205.32	12.500
205.70	1300.000
206.08	-1700.000
206.45	-50.000
206.83	-450.000
207.20	-100.000
207.58	-666.667
207.96	-300.000
208.33	12.500
208.71	-166.667
209.08	220.000
209.46	-314.286
209.84	600.000
210.21	0.000
210.59	35.000
210.96	1200.000
211.34	-316.667
211.71	-66.667
212.09	300.000
212.46	300.000
212.84	-2000.000
213.22	766.667
213.59	108.333
213.97	-44.444
214.34	100.000
214.72	-110.000
215.09	-400.000
215.47	-200.000
215.84	-70.000
216.22	-150.000
216.59	13.333
216.97	-700.000
217.34	900.000
217.72	-28.571
218.09	-333.333
218.47	-271.429
218.84	257.143
219.22	-57.143
219.59	0.000
219.97	71.429
220.34	300.000
220.72	275.000
221.09	-123.077
221.47	0.000
221.84	233.333
222.22	-700.000
222.59	300.000
222.97	-237.500
223.34	-900.000
223.72	-400.000
224.09	-107.143
224.46	-525.000
224.84	-50.000
225.21	-185.714
225.59	-100.000
225.96	-100.000
226.34	-100.000
226.71	-177.778
227.08	-35.000
227.46	1600.000
227.83	-128.571
228.21	-325.000
228.58	350.000
228.95	25.000
229.33	-1900.000
229.70	-220.000
230.08	-450.000
230.45	-25.000
230.82	-150.000
231.20	-300.000
231.57	-500.000
231.95	1900.000
232.32	-4.762
232.69	-66.667
233.07	-214.286
233.44	-1200.000
233.81	-73.333
234.19	-222.222
234.56	-43.750
234.93	-15.625
235.31	-271.429
235.68	-121.429
236.05	-58.824
236.43	-36.364
236.80	-6.452
237.17	-79.167
237.55	-33.333
237.92	-113.636
238.29	-37.143
238.67	-8.824
239.04	-13.889
239.41	-58.065
239.79	-64.103
240.16	-42.857
240.53	-30.909
240.91	-10.256
241.28	-12.727
241.65	0.000
242.02	0.000
242.40	-19.672
242.77	-12.121
243.14	-30.508
243.51	-21.429
243.89	-13.924
244.26	-14.607
244.63	0.000
245.00	-8.421
245.38	-12.712
245.75	-0.885
246.12	-1.600
246.49	-7.874
246.87	-3.252
247.24	-16.102
247.61	-7.627
247.98	0.000
248.36	-9.790
248.73	-4.430
249.10	-13.376
249.47	-3.509
249.84	-6.818
250.22	-11.310
250.59	-5.085
250.96	-1.047
251.33	3.318
251.70	-3.846
252.08	-3.791
252.45	-7.583
252.82	-5.714
253.19	-5.532
253.56	-2.823
253.94	-4.641
254.31	-1.717
254.68	-4.065
255.05	-9.274
255.42	-5.556
255.79	-3.226
256.16	-3.137
256.54	-3.309
256.91	-1.894
257.28	-4.762
257.65	-6.028
258.02	-0.314
258.39	-2.676
258.76	-6.757
259.14	-2.778
259.51	0.656
259.88	0.305
260.25	-1.553
260.62	-3.859
260.99	-6.528
261.36	1.829
261.73	-1.734
262.10	0.556
262.47	-1.140
262.85	1.429
263.22	-1.719
263.59	-4.308
263.96	-2.319
264.33	-4.065
264.70	-0.276
265.07	-3.297
265.44	-3.359
265.81	-1.034
266.18	-3.797
266.55	-2.941
266.92	-0.756
267.29	-1.937
267.66	-2.222
268.03	-1.449
268.40	-2.347
268.77	-1.205
269.14	-3.712
269.51	0.000
269.88	-3.440
270.25	-3.963
270.62	-0.229
270.99	-1.126
271.36	-1.632
271.73	-2.242
272.10	-2.975
272.47	-2.000
272.84	0.889
273.21	0.459
273.58	2.418
273.95	-0.439
274.32	-0.679
274.69	1.751
275.06	0.613
275.43	-2.455
275.80	-0.204
276.17	-0.837
276.54	1.426
276.91	0.412
277.28	-0.203
277.65	-0.413
278.02	-0.626
278.39	1.572
278.76	-2.789
279.13	-1.976
279.50	-2.982
279.87	-2.114
280.23	0.202
280.60	-2.982
280.97	-3.107
281.34	-0.580
281.71	-1.346
282.08	0.202
282.45	-3.666
282.82	-0.775
283.19	-1.818
283.56	0.000
283.92	-1.060
284.29	-1.673
284.66	0.000
285.03	0.178
285.40	0.185
285.77	-0.175
286.14	-0.903
286.51	-3.375
286.87	-1.633
287.24	0.512
287.61	-1.157
287.98	-1.386
288.35	-1.983
288.72	-1.528
289.08	-1.186
289.45	-1.347
289.82	-3.114
290.19	0.000
290.56	-1.818
290.93	0.000
291.29	-0.162
291.66	-3.221
292.03	0.628
292.40	0.602
292.77	-2.950
293.13	-0.976
293.50	0.743
293.87	0.000
294.24	-1.056
294.60	-3.333
294.97	1.214
295.34	0.000
295.71	-1.935
296.08	-2.611
296.44	-1.144
296.81	-0.427
297.18	-1.268
297.55	-0.282
297.91	0.837
298.28	-0.959
298.65	0.139
299.02	0.936
299.38	0.000
299.75	1.495
300.12	1.026
300.48	0.000
300.85	-1.704
301.22	0.647
301.59	-1.691
301.95	1.637
302.32	-0.913
302.69	1.224
303.05	-0.977
303.42	-0.250
303.79	-1.435
304.15	-0.118
304.52	0.117
304.89	0.000
305.25	-0.855
305.62	0.000
305.99	0.353
306.35	0.555
306.72	-1.139
307.09	1.816
307.45	0.454
307.82	-0.447
308.19	-0.112
308.55	0.327
308.92	-0.537
309.29	-0.108
309.65	0.212
310.02	0.108
310.38	0.432
310.75	1.332
311.12	1.136
311.48	0.731
311.85	0.000
312.22	2.060
312.58	2.136
312.95	0.204
313.31	1.798
313.68	3.417
314.05	2.868
314.41	0.503
314.78	0.300
315.14	2.468
315.51	2.128
315.87	3.291
316.24	2.430
316.61	3.935
316.97	3.284
317.34	2.794
317.70	3.340
318.07	3.731
318.43	2.060
318.80	4.789
319.16	2.627
319.53	2.726
319.89	4.139
320.26	3.725
320.62	2.885
320.99	4.975
321.35	3.153
321.72	4.299
322.08	6.034
322.45	3.663
322.81	6.436
323.18	6.052
323.54	6.839
323.91	7.507
324.27	6.369
324.64	7.313
325.00	8.028
325.37	8.688
325.73	7.787
326.10	6.909
326.46	9.194
326.83	8.511
327.19	9.091
327.56	10.136
327.92	10.195
328.29	10.909
328.65	8.000
329.01	11.837
329.38	11.418
329.74	12.912
330.11	11.151
330.47	11.262
330.84	12.741
331.20	11.643
331.56	12.124
331.93	13.588
332.29	11.872
332.66	12.467
333.02	13.756
333.38	14.068
333.75	13.268
334.11	13.422
334.48	14.563
334.84	14.436
335.20	13.918
335.57	14.260
335.93	15.667
336.29	14.260
336.66	13.128
337.02	14.505
337.38	14.884
337.75	13.608
338.11	14.132
338.47	14.057
338.84	14.882
339.20	13.884
339.56	15.152
339.93	14.991
340.29	13.818
340.65	14.161
341.02	15.683
341.38	14.827
341.74	14.987
342.11	14.078
342.47	15.021
342.83	14.610
343.20	13.664
343.56	13.714
343.92	14.775
344.28	15.055
344.65	14.026
345.01	14.958
345.37	16.113
345.73	14.321
346.10	14.146
346.46	13.647
346.82	15.477
347.19	14.790
347.55	14.687
347.91	14.803
348.27	14.320
348.63	15.751
349.00	15.752
349.36	13.973
349.72	15.924
350.08	15.477
350.45	14.815
350.81	14.729
351.17	15.836
351.53	14.240
351.89	15.521
352.26	15.581
352.62	17.435
352.98	16.139
353.34	15.508
353.70	13.822
354.07	15.185
354.43	16.522
354.79	15.927
355.15	16.294
355.51	15.391
355.87	15.652
356.24	15.250
356.60	16.277
356.96	17.013
357.32	15.281
357.68	15.785
358.04	15.858
358.40	15.855
358.77	15.224
359.13	16.450
359.49	16.327
359.85	16.616
360.21	16.819
360.57	16.867
360.93	16.296
361.29	17.115
361.66	16.082
362.02	15.607
362.38	17.608
362.74	16.557
363.10	16.284
363.46	18.162
363.82	17.128
364.18	17.438
364.54	17.441
364.90	17.400
365.26	17.546
365.62	17.676
365.98	17.781
366.35	17.606
366.71	16.984
367.07	18.137
367.43	19.355
367.79	17.732
368.15	17.568
368.51	18.182
368.87	18.681
369.23	18.596
369.59	17.847
369.95	18.464
370.31	19.550
370.67	18.077
371.03	18.222
371.39	18.600
371.75	18.884
372.11	19.154
372.47	19.450
372.83	19.054
373.19	18.786
373.55	19.845
373.91	20.484
374.27	18.960
374.63	19.669
374.99	20.306
375.35	19.381
375.71	21.202
376.07	20.260
376.42	21.457
376.78	20.980
377.14	20.814
377.50	21.148
377.86	20.806
378.22	21.231
378.58	21.186
378.94	21.085
379.30	21.511
379.66	22.283
380.02	21.925
380.38	21.208
380.74	21.278
381.09	22.320
381.45	22.315
381.81	22.323
382.17	22.619
382.53	21.884
382.89	23.206
383.25	23.600
383.61	22.877
383.97	24.005
384.32	24.155
384.68	24.244
385.04	22.403
385.40	23.737
385.76	24.207
386.12	23.860
386.48	25.000
386.83	24.049
387.19	25.344
387.55	24.591
387.91	24.541
388.27	24.065
388.62	25.180
388.98	24.652
389.34	25.214
389.70	24.543
390.06	25.047
390.42	26.731
390.77	24.606
391.13	26.273
391.49	26.638
391.85	25.686
392.20	25.425
392.56	25.535
392.92	25.841
393.28	26.636
393.64	26.879
393.99	26.892
394.35	27.129
394.71	26.065
395.07	27.181
395.42	25.924
395.78	26.901
396.14	27.352
396.50	26.361
396.85	27.267
397.21	28.311
397.57	26.930
397.92	27.225
398.28	27.278
398.64	27.424
399.00	28.202
399.35	26.945
399.71	27.468
400.07	29.134
400.42	27.981
400.78	28.265
401.14	27.725
401.49	27.948
401.85	28.615
402.21	28.427
402.57	28.701
402.92	28.068
403.28	27.757
403.63	27.202
403.99	27.719
404.35	27.415
404.70	28.496
405.06	28.085
405.42	27.429
405.77	28.281
406.13	28.507
406.49	28.400
406.84	28.974
407.20	29.564
407.55	28.119
407.91	27.461
408.27	28.493
408.62	29.164
408.98	29.412
409.34	28.580
409.69	29.112
410.05	28.138
410.40	28.633
410.76	28.809
411.11	30.237
411.47	28.389
411.83	29.095
412.18	28.713
412.54	28.859
412.89	29.040
413.25	28.749
413.60	28.372
413.96	28.466
414.31	30.031
414.67	28.762
415.03	29.043
415.38	29.733
415.74	30.155
416.09	28.964
416.45	29.167
416.80	29.714
417.16	29.236
417.51	29.219
417.87	30.615
418.22	29.583
418.58	29.461
418.93	29.614
419.29	30.113
419.64	29.209
420.00	30.620
420.35	30.574
420.71	29.772
421.06	29.112
421.42	30.211
421.77	31.156
422.12	31.170
422.48	30.358
422.83	30.239
423.19	30.122
423.54	30.836
423.90	30.075
424.25	29.468
424.61	31.423
424.96	30.837
425.31	31.414
425.67	30.716
426.02	30.178
426.38	30.732
426.73	30.158
427.09	31.801
427.44	31.420
427.79	30.233
428.15	31.837
428.50	31.085
428.85	31.175
429.21	30.603
429.56	31.510
429.92	31.162
430.27	31.555
430.62	31.296
430.98	30.842
431.33	31.857
431.68	32.332
432.04	32.792
432.39	32.479
432.74	32.554
433.10	32.752
433.45	31.318
433.80	32.363
434.16	32.563
434.51	32.767
434.86	31.869
435.22	33.797
435.57	32.436
435.92	32.532
436.28	33.531
436.63	32.448
436.98	32.131
437.34	32.841
437.69	32.147
438.04	32.218
438.39	33.213
438.75	33.062
439.10	32.871
439.45	32.830
439.81	33.494
440.16	33.504
440.51	34.294
440.86	33.256
441.22	32.504
441.57	33.263
441.92	33.402
442.27	33.442
442.63	34.067
442.98	32.901
443.33	33.773
443.68	33.090
444.03	34.185
444.39	33.676
444.74	34.141
445.09	33.607
445.44	34.046
445.79	33.911
446.15	34.392
446.50	33.152
446.85	33.710
447.20	33.912
447.55	33.757
447.91	34.194
448.26	33.743
448.61	33.616
448.96	34.958
449.31	34.104
449.66	34.459
450.02	34.515
450.37	34.667
450.72	35.367
451.07	35.324
451.42	34.077
451.77	34.829
452.12	34.386
452.47	34.194
452.83	35.236
453.18	34.092
453.53	34.142
453.88	35.167
454.23	34.704
454.58	35.550
454.93	34.698
455.28	36.138
455.63	34.767
455.98	34.518
456.34	34.562
456.69	35.084
457.04	34.112
457.39	34.510
457.74	34.613
458.09	34.571
458.44	35.277
458.79	34.473
459.14	35.083
459.49	34.458
459.84	34.963
460.19	34.845
460.54	34.422
460.89	34.529
461.24	35.094
461.59	34.291
461.94	35.901
462.29	35.795
462.64	34.783
462.99	35.408
463.34	35.246
463.69	36.323
464.04	34.271
464.39	34.767
464.74	35.284
465.09	34.756
465.44	34.856
465.79	35.984
466.14	36.018
466.49	35.348
466.84	34.934
467.19	36.097
467.54	34.810
467.89	35.265
468.24	35.333
468.59	36.227
468.94	36.013
469.29	35.088
469.64	35.108
469.99	35.652
470.34	36.607
470.68	36.628
471.03	36.063
471.38	35.625
471.73	36.503
472.08	36.278
472.43	36.293
472.78	35.400
473.13	35.189
473.48	36.184
473.83	36.663
474.17	36.624
474.52	37.532
474.87	35.490
475.22	36.106
475.57	36.389
475.92	36.285
476.27	36.171
476.61	35.944
476.96	36.221
477.31	36.706
477.66	36.193
478.01	37.007
478.36	36.145
478.70	36.466
479.05	36.344
479.40	36.839
479.75	36.646
480.10	36.210
480.45	35.203
480.79	36.772
481.14	36.979
481.49	37.028
481.84	36.570
482.19	36.775
482.53	36.316
482.88	36.308
483.23	36.620
483.58	37.465
483.92	36.359
484.27	35.933
484.62	36.415
484.97	35.230
485.31	34.752
485.66	34.457
486.01	34.577
486.36	35.688
486.70	36.730
487.05	36.001
487.40	36.405
487.75	36.075
488.09	35.207
488.44	36.130
488.79	36.364
489.13	36.059
489.48	35.604
489.83	35.939
490.17	36.526
490.52	36.730
490.87	36.628
491.22	37.272
491.56	37.222
491.91	36.927
492.26	36.840
492.60	36.965
492.95	37.030
493.30	37.208
493.64	35.543
493.99	36.855
494.34	37.143
494.68	37.453
495.03	36.663
495.37	38.446
495.72	37.672
496.07	36.790
496.41	37.332
496.76	37.032
497.11	37.447
497.45	37.548
497.80	36.818
498.14	35.953
498.49	37.368
498.84	37.379
499.18	37.671
499.53	37.263
499.87	36.245
500.22	37.108
500.56	39.070
500.91	37.685
501.26	36.778
501.60	37.506
501.95	38.406
502.29	37.034
502.64	37.482
502.98	36.847
503.33	36.983
503.67	36.782
504.02	37.228
504.36	37.059
504.71	37.538
505.06	37.194
505.40	37.924
505.75	38.465
506.09	37.917
506.44	37.945
506.78	38.836
507.13	37.745
507.47	38.289
507.82	38.100
508.16	38.083
508.51	38.125
508.85	38.509
509.19	38.200
509.54	38.795
509.88	39.043
510.23	38.627
510.57	39.524
510.92	39.527
511.26	38.331
511.61	39.201
511.95	38.093
512.30	38.098
512.64	38.342
512.98	39.384
513.33	38.990
513.67	39.419
514.02	38.982
514.36	39.114
514.70	39.049
515.05	39.909
515.39	39.908
515.74	40.721
516.08	40.000
516.42	40.000
516.77	40.728
517.11	39.474
517.46	40.670
517.80	40.072
518.14	39.312
518.49	39.809
518.83	40.950
519.17	40.497
519.52	38.982
519.86	41.219
520.20	40.770
520.55	40.369
520.89	41.703
521.23	41.514
521.58	42.633
521.92	42.052
522.26	41.651
522.61	41.952
522.95	41.034
523.29	40.125
523.64	40.600
523.98	41.566
524.32	40.855
524.66	40.248
525.01	40.655
525.35	42.139
525.69	40.859
526.04	40.992
526.38	43.539
526.72	41.124
527.06	42.708
527.41	43.168
527.75	40.858
528.09	42.158
528.43	42.164
528.78	41.834
529.12	42.958
529.46	42.526
529.80	41.898
530.15	42.498
530.49	41.591
530.83	43.418
531.17	42.020
531.51	41.259
531.86	42.857
532.20	42.105
532.54	41.644
532.88	42.095
533.22	42.045
533.57	42.363
533.91	40.637
534.25	41.483
534.59	41.162
534.93	41.319
535.27	42.731
535.62	42.775
535.96	41.758
536.30	42.997
536.64	42.165
536.98	43.220
537.32	42.225
537.66	40.869
538.01	42.474
538.35	42.230
538.69	41.110
539.03	42.722
539.37	42.382
539.71	42.495
540.05	42.015
540.39	42.175
540.73	42.571
541.07	42.145
541.42	41.594
541.76	41.528
542.10	43.349
542.44	42.905
542.78	40.434
543.12	44.060
543.46	41.096
543.80	41.070
544.14	41.572
544.48	42.323
544.82	41.949
545.16	40.979
545.50	41.925
545.84	42.003
546.18	42.510
546.52	41.323
546.86	42.165
547.20	42.616
547.54	40.909
547.88	41.009
548.22	40.957
548.56	42.351
548.90	42.520
549.24	41.976
549.58	42.131
549.92	42.049
550.26	41.257
550.60	41.750
550.94	43.650
551.28	43.115
551.62	41.581
551.96	41.896
552.30	42.230
552.64	42.928
552.98	43.097
553.32	43.001
553.66	43.908
554.00	42.289
554.34	41.949
554.68	43.202
555.02	42.764
555.36	40.834
555.69	42.622
556.03	43.018
556.37	42.105
556.71	42.591
557.05	42.129
557.39	42.836
557.73	43.180
558.07	42.954
558.41	42.857
558.75	41.901
559.08	42.257
559.42	44.104
559.76	43.328
560.10	41.834
560.44	41.835
560.78	42.450
561.12	42.305
561.45	42.192
561.79	41.394
562.13	42.917
562.47	41.667
562.81	41.938
563.15	42.967
563.48	42.156
563.82	41.920
564.16	40.771
564.50	42.473
564.84	42.328
565.17	42.905
565.51	42.699
565.85	42.055
566.19	43.149
566.52	42.205
566.86	42.035
567.20	42.191
567.54	42.646
567.88	41.262
568.21	41.946
568.55	41.835
568.89	40.258
569.23	40.722
569.56	39.891
569.90	40.716
570.24	40.023
570.57	38.946
570.91	39.136
571.25	39.397
571.59	39.307
571.92	38.958
572.26	38.886
572.60	38.691
572.93	37.999
573.27	38.171
573.61	38.285
573.95	38.717
574.28	37.960
574.62	38.612
574.96	37.911
575.29	38.618
575.63	38.731
575.97	38.403
576.30	38.394
576.64	38.851
576.98	38.243
577.31	37.831
577.65	38.761
577.98	38.468
578.32	37.824
578.66	38.249
578.99	38.285
579.33	38.006
579.67	38.321
580.00	38.269
580.34	38.576
580.67	38.882
581.01	38.026
581.35	38.102
581.68	37.653
582.02	38.278
582.35	38.263
582.69	39.042
583.02	39.434
583.36	38.751
583.70	38.402
584.03	38.928
584.37	38.484
584.70	38.541
585.04	38.532
585.37	37.589
585.71	38.026
586.04	37.994
586.38	37.610
586.72	38.726
587.05	38.658
587.39	38.514
587.72	38.306
588.06	39.037
588.39	38.992
588.73	38.986
589.06	39.322
589.40	39.780
589.73	38.492
590.07	38.747
590.40	38.229
590.73	38.665
591.07	39.672
591.40	40.338
591.74	39.618
592.07	40.676
592.41	39.660
592.74	39.354
593.08	39.444
593.41	38.914
593.75	38.312
594.08	38.821
594.41	38.669
594.75	39.071
595.08	39.248
595.42	38.981
595.75	38.956
596.09	40.163
596.42	39.403
596.75	39.370
597.09	39.893
597.42	39.197
597.75	39.371
598.09	39.223
598.42	38.710
598.76	38.621
599.09	38.674
599.42	38.985
599.76	38.241
600.09	39.351
600.42	40.106
600.76	39.021
601.09	37.942
601.42	39.177
601.76	39.174
602.09	39.591
602.42	38.683
602.76	38.679
603.09	39.758
603.42	39.001
603.76	39.091
604.09	39.527
604.42	38.759
604.76	38.770
605.09	38.788
605.42	39.938
605.75	38.853
606.09	39.518
606.42	38.793
606.75	39.416
607.09	39.921
607.42	39.745
607.75	39.249
608.08	39.946
608.42	40.397
608.75	39.486
609.08	39.454
609.41	39.611
609.75	39.347
610.08	39.951
610.41	39.807
610.74	40.039
611.07	40.872
611.41	39.939
611.74	39.434
612.07	40.977
612.40	39.765
612.73	40.442
613.07	39.516
613.40	40.887
613.73	40.381
614.06	38.550
614.39	40.755
614.72	39.777
615.06	38.152
615.39	39.609
615.72	39.815
616.05	38.763
616.38	41.149
616.71	40.601
617.05	39.686
617.38	40.372
617.71	39.496
618.04	40.497
618.37	40.943
618.70	41.265
619.03	40.487
619.36	41.015
619.69	40.416
620.03	39.601
620.36	41.069
620.69	40.847
621.02	40.944
621.35	40.161
621.68	42.213
622.01	43.608
622.34	41.304
622.67	40.938
623.00	40.245
623.33	40.970
623.66	39.882
623.99	39.323
624.32	39.658
624.65	40.912
624.99	41.001
625.32	40.269
625.65	42.347
625.98	41.628
626.31	42.170
626.64	40.502
626.97	42.038
627.30	40.936
627.63	40.242
627.96	40.731
628.29	41.636
628.62	41.070
628.95	41.831
629.28	41.447
629.61	41.119
629.94	42.344
630.26	41.849
630.59	43.417
630.92	42.142
631.25	42.540
631.58	42.857
631.91	41.596
632.24	43.889
632.57	43.000
632.90	42.759
633.23	44.276
633.56	40.702
633.89	44.575
634.22	43.802
634.55	42.548
634.88	41.475
635.20	41.573
635.53	42.621
635.86	42.065
636.19	41.270
636.52	41.816
636.85	42.238
637.18	41.500
637.51	42.627
637.83	42.743
638.16	42.105
638.49	42.069
638.82	42.986
639.15	43.061
639.48	40.337
639.81	43.430
640.13	42.432
640.46	43.447
640.79	44.678
641.12	42.595
641.45	42.898
641.77	43.114
642.10	43.051
642.43	42.640
642.76	45.039
643.09	42.381
643.41	44.127
643.74	45.946
644.07	45.086
644.40	45.705
644.73	43.564
645.05	42.571
645.38	43.212
645.71	45.533
646.04	45.714
646.36	42.932
646.69	42.734
647.02	44.404
647.35	47.473
647.67	43.066
648.00	43.761
648.33	44.351
648.66	42.581
648.98	43.631
649.31	41.846
649.64	42.812
649.96	41.287
650.29	43.443
650.62	43.890
650.94	43.339
651.27	44.021
651.60	42.215
651.92	45.034
652.25	41.402
652.58	43.782
652.90	42.055
653.23	44.194
653.56	42.809
653.88	41.803
654.21	44.799
654.54	45.349
654.86	41.413
655.19	42.120
655.52	38.700
655.84	36.999
656.17	39.976
656.49	54.418
656.82	56.069
657.15	42.272
657.47	31.478
657.80	24.154
658.13	27.683
658.45	37.458
658.78	36.299
659.10	36.413
659.43	36.558
659.75	36.743
660.08	36.615
660.41	36.523
660.73	39.164
661.06	42.029
661.38	43.929
661.71	41.874
662.03	42.944
662.36	46.055
662.68	45.992
663.01	44.798
663.33	44.671
663.66	44.206
663.98	43.750
664.31	45.414
664.63	46.018
664.96	44.035
665.28	43.601
665.61	44.397
665.93	42.593
666.26	41.498
666.58	44.491
666.91	44.766
667.23	43.860
667.56	43.991
667.88	45.928
668.21	45.392
668.53	45.561
668.86	44.573
669.18	46.347
669.50	42.757
669.83	45.742
670.15	44.170
670.48	44.159
670.80	42.141
671.13	43.792
671.45	40.991
671.77	42.612
672.10	43.393
672.42	41.882
672.75	42.000
673.07	39.820
673.39	39.344
673.72	43.110
674.04	45.223
674.37	43.299
674.69	45.082
675.01	41.064
675.34	41.215
675.66	45.356
675.98	40.088
676.31	45.475
676.63	44.598
676.95	42.035
677.28	42.691
677.60	44.796
677.92	44.934
678.25	42.013
678.57	43.827
678.89	37.945
679.22	44.864
679.54	41.617
679.86	41.400
680.18	41.065
680.51	40.223
680.83	41.714
681.15	42.582
681.48	44.422
681.80	40.121
682.12	43.058
682.44	41.650
682.77	41.991
683.09	43.606
683.41	44.027
683.73	40.411
684.06	40.645
684.38	40.586
684.70	42.387
685.02	41.535
685.34	41.520
685.67	40.909
685.99	39.319
686.31	40.215
686.63	42.021
686.96	39.372
687.28	42.197
687.60	40.430
687.92	39.300
688.24	39.961
688.56	42.285
688.89	39.744
689.21	41.138
689.53	44.368
689.85	43.430
690.17	39.238
690.49	42.725
690.82	41.928
691.14	40.094
691.46	39.468
691.78	41.850
692.10	42.161
692.42	41.333
692.74	37.983
693.06	41.798
693.39	42.058
693.71	41.084
694.03	39.525
694.35	37.246
694.67	40.898
694.99	38.363
695.31	45.153
695.63	41.327
695.95	38.710
696.27	44.888
696.59	41.176
696.91	44.382
697.23	42.969
697.56	37.740
697.88	39.865
698.20	41.970
698.52	36.996
698.84	41.505
699.16	36.190
699.48	40.750
699.80	38.596
700.12	42.317
700.44	39.665
700.76	40.525
701.08	42.442
701.40	37.764
701.72	40.741
702.04	44.872
702.36	43.373
702.68	42.814
703.00	44.058
703.32	36.676
703.64	44.706
703.96	41.860
704.28	39.941
704.60	39.873
704.91	39.048
705.23	42.395
705.55	38.851
705.87	43.345
706.19	37.500
706.51	43.750
706.83	37.705
707.15	44.268
707.47	42.700
707.79	40.464
708.11	39.186
708.43	40.648
708.74	40.519
709.06	37.883
709.38	36.207
709.70	38.438
710.02	41.718
710.34	38.284
710.66	35.556
710.98	38.486
711.29	37.742
711.61	39.297
711.93	40.984
712.25	44.850
712.57	36.585
712.89	38.129
713.20	40.550
713.52	39.925
713.84	35.943
714.16	42.295
714.48	36.190
714.80	38.154
715.11	37.752
715.43	37.349
715.75	37.383
716.07	39.344
716.39	38.796
716.70	40.070
717.02	40.370
717.34	38.550
717.66	43.568
717.97	41.393
718.29	38.655
718.61	40.873
718.93	36.559
719.24	37.500
719.56	36.981
719.88	38.909
720.20	37.828
720.51	42.481
720.83	32.932
721.15	42.213
721.46	43.922
721.78	37.165
722.10	40.400
722.42	37.603
722.73	37.450
723.05	41.767
723.37	36.078
723.68	36.842
724.00	44.309
724.32	42.798
724.63	34.440
724.95	42.975
725.27	37.719
725.58	36.638
725.90	33.730
726.22	39.114
726.53	38.403
726.85	38.039
727.16	38.722
727.48	40.385
727.80	35.656
728.11	36.975
728.43	38.017
728.74	37.891
729.06	42.045
729.38	37.354
729.69	35.827
730.01	42.520
730.32	38.247
730.64	36.264
730.96	41.418
731.27	40.000
731.59	37.942
731.90	34.663
732.22	35.583
732.53	43.046
732.85	36.242
733.16	38.768
733.48	37.631
733.80	33.096
734.11	38.276
734.43	41.837
734.74	37.982
735.06	35.737
735.37	32.722
735.69	32.258
736.00	37.710
736.32	35.430
736.63	32.759
736.95	36.232
737.26	39.735
737.58	36.331
737.89	37.993
738.21	34.586
738.52	37.308
738.83	40.234
739.15	36.752
739.46	37.097
739.78	31.818
740.09	38.811
740.41	36.014
740.72	39.781
741.04	39.286
741.35	33.766
741.66	37.037
741.98	34.286
742.29	38.967
742.61	35.294
742.92	35.981
743.23	36.842
743.55	38.288
743.86	42.667
744.18	38.571
744.49	40.394
744.80	36.548
745.12	32.990
745.43	33.668
745.74	38.350
746.06	34.634
746.37	39.648
746.68	35.323
747.00	39.267
747.31	28.846
747.62	33.180
747.94	34.498
748.25	35.349
748.56	34.286
748.88	28.804
749.19	38.498
749.50	37.745
749.82	37.333
750.13	37.885
750.44	36.179
750.75	39.200
751.07	36.786
751.38	36.900
751.69	33.588
752.01	36.154
752.32	32.296
752.63	31.538
752.94	33.730
753.26	39.130
753.57	37.500
753.88	37.069
754.19	31.950
754.51	35.547
754.82	34.783
755.13	35.802
755.44	36.364
755.75	38.683
756.07	31.727
756.38	36.719
756.69	38.628
757.00	33.449
757.31	38.926
757.63	38.941
757.94	34.393
758.25	35.756
758.56	37.466
758.87	34.091
759.18	33.000
759.50	34.164
759.81	33.577
760.12	33.784
760.43	37.540
760.74	37.500
761.05	38.202
761.36	33.533
761.67	31.361
761.99	35.484
762.30	38.043
762.61	36.981
762.92	33.184
763.23	36.019
763.54	35.556
763.85	36.287
764.16	33.469
764.47	36.864
764.78	33.333
765.10	33.453
765.41	31.613
765.72	36.478
766.03	26.855
766.34	34.962
766.65	33.603
766.96	32.000
767.27	32.812
767.58	40.116
767.89	34.194
768.20	38.037
768.51	33.880
768.82	30.270
769.13	34.000
769.44	32.018
769.75	36.364
770.06	34.862
770.37	37.089
770.68	31.771
770.99	37.129
771.30	29.612
771.61	28.704
771.92	32.900
772.23	32.710
772.54	29.787
772.85	31.953
773.16	28.049
773.47	43.373
773.78	35.165
774.09	25.333
774.39	40.123
774.70	24.161
775.01	28.261
775.32	32.836
775.63	28.926
775.94	28.571
776.25	27.143
776.56	41.803
776.87	30.973
777.18	35.398
777.48	29.091
777.79	27.826
778.10	22.936
778.41	26.271
778.72	33.058
779.03	37.313
779.34	39.850
779.65	33.333
779.95	36.232
780.26	29.252
780.57	25.000
780.88	29.630
781.19	24.242
781.50	24.000
781.80	31.373
782.11	24.359
782.42	29.518
782.73	21.898
783.04	23.649
783.34	32.576
783.65	28.682
783.96	34.959
784.27	29.060
784.57	26.829
784.88	33.333
785.19	29.825
785.50	12.371
785.81	30.476
786.11	28.431
786.42	20.000
786.73	30.631
787.04	39.604
787.34	24.762
787.65	26.667
787.96	29.412
788.26	25.225
788.57	30.645
788.88	29.687
789.19	27.350
789.49	28.571
789.80	29.915
790.11	30.973
790.41	30.303
790.72	30.189
791.03	23.611
791.33	30.263
791.64	34.409
791.95	28.000
792.25	21.429
792.56	17.073
792.87	40.816
793.17	10.526
793.48	2.703
793.79	15.493
794.09	35.443
794.40	26.596
794.70	26.168
795.01	23.684
795.32	16.364
795.62	36.607
795.93	30.928
796.23	17.582
796.54	37.895
796.85	17.808
797.15	16.667
797.46	21.918
797.76	21.127
798.07	18.750
798.37	25.000
798.68	37.143
798.99	27.143
799.29	19.737
799.60	25.000
799.90	-4.167
800.21	31.250
800.51	26.984
800.82	26.230
801.12	14.035
801.43	7.042
801.73	16.949
802.04	26.230
802.34	23.636
802.65	11.538
802.95	16.667
803.26	2.500
803.56	26.923
803.87	7.895
804.17	11.290
804.48	13.846
804.78	15.385
805.09	6.977
805.39	18.750
805.70	-3.774
806.00	36.842
806.30	35.135
806.61	11.765
806.91	20.988
807.22	24.000
807.52	23.881
807.83	16.129
808.13	-1.587
808.43	16.364
808.74	33.333
809.04	-3.774
809.35	13.699
809.65	36.842
809.95	27.941
810.26	39.216
810.56	10.000
810.86	12.245
811.17	11.429
811.47	9.615
811.77	9.677
812.08	-36.842
812.38	16.667
812.69	0.000
812.99	25.806
813.29	14.286
813.59	-22.222
813.90	6.383
814.20	6.977
814.50	10.417
814.81	15.000
815.11	0.000
815.41	10.000
815.72	31.429
816.02	-2.778
816.32	12.821
816.62	5.405
816.93	-8.824
817.23	-2.174
817.53	11.765
817.84	11.765
818.14	-21.875
818.44	3.448
818.74	0.000
819.04	-22.222
819.35	6.667
819.65	-44.000
819.95	-3.333
820.25	-16.000
820.56	26.316
820.86	-20.000
821.16	12.766
821.46	32.759
821.76	-23.077
822.07	-7.500
822.37	20.930
822.67	-43.333
822.97	-10.811
823.27	16.216
823.57	20.000
823.88	10.811
824.18	-19.048
824.48	-3.846
824.78	-107.692
825.08	-8.696
825.38	-16.667
825.69	12.500
825.99	5.000
826.29	0.000
826.59	-35.294
826.89	-4.000
827.19	0.000
827.49	-2.632
827.79	-18.750
828.09	-33.333
828.39	17.391
828.70	-3.448
829.00	-10.345
829.30	2.778
829.60	46.875
829.90	-50.000
830.20	11.538
830.50	-61.905
830.80	-14.286
831.10	15.385
831.40	-33.333
831.70	-8.824
832.00	8.333
832.30	-26.316
832.60	-12.500
832.90	-108.333
833.20	-52.941
833.50	-100.000
833.80	0.000
834.10	-20.000
834.40	-41.667
834.70	-38.889
835.00	-3.846
835.30	-41.667
835.60	6.897
835.90	-55.556
836.20	-209.091
836.50	-150.000
836.80	14.286
837.10	51.429
837.40	17.647
837.70	-145.455
838.00	4.167
838.30	-31.250
838.60	-38.095
838.90	-40.000
839.19	13.043
839.49	8.696
839.79	-38.889
840.09	-13.043
840.39	-27.273
840.69	-93.750
840.99	-15.789
841.29	-37.500
841.59	-128.571
841.88	-55.556
842.18	-4.167
842.48	-52.941
842.78	10.345
843.08	-92.857
843.38	53.846
843.68	-155.556
843.97	-23.077
844.27	-118.182
844.57	-360.000
844.87	4.000
845.17	0.000
845.47	-50.000
845.76	-188.889
846.06	0.000
846.36	-300.000
846.66	-110.000
846.96	-26.316
847.25	-41.667
847.55	-83.333
847.85	-6.667
848.15	-110.000
848.44	3.846
848.74	-21.053
849.04	300.000
849.34	-55.556
849.63	-10.526
849.93	0.000
850.23	-70.000
850.53	-23.810
850.82	4.000
851.12	-26.316
851.42	-700.000
851.71	-35.714
852.01	-125.000
852.31	-11.765
852.61	-73.333
852.90	-23.810
853.20	-150.000
853.50	-16.667
853.79	-21.053
854.09	-53.333
854.39	-7.143
854.68	-43.478
854.98	-175.000
855.28	-13.793
855.57	-43.750
855.87	-10.000
856.17	-86.667
856.46	-41.379
856.76	-26.667
857.05	-94.118
857.35	-200.000
857.65	-181.818
857.94	-22.222
858.24	-85.714
858.53	-150.000
858.83	-75.000
859.13	-266.667
859.42	9.524
859.72	-162.500
860.01	-633.333
860.31	0.000
860.60	-380.000
860.90	-66.667
861.20	12.500
861.49	-242.857
861.79	-23.529
862.08	-950.000
862.38	-100.000
862.67	-76.923
862.97	47.059
863.26	-40.000
863.56	-47.059
863.85	533.333
864.15	-90.000
864.44	-46.154
864.74	-5.000
865.03	-212.500
865.33	-200.000
865.62	-11.765
865.92	-350.000
866.21	-142.857
866.51	-100.000
866.80	-700.000
867.10	-33.333
867.39	-17.647
867.69	39.130
867.98	-114.286
868.27	-460.000
868.57	-43.750
868.86	-81.818
869.16	-5.882
869.45	-250.000
869.75	-285.714
870.04	1600.000
870.33	-25.000
870.63	0.000
870.92	-122.222
871.22	-25.000
871.51	-163.636
871.80	41.667
872.10	-130.000
>>>>>End Processed Spectral Data<<<<<
