SpectraSuite Data File
++++++++++++++++++++++++++++++++++++
Date: Sat May 16 11:14:58 PDT 2015
User: schluterlab
Dark Spectrum Present: Yes
Reference Spectrum Present: Yes
Number of Sampled Component Spectra: 1
Spectrometers: USB2E3373
Integration Time (usec): 3000 (USB2E3373)
Spectra Averaged: 3 (USB2E3373)
Boxcar Smoothing: 0 (USB2E3373)
Correct for Electrical Dark: No (USB2E3373)
Strobe/Lamp Enabled: No (USB2E3373)
Correct for Detector Non-linearity: No (USB2E3373)
Correct for Stray Light: No (USB2E3373)
Number of Pixels in Processed Spectrum: 2048
>>>>>Begin Processed Spectral Data<<<<<
178.53	0.000
178.91	20.000
179.29	333.333
179.67	-600.000
180.04	-46.154
180.42	900.000
180.80	200.000
181.18	450.000
181.56	-112.500
181.94	700.000
182.31	250.000
182.69	84.615
183.07	-100.000
183.45	1000.000
183.83	266.667
184.20	-128.571
184.58	62.500
184.96	-200.000
185.34	106.250
185.72	-300.000
186.09	150.000
186.47	-150.000
186.85	-75.000
187.23	100.000
187.61	125.000
187.98	-262.500
188.36	-62.500
188.74	-75.000
189.12	1300.000
189.49	185.714
189.87	-25.000
190.25	300.000
190.63	-142.857
191.00	-111.111
191.38	240.000
191.76	13.333
192.14	360.000
192.51	-120.000
192.89	-66.667
193.27	0.000
193.65	33.333
194.02	-114.286
194.40	533.333
194.78	-110.000
195.15	-300.000
195.53	-54.545
195.91	-333.333
196.29	80.000
196.66	-500.000
197.04	1300.000
197.42	0.000
197.79	106.667
198.17	-200.000
198.55	-100.000
198.92	-900.000
199.30	162.500
199.68	-100.000
200.05	-111.111
200.43	-155.556
200.81	-1800.000
201.18	-91.667
201.56	185.714
201.94	26.667
202.31	40.909
202.69	80.000
203.07	-10.000
203.44	500.000
203.82	-283.333
204.19	-75.000
204.57	-150.000
204.95	-100.000
205.32	-25.000
205.70	-100.000
206.08	-1800.000
206.45	-11.111
206.83	-600.000
207.20	250.000
207.58	-866.667
207.96	-166.667
208.33	0.000
208.71	100.000
209.08	150.000
209.46	-114.286
209.84	800.000
210.21	0.000
210.59	45.000
210.96	500.000
211.34	-283.333
211.71	-166.667
212.09	50.000
212.46	450.000
212.84	-1900.000
213.22	133.333
213.59	108.333
213.97	-44.444
214.34	120.000
214.72	-80.000
215.09	-533.333
215.47	-66.667
215.84	-30.000
216.22	-50.000
216.59	66.667
216.97	-400.000
217.34	300.000
217.72	-14.286
218.09	-166.667
218.47	-300.000
218.84	-0.000
219.22	-57.143
219.59	0.000
219.97	185.714
220.34	475.000
220.72	125.000
221.09	15.385
221.47	0.000
221.84	100.000
222.22	-450.000
222.59	200.000
222.97	-200.000
223.34	50.000
223.72	-166.667
224.09	-28.571
224.46	0.000
224.84	-28.571
225.21	-114.286
225.59	-18.182
225.96	12.500
226.34	114.286
226.71	-44.444
227.08	55.000
227.46	700.000
227.83	-71.429
228.21	-175.000
228.58	-50.000
228.95	-6.250
229.33	-800.000
229.70	-100.000
230.08	-800.000
230.45	-16.667
230.82	-83.333
231.20	100.000
231.57	-600.000
231.95	1400.000
232.32	33.333
232.69	-55.556
233.07	-200.000
233.44	-650.000
233.81	-40.000
234.19	-11.111
234.56	6.250
234.93	18.750
235.31	-257.143
235.68	-135.714
236.05	11.765
236.43	-50.000
236.80	-29.032
237.17	-37.500
237.55	47.619
237.92	-31.818
238.29	-2.857
238.67	-29.412
239.04	19.444
239.41	-25.806
239.79	-28.205
240.16	-19.048
240.53	3.636
240.91	-12.821
241.28	16.364
241.65	16.923
242.02	-1.639
242.40	-4.918
242.77	6.061
243.14	-10.169
243.51	-14.286
243.89	8.861
244.26	6.742
244.63	10.526
245.00	2.105
245.38	5.932
245.75	14.159
246.12	1.600
246.49	9.449
246.87	4.878
247.24	0.000
247.61	-6.780
247.98	3.521
248.36	-3.497
248.73	1.899
249.10	-2.548
249.47	7.018
249.84	5.114
250.22	-2.381
250.59	7.910
250.96	4.188
251.33	8.057
251.70	6.250
252.08	3.791
252.45	8.057
252.82	3.333
253.19	3.404
253.56	4.435
253.94	5.907
254.31	5.579
254.68	6.098
255.05	5.242
255.42	9.524
255.79	7.527
256.16	9.020
256.54	7.721
256.91	4.924
257.28	2.198
257.65	7.447
258.02	11.321
258.39	7.358
258.76	3.041
259.14	6.790
259.51	7.541
259.88	4.573
260.25	6.832
260.62	4.823
260.99	5.638
261.36	3.354
261.73	7.803
262.10	10.556
262.47	4.274
262.85	10.000
263.22	8.023
263.59	2.154
263.96	7.536
264.33	9.485
264.70	6.630
265.07	5.220
265.44	7.235
265.81	5.426
266.18	5.570
266.55	4.902
266.92	9.572
267.29	5.327
267.66	4.938
268.03	9.420
268.40	9.859
268.77	7.711
269.14	6.729
269.51	8.276
269.88	5.734
270.25	4.662
270.62	6.407
270.99	4.955
271.36	8.159
271.73	6.054
272.10	6.636
272.47	5.333
272.84	8.000
273.21	6.193
273.58	7.692
273.95	5.482
274.32	6.109
274.69	7.659
275.06	8.180
275.43	8.036
275.80	8.961
276.17	8.787
276.54	8.554
276.91	6.379
277.28	8.519
277.65	4.545
278.02	7.307
278.39	9.823
278.76	7.769
279.13	7.312
279.50	5.567
279.87	5.497
280.23	8.300
280.60	5.567
280.97	6.602
281.34	7.737
281.71	5.769
282.08	6.452
282.45	6.314
282.82	7.364
283.19	6.727
283.56	10.440
283.92	6.890
284.29	3.532
284.66	8.273
285.03	8.378
285.40	6.089
285.77	9.298
286.14	5.957
286.51	6.927
286.87	9.074
287.24	7.167
287.61	6.446
287.98	7.452
288.35	5.124
288.72	7.301
289.08	5.593
289.45	7.239
289.82	5.017
290.19	8.210
290.56	4.959
290.93	7.472
291.29	6.321
291.66	4.187
292.03	6.436
292.40	7.380
292.77	5.901
293.13	7.642
293.50	6.538
293.87	6.288
294.24	5.430
294.60	4.545
294.97	5.615
295.34	6.667
295.71	4.613
296.08	3.533
296.44	5.150
296.81	6.410
297.18	5.775
297.55	6.638
297.91	7.531
298.28	4.521
298.65	6.555
299.02	5.882
299.38	5.615
299.75	5.163
300.12	4.359
300.48	6.394
300.85	6.291
301.22	5.692
301.59	4.811
301.95	6.171
302.32	3.651
302.69	5.508
303.05	7.448
303.42	7.000
303.79	6.220
304.15	5.095
304.52	5.951
304.89	6.612
305.25	3.175
305.62	5.288
305.99	7.185
306.35	5.549
306.72	4.897
307.09	7.037
307.45	6.697
307.82	5.251
308.19	5.257
308.55	5.011
308.92	3.545
309.29	4.649
309.65	3.924
310.02	5.292
310.38	4.865
310.75	6.455
311.12	5.062
311.48	5.219
311.85	5.767
312.22	5.973
312.58	6.002
312.95	5.607
313.31	5.994
313.68	5.930
314.05	6.330
314.41	5.332
314.78	5.495
315.14	5.429
315.51	5.572
315.87	6.873
316.24	6.220
316.61	6.142
316.97	6.567
317.34	6.069
317.70	5.659
318.07	6.903
318.43	6.554
318.80	7.512
319.16	5.253
319.53	6.861
319.89	6.867
320.26	7.353
320.62	5.385
320.99	8.557
321.35	6.404
321.72	6.448
322.08	9.594
322.45	7.624
322.81	8.261
323.18	8.646
323.54	9.057
323.91	9.824
324.27	10.646
324.64	9.324
325.00	10.558
325.37	10.226
325.73	11.636
326.10	9.832
326.46	10.946
326.83	10.979
327.19	11.676
327.56	12.436
327.92	11.470
328.29	13.074
328.65	11.364
329.01	13.604
329.38	12.310
329.74	13.828
330.11	13.327
330.47	14.351
330.84	14.665
331.20	13.628
331.56	14.859
331.93	14.565
332.29	15.434
332.66	13.784
333.02	14.661
333.38	15.502
333.75	16.563
334.11	15.822
334.48	15.181
334.84	16.360
335.20	15.957
335.57	15.975
335.93	18.532
336.29	16.475
336.66	16.564
337.02	18.108
337.38	16.488
337.75	16.330
338.11	17.352
338.47	17.082
338.84	15.880
339.20	16.432
339.56	17.647
339.93	16.931
340.29	16.563
340.65	17.045
341.02	17.791
341.38	17.523
341.74	18.290
342.11	17.150
342.47	17.425
342.83	17.632
343.20	16.994
343.56	17.551
343.92	17.613
344.28	19.092
344.65	17.657
345.01	17.815
345.37	19.020
345.73	17.676
346.10	17.334
346.46	17.384
346.82	18.605
347.19	18.324
347.55	17.496
347.91	17.559
348.27	18.298
348.63	19.063
349.00	19.173
349.36	17.174
349.72	20.064
350.08	17.883
350.45	19.307
350.81	18.631
351.17	18.650
351.53	18.616
351.89	18.593
352.26	18.450
352.62	19.048
352.98	18.750
353.34	19.265
353.70	19.614
354.07	19.355
354.43	19.605
354.79	18.304
355.15	19.409
355.51	18.750
355.87	19.605
356.24	18.666
356.60	19.581
356.96	19.938
357.32	18.448
357.68	19.770
358.04	19.707
358.40	19.412
358.77	18.856
359.13	19.204
359.49	19.955
359.85	19.741
360.21	19.711
360.57	20.105
360.93	21.259
361.29	20.105
361.66	20.198
362.02	20.488
362.38	20.983
362.74	20.293
363.10	19.584
363.46	21.795
363.82	20.335
364.18	20.767
364.54	20.658
364.90	20.755
365.26	20.043
365.62	20.884
365.98	21.550
366.35	20.070
366.71	20.296
367.07	19.972
367.43	22.100
367.79	21.031
368.15	20.839
368.51	20.979
368.87	21.909
369.23	21.404
369.59	21.389
369.95	22.551
370.31	22.925
370.67	21.258
371.03	21.939
371.39	20.792
371.75	21.459
372.11	22.669
372.47	21.981
372.83	21.558
373.19	20.929
373.55	22.730
373.91	22.404
374.27	22.040
374.63	22.360
374.99	23.227
375.35	22.476
375.71	23.565
376.07	22.930
376.42	21.325
376.78	21.961
377.14	21.966
377.50	22.566
377.86	22.172
378.22	22.739
378.58	22.051
378.94	22.072
379.30	21.938
379.66	22.647
380.02	22.698
380.38	22.719
380.74	22.274
381.09	23.023
381.45	22.733
381.81	22.807
382.17	22.368
382.53	22.310
382.89	22.428
383.25	24.022
383.61	23.231
383.97	23.209
384.32	23.404
384.68	23.519
385.04	23.249
385.40	23.068
385.76	23.598
386.12	23.360
386.48	23.886
386.83	23.129
387.19	23.551
387.55	23.683
387.91	23.355
388.27	23.221
388.62	23.498
388.98	23.985
389.34	23.072
389.70	23.143
390.06	23.493
390.42	24.359
390.77	23.785
391.13	24.224
391.49	23.955
391.85	23.566
392.20	22.391
392.56	23.458
392.92	23.788
393.28	24.397
393.64	23.873
393.99	24.185
394.35	23.601
394.71	23.471
395.07	23.792
395.42	22.765
395.78	23.444
396.14	24.299
396.50	23.853
396.85	23.196
397.21	23.694
397.57	23.951
397.92	24.005
398.28	23.944
398.64	24.331
399.00	24.719
399.35	23.675
399.71	24.274
400.07	24.478
400.42	23.540
400.78	23.912
401.14	22.934
401.49	23.349
401.85	24.588
402.21	23.957
402.57	23.483
402.92	24.229
403.28	23.468
403.63	22.888
403.99	24.487
404.35	23.611
404.70	23.347
405.06	24.221
405.42	22.817
405.77	21.889
406.13	22.998
406.49	23.966
406.84	23.635
407.20	24.087
407.55	23.053
407.91	22.733
408.27	23.346
408.62	23.031
408.98	23.408
409.34	21.999
409.69	23.693
410.05	23.226
410.40	23.728
410.76	23.770
411.11	23.379
411.47	22.954
411.83	23.411
412.18	23.267
412.54	22.575
412.89	23.876
413.25	23.790
413.60	22.539
413.96	22.366
414.31	23.486
414.67	23.683
415.03	24.321
415.38	24.203
415.74	24.291
416.09	23.210
416.45	21.825
416.80	23.732
417.16	23.256
417.51	24.163
417.87	23.042
418.22	23.198
418.58	24.390
418.93	23.728
419.29	23.902
419.64	23.492
420.00	24.605
420.35	24.187
420.71	23.830
421.06	24.556
421.42	23.478
421.77	24.065
422.12	25.294
422.48	24.479
422.83	25.285
423.19	24.944
423.54	25.648
423.90	25.101
424.25	25.339
424.61	26.176
424.96	26.565
425.31	25.880
425.67	25.559
426.02	25.301
426.38	25.711
426.73	25.774
427.09	25.184
427.44	25.455
427.79	25.814
428.15	25.554
428.50	26.628
428.85	26.859
429.21	26.231
429.56	26.198
429.92	26.353
430.27	26.720
430.62	27.116
430.98	26.555
431.33	27.108
431.68	26.863
432.04	27.364
432.39	27.863
432.74	27.938
433.10	27.631
433.45	27.864
433.80	28.108
434.16	26.652
434.51	28.219
434.86	28.237
435.22	28.508
435.57	28.091
435.92	28.488
436.28	28.368
436.63	27.134
436.98	28.637
437.34	28.352
437.69	28.296
438.04	29.212
438.39	28.761
438.75	28.696
439.10	29.484
439.45	28.485
439.81	29.518
440.16	29.245
440.51	30.647
440.86	29.786
441.22	28.966
441.57	28.632
441.92	29.616
442.27	28.842
442.63	29.131
442.98	30.079
443.33	29.325
443.68	30.693
444.03	29.617
444.39	29.369
444.74	30.617
445.09	30.921
445.44	30.276
445.79	30.597
446.15	30.120
446.50	30.484
446.85	30.272
447.20	29.213
447.55	30.387
447.91	30.882
448.26	30.782
448.61	29.428
448.96	31.429
449.31	30.158
449.66	31.826
450.02	30.748
450.37	30.667
450.72	30.847
451.07	31.427
451.42	30.669
451.77	30.281
452.12	31.526
452.47	32.242
452.83	30.984
453.18	30.614
453.53	30.970
453.88	32.177
454.23	30.290
454.58	32.691
454.93	32.368
455.28	31.740
455.63	32.985
455.98	33.012
456.34	31.639
456.69	32.083
457.04	32.022
457.39	31.579
457.74	31.601
458.09	32.657
458.44	32.737
458.79	31.558
459.14	31.717
459.49	32.623
459.84	32.490
460.19	32.220
460.54	31.579
460.89	32.848
461.24	32.726
461.59	32.591
461.94	33.418
462.29	33.830
462.64	33.860
462.99	32.999
463.34	32.816
463.69	32.506
464.04	31.693
464.39	32.975
464.74	31.442
465.09	33.614
465.44	33.221
465.79	31.923
466.14	33.544
466.49	32.815
466.84	33.253
467.19	32.606
467.54	32.025
467.89	34.710
468.24	32.601
468.59	34.229
468.94	33.633
469.29	33.463
469.64	32.951
469.99	34.234
470.34	32.331
470.68	35.102
471.03	34.618
471.38	33.542
471.73	33.986
472.08	34.605
472.43	33.719
472.78	35.067
473.13	32.803
473.48	33.504
473.83	33.809
474.17	33.503
474.52	34.974
474.87	33.800
475.22	33.215
475.57	32.944
475.92	33.585
476.27	33.429
476.61	33.634
476.96	33.706
477.31	34.769
477.66	34.698
478.01	34.684
478.36	34.206
478.70	34.971
479.05	34.289
479.40	34.974
479.75	34.709
480.10	34.474
480.45	33.511
480.79	35.291
481.14	35.324
481.49	34.269
481.84	34.212
482.19	34.673
482.53	34.943
482.88	33.650
483.23	34.601
483.58	34.875
483.92	34.687
484.27	34.382
484.62	35.119
484.97	33.983
485.31	32.448
485.66	31.729
486.01	32.206
486.36	32.599
486.70	33.648
487.05	33.641
487.40	33.707
487.75	33.549
488.09	33.694
488.44	34.980
488.79	33.994
489.13	34.500
489.48	35.644
489.83	35.022
490.17	34.131
490.52	35.960
490.87	34.411
491.22	35.170
491.56	34.907
491.91	35.305
492.26	35.613
492.60	34.396
492.95	35.031
493.30	35.541
493.64	35.214
493.99	34.751
494.34	35.381
494.68	35.815
495.03	35.086
495.37	35.447
495.72	36.395
496.07	36.462
496.41	35.757
496.76	35.023
497.11	35.516
497.45	36.207
497.80	35.068
498.14	35.904
498.49	36.615
498.84	35.534
499.18	36.355
499.53	35.558
499.87	35.039
500.22	35.833
500.56	36.468
500.91	36.355
501.26	36.681
501.60	35.869
501.95	37.150
502.29	34.955
502.64	36.869
502.98	35.937
503.33	35.949
503.67	35.345
504.02	35.876
504.36	35.833
504.71	36.018
505.06	35.447
505.40	37.625
505.75	36.941
506.09	37.614
506.44	36.441
506.78	36.126
507.13	36.869
507.47	37.246
507.82	37.119
508.16	37.254
508.51	36.682
508.85	36.905
509.19	37.206
509.54	36.998
509.88	37.394
510.23	38.627
510.57	38.677
510.92	37.111
511.26	38.065
511.61	36.987
511.95	38.416
512.30	38.648
512.64	38.453
512.98	38.449
513.33	37.727
513.67	37.242
514.02	38.087
514.36	38.781
514.70	36.955
515.05	39.108
515.39	38.178
515.74	39.442
516.08	38.847
516.42	39.037
516.77	38.821
517.11	39.130
517.46	39.354
517.80	39.230
518.14	38.345
518.49	39.629
518.83	39.169
519.17	38.780
519.52	38.288
519.86	40.084
520.20	38.692
520.55	38.462
520.89	39.825
521.23	38.950
521.58	38.495
521.92	39.835
522.26	38.921
522.61	39.987
522.95	39.438
523.29	39.937
523.64	38.913
523.98	39.274
524.32	39.221
524.66	39.006
525.01	39.435
525.35	40.722
525.69	40.729
526.04	41.319
526.38	40.611
526.72	38.825
527.06	40.039
527.41	40.330
527.75	39.340
528.09	40.702
528.43	40.197
528.78	39.698
529.12	41.997
529.46	39.884
529.80	40.284
530.15	39.472
530.49	39.974
530.83	40.799
531.17	40.471
531.51	40.054
531.86	39.895
532.20	39.406
532.54	40.374
532.88	39.328
533.22	40.174
533.57	40.274
533.91	37.266
534.25	39.346
534.59	39.288
534.93	39.017
535.27	39.836
535.62	39.258
535.96	39.754
536.30	38.874
536.64	39.376
536.98	40.607
537.32	40.152
537.66	38.968
538.01	39.381
538.35	41.081
538.69	38.837
539.03	40.284
539.37	39.321
539.71	38.559
540.05	39.205
540.39	39.543
540.73	40.636
541.07	39.891
541.42	39.028
541.76	38.007
542.10	39.973
542.44	40.306
542.78	39.349
543.12	41.276
543.46	38.630
543.80	38.261
544.14	39.691
544.48	39.698
544.82	39.716
545.16	39.235
545.50	39.233
545.84	38.734
546.18	41.540
546.52	40.469
546.86	41.097
547.20	40.225
547.54	39.463
547.88	39.283
548.22	38.204
548.56	39.813
548.90	39.825
549.24	39.664
549.58	40.438
549.92	39.647
550.26	39.595
550.60	39.829
550.94	41.387
551.28	40.707
551.62	40.768
551.96	39.580
552.30	39.233
552.64	40.676
552.98	39.243
553.32	40.404
553.66	40.880
554.00	39.517
554.34	40.433
554.68	39.181
555.02	41.679
555.36	40.906
555.69	39.040
556.03	40.351
556.37	40.683
556.71	41.231
557.05	40.133
557.39	40.460
557.73	40.700
558.07	40.995
558.41	40.688
558.75	39.848
559.08	39.844
559.42	40.505
559.76	41.028
560.10	41.909
560.44	40.896
560.78	41.127
561.12	39.614
561.45	39.452
561.79	40.139
562.13	39.621
562.47	39.776
562.81	39.392
563.15	40.308
563.48	40.705
563.82	40.771
564.16	39.216
564.50	40.323
564.84	39.815
565.17	39.987
565.51	40.352
565.85	40.162
566.19	40.580
566.52	40.052
566.86	39.128
567.20	39.588
567.54	39.516
567.88	38.749
568.21	38.814
568.55	39.130
568.89	37.127
569.23	38.408
569.56	37.032
569.90	37.333
570.24	37.279
570.57	36.450
570.91	36.892
571.25	35.311
571.59	35.748
571.92	35.655
572.26	35.710
572.60	35.712
572.93	35.646
573.27	35.854
573.61	34.786
573.95	35.498
574.28	34.723
574.62	35.536
574.96	34.920
575.29	34.604
575.63	35.466
575.97	35.194
576.30	35.270
576.64	34.621
576.98	34.859
577.31	34.684
577.65	35.160
577.98	35.022
578.32	34.372
578.66	35.132
578.99	35.300
579.33	35.695
579.67	34.821
580.00	35.317
580.34	35.519
580.67	35.597
581.01	34.255
581.35	34.757
581.68	34.218
582.02	34.680
582.35	34.297
582.69	34.957
583.02	35.698
583.36	35.033
583.70	34.972
584.03	36.342
584.37	35.886
584.70	35.474
585.04	35.089
585.37	34.940
585.71	35.486
586.04	35.056
586.38	34.830
586.72	35.344
587.05	35.741
587.39	35.373
587.72	35.360
588.06	35.763
588.39	35.830
588.73	35.727
589.06	36.413
589.40	37.479
589.73	36.579
590.07	36.344
590.40	36.199
590.73	37.385
591.07	37.705
591.40	38.345
591.74	37.924
592.07	38.649
592.41	37.410
592.74	36.395
593.08	36.629
593.41	35.526
593.75	35.378
594.08	36.520
594.41	37.079
594.75	37.146
595.08	37.143
595.42	36.488
595.75	36.420
596.09	36.593
596.42	37.561
596.75	36.912
597.09	37.711
597.42	36.840
597.75	36.980
598.09	37.370
598.42	37.384
598.76	36.586
599.09	36.622
599.42	36.524
599.76	36.127
600.09	37.405
600.42	36.840
600.76	37.024
601.09	35.815
601.42	35.892
601.76	36.955
602.09	37.710
602.42	37.037
602.76	37.266
603.09	37.097
603.42	37.510
603.76	36.976
604.09	37.845
604.42	37.677
604.76	37.331
605.09	37.703
605.42	37.899
605.75	37.991
606.09	37.028
606.42	36.741
606.75	37.012
607.09	37.980
607.42	37.456
607.75	36.600
608.08	38.183
608.42	37.796
608.75	37.103
609.08	37.555
609.41	38.366
609.75	37.006
610.08	37.353
610.41	37.976
610.74	37.718
611.07	38.590
611.41	37.468
611.74	38.560
612.07	38.453
612.40	38.646
612.73	37.749
613.07	37.204
613.40	38.807
613.73	38.747
614.06	38.825
614.39	39.177
614.72	37.598
615.06	38.098
615.39	38.741
615.72	37.860
616.05	38.653
616.38	38.595
616.71	38.318
617.05	38.782
617.38	38.390
617.71	37.715
618.04	39.503
618.37	39.182
618.70	39.765
619.03	39.810
619.36	40.310
619.69	40.129
620.03	39.187
620.36	39.170
620.69	39.986
621.02	40.791
621.35	40.726
621.68	39.918
622.01	41.181
622.34	42.236
622.67	40.547
623.00	41.010
623.33	40.448
623.66	39.956
623.99	39.774
624.32	40.104
624.65	38.926
624.99	41.374
625.32	39.820
625.65	40.016
625.98	39.593
626.31	40.865
626.64	41.255
626.97	42.894
627.30	41.021
627.63	40.242
627.96	41.775
628.29	42.555
628.62	39.446
628.95	42.421
629.28	42.387
629.61	40.628
629.94	43.100
630.26	42.744
630.59	44.020
630.92	41.542
631.25	43.044
631.58	43.810
631.91	43.085
632.24	42.889
632.57	44.556
632.90	44.253
633.23	44.860
633.56	43.509
633.89	42.925
634.22	41.086
634.55	44.952
634.88	44.015
635.20	43.571
635.53	43.639
635.86	43.829
636.19	44.200
636.52	42.652
636.85	43.081
637.18	41.000
637.51	44.734
637.83	44.874
638.16	43.684
638.49	44.276
638.82	42.600
639.15	44.099
639.48	42.542
639.81	45.505
640.13	44.324
640.46	46.011
640.79	44.398
641.12	46.685
641.45	43.042
641.77	44.012
642.10	45.015
642.43	46.282
642.76	46.142
643.09	46.825
643.41	46.825
643.74	46.264
644.07	46.178
644.40	44.246
644.73	45.215
645.05	45.576
645.38	47.848
645.71	48.969
646.04	46.555
646.36	45.201
646.69	45.329
647.02	48.556
647.35	47.653
647.67	48.175
648.00	44.640
648.33	47.218
648.66	42.258
648.98	45.064
649.31	43.692
649.64	44.063
649.96	45.055
650.29	45.574
650.62	47.160
650.94	44.857
651.27	45.927
651.60	45.848
651.92	46.404
652.25	42.905
652.58	43.101
652.90	45.265
653.23	41.452
653.56	45.151
653.88	43.934
654.21	43.960
654.54	46.346
654.86	44.141
655.19	43.553
655.52	40.363
655.84	34.154
656.17	36.249
656.49	49.075
656.82	51.686
657.15	39.090
657.47	29.167
657.80	22.305
658.13	26.242
658.45	36.005
658.78	36.147
659.10	35.866
659.43	36.712
659.75	37.844
660.08	38.646
660.41	39.518
660.73	41.584
661.06	45.362
661.38	47.679
661.71	46.080
662.03	45.161
662.36	47.548
662.68	47.257
663.01	46.921
663.33	48.980
663.66	47.639
663.98	48.884
664.31	46.756
664.63	48.673
664.96	49.892
665.28	46.204
665.61	44.820
665.93	49.383
666.26	47.571
666.58	45.114
666.91	47.661
667.23	44.298
667.56	47.392
667.88	47.285
668.21	46.313
668.53	46.028
668.86	49.885
669.18	49.087
669.50	46.495
669.83	47.445
670.15	45.964
670.48	47.897
670.80	45.786
671.13	46.727
671.45	45.946
671.77	46.895
672.10	43.984
672.42	45.018
672.75	45.273
673.07	41.802
673.39	44.809
673.72	45.866
674.04	44.161
674.37	43.505
674.69	45.697
675.01	45.319
675.34	45.336
675.66	45.788
675.98	45.815
676.31	48.869
676.63	46.207
676.95	46.681
677.28	45.244
677.60	49.321
677.92	44.714
678.25	45.295
678.57	45.885
678.89	41.300
679.22	46.541
679.54	42.801
679.86	45.000
680.18	45.817
680.51	42.458
680.83	43.238
681.15	45.087
681.48	47.262
681.80	42.944
682.12	46.076
682.44	42.436
682.77	43.723
683.09	44.864
683.41	45.796
683.73	43.151
684.06	44.516
684.38	43.724
684.70	44.239
685.02	46.260
685.34	44.055
685.67	42.424
685.99	41.966
686.31	45.781
686.63	41.667
686.96	42.329
687.28	38.921
687.60	40.820
687.92	40.078
688.24	41.929
688.56	43.086
688.89	44.017
689.21	44.858
689.53	41.609
689.85	45.434
690.17	41.256
690.49	41.801
690.82	45.060
691.14	44.340
691.46	43.237
691.78	43.172
692.10	46.186
692.42	42.889
692.74	44.635
693.06	45.169
693.39	43.848
693.71	43.341
694.03	43.629
694.35	43.792
694.67	43.499
694.99	40.921
695.31	45.153
695.63	42.092
695.95	43.424
696.27	42.145
696.59	44.118
696.91	46.629
697.23	44.792
697.56	45.433
697.88	42.117
698.20	41.113
698.52	38.565
698.84	45.874
699.16	40.952
699.48	42.000
699.80	42.607
700.12	44.081
700.44	46.927
700.76	41.399
701.08	46.802
701.40	40.785
701.72	42.593
702.04	47.115
702.36	46.988
702.68	43.114
703.00	45.507
703.32	42.407
703.64	48.824
703.96	43.895
704.28	45.266
704.60	44.937
704.91	38.730
705.23	42.718
705.55	46.622
705.87	50.171
706.19	41.667
706.51	41.319
706.83	46.230
707.15	43.949
707.47	45.179
707.79	42.010
708.11	39.440
708.43	43.641
708.74	41.818
709.06	43.454
709.38	41.379
709.70	43.437
710.02	44.479
710.34	38.944
710.66	40.635
710.98	41.325
711.29	41.290
711.61	40.256
711.93	42.951
712.25	44.518
712.57	43.554
712.89	48.201
713.20	42.955
713.52	40.299
713.84	47.331
714.16	44.262
714.48	42.222
714.80	39.692
715.11	39.193
715.43	42.771
715.75	43.614
716.07	38.361
716.39	42.140
716.70	41.115
717.02	48.148
717.34	45.802
717.66	46.473
717.97	42.623
718.29	43.697
718.61	46.429
718.93	43.011
719.24	39.338
719.56	40.755
719.88	40.727
720.20	43.446
720.51	48.120
720.83	37.751
721.15	46.311
721.46	40.392
721.78	42.529
722.10	45.600
722.42	41.736
722.73	39.841
723.05	38.153
723.37	44.314
723.68	41.700
724.00	45.935
724.32	44.856
724.63	39.004
724.95	47.934
725.27	40.351
725.58	41.379
725.90	43.254
726.22	45.756
726.53	39.544
726.85	36.863
727.16	38.346
727.48	36.154
727.80	37.705
728.11	40.336
728.43	42.562
728.74	40.625
729.06	41.288
729.38	37.354
729.69	40.157
730.01	42.520
730.32	43.426
730.64	39.560
730.96	38.060
731.27	38.571
731.59	42.444
731.90	37.423
732.22	38.037
732.53	36.755
732.85	40.940
733.16	39.493
733.48	43.206
733.80	39.146
734.11	41.724
734.43	39.456
734.74	39.169
735.06	36.677
735.37	36.391
735.69	33.226
736.00	36.027
736.32	41.722
736.63	32.759
736.95	38.768
737.26	36.755
737.58	39.928
737.89	41.219
738.21	36.842
738.52	41.538
738.83	41.797
739.15	36.752
739.46	43.952
739.78	35.315
740.09	37.063
740.41	38.811
740.72	39.051
741.04	31.746
741.35	35.065
741.66	47.222
741.98	40.476
742.29	41.784
742.61	45.455
742.92	43.925
743.23	37.281
743.55	39.640
743.86	44.889
744.18	42.857
744.49	43.842
744.80	47.716
745.12	46.392
745.43	45.729
745.74	37.379
746.06	38.049
746.37	37.445
746.68	43.781
747.00	37.696
747.31	37.019
747.62	38.710
747.94	41.048
748.25	42.791
748.56	45.238
748.88	35.326
749.19	39.437
749.50	45.588
749.82	40.444
750.13	46.256
750.44	39.431
750.75	42.000
751.07	38.929
751.38	36.531
751.69	37.023
752.01	36.923
752.32	36.187
752.63	37.308
752.94	38.889
753.26	43.043
753.57	45.536
753.88	35.345
754.19	36.100
754.51	35.937
754.82	39.921
755.13	38.683
755.44	40.496
755.75	40.329
756.07	35.341
756.38	35.937
756.69	42.599
757.00	35.540
757.31	39.262
757.63	38.629
757.94	35.549
758.25	37.209
758.56	37.197
758.87	36.932
759.18	37.000
759.50	40.925
759.81	33.577
760.12	33.108
760.43	38.835
760.74	35.000
761.05	36.798
761.36	37.725
761.67	32.544
761.99	35.806
762.30	36.957
762.61	38.868
762.92	35.874
763.23	42.180
763.54	36.444
763.85	42.616
764.16	40.000
764.47	36.864
764.78	35.206
765.10	34.532
765.41	32.903
765.72	36.164
766.03	34.276
766.34	39.850
766.65	30.769
766.96	38.500
767.27	36.458
767.58	43.605
767.89	45.161
768.20	36.196
768.51	39.344
768.82	36.216
769.13	35.000
769.44	37.281
769.75	34.199
770.06	37.156
770.37	30.986
770.68	36.458
770.99	35.149
771.30	40.777
771.61	37.037
771.92	35.498
772.23	35.514
772.54	38.830
772.85	34.320
773.16	43.293
773.47	36.145
773.78	43.407
774.09	34.000
774.39	37.037
774.70	40.268
775.01	34.783
775.32	35.821
775.63	33.884
775.94	42.857
776.25	40.714
776.56	41.803
776.87	46.903
777.18	43.363
777.48	30.909
777.79	41.739
778.10	29.358
778.41	35.593
778.72	31.405
779.03	35.075
779.34	42.105
779.65	37.908
779.95	41.304
780.26	30.612
780.57	30.172
780.88	43.519
781.19	31.313
781.50	22.400
781.80	37.908
782.11	35.256
782.42	34.337
782.73	30.657
783.04	38.514
783.34	35.606
783.65	27.132
783.96	31.707
784.27	31.624
784.57	26.829
784.88	39.837
785.19	44.737
785.50	20.619
785.81	35.238
786.11	22.549
786.42	31.818
786.73	37.838
787.04	38.614
787.34	31.429
787.65	45.714
787.96	39.216
788.26	49.550
788.57	43.548
788.88	39.062
789.19	36.752
789.49	36.134
789.80	32.479
790.11	41.593
790.41	24.242
790.72	35.849
791.03	29.167
791.33	26.316
791.64	37.634
791.95	38.667
792.25	35.714
792.56	36.585
792.87	34.694
793.17	32.895
793.48	21.622
793.79	28.169
794.09	39.241
794.40	42.553
794.70	27.103
795.01	22.807
795.32	36.364
795.62	33.036
795.93	38.144
796.23	25.275
796.54	49.474
796.85	20.548
797.15	25.000
797.46	41.096
797.76	33.803
798.07	35.000
798.37	33.824
798.68	44.286
798.99	28.571
799.29	36.842
799.60	28.333
799.90	26.389
800.21	35.937
800.51	41.270
800.82	34.426
801.12	38.596
801.43	15.493
801.73	18.644
802.04	50.820
802.34	45.455
802.65	34.615
802.95	31.481
803.26	15.000
803.56	19.231
803.87	10.526
804.17	46.774
804.48	20.000
804.78	35.897
805.09	20.930
805.39	37.500
805.70	5.660
806.00	40.351
806.30	27.027
806.61	33.824
806.91	25.926
807.22	40.000
807.52	41.791
807.83	30.645
808.13	6.349
808.43	23.636
808.74	37.879
809.04	35.849
809.35	26.027
809.65	42.105
809.95	42.647
810.26	23.529
810.56	28.000
810.86	12.245
811.17	62.857
811.47	23.077
811.77	12.903
812.08	-13.158
812.38	38.095
812.69	21.739
812.99	45.161
813.29	50.000
813.59	-33.333
813.90	19.149
814.20	20.930
814.50	39.583
814.81	35.000
815.11	34.146
815.41	16.667
815.72	45.714
816.02	19.444
816.32	28.205
816.62	32.432
816.93	29.412
817.23	43.478
817.53	0.000
817.84	14.706
818.14	25.000
818.44	20.690
818.74	6.452
819.04	0.000
819.35	3.333
819.65	-32.000
819.95	30.000
820.25	48.000
820.56	-13.158
820.86	20.000
821.16	14.894
821.46	22.414
821.76	35.897
822.07	7.500
822.37	46.512
822.67	33.333
822.97	0.000
823.27	32.432
823.57	52.000
823.88	5.405
824.18	-38.095
824.48	7.692
824.78	-115.385
825.08	4.348
825.38	29.167
825.69	33.333
825.99	-30.000
826.29	-16.216
826.59	8.824
826.89	32.000
827.19	-11.429
827.49	15.789
827.79	18.750
828.09	10.000
828.39	0.000
828.70	-10.345
829.00	13.793
829.30	50.000
829.60	78.125
829.90	11.111
830.20	-38.462
830.50	-28.571
830.80	10.714
831.10	25.641
831.40	-9.524
831.70	23.529
832.00	50.000
832.30	57.895
832.60	25.000
832.90	-58.333
833.20	-29.412
833.50	-53.333
833.80	20.000
834.10	25.000
834.40	54.167
834.70	50.000
835.00	0.000
835.30	-16.667
835.60	58.621
835.90	5.556
836.20	-100.000
836.50	-41.667
836.80	8.571
837.10	42.857
837.40	17.647
837.70	-36.364
838.00	16.667
838.30	31.250
838.60	66.667
838.90	60.000
839.19	13.043
839.49	30.435
839.79	11.111
840.09	-26.087
840.39	-13.636
840.69	-56.250
840.99	42.105
841.29	-56.250
841.59	-7.143
841.88	22.222
842.18	20.833
842.48	-5.882
842.78	31.034
843.08	-50.000
843.38	0.000
843.68	-88.889
843.97	-38.462
844.27	-81.818
844.57	-120.000
844.87	28.000
845.17	100.000
845.47	-42.857
845.76	-22.222
846.06	0.000
846.36	-125.000
846.66	10.000
846.96	10.526
847.25	-20.833
847.55	-16.667
847.85	-13.333
848.15	0.000
848.44	50.000
848.74	52.632
849.04	433.333
849.34	-133.333
849.63	-84.211
849.93	0.000
850.23	-20.000
850.53	9.524
850.82	8.000
851.12	5.263
851.42	-350.000
851.71	64.286
852.01	-91.667
852.31	17.647
852.61	0.000
852.90	-33.333
853.20	-16.667
853.50	88.889
853.79	-52.632
854.09	-26.667
854.39	10.714
854.68	-4.348
854.98	-233.333
855.28	10.345
855.57	12.500
855.87	-25.000
856.17	-93.333
856.46	17.241
856.76	13.333
857.05	-58.824
857.35	-61.538
857.65	-81.818
857.94	-3.704
858.24	35.714
858.53	7.143
858.83	-25.000
859.13	-155.556
859.42	9.524
859.72	-50.000
860.01	-66.667
860.31	75.000
860.60	-80.000
860.90	-122.222
861.20	25.000
861.49	-114.286
861.79	-17.647
862.08	-650.000
862.38	-125.000
862.67	0.000
862.97	35.294
863.26	45.000
863.56	0.000
863.85	100.000
864.15	-40.000
864.44	-69.231
864.74	-20.000
865.03	-175.000
865.33	-216.667
865.62	-17.647
865.92	-275.000
866.21	-7.143
866.51	-16.667
866.80	-700.000
867.10	-166.667
867.39	-41.176
867.69	95.652
867.98	57.143
868.27	-80.000
868.57	-93.750
868.86	-81.818
869.16	41.176
869.45	183.333
869.75	-157.143
870.04	900.000
870.33	41.667
870.63	-40.000
870.92	11.111
871.22	-25.000
871.51	9.091
871.80	0.000
872.10	-50.000
>>>>>End Processed Spectral Data<<<<<
