SpectraSuite Data File
++++++++++++++++++++++++++++++++++++
Date: Sat May 16 11:23:55 PDT 2015
User: schluterlab
Dark Spectrum Present: Yes
Reference Spectrum Present: Yes
Number of Sampled Component Spectra: 1
Spectrometers: USB2E3373
Integration Time (usec): 3000 (USB2E3373)
Spectra Averaged: 3 (USB2E3373)
Boxcar Smoothing: 0 (USB2E3373)
Correct for Electrical Dark: No (USB2E3373)
Strobe/Lamp Enabled: No (USB2E3373)
Correct for Detector Non-linearity: No (USB2E3373)
Correct for Stray Light: No (USB2E3373)
Number of Pixels in Processed Spectrum: 2048
>>>>>Begin Processed Spectral Data<<<<<
178.53	0.000
178.91	146.667
179.29	366.667
179.67	-200.000
180.04	-38.462
180.42	1500.000
180.80	350.000
181.18	675.000
181.56	-175.000
181.94	300.000
182.31	375.000
182.69	-7.692
183.07	-133.333
183.45	1000.000
183.83	400.000
184.20	-57.143
184.58	-225.000
184.96	-375.000
185.34	118.750
185.72	-350.000
186.09	233.333
186.47	-162.500
186.85	-137.500
187.23	-50.000
187.61	-175.000
187.98	-262.500
188.36	-25.000
188.74	-275.000
189.12	1700.000
189.49	285.714
189.87	-25.000
190.25	200.000
190.63	-107.143
191.00	-144.444
191.38	340.000
191.76	13.333
192.14	220.000
192.51	-260.000
192.89	-400.000
193.27	0.000
193.65	-122.222
194.02	-300.000
194.40	533.333
194.78	-150.000
195.15	-1400.000
195.53	-163.636
195.91	-383.333
196.29	240.000
196.66	-666.667
197.04	2300.000
197.42	-350.000
197.79	-40.000
198.17	-500.000
198.55	-700.000
198.92	-1700.000
199.30	175.000
199.68	-450.000
200.05	-88.889
200.43	-122.222
200.81	-1100.000
201.18	-141.667
201.56	157.143
201.94	-106.667
202.31	36.364
202.69	-40.000
203.07	-140.000
203.44	633.333
203.82	-450.000
204.19	-475.000
204.57	-300.000
204.95	-500.000
205.32	-18.750
205.70	1600.000
206.08	-2300.000
206.45	-44.444
206.83	-1000.000
207.20	0.000
207.58	-533.333
207.96	-300.000
208.33	-212.500
208.71	-244.444
209.08	190.000
209.46	-157.143
209.84	850.000
210.21	0.000
210.59	30.000
210.96	1300.000
211.34	-200.000
211.71	100.000
212.09	175.000
212.46	700.000
212.84	-2000.000
213.22	600.000
213.59	75.000
213.97	-11.111
214.34	230.000
214.72	-100.000
215.09	-433.333
215.47	-83.333
215.84	-160.000
216.22	-70.000
216.59	-46.667
216.97	-350.000
217.34	600.000
217.72	-157.143
218.09	-250.000
218.47	-71.429
218.84	114.286
219.22	-271.429
219.59	0.000
219.97	228.571
220.34	225.000
220.72	162.500
221.09	-115.385
221.47	0.000
221.84	266.667
222.22	-750.000
222.59	400.000
222.97	-225.000
223.34	-1000.000
223.72	-633.333
224.09	-78.571
224.46	-425.000
224.84	-50.000
225.21	-214.286
225.59	-81.818
225.96	-287.500
226.34	-142.857
226.71	-144.444
227.08	15.000
227.46	1600.000
227.83	-214.286
228.21	-200.000
228.58	250.000
228.95	-93.750
229.33	-1100.000
229.70	-180.000
230.08	-500.000
230.45	-33.333
230.82	-16.667
231.20	-600.000
231.57	-800.000
231.95	1600.000
232.32	-4.762
232.69	-188.889
233.07	-114.286
233.44	-1000.000
233.81	-66.667
234.19	-100.000
234.56	-12.500
234.93	15.625
235.31	-214.286
235.68	-21.429
236.05	-35.294
236.43	-31.818
236.80	38.710
237.17	-45.833
237.55	-38.095
237.92	-59.091
238.29	-8.571
238.67	41.176
239.04	-11.111
239.41	-9.677
239.79	-20.513
240.16	-2.381
240.53	-3.636
240.91	71.795
241.28	43.636
241.65	43.077
242.02	42.623
242.40	21.311
242.77	24.242
243.14	45.763
243.51	21.429
243.89	27.848
244.26	16.854
244.63	37.895
245.00	36.842
245.38	31.356
245.75	47.788
246.12	38.400
246.49	34.646
246.87	30.081
247.24	32.203
247.61	34.746
247.98	38.732
248.36	28.671
248.73	32.278
249.10	33.121
249.47	40.351
249.84	44.318
250.22	29.167
250.59	45.198
250.96	38.743
251.33	45.024
251.70	39.423
252.08	40.284
252.45	42.180
252.82	38.095
253.19	35.319
253.56	39.516
253.94	42.616
254.31	40.343
254.68	46.341
255.05	37.500
255.42	42.857
255.79	35.842
256.16	41.569
256.54	43.015
256.91	45.455
257.28	36.996
257.65	41.489
258.02	43.082
258.39	39.465
258.76	39.527
259.14	39.506
259.51	41.967
259.88	39.024
260.25	42.857
260.62	40.514
260.99	38.279
261.36	42.378
261.73	42.775
262.10	40.556
262.47	39.316
262.85	43.714
263.22	40.115
263.59	41.231
263.96	43.768
264.33	42.818
264.70	44.475
265.07	41.209
265.44	37.726
265.81	39.018
266.18	39.494
266.55	42.647
266.92	41.562
267.29	42.373
267.66	39.753
268.03	42.995
268.40	41.784
268.77	40.964
269.14	41.763
269.51	40.230
269.88	38.303
270.25	41.259
270.62	43.936
270.99	40.315
271.36	42.191
271.73	39.462
272.10	40.503
272.47	42.889
272.84	41.333
273.21	41.514
273.58	40.000
273.95	41.009
274.32	42.308
274.69	42.451
275.06	40.082
275.43	42.188
275.80	40.937
276.17	41.004
276.54	39.308
276.91	41.152
277.28	41.379
277.65	41.116
278.02	40.292
278.39	39.489
278.76	41.036
279.13	44.664
279.50	38.767
279.87	40.381
280.23	39.271
280.60	40.954
280.97	41.359
281.34	42.940
281.71	40.385
282.08	42.339
282.45	41.955
282.82	42.248
283.19	39.273
283.56	40.659
283.92	41.519
284.29	38.848
284.66	37.590
285.03	40.107
285.40	40.590
285.77	40.526
286.14	39.892
286.51	38.899
286.87	37.750
287.24	38.396
287.61	38.017
287.98	36.742
288.35	38.678
288.72	39.389
289.08	39.153
289.45	38.384
289.82	35.640
290.19	37.438
290.56	37.355
290.93	35.612
291.29	36.791
291.66	36.715
292.03	38.462
292.40	34.036
292.77	36.025
293.13	34.146
293.50	34.918
293.87	33.282
294.24	34.389
294.60	31.667
294.97	35.053
295.34	32.444
295.71	33.631
296.08	32.873
296.44	31.330
296.81	32.479
297.18	31.690
297.55	32.910
297.91	33.473
298.28	31.096
298.65	31.799
299.02	33.289
299.38	30.214
299.75	30.299
300.12	32.436
300.48	29.923
300.85	31.324
301.22	30.013
301.59	31.730
301.95	31.864
302.32	29.726
302.69	30.600
303.05	27.839
303.42	28.625
303.79	30.024
304.15	29.739
304.52	28.705
304.89	29.280
305.25	29.915
305.62	28.555
305.99	29.682
306.35	28.857
306.72	28.246
307.09	29.625
307.45	27.582
307.82	26.369
308.19	26.734
308.55	27.778
308.92	27.605
309.29	28.108
309.65	28.526
310.02	28.942
310.38	26.378
310.75	26.537
311.12	27.376
311.48	27.557
311.85	28.115
312.22	28.115
312.58	27.569
312.95	26.402
313.31	28.072
313.68	27.337
314.05	27.300
314.41	27.364
314.78	26.074
315.14	26.851
315.51	26.140
315.87	26.815
316.24	25.656
316.61	25.144
316.97	27.761
317.34	27.553
317.70	24.861
318.07	26.679
318.43	26.779
318.80	28.732
319.16	24.672
319.53	24.906
319.89	24.929
320.26	26.471
320.62	23.558
320.99	26.866
321.35	24.335
321.72	25.179
322.08	28.487
322.45	25.446
322.81	26.417
323.18	26.801
323.54	25.139
323.91	26.784
324.27	25.380
324.64	26.600
325.00	27.051
325.37	25.430
325.73	26.597
326.10	24.181
326.46	26.357
326.83	26.213
327.19	26.939
327.56	26.831
327.92	25.913
328.29	25.801
328.65	25.182
329.01	25.177
329.38	25.156
329.74	26.465
330.11	25.839
330.47	25.250
330.84	26.398
331.20	25.451
331.56	25.524
331.93	25.666
332.29	26.119
332.66	24.934
333.02	25.068
333.38	25.806
333.75	24.933
334.11	24.622
334.48	25.508
334.84	25.284
335.20	25.266
335.57	25.903
335.93	25.515
336.29	23.649
336.66	25.110
337.02	25.586
337.38	23.529
337.75	24.320
338.11	25.134
338.47	25.089
338.84	24.319
339.20	23.814
339.56	24.153
339.93	23.898
340.29	23.029
340.65	24.038
341.02	23.693
341.38	23.673
341.74	23.963
342.11	24.061
342.47	23.777
342.83	23.762
343.20	23.484
343.56	23.918
343.92	24.124
344.28	24.390
344.65	23.845
345.01	22.857
345.37	24.086
345.73	22.831
346.10	21.750
346.46	23.152
346.82	22.775
347.19	23.583
347.55	23.596
347.91	23.228
348.27	21.957
348.63	23.586
349.00	22.593
349.36	21.936
349.72	23.567
350.08	22.775
350.45	22.853
350.81	23.328
351.17	21.865
351.53	22.196
351.89	24.091
352.26	23.488
352.62	23.810
352.98	23.418
353.34	23.102
353.70	22.394
354.07	22.738
354.43	22.767
354.79	22.742
355.15	23.642
355.51	22.500
355.87	23.083
356.24	21.843
356.60	23.449
356.96	22.864
357.32	22.724
357.68	21.839
358.04	22.248
358.40	22.506
358.77	21.638
359.13	22.647
359.49	22.222
359.85	21.418
360.21	22.831
360.57	22.139
360.93	22.815
361.29	22.870
361.66	21.189
362.02	22.855
362.38	22.524
362.74	22.344
363.10	21.664
363.46	22.578
363.82	22.595
364.18	21.852
364.54	22.873
364.90	21.943
365.26	21.541
365.62	21.739
365.98	22.831
366.35	21.620
366.71	22.128
367.07	22.159
367.43	23.404
367.79	22.680
368.15	21.693
368.51	23.217
368.87	22.871
369.23	22.246
369.59	21.806
369.95	22.058
370.31	21.800
370.67	20.680
371.03	22.012
371.39	20.721
371.75	22.175
372.11	22.525
372.47	21.692
372.83	22.531
373.19	21.929
373.55	21.464
373.91	21.693
374.27	22.040
374.63	21.739
374.99	22.740
375.35	21.131
375.71	22.012
376.07	21.355
376.42	20.927
376.78	22.549
377.14	22.237
377.50	21.470
377.86	21.391
378.22	21.168
378.58	21.927
378.94	21.702
379.30	21.999
379.66	21.008
380.02	21.747
380.38	20.544
380.74	21.395
381.09	21.383
381.45	21.480
381.81	21.537
382.17	21.554
382.53	21.033
382.89	21.830
383.25	21.854
383.61	20.814
383.97	21.372
384.32	21.840
384.68	21.826
385.04	20.713
385.40	20.816
385.76	21.341
386.12	21.174
386.48	21.906
386.83	22.025
387.19	21.279
387.55	21.805
387.91	21.636
388.27	20.326
388.62	20.974
388.98	20.594
389.34	22.338
389.70	21.072
390.06	20.883
390.42	20.833
390.77	20.820
391.13	20.932
391.49	21.522
391.85	21.820
392.20	19.964
392.56	20.464
392.92	21.392
393.28	21.527
393.64	21.828
393.99	21.169
394.35	22.019
394.71	19.951
395.07	22.097
395.42	20.977
395.78	21.119
396.14	21.682
396.50	20.917
396.85	21.345
397.21	21.446
397.57	20.973
397.92	21.136
398.28	21.111
398.64	21.535
399.00	21.966
399.35	20.744
399.71	21.370
400.07	21.851
400.42	21.776
400.78	20.274
401.14	20.958
401.49	21.226
401.85	20.988
402.21	21.216
402.57	21.238
402.92	22.341
403.28	21.140
403.63	20.551
403.99	20.945
404.35	20.894
404.70	21.006
405.06	21.569
405.42	19.680
405.77	20.249
406.13	20.727
406.49	21.809
406.84	21.296
407.20	21.673
407.55	21.596
407.91	20.013
408.27	20.527
408.62	20.746
408.98	21.649
409.34	20.353
409.69	20.164
410.05	20.619
410.40	20.478
410.76	20.688
411.11	21.135
411.47	21.164
411.83	21.394
412.18	20.297
412.54	20.134
412.89	19.806
413.25	20.071
413.60	19.927
413.96	20.702
414.31	20.550
414.67	20.825
415.03	21.087
415.38	20.885
415.74	19.265
416.09	20.780
416.45	19.246
416.80	20.611
417.16	20.731
417.51	20.683
417.87	20.841
418.22	20.164
418.58	20.411
418.93	19.804
419.29	19.887
419.64	20.038
420.00	19.806
420.35	19.515
420.71	20.048
421.06	20.828
421.42	20.082
421.77	20.212
422.12	20.705
422.48	20.470
422.83	21.298
423.19	19.488
423.54	20.634
423.90	19.722
424.25	20.984
424.61	20.929
424.96	21.182
425.31	20.626
425.67	20.287
426.02	19.851
426.38	21.355
426.73	19.638
427.09	20.343
427.44	20.398
427.79	20.058
428.15	19.868
428.50	20.117
428.85	19.544
429.21	19.757
429.56	20.573
429.92	20.691
430.27	19.940
430.62	20.428
430.98	19.655
431.33	20.544
431.68	20.697
432.04	19.922
432.39	20.855
432.74	20.384
433.10	20.259
433.45	19.516
433.80	20.157
434.16	20.580
434.51	19.836
434.86	19.859
435.22	20.323
435.57	19.767
435.92	20.223
436.28	20.297
436.63	19.729
436.98	19.989
437.34	19.551
437.69	20.595
438.04	19.682
438.39	20.638
438.75	19.674
439.10	20.544
439.45	19.795
439.81	20.120
440.16	19.761
440.51	20.294
440.86	20.590
441.22	19.679
441.57	19.842
441.92	20.256
442.27	20.400
442.63	20.118
442.98	19.300
443.33	19.605
443.68	20.010
444.03	20.138
444.39	19.726
444.74	20.209
445.09	19.737
445.44	19.640
445.79	20.551
446.15	20.318
446.50	20.250
446.85	19.959
447.20	20.072
447.55	20.442
447.91	20.775
448.26	20.335
448.61	19.298
448.96	19.832
449.31	19.166
449.66	20.321
450.02	20.665
450.37	19.710
450.72	19.774
451.07	19.673
451.42	19.331
451.77	19.928
452.12	18.951
452.47	19.521
452.83	19.336
453.18	20.304
453.53	20.025
453.88	20.694
454.23	18.682
454.58	20.199
454.93	19.773
455.28	19.694
455.63	19.963
455.98	19.759
456.34	18.933
456.69	20.513
457.04	20.098
457.39	19.378
457.74	19.433
458.09	20.070
458.44	20.208
458.79	20.235
459.14	19.509
459.49	19.716
459.84	19.168
460.19	20.286
460.54	19.117
460.89	18.330
461.24	19.854
461.59	19.637
461.94	20.687
462.29	19.893
462.64	20.224
462.99	20.013
463.34	18.974
463.69	19.148
464.04	19.156
464.39	19.474
464.74	18.735
465.09	19.603
465.44	18.951
465.79	19.628
466.14	19.965
466.49	19.919
466.84	19.508
467.19	18.890
467.54	18.165
467.89	19.667
468.24	20.309
468.59	18.988
468.94	18.971
469.29	19.428
469.64	19.003
469.99	19.311
470.34	18.771
470.68	19.622
471.03	19.408
471.38	18.125
471.73	18.951
472.08	19.009
472.43	19.241
472.78	18.533
473.13	17.694
473.48	18.762
473.83	19.479
474.17	18.535
474.52	19.821
474.87	18.939
475.22	18.879
475.57	18.556
475.92	19.600
476.27	18.914
476.61	18.423
476.96	18.502
477.31	19.053
477.66	18.594
478.01	18.801
478.36	19.172
478.70	18.740
479.05	19.362
479.40	18.705
479.75	17.992
480.10	18.452
480.45	18.472
480.79	19.250
481.14	19.017
481.49	18.829
481.84	18.955
482.19	18.821
482.53	19.886
482.88	18.652
483.23	19.484
483.58	19.195
483.92	18.347
484.27	18.963
484.62	19.136
484.97	19.213
485.31	18.368
485.66	18.753
486.01	19.761
486.36	20.396
486.70	21.097
487.05	19.655
487.40	20.166
487.75	20.494
488.09	20.321
488.44	20.907
488.79	20.446
489.13	20.198
489.48	20.024
489.83	19.432
490.17	19.547
490.52	19.248
490.87	18.383
491.22	18.216
491.56	18.704
491.91	18.750
492.26	17.972
492.60	18.601
492.95	18.801
493.30	17.723
493.64	16.925
493.99	18.069
494.34	18.524
494.68	18.961
495.03	18.164
495.37	18.240
495.72	18.566
496.07	17.973
496.41	18.990
496.76	18.128
497.11	18.135
497.45	18.630
497.80	18.309
498.14	18.910
498.49	17.680
498.84	18.252
499.18	19.396
499.53	17.487
499.87	17.616
500.22	17.696
500.56	18.259
500.91	18.522
501.26	18.777
501.60	18.584
501.95	18.889
502.29	17.667
502.64	18.576
502.98	17.825
503.33	18.186
503.67	17.672
504.02	17.721
504.36	17.892
504.71	17.325
505.06	18.323
505.40	18.812
505.75	18.242
506.09	17.492
506.44	17.393
506.78	18.414
507.13	17.765
507.47	17.945
507.82	17.398
508.16	18.549
508.51	17.002
508.85	18.323
509.19	17.635
509.54	17.918
509.88	17.553
510.23	17.715
510.57	17.725
510.92	18.260
511.26	17.119
511.61	16.955
511.95	17.888
512.30	18.142
512.64	16.361
512.98	18.042
513.33	17.408
513.67	18.035
514.02	16.946
514.36	17.452
514.70	17.487
515.05	16.695
515.39	16.840
515.74	18.499
516.08	17.464
516.42	17.280
516.77	16.811
517.11	17.048
517.46	17.464
517.80	17.810
518.14	17.331
518.49	17.035
518.83	16.024
519.17	16.874
519.52	16.541
519.86	18.459
520.20	17.359
520.55	15.877
520.89	16.093
521.23	17.155
521.58	16.865
521.92	16.529
522.26	16.698
522.61	16.667
522.95	15.826
523.29	17.304
523.64	16.740
523.98	16.486
524.32	16.719
524.66	16.087
525.01	16.378
525.35	16.302
525.69	15.875
526.04	17.428
526.38	17.314
526.72	16.922
527.06	17.122
527.41	16.502
527.75	15.512
528.09	16.545
528.43	16.656
528.78	16.583
529.12	17.414
529.46	16.688
529.80	17.560
530.15	17.257
530.49	16.818
530.83	17.027
531.17	15.556
531.51	15.405
531.86	16.458
532.20	16.329
532.54	16.778
532.88	17.391
533.22	16.979
533.57	16.188
533.91	15.793
534.25	15.902
534.59	15.990
534.93	15.993
535.27	17.495
535.62	17.008
535.96	17.453
536.30	16.296
536.64	17.397
536.98	16.808
537.32	16.724
537.66	16.497
538.01	16.907
538.35	16.554
538.69	16.310
539.03	17.468
539.37	15.902
539.71	17.211
540.05	16.313
540.39	17.798
540.73	16.724
541.07	16.052
541.42	15.260
541.76	17.542
542.10	17.421
542.44	17.388
542.78	16.825
543.12	17.312
543.46	17.329
543.80	16.656
544.14	16.991
544.48	18.045
544.82	17.050
545.16	17.237
545.50	16.756
545.84	16.620
546.18	17.129
546.52	16.785
546.86	16.667
547.20	16.948
547.54	15.496
547.88	16.589
548.22	16.383
548.56	16.900
548.90	16.779
549.24	15.697
549.58	17.643
549.92	16.608
550.26	17.558
550.60	15.861
550.94	16.788
551.28	17.081
551.62	16.691
551.96	16.136
552.30	17.352
552.64	15.552
552.98	16.819
553.32	16.017
553.66	17.087
554.00	16.418
554.34	15.812
554.68	15.716
555.02	17.077
555.36	16.607
555.69	16.189
556.03	16.912
556.37	16.572
556.71	17.180
557.05	16.704
557.39	15.664
557.73	16.922
558.07	16.277
558.41	16.081
558.75	16.730
559.08	15.409
559.42	15.850
559.76	16.411
560.10	16.257
560.44	16.763
560.78	16.841
561.12	15.873
561.45	17.740
561.79	17.143
562.13	17.321
562.47	16.737
562.81	16.195
563.15	16.025
563.48	17.139
563.82	16.498
564.16	17.106
564.50	16.532
564.84	17.791
565.17	16.976
565.51	16.037
565.85	16.362
566.19	17.589
566.52	17.417
566.86	16.625
567.20	17.857
567.54	18.547
567.88	17.644
568.21	18.009
568.55	17.444
568.89	17.147
569.23	18.556
569.56	17.991
569.90	18.922
570.24	19.166
570.57	19.086
570.91	19.449
571.25	19.650
571.59	19.763
571.92	19.762
572.26	19.772
572.60	19.826
572.93	19.573
573.27	18.720
573.61	19.243
573.95	20.064
574.28	19.679
574.62	20.005
574.96	19.816
575.29	19.741
575.63	19.989
575.97	20.119
576.30	19.923
576.64	19.922
576.98	19.632
577.31	20.262
577.65	20.331
577.98	20.033
578.32	20.143
578.66	20.252
578.99	20.253
579.33	20.598
579.67	20.010
580.00	20.536
580.34	20.890
580.67	20.765
581.01	19.561
581.35	20.345
581.68	20.210
582.02	20.048
582.35	20.057
582.69	20.749
583.02	20.402
583.36	20.639
583.70	20.712
584.03	21.309
584.37	20.731
584.70	20.645
585.04	20.633
585.37	20.406
585.71	19.981
586.04	20.314
586.38	20.342
586.72	19.786
587.05	19.796
587.39	20.322
587.72	20.255
588.06	20.110
588.39	20.535
588.73	20.459
589.06	20.205
589.40	21.333
589.73	19.653
590.07	19.665
590.40	19.963
590.73	19.472
591.07	19.877
591.40	20.494
591.74	19.679
592.07	19.234
592.41	19.151
592.74	19.370
593.08	19.464
593.41	19.211
593.75	19.123
594.08	19.698
594.41	20.074
594.75	19.517
595.08	19.850
595.42	19.906
595.75	18.817
596.09	19.984
596.42	20.254
596.75	19.491
597.09	19.947
597.42	18.638
597.75	18.778
598.09	18.617
598.42	18.913
598.76	18.397
599.09	18.982
599.42	19.223
599.76	18.913
600.09	19.198
600.42	19.863
600.76	19.058
601.09	19.180
601.42	19.114
601.76	19.821
602.09	19.427
602.42	19.588
602.76	19.402
603.09	19.476
603.42	19.662
603.76	19.386
604.09	19.423
604.42	19.151
604.76	19.276
605.09	19.665
605.42	19.504
605.75	18.844
606.09	19.552
606.42	18.643
606.75	19.407
607.09	19.762
607.42	18.794
607.75	17.925
608.08	19.160
608.42	18.827
608.75	18.972
609.08	18.607
609.41	19.033
609.75	18.333
610.08	19.069
610.41	18.747
610.74	19.536
611.07	19.320
611.41	18.104
611.74	18.509
612.07	18.958
612.40	18.284
612.73	18.201
613.07	17.942
613.40	19.267
613.73	18.365
614.06	18.177
614.39	18.997
614.72	18.603
615.06	17.554
615.39	18.285
615.72	18.414
616.05	18.112
616.38	17.934
616.71	18.198
617.05	18.516
617.38	18.266
617.71	17.629
618.04	17.267
618.37	17.987
618.70	19.231
619.03	17.603
619.36	18.111
619.69	18.306
620.03	17.562
620.36	17.440
620.69	18.090
621.02	17.656
621.35	15.806
621.68	16.311
622.01	16.100
622.34	17.081
622.67	16.484
623.00	16.450
623.33	17.761
623.66	16.322
623.99	16.917
624.32	16.220
624.65	18.617
624.99	17.550
625.32	16.467
625.65	17.560
625.98	17.449
626.31	16.966
626.64	16.820
626.97	17.209
627.30	16.255
627.63	15.889
627.96	17.145
628.29	16.268
628.62	16.141
628.95	17.126
629.28	15.226
629.61	15.407
629.94	16.352
630.26	14.612
630.59	14.975
630.92	17.017
631.25	16.129
631.58	15.132
631.91	14.149
632.24	15.778
632.57	15.000
632.90	14.023
633.23	14.019
633.56	14.854
633.89	14.976
634.22	14.876
634.55	14.543
634.88	12.938
635.20	13.733
635.53	14.122
635.86	13.224
636.19	14.408
636.52	13.978
636.85	13.718
637.18	12.750
637.51	15.366
637.83	12.916
638.16	12.368
638.49	13.241
638.82	14.543
639.15	13.489
639.48	14.267
639.81	13.555
640.13	12.568
640.46	13.675
640.79	14.846
641.12	15.092
641.45	13.486
641.77	12.725
642.10	12.387
642.43	12.291
642.76	10.866
643.09	13.016
643.41	13.810
643.74	13.355
644.07	13.417
644.40	14.263
644.73	12.376
645.05	10.851
645.38	13.907
645.71	14.948
646.04	13.445
646.36	12.042
646.69	12.284
647.02	12.455
647.35	12.635
647.67	13.139
648.00	13.181
648.33	13.828
648.66	11.290
648.98	14.172
649.31	13.692
649.64	12.969
649.96	12.873
650.29	11.967
650.62	12.220
650.94	12.985
651.27	11.785
651.60	14.533
651.92	13.527
652.25	11.519
652.58	12.777
652.90	14.446
653.23	11.452
653.56	12.876
653.88	13.607
654.21	12.752
654.54	12.292
654.86	14.125
655.19	15.759
655.52	17.763
655.84	18.579
656.17	20.648
656.49	29.521
656.82	32.426
657.15	25.259
657.47	18.791
657.80	14.196
658.13	16.433
658.45	23.067
658.78	24.127
659.10	24.408
659.43	24.801
659.75	25.098
660.08	23.594
660.41	20.745
660.73	18.812
661.06	16.522
661.38	14.464
661.71	9.751
662.03	11.492
662.36	12.793
662.68	11.181
663.01	12.951
663.33	13.832
663.66	12.876
663.98	9.821
664.31	10.515
664.63	11.726
664.96	11.497
665.28	12.798
665.61	6.554
665.93	10.082
666.26	14.575
666.58	13.929
666.91	9.354
667.23	12.939
667.56	8.390
667.88	12.896
668.21	10.369
668.53	10.981
668.86	12.240
669.18	12.329
669.50	12.383
669.83	10.462
670.15	12.108
670.48	9.346
670.80	9.339
671.13	9.029
671.45	10.586
671.77	10.064
672.10	12.229
672.42	13.284
672.75	12.909
673.07	10.450
673.39	12.750
673.72	15.157
674.04	9.979
674.37	10.515
674.69	15.164
675.01	12.340
675.34	12.148
675.66	14.687
675.98	11.454
676.31	11.086
676.63	15.172
676.95	11.504
677.28	12.065
677.60	11.765
677.92	14.097
678.25	10.503
678.57	14.198
678.89	10.692
679.22	10.692
679.54	15.779
679.86	11.600
680.18	12.548
680.51	10.801
680.83	12.571
681.15	12.524
681.48	14.199
681.80	11.694
682.12	14.286
682.44	12.377
682.77	11.472
683.09	15.094
683.41	13.053
683.73	9.589
684.06	11.398
684.38	12.552
684.70	11.728
685.02	10.630
685.34	11.306
685.67	14.583
685.99	12.476
686.31	11.849
686.63	14.894
686.96	12.939
687.28	13.680
687.60	12.109
687.92	11.479
688.24	13.583
688.56	13.828
688.89	11.325
689.21	12.254
689.53	13.563
689.85	11.136
690.17	10.538
690.49	11.547
690.82	10.843
691.14	12.028
691.46	11.530
691.78	14.317
692.10	12.076
692.42	10.000
692.74	11.803
693.06	14.831
693.39	9.172
693.71	15.801
694.03	13.391
694.35	13.093
694.67	10.638
694.99	11.253
695.31	9.694
695.63	10.204
695.95	15.881
696.27	13.217
696.59	10.695
696.91	10.112
697.23	10.417
697.56	8.894
697.88	12.387
698.20	12.634
698.52	12.780
698.84	13.350
699.16	11.429
699.48	9.750
699.80	11.529
700.12	15.869
700.44	10.056
700.76	8.455
701.08	11.337
701.40	8.157
701.72	9.568
702.04	11.859
702.36	9.639
702.68	9.581
703.00	11.594
703.32	10.888
703.64	16.471
703.96	13.663
704.28	10.355
704.60	6.962
704.91	6.032
705.23	12.945
705.55	11.824
705.87	10.580
706.19	6.597
706.51	7.292
706.83	10.492
707.15	7.006
707.47	12.948
707.79	11.856
708.11	10.433
708.43	12.968
708.74	12.727
709.06	9.749
709.38	8.908
709.70	7.187
710.02	12.270
710.34	9.901
710.66	10.476
710.98	10.095
711.29	8.387
711.61	8.626
711.93	10.164
712.25	10.631
712.57	10.105
712.89	9.712
713.20	14.433
713.52	4.478
713.84	7.829
714.16	11.475
714.48	11.429
714.80	9.231
715.11	10.951
715.43	12.349
715.75	14.953
716.07	9.508
716.39	11.037
716.70	9.059
717.02	10.741
717.34	6.489
717.66	11.203
717.97	7.787
718.29	10.924
718.61	11.111
718.93	8.961
719.24	8.456
719.56	9.811
719.88	9.091
720.20	8.989
720.51	11.278
720.83	4.016
721.15	7.787
721.46	10.588
721.78	11.111
722.10	7.600
722.42	7.025
722.73	10.359
723.05	11.647
723.37	12.941
723.68	4.049
724.00	10.569
724.32	9.877
724.63	8.299
724.95	12.397
725.27	5.263
725.58	11.207
725.90	5.952
726.22	12.546
726.53	8.745
726.85	1.961
727.16	7.519
727.48	8.462
727.80	8.197
728.11	5.042
728.43	11.983
728.74	10.156
729.06	10.606
729.38	8.560
729.69	4.331
730.01	12.992
730.32	7.968
730.64	7.326
730.96	9.701
731.27	12.500
731.59	13.183
731.90	14.417
732.22	9.202
732.53	14.570
732.85	11.074
733.16	12.319
733.48	12.892
733.80	11.032
734.11	12.069
734.43	14.626
734.74	14.243
735.06	11.599
735.37	11.315
735.69	10.645
736.00	10.438
736.32	14.901
736.63	9.655
736.95	8.696
737.26	13.576
737.58	11.511
737.89	13.620
738.21	6.015
738.52	11.538
738.83	13.281
739.15	14.103
739.46	11.290
739.78	16.783
740.09	9.790
740.41	11.888
740.72	14.599
741.04	5.556
741.35	10.823
741.66	12.500
741.98	8.095
742.29	10.798
742.61	0.000
742.92	16.355
743.23	7.456
743.55	7.207
743.86	12.889
744.18	6.190
744.49	9.852
744.80	8.122
745.12	6.701
745.43	12.060
745.74	6.311
746.06	5.366
746.37	14.537
746.68	10.945
747.00	8.901
747.31	1.923
747.62	9.217
747.94	13.974
748.25	10.233
748.56	11.905
748.88	3.261
749.19	10.798
749.50	6.373
749.82	11.111
750.13	13.656
750.44	7.724
750.75	11.200
751.07	11.786
751.38	9.225
751.69	11.069
752.01	9.615
752.32	10.117
752.63	9.231
752.94	6.746
753.26	11.739
753.57	12.054
753.88	9.483
754.19	8.714
754.51	9.375
754.82	9.486
755.13	11.111
755.44	7.851
755.75	16.461
756.07	4.819
756.38	4.687
756.69	10.830
757.00	12.544
757.31	12.752
757.63	17.445
757.94	10.694
758.25	9.012
758.56	20.216
758.87	13.920
759.18	14.000
759.50	16.726
759.81	10.219
760.12	7.770
760.43	11.327
760.74	15.313
761.05	13.202
761.36	11.677
761.67	12.130
761.99	14.194
762.30	16.667
762.61	14.717
762.92	13.901
763.23	13.270
763.54	8.444
763.85	11.814
764.16	9.388
764.47	18.644
764.78	11.236
765.10	10.072
765.41	11.613
765.72	13.208
766.03	9.894
766.34	10.526
766.65	15.385
766.96	13.000
767.27	11.458
767.58	11.047
767.89	9.677
768.20	11.043
768.51	6.557
768.82	5.405
769.13	4.500
769.44	10.526
769.75	12.554
770.06	16.055
770.37	11.737
770.68	13.021
770.99	11.386
771.30	8.252
771.61	9.259
771.92	7.359
772.23	13.084
772.54	4.787
772.85	3.550
773.16	8.537
773.47	13.253
773.78	16.484
774.09	6.667
774.39	12.346
774.70	4.698
775.01	4.348
775.32	4.478
775.63	-8.264
775.94	7.519
776.25	9.286
776.56	12.295
776.87	12.389
777.18	1.770
777.48	6.364
777.79	-6.957
778.10	3.670
778.41	-0.847
778.72	5.785
779.03	9.701
779.34	9.023
779.65	14.379
779.95	7.246
780.26	3.401
780.57	0.000
780.88	8.333
781.19	-14.141
781.50	0.000
781.80	5.882
782.11	10.897
782.42	13.253
782.73	2.920
783.04	10.135
783.34	3.030
783.65	11.628
783.96	1.626
784.27	2.564
784.57	0.813
784.88	-4.878
785.19	6.140
785.50	-7.216
785.81	2.857
786.11	7.843
786.42	-2.727
786.73	-0.901
787.04	3.960
787.34	2.857
787.65	7.619
787.96	8.824
788.26	2.703
788.57	4.839
788.88	10.156
789.19	4.274
789.49	5.882
789.80	6.838
790.11	6.195
790.41	1.010
790.72	12.264
791.03	-6.944
791.33	7.895
791.64	7.527
791.95	4.000
792.25	-20.000
792.56	-6.098
792.87	4.082
793.17	2.632
793.48	-12.162
793.79	-12.676
794.09	-1.266
794.40	8.511
794.70	2.804
795.01	-5.263
795.32	1.818
795.62	15.179
795.93	1.031
796.23	-9.890
796.54	21.053
796.85	-1.370
797.15	-6.944
797.46	21.918
797.76	14.085
798.07	7.500
798.37	-7.353
798.68	15.714
798.99	-7.143
799.29	10.526
799.60	-20.000
799.90	-20.833
800.21	3.125
800.51	-3.175
800.82	9.836
801.12	-21.053
801.43	0.000
801.73	-16.949
802.04	-3.279
802.34	-1.818
802.65	-5.769
802.95	-12.963
803.26	-15.000
803.56	-19.231
803.87	-34.211
804.17	-3.226
804.48	1.538
804.78	-33.333
805.09	-23.256
805.39	-40.625
805.70	-16.981
806.00	0.000
806.30	9.459
806.61	10.294
806.91	6.173
807.22	-6.667
807.52	1.493
807.83	1.613
808.13	11.111
808.43	-7.273
808.74	-4.545
809.04	-1.887
809.35	12.329
809.65	19.298
809.95	8.824
810.26	0.000
810.56	10.000
810.86	-10.204
811.17	-14.286
811.47	-13.462
811.77	-35.484
812.08	-34.211
812.38	-14.286
812.69	-34.783
812.99	-6.452
813.29	-9.524
813.59	-85.185
813.90	-12.766
814.20	-44.186
814.50	6.250
814.81	-16.667
815.11	-12.195
815.41	-33.333
815.72	-2.857
816.02	-30.556
816.32	-15.385
816.62	-24.324
816.93	-73.529
817.23	-17.391
817.53	-47.059
817.84	-2.941
818.14	-68.750
818.44	-37.931
818.74	-3.226
819.04	-33.333
819.35	-43.333
819.65	-48.000
819.95	-46.667
820.25	-44.000
820.56	-18.421
820.86	-20.000
821.16	10.638
821.46	1.724
821.76	-38.462
822.07	-45.000
822.37	-4.651
822.67	-60.000
822.97	-35.135
823.27	-24.324
823.57	20.000
823.88	-5.405
824.18	-61.905
824.48	-34.615
824.78	-107.692
825.08	-8.696
825.38	-58.333
825.69	-45.833
825.99	-75.000
826.29	-40.541
826.59	-14.706
826.89	-4.000
827.19	-17.143
827.49	-7.895
827.79	-18.750
828.09	-20.000
828.39	-21.739
828.70	-62.069
829.00	-6.897
829.30	-25.000
829.60	-9.375
829.90	-66.667
830.20	-65.385
830.50	-76.190
830.80	-42.857
831.10	12.821
831.40	-76.190
831.70	-8.824
832.00	8.333
832.30	-47.368
832.60	-118.750
832.90	-108.333
833.20	-147.059
833.50	-80.000
833.80	-53.333
834.10	-55.000
834.40	16.667
834.70	-44.444
835.00	-46.154
835.30	-25.000
835.60	-3.448
835.90	-33.333
836.20	-209.091
836.50	-116.667
836.80	-14.286
837.10	11.429
837.40	-35.294
837.70	-172.727
838.00	-62.500
838.30	-68.750
838.60	-42.857
838.90	-25.000
839.19	-34.783
839.49	-34.783
839.79	-44.444
840.09	-82.609
840.39	-45.455
840.69	-87.500
840.99	-110.526
841.29	-87.500
841.59	-85.714
841.88	-72.222
842.18	-16.667
842.48	-141.176
842.78	-27.586
843.08	-42.857
843.38	-107.692
843.68	-222.222
843.97	-184.615
844.27	-109.091
844.57	-220.000
844.87	-40.000
845.17	-400.000
845.47	-71.429
845.76	-200.000
846.06	0.000
846.36	-450.000
846.66	-250.000
846.96	-5.263
847.25	-50.000
847.55	-133.333
847.85	-73.333
848.15	-130.000
848.44	46.154
848.74	0.000
849.04	700.000
849.34	-177.778
849.63	-100.000
849.93	0.000
850.23	-75.000
850.53	-14.286
850.82	-28.000
851.12	-26.316
851.42	-900.000
851.71	-14.286
852.01	-133.333
852.31	-29.412
852.61	-40.000
852.90	-52.381
853.20	-266.667
853.50	-100.000
853.79	-68.421
854.09	-33.333
854.39	-35.714
854.68	-43.478
854.98	-166.667
855.28	-3.448
855.57	-56.250
855.87	-115.000
856.17	-93.333
856.46	-48.276
856.76	-13.333
857.05	-58.824
857.35	-138.462
857.65	-72.727
857.94	-14.815
858.24	-121.429
858.53	-157.143
858.83	-158.333
859.13	-177.778
859.42	52.381
859.72	-87.500
860.01	-433.333
860.31	-162.500
860.60	-300.000
860.90	-222.222
861.20	-162.500
861.49	-142.857
861.79	-47.059
862.08	-900.000
862.38	-158.333
862.67	-153.846
862.97	5.882
863.26	-30.000
863.56	-58.824
863.85	666.667
864.15	-110.000
864.44	-69.231
864.74	10.000
865.03	-262.500
865.33	-183.333
865.62	-47.059
865.92	-400.000
866.21	-92.857
866.51	-83.333
866.80	-500.000
867.10	-366.667
867.39	-70.588
867.69	-17.391
867.98	-57.143
868.27	-400.000
868.57	-181.250
868.86	-190.909
869.16	-11.765
869.45	-266.667
869.75	-128.571
870.04	1800.000
870.33	25.000
870.63	-280.000
870.92	-66.667
871.22	-41.667
871.51	-154.545
871.80	-83.333
872.10	-50.000
>>>>>End Processed Spectral Data<<<<<
