SpectraSuite Data File
++++++++++++++++++++++++++++++++++++
Date: Sat May 16 11:16:03 PDT 2015
User: schluterlab
Dark Spectrum Present: Yes
Reference Spectrum Present: Yes
Number of Sampled Component Spectra: 1
Spectrometers: USB2E3373
Integration Time (usec): 3000 (USB2E3373)
Spectra Averaged: 3 (USB2E3373)
Boxcar Smoothing: 0 (USB2E3373)
Correct for Electrical Dark: No (USB2E3373)
Strobe/Lamp Enabled: No (USB2E3373)
Correct for Detector Non-linearity: No (USB2E3373)
Correct for Stray Light: No (USB2E3373)
Number of Pixels in Processed Spectrum: 2048
>>>>>Begin Processed Spectral Data<<<<<
178.53	0.000
178.91	80.000
179.29	-133.333
179.67	-900.000
180.04	-7.692
180.42	100.000
180.80	175.000
181.18	125.000
181.56	-112.500
181.94	200.000
182.31	250.000
182.69	15.385
183.07	-533.333
183.45	500.000
183.83	333.333
184.20	-228.571
184.58	-200.000
184.96	-250.000
185.34	93.750
185.72	-350.000
186.09	200.000
186.47	-100.000
186.85	-175.000
187.23	-12.500
187.61	-250.000
187.98	-200.000
188.36	-12.500
188.74	-62.500
189.12	300.000
189.49	157.143
189.87	33.333
190.25	275.000
190.63	-28.571
191.00	22.222
191.38	160.000
191.76	33.333
192.14	380.000
192.51	-80.000
192.89	0.000
193.27	0.000
193.65	-77.778
194.02	-85.714
194.40	366.667
194.78	-110.000
195.15	-700.000
195.53	0.000
195.91	-83.333
196.29	60.000
196.66	-333.333
197.04	2000.000
197.42	150.000
197.79	100.000
198.17	-333.333
198.55	-150.000
198.92	-400.000
199.30	75.000
199.68	-250.000
200.05	-11.111
200.43	-111.111
200.81	-700.000
201.18	0.000
201.56	200.000
201.94	0.000
202.31	22.727
202.69	150.000
203.07	30.000
203.44	300.000
203.82	-183.333
204.19	-250.000
204.57	-175.000
204.95	100.000
205.32	-6.250
205.70	200.000
206.08	-1700.000
206.45	44.444
206.83	-450.000
207.20	-50.000
207.58	-633.333
207.96	33.333
208.33	-62.500
208.71	-55.556
209.08	20.000
209.46	-142.857
209.84	250.000
210.21	0.000
210.59	0.000
210.96	600.000
211.34	-100.000
211.71	-233.333
212.09	-25.000
212.46	700.000
212.84	-1600.000
213.22	333.333
213.59	108.333
213.97	111.111
214.34	100.000
214.72	-10.000
215.09	-100.000
215.47	0.000
215.84	-20.000
216.22	-20.000
216.59	13.333
216.97	-325.000
217.34	700.000
217.72	-57.143
218.09	-200.000
218.47	-214.286
218.84	214.286
219.22	57.143
219.59	0.000
219.97	285.714
220.34	150.000
220.72	112.500
221.09	30.769
221.47	0.000
221.84	-33.333
222.22	-150.000
222.59	1100.000
222.97	-75.000
223.34	-350.000
223.72	-333.333
224.09	28.571
224.46	-125.000
224.84	50.000
225.21	-157.143
225.59	-27.273
225.96	-50.000
226.34	14.286
226.71	-166.667
227.08	25.000
227.46	1000.000
227.83	-85.714
228.21	-87.500
228.58	100.000
228.95	18.750
229.33	-1000.000
229.70	-200.000
230.08	-600.000
230.45	-66.667
230.82	50.000
231.20	-700.000
231.57	-100.000
231.95	-100.000
232.32	42.857
232.69	-88.889
233.07	-128.571
233.44	-650.000
233.81	-20.000
234.19	-122.222
234.56	37.500
234.93	28.125
235.31	-142.857
235.68	-21.429
236.05	-23.529
236.43	-59.091
236.80	51.613
237.17	-20.833
237.55	-4.762
237.92	-36.364
238.29	11.429
238.67	41.176
239.04	25.000
239.41	16.129
239.79	12.821
240.16	7.143
240.53	9.091
240.91	23.077
241.28	34.545
241.65	52.308
242.02	44.262
242.40	31.148
242.77	31.818
243.14	32.203
243.51	20.000
243.89	26.582
244.26	24.719
244.63	36.842
245.00	38.947
245.38	33.051
245.75	32.743
246.12	25.600
246.49	30.709
246.87	18.699
247.24	33.051
247.61	22.881
247.98	29.577
248.36	24.476
248.73	31.013
249.10	29.936
249.47	42.105
249.84	33.523
250.22	29.167
250.59	37.288
250.96	32.461
251.33	36.493
251.70	36.538
252.08	39.336
252.45	31.280
252.82	36.190
253.19	33.191
253.56	35.887
253.94	35.443
254.31	37.768
254.68	40.244
255.05	31.855
255.42	38.889
255.79	34.050
256.16	36.471
256.54	33.088
256.91	33.712
257.28	34.432
257.65	34.043
258.02	37.107
258.39	35.117
258.76	35.135
259.14	31.481
259.51	40.984
259.88	35.366
260.25	37.267
260.62	33.762
260.99	34.718
261.36	35.671
261.73	36.705
262.10	35.833
262.47	34.188
262.85	39.429
263.22	34.957
263.59	36.923
263.96	33.913
264.33	34.417
264.70	38.122
265.07	34.341
265.44	34.625
265.81	34.625
266.18	31.646
266.55	34.314
266.92	33.753
267.29	34.867
267.66	35.556
268.03	35.266
268.40	35.681
268.77	35.663
269.14	33.411
269.51	34.943
269.88	33.716
270.25	31.702
270.62	34.554
270.99	35.586
271.36	32.634
271.73	33.857
272.10	35.240
272.47	36.222
272.84	33.556
273.21	33.716
273.58	31.868
273.95	35.088
274.32	34.389
274.69	35.886
275.06	34.356
275.43	34.152
275.80	36.049
276.17	36.402
276.54	35.234
276.91	31.893
277.28	32.860
277.65	34.711
278.02	32.150
278.39	33.006
278.76	36.454
279.13	32.609
279.50	34.791
279.87	33.192
280.23	34.211
280.60	32.008
280.97	33.981
281.34	35.783
281.71	31.923
282.08	34.677
282.45	32.383
282.82	32.558
283.19	33.091
283.56	34.982
283.92	34.982
284.29	34.572
284.66	30.755
285.03	31.016
285.40	33.210
285.77	34.035
286.14	34.116
286.51	34.636
286.87	32.849
287.24	33.276
287.61	29.587
287.98	31.889
288.35	30.744
288.72	32.258
289.08	29.661
289.45	31.145
289.82	28.893
290.19	31.691
290.56	32.231
290.93	29.889
291.29	31.442
291.66	27.375
292.03	29.984
292.40	30.271
292.77	29.658
293.13	29.919
293.50	30.312
293.87	29.448
294.24	28.205
294.60	28.636
294.97	30.956
295.34	28.000
295.71	28.274
296.08	26.728
296.44	26.753
296.81	28.348
297.18	26.761
297.55	29.379
297.91	29.568
298.28	27.808
298.65	27.476
299.02	28.209
299.38	24.599
299.75	27.038
300.12	28.077
300.48	27.494
300.85	27.523
301.22	27.684
301.59	26.658
301.95	28.589
302.32	25.163
302.69	25.459
303.05	27.106
303.42	25.125
303.79	26.435
304.15	26.185
304.52	25.671
304.89	26.092
305.25	26.618
305.62	25.852
305.99	27.797
306.35	28.191
306.72	26.196
307.09	26.901
307.45	26.334
307.82	25.028
308.19	26.398
308.55	26.253
308.92	25.027
309.29	25.730
309.65	25.875
310.02	24.730
310.38	24.973
310.75	26.844
311.12	25.723
311.48	26.931
311.85	25.438
312.22	26.674
312.58	27.060
312.95	26.707
313.31	27.273
313.68	28.844
314.05	27.300
314.41	27.062
314.78	26.474
315.14	28.036
315.51	27.457
315.87	27.590
316.24	27.502
316.61	28.023
316.97	29.950
317.34	27.842
317.70	29.128
318.07	29.944
318.43	29.307
318.80	31.925
319.16	29.268
319.53	31.109
319.89	30.480
320.26	31.471
320.62	29.712
320.99	30.846
321.35	29.458
321.72	31.525
322.08	32.740
322.45	32.970
322.81	32.757
323.18	34.774
323.54	33.641
323.91	33.828
324.27	33.745
324.64	33.729
325.00	34.380
325.37	36.018
325.73	35.783
326.10	35.252
326.46	36.690
326.83	36.255
327.19	36.697
327.56	38.586
327.92	37.128
328.29	37.662
328.65	37.909
329.01	39.399
329.38	39.251
329.74	39.560
330.11	40.617
330.47	39.964
330.84	40.880
331.20	40.794
331.56	40.839
331.93	41.563
332.29	41.279
332.66	41.967
333.02	42.534
333.38	42.832
333.75	43.722
334.11	44.178
334.48	41.748
334.84	42.257
335.20	43.706
335.57	44.134
335.93	45.658
336.29	44.110
336.66	42.026
337.02	45.045
337.38	44.385
337.75	43.284
338.11	44.454
338.47	45.107
338.84	44.918
339.20	44.464
339.56	44.029
339.93	45.238
340.29	44.376
340.65	43.794
341.02	43.929
341.38	45.577
341.74	45.131
342.11	44.198
342.47	46.438
342.83	44.752
343.20	45.687
343.56	43.265
343.92	46.327
344.28	46.089
344.65	44.554
345.01	45.210
345.37	46.761
345.73	43.617
346.10	44.154
346.46	44.435
346.82	45.790
347.19	46.015
347.55	44.864
347.91	46.378
348.27	44.789
348.63	46.446
349.00	45.028
349.36	44.106
349.72	46.338
350.08	45.309
350.45	45.311
350.81	45.462
351.17	45.418
351.53	45.028
351.89	46.807
352.26	45.736
352.62	45.238
352.98	45.411
353.34	46.283
353.70	45.097
354.07	47.443
354.43	44.348
354.79	46.355
355.15	45.447
355.51	47.422
355.87	46.087
356.24	46.783
356.60	48.509
356.96	47.498
357.32	46.002
357.68	46.667
358.04	45.958
358.40	46.945
358.77	45.904
359.13	46.213
359.49	46.334
359.85	47.104
360.21	47.717
360.57	45.934
360.93	47.333
361.29	48.281
361.66	47.256
362.02	45.784
362.38	48.202
362.74	48.205
363.10	47.561
363.46	48.433
363.82	48.105
364.18	48.191
364.54	47.891
364.90	48.567
365.26	47.361
365.62	48.111
365.98	49.644
366.35	49.155
366.71	48.485
367.07	49.400
367.43	49.211
367.79	49.072
368.15	48.009
368.51	49.860
368.87	50.893
369.23	48.491
369.59	49.375
369.95	50.317
370.31	50.352
370.67	49.241
371.03	51.458
371.39	49.222
371.75	51.288
372.11	50.861
372.47	50.976
372.83	51.530
373.19	51.571
373.55	50.598
373.91	51.707
374.27	50.445
374.63	49.896
374.99	52.643
375.35	51.009
375.71	53.207
376.07	53.593
376.42	51.325
376.78	52.614
377.14	53.966
377.50	54.094
377.86	54.681
378.22	52.764
378.58	53.922
378.94	54.254
379.30	53.260
379.66	54.706
380.02	54.367
380.38	54.924
380.74	54.924
381.09	54.833
381.45	54.654
381.81	55.354
382.17	53.697
382.53	53.617
382.89	54.067
383.25	55.629
383.61	55.130
383.97	55.787
384.32	57.509
384.68	56.227
385.04	57.548
385.40	57.273
385.76	57.134
386.12	57.214
386.48	57.611
386.83	57.423
387.19	58.099
387.55	57.359
387.91	57.558
388.27	56.634
388.62	57.332
388.98	57.965
389.34	57.895
389.70	58.952
390.06	58.856
390.42	60.192
390.77	59.621
391.13	61.553
391.49	60.823
391.85	60.287
392.20	58.799
392.56	59.682
392.92	58.985
393.28	60.505
393.64	61.155
393.99	61.108
394.35	60.036
394.71	60.593
395.07	60.954
395.42	60.072
395.78	60.717
396.14	61.433
396.50	61.896
396.85	61.567
397.21	61.543
397.57	61.459
397.92	61.183
398.28	62.833
398.64	61.154
399.00	62.809
399.35	63.021
399.71	63.937
400.07	64.239
400.42	63.564
400.78	63.327
401.14	62.515
401.49	63.149
401.85	63.392
402.21	64.005
402.57	62.621
402.92	65.702
403.28	64.583
403.63	62.253
403.99	64.139
404.35	65.036
404.70	65.418
405.06	64.879
405.42	64.514
405.77	63.971
406.13	63.714
406.49	66.207
406.84	64.187
407.20	66.196
407.55	65.611
407.91	63.212
408.27	65.380
408.62	65.725
408.98	65.252
409.34	65.082
409.69	65.217
410.05	65.009
410.40	66.830
410.76	65.679
411.11	66.771
411.47	66.368
411.83	66.137
412.18	66.337
412.54	65.406
412.89	67.801
413.25	67.473
413.60	65.796
413.96	67.529
414.31	67.217
414.67	67.683
415.03	67.335
415.38	68.445
415.74	68.170
416.09	68.159
416.45	68.452
416.80	67.295
417.16	69.302
417.51	68.549
417.87	68.026
418.22	68.205
418.58	67.908
418.93	69.221
419.29	67.252
419.64	68.907
420.00	69.137
420.35	69.131
420.71	69.868
421.06	68.935
421.42	70.667
421.77	70.073
422.12	71.740
422.48	69.428
422.83	69.248
423.19	68.820
423.54	69.971
423.90	70.561
424.25	70.023
424.61	72.859
424.96	71.972
425.31	70.878
425.67	72.264
426.02	71.543
426.38	71.627
426.73	72.648
427.09	73.223
427.44	71.136
427.79	71.221
428.15	72.711
428.50	72.258
428.85	73.141
429.21	72.607
429.56	73.802
429.92	72.345
430.27	73.031
430.62	74.033
430.98	73.183
431.33	74.013
431.68	74.745
432.04	74.762
432.39	75.214
432.74	73.981
433.10	74.958
433.45	73.690
433.80	75.476
434.16	73.455
434.51	76.877
434.86	75.923
435.22	73.998
435.57	76.255
435.92	76.260
436.28	76.202
436.63	75.636
436.98	74.685
437.34	75.724
437.69	75.496
438.04	76.858
438.39	75.451
438.75	76.019
439.10	75.902
439.45	76.222
439.81	76.145
440.16	76.775
440.51	76.235
440.86	76.923
441.22	76.506
441.57	76.368
441.92	78.210
442.27	76.245
442.63	77.253
442.98	75.734
443.33	76.991
443.68	76.186
444.03	76.670
444.39	77.435
444.74	78.689
445.09	77.741
445.44	78.447
445.79	77.970
446.15	76.889
446.50	76.157
446.85	77.065
447.20	76.353
447.55	77.569
447.91	79.169
448.26	77.374
448.61	78.268
448.96	78.936
449.31	78.241
449.66	78.306
450.02	78.061
450.37	79.420
450.72	78.136
451.07	80.830
451.42	77.819
451.77	78.875
452.12	79.678
452.47	77.708
452.83	78.334
453.18	78.748
453.53	78.856
453.88	79.904
454.23	78.597
454.58	81.106
454.93	79.345
455.28	79.286
455.63	79.853
455.98	80.120
456.34	78.145
456.69	79.174
457.04	78.857
457.39	79.127
457.74	78.145
458.09	77.726
458.44	80.139
458.79	77.803
459.14	80.034
459.49	79.633
459.84	79.314
460.19	79.594
460.54	79.250
460.89	79.092
461.24	78.385
461.59	77.784
461.94	78.485
462.29	79.333
462.64	79.249
462.99	80.656
463.34	78.798
463.69	79.707
464.04	79.086
464.39	78.913
464.74	78.428
465.09	78.413
465.44	79.301
465.79	79.357
466.14	80.955
466.49	79.562
466.84	78.571
467.19	79.988
467.54	78.671
467.89	80.703
468.24	79.929
468.59	80.575
468.94	80.386
469.29	79.857
469.64	79.111
469.99	79.811
470.34	80.428
470.68	81.032
471.03	79.215
471.38	80.833
471.73	80.839
472.08	80.723
472.43	78.958
472.78	79.533
473.13	78.794
473.48	80.281
473.83	80.211
474.17	80.255
474.52	81.330
474.87	78.380
475.22	78.525
475.57	79.278
475.92	79.158
476.27	78.857
476.61	79.549
476.96	80.715
477.31	80.624
477.66	80.576
478.01	81.145
478.36	78.261
478.70	80.406
479.05	80.043
479.40	80.207
479.75	78.287
480.10	78.026
480.45	77.418
480.79	79.516
481.14	80.532
481.49	79.574
481.84	77.670
482.19	78.620
482.53	79.640
482.88	79.449
483.23	78.263
483.58	80.435
483.92	79.599
484.27	78.334
484.62	77.581
484.97	78.722
485.31	77.184
485.66	74.713
486.01	74.779
486.36	76.983
486.70	78.451
487.05	77.378
487.40	77.751
487.75	78.186
488.09	78.351
488.44	79.161
488.79	78.670
489.13	79.270
489.48	77.855
489.83	78.384
490.17	77.797
490.52	78.759
490.87	77.552
491.22	78.842
491.56	77.778
491.91	77.433
492.26	77.594
492.60	78.497
492.95	76.963
493.30	77.084
493.64	78.279
493.99	77.533
494.34	78.000
494.68	78.184
495.03	77.294
495.37	78.761
495.72	78.242
496.07	77.382
496.41	78.555
496.76	78.311
497.11	79.039
497.45	78.831
497.80	78.439
498.14	78.831
498.49	77.649
498.84	76.942
499.18	78.899
499.53	78.568
499.87	77.606
500.22	79.069
500.56	78.339
500.91	77.931
501.26	78.117
501.60	77.227
501.95	77.585
502.29	76.854
502.64	77.699
502.98	77.288
503.33	76.786
503.67	77.155
504.02	78.416
504.36	78.284
504.71	77.862
505.06	77.184
505.40	77.745
505.75	77.795
506.09	79.070
506.44	77.694
506.78	78.726
507.13	77.291
507.47	77.778
507.82	78.988
508.16	78.549
508.51	77.486
508.85	77.588
509.19	79.121
509.54	78.118
509.88	78.723
510.23	78.092
510.57	79.259
510.92	79.377
511.26	77.778
511.61	78.942
511.95	78.610
512.30	79.054
512.64	79.188
512.98	79.538
513.33	79.187
513.67	78.894
514.02	78.859
514.36	78.947
514.70	79.626
515.05	79.931
515.39	79.239
515.74	80.803
516.08	79.078
516.42	80.850
516.77	81.051
517.11	79.634
517.46	81.400
517.80	82.732
518.14	79.771
518.49	80.096
518.83	79.050
519.17	80.225
519.52	79.988
519.86	80.944
520.20	81.663
520.55	79.631
520.89	81.027
521.23	80.342
521.58	81.881
521.92	80.874
522.26	80.000
522.61	80.608
522.95	81.429
523.29	82.571
523.64	80.450
523.98	83.195
524.32	80.013
524.66	80.683
525.01	81.952
525.35	82.088
525.69	81.327
526.04	82.376
526.38	82.304
526.72	80.715
527.06	82.161
527.41	83.036
527.75	80.858
528.09	82.197
528.43	82.230
528.78	80.905
529.12	82.074
529.46	81.572
529.80	81.988
530.15	81.133
530.49	82.083
530.83	82.515
531.17	83.300
531.51	80.978
531.86	80.250
532.20	82.659
532.54	81.417
532.88	80.962
533.22	82.553
533.57	81.201
533.91	80.275
534.25	78.630
534.59	79.388
534.93	80.958
535.27	80.491
535.62	82.864
535.96	82.999
536.30	82.330
536.64	80.943
536.98	83.475
537.32	81.824
537.66	82.145
538.01	81.856
538.35	82.568
538.69	80.882
539.03	80.772
539.37	82.102
539.71	81.254
540.05	82.248
540.39	82.133
540.73	82.516
541.07	81.967
541.42	80.689
541.76	80.797
542.10	81.904
542.44	80.879
542.78	81.682
543.12	81.942
543.46	80.137
543.80	81.405
544.14	80.658
544.48	80.184
544.82	82.003
545.16	81.824
545.50	80.417
545.84	82.267
546.18	82.108
546.52	82.788
546.86	81.838
547.20	81.435
547.54	79.959
547.88	80.690
548.22	79.685
548.56	81.563
548.90	80.997
549.24	81.990
549.58	79.675
549.92	80.919
550.26	82.803
550.60	80.797
550.94	82.555
551.28	80.963
551.62	81.019
551.96	80.608
552.30	80.557
552.64	80.436
552.98	81.500
553.32	80.952
553.66	81.975
554.00	81.521
554.34	79.711
554.68	79.386
555.02	80.753
555.36	79.799
555.69	82.092
556.03	80.281
556.37	80.228
556.71	80.100
557.05	82.409
557.39	82.108
557.73	81.692
558.07	81.989
558.41	80.628
558.75	82.586
559.08	80.778
559.42	81.087
559.76	81.212
560.10	82.028
560.44	82.081
560.78	81.489
561.12	80.262
561.45	81.233
561.79	81.185
562.13	81.487
562.47	78.852
562.81	79.491
563.15	79.426
563.48	80.304
563.82	81.812
564.16	79.310
564.50	81.116
564.84	80.026
565.17	79.509
565.51	79.922
565.85	83.232
566.19	80.435
566.52	81.474
566.86	79.077
567.20	80.327
567.54	80.862
567.88	78.504
568.21	79.978
568.55	78.738
568.89	77.634
569.23	78.343
569.56	77.217
569.90	77.577
570.24	77.565
570.57	77.012
570.91	76.981
571.25	76.524
571.59	76.834
571.92	75.476
572.26	76.213
572.60	75.178
572.93	75.751
573.27	75.701
573.61	74.935
573.95	76.158
574.28	75.142
574.62	75.953
574.96	74.526
575.29	75.279
575.63	76.161
575.97	75.108
576.30	74.788
576.64	75.405
576.98	75.044
577.31	74.684
577.65	74.771
577.98	74.673
578.32	75.374
578.66	75.017
578.99	75.137
579.33	75.785
579.67	75.171
580.00	75.322
580.34	74.388
580.67	75.337
581.01	73.789
581.35	74.879
581.68	73.836
582.02	74.133
582.35	74.372
582.69	75.146
583.02	76.127
583.36	75.667
583.70	75.141
584.03	76.778
584.37	76.590
584.70	75.575
585.04	75.620
585.37	74.224
585.71	74.770
586.04	75.355
586.38	75.809
586.72	75.056
587.05	75.927
587.39	74.706
587.72	75.073
588.06	75.296
588.39	75.961
588.73	75.860
589.06	76.055
589.40	76.915
589.73	76.346
590.07	74.982
590.40	75.683
590.73	76.769
591.07	76.680
591.40	77.556
591.74	77.237
592.07	77.297
592.41	76.815
592.74	75.788
593.08	75.832
593.41	75.329
593.75	74.942
594.08	77.858
594.41	76.340
594.75	76.255
595.08	76.466
595.42	77.348
595.75	76.038
596.09	76.678
596.42	78.273
596.75	76.628
597.09	76.803
597.42	77.084
597.75	76.484
598.09	76.367
598.42	75.475
598.76	75.374
599.09	76.046
599.42	76.240
599.76	76.482
600.09	76.832
600.42	76.035
600.76	77.213
601.09	75.427
601.42	76.217
601.76	76.168
602.09	76.973
602.42	75.679
602.76	76.568
603.09	76.774
603.42	77.357
603.76	77.024
604.09	76.332
604.42	75.937
604.76	75.665
605.09	78.029
605.42	77.482
605.75	76.930
606.09	75.716
606.42	75.744
606.75	76.514
607.09	77.150
607.42	77.641
607.75	76.556
608.08	76.819
608.42	77.247
608.75	77.150
609.08	78.178
609.41	77.578
609.75	75.622
610.08	78.235
610.41	77.060
610.74	78.772
611.07	77.941
611.41	77.761
611.74	78.509
612.07	79.646
612.40	77.292
612.73	76.737
613.07	76.995
613.40	78.763
613.73	77.929
614.06	77.265
614.39	78.805
614.72	78.212
615.06	77.120
615.39	76.017
615.72	77.729
616.05	76.532
616.38	79.164
616.71	77.477
617.05	77.744
617.38	79.505
617.71	78.378
618.04	80.124
618.37	79.245
618.70	80.378
619.03	78.605
619.36	79.634
619.69	80.187
620.03	78.375
620.36	78.903
620.69	79.469
621.02	79.680
621.35	81.452
621.68	79.590
622.01	81.068
622.34	79.658
622.67	82.109
623.00	80.566
623.33	81.045
623.66	79.173
623.99	80.226
624.32	78.125
624.65	80.206
624.99	80.807
625.32	79.940
625.65	81.119
625.98	80.595
626.31	80.832
626.64	81.925
626.97	80.308
627.30	83.319
627.63	80.570
627.96	80.418
628.29	82.813
628.62	82.904
628.95	84.252
629.28	81.861
629.61	82.728
629.94	80.718
630.26	83.499
630.59	83.920
630.92	82.983
631.25	81.956
631.58	85.397
631.91	82.128
632.24	84.556
632.57	83.889
632.90	84.598
633.23	83.294
633.56	84.211
633.89	83.491
634.22	82.999
634.55	85.216
634.88	82.104
635.20	83.895
635.53	85.751
635.86	83.501
636.19	83.883
636.52	83.871
636.85	82.310
637.18	85.750
637.51	84.882
637.83	88.016
638.16	85.658
638.49	89.517
638.82	83.140
639.15	84.436
639.48	82.490
639.81	86.584
640.13	84.865
640.46	87.607
640.79	86.975
641.12	86.601
641.45	83.357
641.77	84.281
642.10	86.103
642.43	86.798
642.76	85.354
643.09	86.667
643.41	86.825
643.74	86.645
644.07	86.739
644.40	85.900
644.73	88.779
645.05	85.309
645.38	87.748
645.71	90.550
646.04	87.563
646.36	87.260
646.69	86.678
647.02	88.448
647.35	88.809
647.67	88.139
648.00	89.455
648.33	88.027
648.66	83.226
648.98	85.350
649.31	84.462
649.64	86.875
649.96	86.499
650.29	87.213
650.62	88.296
650.94	85.329
651.27	86.828
651.60	86.505
651.92	87.329
652.25	84.641
652.58	87.223
652.90	81.220
653.23	82.903
653.56	86.120
653.88	85.574
654.21	85.235
654.54	88.040
654.86	83.949
655.19	82.808
655.52	78.912
655.84	73.935
656.17	78.624
656.49	100.000
656.82	100.000
657.15	93.157
657.47	62.246
657.80	48.480
658.13	55.601
658.45	75.538
658.78	75.700
659.10	76.663
659.43	76.271
659.75	78.088
660.08	78.125
660.41	77.064
660.73	82.178
661.06	85.072
661.38	88.750
661.71	85.468
662.03	87.298
662.36	86.994
662.68	85.443
663.01	90.021
663.33	90.023
663.66	89.056
663.98	87.946
664.31	90.604
664.63	92.035
664.96	86.117
665.28	88.503
665.61	84.989
665.93	87.037
666.26	88.057
666.58	87.942
666.91	88.864
667.23	88.377
667.56	87.528
667.88	88.462
668.21	88.710
668.53	92.056
668.86	91.455
669.18	91.553
669.50	91.589
669.83	94.647
670.15	83.857
670.48	85.981
670.80	85.649
671.13	88.262
671.45	86.486
671.77	87.794
672.10	85.207
672.42	84.686
672.75	85.091
673.07	80.000
673.39	84.699
673.72	87.795
674.04	90.658
674.37	82.680
674.69	85.041
675.01	84.468
675.34	86.117
675.66	89.201
675.98	85.903
676.31	88.462
676.63	89.885
676.95	86.726
677.28	87.935
677.60	86.199
677.92	87.665
678.25	87.965
678.57	88.477
678.89	84.906
679.22	83.857
679.54	83.235
679.86	83.400
680.18	84.601
680.51	83.426
680.83	84.381
681.15	84.778
681.48	89.655
681.80	87.097
682.12	84.306
682.44	83.497
682.77	82.684
683.09	83.857
683.41	88.274
683.73	87.215
684.06	85.376
684.38	82.427
684.70	87.037
685.02	84.055
685.34	83.236
685.67	85.227
685.99	83.365
686.31	85.996
686.63	80.496
686.96	83.179
687.28	81.503
687.60	85.742
687.92	83.463
688.24	84.055
688.56	80.962
688.89	84.615
689.21	86.871
689.53	89.655
689.85	83.073
690.17	84.081
690.49	85.681
690.82	83.133
691.14	87.264
691.46	82.483
691.78	85.903
692.10	86.864
692.42	85.111
692.74	80.043
693.06	84.270
693.39	83.669
693.71	85.553
694.03	82.505
694.35	85.553
694.67	84.870
694.99	84.399
695.31	89.031
695.63	82.653
695.95	85.360
696.27	86.284
696.59	85.561
696.91	87.921
697.23	86.198
697.56	84.856
697.88	86.486
698.20	79.229
698.52	82.287
698.84	85.194
699.16	79.048
699.48	86.250
699.80	84.461
700.12	85.642
700.44	87.989
700.76	86.006
701.08	86.919
701.40	86.405
701.72	89.815
702.04	91.346
702.36	84.036
702.68	82.036
703.00	86.087
703.32	78.797
703.64	87.647
703.96	89.244
704.28	86.982
704.60	88.291
704.91	82.222
705.23	87.379
705.55	85.811
705.87	83.276
706.19	87.847
706.51	86.458
706.83	88.197
707.15	87.261
707.47	82.645
707.79	82.990
708.11	81.679
708.43	83.541
708.74	80.519
709.06	83.565
709.38	85.920
709.70	87.812
710.02	84.049
710.34	85.149
710.66	83.175
710.98	85.174
711.29	86.774
711.61	82.748
711.93	81.967
712.25	88.372
712.57	85.017
712.89	91.007
713.20	84.192
713.52	90.672
713.84	91.103
714.16	84.590
714.48	86.667
714.80	83.385
715.11	78.674
715.43	87.349
715.75	82.243
716.07	86.230
716.39	87.625
716.70	88.153
717.02	90.741
717.34	85.878
717.66	86.722
717.97	84.426
718.29	89.076
718.61	90.873
718.93	77.419
719.24	81.250
719.56	85.660
719.88	87.636
720.20	84.270
720.51	87.218
720.83	90.763
721.15	89.344
721.46	91.765
721.78	83.525
722.10	97.600
722.42	90.909
722.73	82.072
723.05	88.755
723.37	84.706
723.68	81.781
724.00	84.146
724.32	83.539
724.63	82.988
724.95	91.322
725.27	85.526
725.58	86.207
725.90	82.540
726.22	83.764
726.53	87.452
726.85	83.529
727.16	79.323
727.48	86.923
727.80	83.607
728.11	84.034
728.43	87.190
728.74	87.500
729.06	84.848
729.38	90.272
729.69	89.764
730.01	90.157
730.32	88.845
730.64	83.883
730.96	87.687
731.27	81.071
731.59	76.849
731.90	83.436
732.22	79.141
732.53	87.417
732.85	82.886
733.16	86.232
733.48	79.443
733.80	83.986
734.11	85.862
734.43	86.054
734.74	80.119
735.06	86.207
735.37	82.875
735.69	83.548
736.00	83.165
736.32	82.781
736.63	80.690
736.95	86.594
737.26	78.477
737.58	88.489
737.89	84.946
738.21	83.835
738.52	90.000
738.83	80.859
739.15	81.197
739.46	87.903
739.78	83.916
740.09	80.420
740.41	83.217
740.72	82.117
741.04	82.143
741.35	81.385
741.66	88.426
741.98	79.524
742.29	84.038
742.61	82.888
742.92	90.654
743.23	79.386
743.55	83.333
743.86	86.667
744.18	80.476
744.49	90.640
744.80	83.756
745.12	89.691
745.43	90.452
745.74	85.922
746.06	81.951
746.37	83.700
746.68	82.090
747.00	87.435
747.31	83.654
747.62	87.097
747.94	87.336
748.25	87.907
748.56	85.238
748.88	86.957
749.19	80.751
749.50	85.294
749.82	85.778
750.13	90.749
750.44	81.707
750.75	89.200
751.07	83.929
751.38	85.240
751.69	80.534
752.01	87.308
752.32	81.323
752.63	79.615
752.94	83.730
753.26	87.391
753.57	85.714
753.88	83.621
754.19	82.573
754.51	82.813
754.82	87.747
755.13	83.539
755.44	85.950
755.75	90.123
756.07	78.715
756.38	81.641
756.69	85.199
757.00	77.352
757.31	84.228
757.63	84.112
757.94	81.503
758.25	86.628
758.56	83.288
758.87	78.409
759.18	80.333
759.50	90.036
759.81	85.036
760.12	84.797
760.43	83.819
760.74	89.375
761.05	78.933
761.36	84.431
761.67	79.586
761.99	81.290
762.30	89.130
762.61	84.528
762.92	86.547
763.23	83.412
763.54	84.889
763.85	86.076
764.16	86.122
764.47	84.746
764.78	83.146
765.10	84.892
765.41	80.645
765.72	80.189
766.03	80.212
766.34	85.714
766.65	85.830
766.96	88.500
767.27	95.312
767.58	80.814
767.89	91.613
768.20	88.344
768.51	78.142
768.82	83.243
769.13	89.000
769.44	80.702
769.75	81.818
770.06	83.028
770.37	84.038
770.68	83.333
770.99	80.198
771.30	87.379
771.61	89.352
771.92	78.355
772.23	84.579
772.54	88.298
772.85	83.432
773.16	86.585
773.47	87.349
773.78	86.813
774.09	85.333
774.39	85.185
774.70	87.248
775.01	87.681
775.32	84.328
775.63	88.430
775.94	92.481
776.25	90.000
776.56	85.246
776.87	96.460
777.18	90.265
777.48	81.818
777.79	77.391
778.10	70.642
778.41	94.068
778.72	90.083
779.03	84.328
779.34	88.722
779.65	81.699
779.95	92.029
780.26	85.714
780.57	87.931
780.88	100.926
781.19	84.848
781.50	81.600
781.80	87.582
782.11	87.179
782.42	80.120
782.73	86.861
783.04	77.703
783.34	84.848
783.65	82.171
783.96	93.496
784.27	88.889
784.57	91.057
784.88	83.740
785.19	89.474
785.50	71.134
785.81	80.952
786.11	94.118
786.42	73.636
786.73	88.288
787.04	88.119
787.34	84.762
787.65	89.524
787.96	81.373
788.26	90.090
788.57	83.871
788.88	77.344
789.19	85.470
789.49	78.151
789.80	77.778
790.11	83.186
790.41	93.939
790.72	69.811
791.03	91.667
791.33	81.579
791.64	86.022
791.95	92.000
792.25	101.429
792.56	81.707
792.87	85.714
793.17	90.789
793.48	59.459
793.79	73.239
794.09	94.937
794.40	88.298
794.70	81.308
795.01	73.684
795.32	83.636
795.62	75.893
795.93	82.474
796.23	76.923
796.54	85.263
796.85	83.562
797.15	80.556
797.46	73.973
797.76	88.732
798.07	85.000
798.37	100.000
798.68	101.429
798.99	77.143
799.29	81.579
799.60	95.000
799.90	56.944
800.21	67.187
800.51	85.714
800.82	104.918
801.12	84.211
801.43	70.423
801.73	79.661
802.04	83.607
802.34	61.818
802.65	82.692
802.95	87.037
803.26	75.000
803.56	86.538
803.87	94.737
804.17	103.226
804.48	81.538
804.78	107.692
805.09	106.977
805.39	112.500
805.70	77.358
806.00	94.737
806.30	75.676
806.61	73.529
806.91	82.716
807.22	69.333
807.52	70.149
807.83	64.516
808.13	71.429
808.43	96.364
808.74	84.848
809.04	103.774
809.35	91.781
809.65	87.719
809.95	58.824
810.26	94.118
810.56	60.000
810.86	79.592
811.17	94.286
811.47	86.538
811.77	100.000
812.08	50.000
812.38	73.810
812.69	56.522
812.99	129.032
813.29	59.524
813.59	77.778
813.90	53.191
814.20	44.186
814.50	89.583
814.81	63.333
815.11	78.049
815.41	100.000
815.72	97.143
816.02	102.778
816.32	87.179
816.62	78.378
816.93	47.059
817.23	67.391
817.53	70.588
817.84	97.059
818.14	81.250
818.44	89.655
818.74	77.419
819.04	74.074
819.35	100.000
819.65	84.000
819.95	36.667
820.25	80.000
820.56	55.263
820.86	42.500
821.16	65.957
821.46	65.517
821.76	87.179
822.07	55.000
822.37	58.140
822.67	50.000
822.97	62.162
823.27	59.459
823.57	140.000
823.88	75.676
824.18	109.524
824.48	76.923
824.78	76.923
825.08	52.174
825.38	95.833
825.69	87.500
825.99	115.000
826.29	51.351
826.59	67.647
826.89	160.000
827.19	28.571
827.49	89.474
827.79	62.500
828.09	46.667
828.39	78.261
828.70	27.586
829.00	62.069
829.30	58.333
829.60	96.875
829.90	150.000
830.20	53.846
830.50	9.524
830.80	46.429
831.10	53.846
831.40	47.619
831.70	38.235
832.00	104.167
832.30	105.263
832.60	93.750
832.90	66.667
833.20	0.000
833.50	0.000
833.80	80.000
834.10	60.000
834.40	54.167
834.70	83.333
835.00	88.462
835.30	45.833
835.60	75.862
835.90	33.333
836.20	27.273
836.50	150.000
836.80	48.571
837.10	80.000
837.40	70.588
837.70	63.636
838.00	33.333
838.30	62.500
838.60	33.333
838.90	60.000
839.19	34.783
839.49	73.913
839.79	16.667
840.09	34.783
840.39	22.727
840.69	50.000
840.99	57.895
841.29	-6.250
841.59	-14.286
841.88	11.111
842.18	62.500
842.48	-5.882
842.78	37.931
843.08	107.143
843.38	123.077
843.68	55.556
843.97	46.154
844.27	100.000
844.57	120.000
844.87	56.000
845.17	160.000
845.47	35.714
845.76	55.556
846.06	0.000
846.36	-75.000
846.66	20.000
846.96	89.474
847.25	29.167
847.55	141.667
847.85	46.667
848.15	40.000
848.44	65.385
848.74	15.789
849.04	33.333
849.34	-11.111
849.63	26.316
849.93	0.000
850.23	-10.000
850.53	71.429
850.82	32.000
851.12	52.632
851.42	-100.000
851.71	64.286
852.01	-33.333
852.31	52.941
852.61	86.667
852.90	-14.286
853.20	33.333
853.50	27.778
853.79	36.842
854.09	86.667
854.39	25.000
854.68	78.261
854.98	-16.667
855.28	55.172
855.57	87.500
855.87	50.000
856.17	33.333
856.46	55.172
856.76	40.000
857.05	29.412
857.35	-7.692
857.65	127.273
857.94	29.630
858.24	0.000
858.53	64.286
858.83	25.000
859.13	77.778
859.42	85.714
859.72	12.500
860.01	-133.333
860.31	12.500
860.60	160.000
860.90	-188.889
861.20	87.500
861.49	-28.571
861.79	47.059
862.08	0.000
862.38	-75.000
862.67	15.385
862.97	141.176
863.26	110.000
863.56	0.000
863.85	-266.667
864.15	-10.000
864.44	38.462
864.74	25.000
865.03	-137.500
865.33	116.667
865.62	41.176
865.92	-475.000
866.21	35.714
866.51	-58.333
866.80	-800.000
867.10	166.667
867.39	64.706
867.69	52.174
867.98	128.571
868.27	-40.000
868.57	-50.000
868.86	-36.364
869.16	88.235
869.45	-100.000
869.75	-142.857
870.04	300.000
870.33	-16.667
870.63	60.000
870.92	88.889
871.22	-58.333
871.51	36.364
871.80	-33.333
872.10	60.000
>>>>>End Processed Spectral Data<<<<<
