SpectraSuite Data File
++++++++++++++++++++++++++++++++++++
Date: Sat May 16 11:19:04 PDT 2015
User: schluterlab
Dark Spectrum Present: Yes
Reference Spectrum Present: Yes
Number of Sampled Component Spectra: 1
Spectrometers: USB2E3373
Integration Time (usec): 3000 (USB2E3373)
Spectra Averaged: 3 (USB2E3373)
Boxcar Smoothing: 0 (USB2E3373)
Correct for Electrical Dark: No (USB2E3373)
Strobe/Lamp Enabled: No (USB2E3373)
Correct for Detector Non-linearity: No (USB2E3373)
Correct for Stray Light: No (USB2E3373)
Number of Pixels in Processed Spectrum: 2048
>>>>>Begin Processed Spectral Data<<<<<
178.53	0.000
178.91	86.667
179.29	533.333
179.67	-900.000
180.04	-100.000
180.42	900.000
180.80	450.000
181.18	500.000
181.56	-125.000
181.94	300.000
182.31	425.000
182.69	-46.154
183.07	-333.333
183.45	1050.000
183.83	266.667
184.20	-100.000
184.58	50.000
184.96	-225.000
185.34	75.000
185.72	-450.000
186.09	316.667
186.47	-225.000
186.85	-12.500
187.23	12.500
187.61	-200.000
187.98	-262.500
188.36	-50.000
188.74	-75.000
189.12	1400.000
189.49	242.857
189.87	-75.000
190.25	225.000
190.63	-14.286
191.00	-233.333
191.38	440.000
191.76	6.667
192.14	660.000
192.51	-260.000
192.89	-333.333
193.27	0.000
193.65	-111.111
194.02	-214.286
194.40	600.000
194.78	-90.000
195.15	-1200.000
195.53	-72.727
195.91	-516.667
196.29	160.000
196.66	-400.000
197.04	2800.000
197.42	-275.000
197.79	86.667
198.17	33.333
198.55	-400.000
198.92	-500.000
199.30	175.000
199.68	-250.000
200.05	-66.667
200.43	-122.222
200.81	-1400.000
201.18	-58.333
201.56	157.143
201.94	6.667
202.31	-18.182
202.69	50.000
203.07	-40.000
203.44	466.667
203.82	-200.000
204.19	-350.000
204.57	-125.000
204.95	-300.000
205.32	-37.500
205.70	700.000
206.08	-2600.000
206.45	-11.111
206.83	-1200.000
207.20	100.000
207.58	-633.333
207.96	-166.667
208.33	-87.500
208.71	-11.111
209.08	210.000
209.46	-185.714
209.84	300.000
210.21	0.000
210.59	50.000
210.96	1200.000
211.34	-133.333
211.71	-66.667
212.09	150.000
212.46	950.000
212.84	-900.000
213.22	366.667
213.59	-8.333
213.97	55.556
214.34	130.000
214.72	20.000
215.09	-233.333
215.47	50.000
215.84	-80.000
216.22	30.000
216.59	46.667
216.97	-150.000
217.34	400.000
217.72	-42.857
218.09	-33.333
218.47	-257.143
218.84	171.429
219.22	14.286
219.59	0.000
219.97	171.429
220.34	325.000
220.72	175.000
221.09	-53.846
221.47	0.000
221.84	233.333
222.22	-600.000
222.59	-0.000
222.97	-212.500
223.34	-300.000
223.72	-66.667
224.09	-7.143
224.46	-50.000
224.84	14.286
225.21	-171.429
225.59	27.273
225.96	-100.000
226.34	0.000
226.71	11.111
227.08	40.000
227.46	1000.000
227.83	-71.429
228.21	-75.000
228.58	100.000
228.95	-12.500
229.33	-900.000
229.70	-180.000
230.08	-450.000
230.45	0.000
230.82	-216.667
231.20	200.000
231.57	-400.000
231.95	700.000
232.32	9.524
232.69	-33.333
233.07	-314.286
233.44	-950.000
233.81	-93.333
234.19	-11.111
234.56	-6.250
234.93	53.125
235.31	-200.000
235.68	-100.000
236.05	0.000
236.43	-18.182
236.80	12.903
237.17	37.500
237.55	0.000
237.92	-27.273
238.29	-14.286
238.67	23.529
239.04	13.889
239.41	-6.452
239.79	-10.256
240.16	2.381
240.53	14.545
240.91	35.897
241.28	25.455
241.65	29.231
242.02	9.836
242.40	16.393
242.77	25.758
243.14	10.169
243.51	28.571
243.89	20.253
244.26	28.090
244.63	30.526
245.00	21.053
245.38	21.186
245.75	18.584
246.12	18.400
246.49	22.835
246.87	19.512
247.24	21.186
247.61	18.644
247.98	23.239
248.36	17.483
248.73	24.684
249.10	20.382
249.47	27.485
249.84	26.136
250.22	16.071
250.59	27.684
250.96	28.796
251.33	34.123
251.70	24.519
252.08	23.697
252.45	22.749
252.82	22.857
253.19	26.383
253.56	25.000
253.94	25.316
254.31	25.751
254.68	27.642
255.05	27.419
255.42	22.222
255.79	26.523
256.16	28.235
256.54	24.632
256.91	25.000
257.28	26.374
257.65	24.823
258.02	26.730
258.39	27.425
258.76	24.324
259.14	21.914
259.51	26.230
259.88	22.866
260.25	30.745
260.62	25.402
260.99	23.739
261.36	27.744
261.73	23.988
262.10	25.556
262.47	24.786
262.85	27.714
263.22	28.367
263.59	21.846
263.96	28.406
264.33	27.100
264.70	33.149
265.07	26.648
265.44	28.165
265.81	28.165
266.18	21.772
266.55	24.510
266.92	27.456
267.29	27.361
267.66	25.185
268.03	27.295
268.40	24.178
268.77	24.337
269.14	24.130
269.51	25.517
269.88	24.312
270.25	22.611
270.62	29.519
270.99	22.973
271.36	27.040
271.73	27.130
272.10	25.400
272.47	26.000
272.84	27.556
273.21	25.229
273.58	25.275
273.95	24.781
274.32	27.376
274.69	27.133
275.06	27.812
275.43	22.545
275.80	26.069
276.17	27.197
276.54	25.255
276.91	24.691
277.28	25.963
277.65	26.653
278.02	25.470
278.39	23.576
278.76	26.892
279.13	23.913
279.50	26.441
279.87	26.216
280.23	26.518
280.60	25.646
280.97	25.049
281.34	25.725
281.71	25.769
282.08	27.621
282.45	24.033
282.82	26.938
283.19	24.364
283.56	26.190
283.92	22.968
284.29	23.234
284.66	24.460
285.03	27.451
285.40	24.723
285.77	27.018
286.14	23.646
286.51	25.044
286.87	26.497
287.24	24.915
287.61	25.289
287.98	24.263
288.35	21.818
288.72	23.430
289.08	22.881
289.45	23.906
289.82	22.664
290.19	24.959
290.56	22.645
290.93	22.893
291.29	23.825
291.66	24.799
292.03	23.705
292.40	22.892
292.77	22.516
293.13	22.927
293.50	21.100
293.87	21.626
294.24	21.569
294.60	20.303
294.97	21.093
295.34	21.481
295.71	22.173
296.08	20.123
296.44	20.029
296.81	22.934
297.18	20.563
297.55	21.751
297.91	22.315
298.28	20.411
298.65	20.084
299.02	21.123
299.38	19.519
299.75	22.011
300.12	22.051
300.48	21.228
300.85	20.052
301.22	20.310
301.59	19.636
301.95	22.040
302.32	18.905
302.69	20.930
303.05	20.269
303.42	20.625
303.79	20.335
304.15	19.905
304.52	20.887
304.89	20.779
305.25	20.391
305.62	18.801
305.99	22.615
306.35	20.977
306.72	20.387
307.09	21.112
307.45	20.318
307.82	19.218
308.19	20.470
308.55	22.331
308.92	19.764
309.29	20.324
309.65	21.103
310.02	21.058
310.38	21.405
310.75	22.029
311.12	22.624
311.48	22.651
311.85	21.627
312.22	21.318
312.58	21.770
312.95	21.611
313.31	23.177
313.68	22.814
314.05	23.442
314.41	22.133
314.78	22.278
315.14	23.396
315.51	23.202
315.87	22.749
316.24	22.449
316.61	23.896
316.97	23.085
317.34	24.277
317.70	23.098
318.07	23.881
318.43	23.783
318.80	26.103
319.16	24.578
319.53	24.248
319.89	23.801
320.26	23.431
320.62	24.519
320.99	25.274
321.35	24.532
321.72	26.203
322.08	26.508
322.45	27.129
322.81	29.491
323.18	28.818
323.54	29.020
323.91	28.082
324.27	29.278
324.64	28.702
325.00	29.058
325.37	30.045
325.73	30.534
326.10	30.735
326.46	30.648
326.83	31.489
327.19	32.193
327.56	33.560
327.92	34.410
328.29	33.333
328.65	34.000
329.01	35.071
329.38	35.593
329.74	35.623
330.11	35.539
330.47	35.332
330.84	36.022
331.20	37.004
331.56	37.375
331.93	37.034
332.29	37.078
332.66	37.138
333.02	36.380
333.38	37.455
333.75	38.468
334.11	37.511
334.48	38.482
334.84	37.620
335.20	36.791
335.57	39.531
335.93	40.913
336.29	38.707
336.66	37.797
337.02	38.468
337.38	37.433
337.75	38.367
338.11	37.835
338.47	38.345
338.84	38.475
339.20	37.698
339.56	40.731
339.93	38.360
340.29	38.973
340.65	38.462
341.02	38.702
341.38	36.900
341.74	39.204
342.11	40.273
342.47	38.970
342.83	38.203
343.20	38.599
343.56	37.714
343.92	37.813
344.28	39.361
344.65	39.274
345.01	39.076
345.37	39.037
345.73	37.971
346.10	37.694
346.46	38.343
346.82	36.969
347.19	38.784
347.55	38.122
347.91	39.055
348.27	38.743
348.63	39.015
349.00	39.220
349.36	35.988
349.72	39.172
350.08	39.294
350.45	38.771
350.81	40.127
351.17	38.344
351.53	38.982
351.89	38.399
352.26	38.605
352.62	38.940
352.98	38.370
353.34	38.849
353.70	37.606
354.07	39.339
354.43	38.735
354.79	38.748
355.15	36.821
355.51	38.672
355.87	39.289
356.24	39.635
356.60	40.048
356.96	39.415
357.32	40.063
357.68	38.314
358.04	38.414
358.40	38.979
358.77	39.258
359.13	38.332
359.49	40.438
359.85	38.796
360.21	38.965
360.57	40.437
360.93	40.667
361.29	40.284
361.66	38.948
362.02	38.388
362.38	40.279
362.74	41.172
363.10	39.670
363.46	41.168
363.82	40.379
364.18	40.304
364.54	39.528
364.90	39.972
365.26	41.298
365.62	41.483
365.98	42.532
366.35	41.620
366.71	41.508
367.07	40.226
367.43	42.141
367.79	41.237
368.15	41.181
368.51	42.308
368.87	41.552
369.23	41.474
369.59	42.083
369.95	43.058
370.31	43.671
370.67	42.155
371.03	42.274
371.39	41.796
371.75	42.918
372.11	42.683
372.47	43.167
372.83	43.394
373.19	43.214
373.55	42.435
373.91	43.528
374.27	43.395
374.63	43.823
374.99	43.602
375.35	43.809
375.71	43.349
376.07	43.258
376.42	43.377
376.78	44.314
377.14	45.831
377.50	44.616
377.86	44.213
378.22	45.477
378.58	44.719
378.94	45.253
379.30	45.582
379.66	45.173
380.02	44.029
380.38	45.680
380.74	45.897
381.09	45.050
381.45	46.897
381.81	45.675
382.17	46.554
382.53	45.957
382.89	46.591
383.25	46.899
383.61	46.050
383.97	47.704
384.32	48.060
384.68	48.609
385.04	48.007
385.40	48.387
385.76	47.805
386.12	48.470
386.48	47.772
386.83	48.282
387.19	48.296
387.55	47.850
387.91	48.963
388.27	46.803
388.62	48.137
388.98	47.244
389.34	48.042
389.70	49.695
390.06	49.658
390.42	50.256
390.77	48.833
391.13	49.193
391.49	48.846
391.85	49.377
392.20	48.847
392.56	49.114
392.92	50.770
393.28	50.057
393.64	49.970
393.99	50.092
394.35	50.608
394.71	49.784
395.07	51.036
395.42	50.775
395.78	50.597
396.14	50.966
396.50	49.725
396.85	50.648
397.21	51.154
397.57	50.821
397.92	51.054
398.28	51.889
398.64	51.279
399.00	53.764
399.35	50.395
399.71	51.336
400.07	52.119
400.42	51.521
400.78	51.282
401.14	51.497
401.49	51.179
401.85	52.471
402.21	51.669
402.57	51.578
402.92	53.493
403.28	52.145
403.63	50.869
403.99	53.574
404.35	50.845
404.70	51.726
405.06	52.191
405.42	51.476
405.77	51.810
406.13	52.073
406.49	52.367
406.84	52.789
407.20	52.591
407.55	53.198
407.91	51.490
408.27	52.451
408.62	51.594
408.98	52.638
409.34	51.798
409.69	51.355
410.05	51.304
410.40	52.790
410.76	53.053
411.11	52.868
411.47	52.046
411.83	52.751
412.18	52.723
412.54	51.373
412.89	53.767
413.25	52.774
413.60	52.552
413.96	52.126
414.31	52.232
414.67	51.937
415.03	53.169
415.38	53.025
415.74	55.026
416.09	54.028
416.45	52.183
416.80	54.096
417.16	52.890
417.51	54.957
417.87	52.686
418.22	53.982
418.58	52.760
418.93	53.893
419.29	53.764
419.64	53.894
420.00	54.374
420.35	54.228
420.71	54.682
421.06	54.734
421.42	53.981
421.77	54.327
422.12	54.057
422.48	55.051
422.83	54.897
423.19	53.285
423.54	53.890
423.90	54.945
424.25	54.751
424.61	55.368
424.96	54.652
425.31	54.835
425.67	54.670
426.02	53.930
426.38	55.233
426.73	55.056
427.09	55.515
427.44	55.568
427.79	55.349
428.15	55.236
428.50	55.543
428.85	55.995
429.21	54.787
429.56	56.615
429.92	55.711
430.27	55.733
430.62	55.799
430.98	54.522
431.33	55.550
431.68	55.871
432.04	55.344
432.39	56.923
432.74	56.475
433.10	56.331
433.45	54.922
433.80	56.999
434.16	55.185
434.51	57.644
434.86	57.528
435.22	57.572
435.57	57.466
435.92	56.975
436.28	58.220
436.63	56.868
436.98	57.331
437.34	56.054
437.69	56.943
438.04	56.551
438.39	57.341
438.75	57.392
439.10	56.247
439.45	57.091
439.81	56.325
440.16	56.616
440.51	57.824
440.86	56.796
441.22	57.877
441.57	57.579
441.92	57.954
442.27	57.143
442.63	57.511
442.98	58.014
443.33	58.375
443.68	57.999
444.03	57.564
444.39	57.611
444.74	58.921
445.09	58.059
445.44	58.301
445.79	58.440
446.15	58.708
446.50	57.267
446.85	58.030
447.20	58.274
447.55	59.171
447.91	59.012
448.26	58.156
448.61	57.442
448.96	59.440
449.31	58.568
449.66	59.473
450.02	56.676
450.37	59.188
450.72	58.644
451.07	60.151
451.42	58.116
451.77	58.767
452.12	57.569
452.47	58.816
452.83	58.008
453.18	58.254
453.53	58.520
453.88	59.868
454.23	58.041
454.58	60.659
454.93	59.509
455.28	58.891
455.63	59.521
455.98	58.133
456.34	59.339
456.69	58.912
457.04	59.250
457.39	59.928
457.74	59.539
458.09	57.483
458.44	60.681
458.79	59.865
459.14	59.726
459.49	60.036
459.84	59.584
460.19	60.263
460.54	59.649
460.89	60.202
461.24	59.199
461.59	59.906
461.94	58.943
462.29	59.797
462.64	59.750
462.99	60.710
463.34	59.892
463.69	59.796
464.04	58.992
464.39	59.677
464.74	58.333
465.09	58.148
465.44	58.827
465.79	59.560
466.14	60.299
466.49	59.585
466.84	59.364
467.19	59.663
467.54	58.734
467.89	60.727
468.24	60.154
468.59	61.149
468.94	59.486
469.29	60.364
469.64	59.771
469.99	59.959
470.34	60.855
470.68	61.119
471.03	62.147
471.38	59.792
471.73	62.308
472.08	60.375
472.43	62.420
472.78	60.133
473.13	60.769
473.48	60.817
473.83	61.352
474.17	62.357
474.52	63.107
474.87	59.499
475.22	60.295
475.57	61.222
475.92	61.717
476.27	60.343
476.61	60.563
476.96	61.151
477.31	62.271
477.66	60.542
478.01	61.534
478.36	60.241
478.70	61.185
479.05	61.493
479.40	60.984
479.75	61.264
480.10	60.466
480.45	60.058
480.79	61.155
481.14	61.214
481.49	61.084
481.84	60.564
482.19	60.895
482.53	60.653
482.88	60.275
483.23	60.704
483.58	61.193
483.92	60.726
484.27	60.035
484.62	59.525
484.97	59.353
485.31	58.336
485.66	56.786
486.01	57.849
486.36	59.660
486.70	60.210
487.05	59.158
487.40	59.108
487.75	59.629
488.09	58.524
488.44	59.641
488.79	58.967
489.13	60.213
489.48	60.400
489.83	61.092
490.17	59.164
490.52	59.647
490.87	59.584
491.22	61.140
491.56	60.370
491.91	60.639
492.26	60.802
492.60	60.609
492.95	61.114
493.30	58.695
493.64	60.085
493.99	60.229
494.34	60.095
494.68	60.955
495.03	59.465
495.37	60.619
495.72	60.462
496.07	60.253
496.41	60.908
496.76	60.320
497.11	59.538
497.45	61.303
497.80	59.230
498.14	60.363
498.49	60.824
498.84	59.417
499.18	61.452
499.53	60.887
499.87	60.425
500.22	60.882
500.56	60.230
500.91	60.443
501.26	59.486
501.60	59.942
501.95	61.401
502.29	58.810
502.64	59.925
502.98	60.134
503.33	59.258
503.67	60.680
504.02	58.860
504.36	60.245
504.71	60.436
505.06	58.412
505.40	60.479
505.75	60.213
506.09	60.718
506.44	61.053
506.78	59.659
507.13	59.732
507.47	60.981
507.82	60.506
508.16	60.466
508.51	60.124
508.85	60.611
509.19	61.015
509.54	61.152
509.88	59.681
510.23	61.164
510.57	60.794
510.92	60.526
511.26	60.659
511.61	61.177
511.95	59.537
512.30	61.187
512.64	60.768
512.98	61.221
513.33	60.791
513.67	60.246
514.02	60.459
514.36	60.166
514.70	60.838
515.05	60.206
515.39	59.689
515.74	61.606
516.08	61.671
516.42	60.170
516.77	61.641
517.11	60.183
517.46	62.799
517.80	63.057
518.14	61.292
518.49	62.224
518.83	61.306
519.17	61.456
519.52	61.712
519.86	62.724
520.20	62.714
520.55	62.462
520.89	62.304
521.23	61.966
521.58	62.006
521.92	63.331
522.26	61.778
522.61	61.407
522.95	63.114
523.29	63.323
523.64	61.587
523.98	61.680
524.32	60.528
524.66	60.124
525.01	61.143
525.35	62.500
525.69	61.874
526.04	63.120
526.38	62.635
526.72	61.558
527.06	63.477
527.41	62.112
527.75	59.604
528.09	61.416
528.43	62.098
528.78	60.427
529.12	62.420
529.46	61.856
529.80	61.072
530.15	61.623
530.49	60.931
530.83	61.297
531.17	60.943
531.51	60.884
531.86	59.908
532.20	62.348
532.54	61.497
532.88	59.552
533.22	61.430
533.57	60.966
533.91	58.302
534.25	59.208
534.59	59.088
534.93	58.805
535.27	59.031
535.62	61.189
535.96	60.504
536.30	59.817
536.64	58.898
536.98	62.429
537.32	61.092
537.66	60.828
538.01	61.649
538.35	60.068
538.69	60.160
539.03	60.190
539.37	59.681
539.71	59.506
540.05	60.110
540.39	59.834
540.73	59.157
541.07	59.495
541.42	58.879
541.76	58.538
542.10	59.689
542.44	59.760
542.78	59.498
543.12	58.520
543.46	58.630
543.80	58.863
544.14	57.690
544.48	59.186
544.82	59.608
545.16	58.685
545.50	58.614
545.84	60.223
546.18	58.114
546.52	58.606
546.86	57.977
547.20	59.212
547.54	56.336
547.88	57.996
548.22	57.274
548.56	57.114
548.90	56.873
549.24	57.603
549.58	57.869
549.92	59.152
550.26	57.803
550.60	56.117
550.94	57.664
551.28	58.164
551.62	57.755
551.96	56.078
552.30	55.192
552.64	56.087
552.98	56.692
553.32	57.359
553.66	59.553
554.00	57.214
554.34	56.534
554.68	57.164
555.02	57.019
555.36	57.369
555.69	56.375
556.03	55.439
556.37	58.037
556.71	55.691
557.05	57.132
557.39	57.238
557.73	56.601
558.07	56.895
558.41	56.619
558.75	56.350
559.08	55.097
559.42	56.355
559.76	57.055
560.10	57.196
560.44	55.347
560.78	55.602
561.12	55.003
561.45	55.068
561.79	54.983
562.13	54.769
562.47	54.902
562.81	55.516
563.15	54.724
563.48	55.079
563.82	54.767
564.16	55.984
564.50	55.376
564.84	54.696
565.17	53.846
565.51	54.628
565.85	56.592
566.19	55.468
566.52	53.816
566.86	53.793
567.20	53.269
567.54	53.574
567.88	52.150
568.21	55.089
568.55	52.704
568.89	51.789
569.23	52.892
569.56	50.694
569.90	51.928
570.24	50.846
570.57	50.404
570.91	50.629
571.25	50.357
571.59	51.233
571.92	49.762
572.26	50.000
572.60	49.426
572.93	49.768
573.27	48.598
573.61	48.781
573.95	49.441
574.28	48.472
574.62	50.127
574.96	48.928
575.29	48.374
575.63	48.951
575.97	48.679
576.30	48.287
576.64	48.695
576.98	47.972
577.31	48.176
577.65	48.669
577.98	48.412
578.32	48.200
578.66	47.933
578.99	49.224
579.33	48.581
579.67	48.060
580.00	47.793
580.34	48.973
580.67	48.615
581.01	47.692
581.35	48.727
581.68	47.118
582.02	47.916
582.35	47.441
582.69	48.098
583.02	48.121
583.36	48.499
583.70	47.901
584.03	48.949
584.37	48.309
584.70	48.269
585.04	47.494
585.37	47.232
585.71	47.412
586.04	47.948
586.38	47.928
586.72	47.463
587.05	48.145
587.39	47.391
587.72	47.465
588.06	47.263
588.39	47.593
588.73	48.008
589.06	48.242
589.40	48.437
589.73	47.096
590.07	47.123
590.40	47.970
590.73	47.981
591.07	48.566
591.40	48.787
591.74	48.871
592.07	49.009
592.41	48.450
592.74	47.886
593.08	47.545
593.41	47.533
593.75	46.785
594.08	47.304
594.41	47.652
594.75	47.037
595.08	47.293
595.42	47.146
595.75	46.637
596.09	47.808
596.42	48.159
596.75	47.520
597.09	48.798
597.42	47.447
597.75	48.140
598.09	47.808
598.42	47.945
598.76	46.802
599.09	47.080
599.42	46.597
599.76	46.697
600.09	47.366
600.42	46.981
600.76	46.667
601.09	47.209
601.42	46.814
601.76	46.456
602.09	46.994
602.42	46.955
602.76	47.237
603.09	46.815
603.42	47.260
603.76	47.228
604.09	47.177
604.42	47.002
604.76	46.577
605.09	47.107
605.42	47.340
605.75	46.744
606.09	46.575
606.42	46.753
606.75	46.071
607.09	47.287
607.42	46.655
607.75	46.137
608.08	47.176
608.42	48.013
608.75	46.355
609.08	46.420
609.41	46.986
609.75	46.026
610.08	47.745
610.41	47.904
610.74	47.969
611.07	48.174
611.41	45.991
611.74	47.147
612.07	48.443
612.40	47.015
612.73	47.119
613.07	48.046
613.40	47.455
613.73	47.084
614.06	46.787
614.39	48.534
614.72	46.648
615.06	47.174
615.39	46.066
615.72	47.148
616.05	46.715
616.38	46.779
616.71	46.847
617.05	47.527
617.38	48.173
617.71	46.622
618.04	47.081
618.37	47.610
618.70	49.478
619.03	46.784
619.36	48.203
619.69	48.528
620.03	46.074
620.36	47.961
620.69	47.739
621.02	48.174
621.35	48.065
621.68	48.852
622.01	50.405
622.34	47.360
622.67	47.734
623.00	48.738
623.33	48.881
623.66	47.120
623.99	46.692
624.32	47.768
624.65	47.756
624.99	48.693
625.32	48.204
625.65	49.495
625.98	47.183
626.31	48.777
626.64	48.536
626.97	49.572
627.30	50.213
627.63	49.050
627.96	48.564
628.29	49.908
628.62	48.711
628.95	49.114
629.28	49.812
629.61	49.166
629.94	50.095
630.26	50.795
630.59	49.950
630.92	49.650
631.25	49.597
631.58	50.476
631.91	49.255
632.24	51.889
632.57	50.000
632.90	52.184
633.23	51.402
633.56	49.708
633.89	51.769
634.22	50.531
634.55	51.202
634.88	50.060
635.20	49.189
635.53	49.364
635.86	50.756
636.19	49.695
636.52	49.223
636.85	49.458
637.18	47.500
637.51	50.929
637.83	52.064
638.16	50.658
638.49	50.759
638.82	49.421
639.15	49.676
639.48	49.416
639.81	50.484
640.13	51.757
640.46	51.994
640.79	50.140
641.12	48.942
641.45	51.363
641.77	53.293
642.10	49.396
642.43	50.531
642.76	50.551
643.09	50.476
643.41	50.635
643.74	49.762
644.07	51.638
644.40	51.702
644.73	52.310
645.05	49.917
645.38	51.490
645.71	53.093
646.04	51.765
646.36	52.007
646.69	52.076
647.02	54.332
647.35	53.610
647.67	52.372
648.00	53.779
648.33	54.300
648.66	49.032
648.98	50.637
649.31	49.538
649.64	52.031
649.96	51.962
650.29	50.000
650.62	52.840
650.94	48.229
651.27	50.433
651.60	50.519
651.92	53.767
652.25	50.751
652.58	51.618
652.90	51.846
653.23	50.484
653.56	50.502
653.88	49.016
654.21	50.671
654.54	51.163
654.86	48.475
655.19	48.281
655.52	45.654
655.84	42.912
656.17	46.333
656.49	63.005
656.82	65.006
657.15	49.808
657.47	36.649
657.80	28.307
658.13	32.641
658.45	44.229
658.78	44.760
659.10	44.259
659.43	44.795
659.75	45.437
660.08	45.052
660.41	44.558
660.73	47.305
661.06	50.870
661.38	53.571
661.71	51.816
662.03	52.823
662.36	55.224
662.68	53.376
663.01	53.715
663.33	53.741
663.66	54.721
663.98	51.563
664.31	54.362
664.63	54.867
664.96	48.590
665.28	51.193
665.61	47.569
665.93	51.029
666.26	50.810
666.58	48.857
666.91	51.002
667.23	51.096
667.56	51.020
667.88	53.167
668.21	53.456
668.53	54.907
668.86	52.656
669.18	55.251
669.50	50.467
669.83	51.582
670.15	51.121
670.48	52.336
670.80	48.747
671.13	50.339
671.45	52.027
671.77	49.036
672.10	50.099
672.42	49.631
672.75	48.000
673.07	48.108
673.39	49.909
673.72	49.213
674.04	52.866
674.37	50.309
674.69	53.074
675.01	51.489
675.34	50.542
675.66	52.052
675.98	51.101
676.31	51.357
676.63	54.483
676.95	49.336
677.28	51.508
677.60	54.299
677.92	54.185
678.25	52.079
678.57	54.527
678.89	49.266
679.22	51.153
679.54	48.915
679.86	49.200
680.18	49.049
680.51	48.045
680.83	48.762
681.15	49.904
681.48	50.101
681.80	48.589
682.12	47.686
682.44	49.312
682.77	48.268
683.09	50.734
683.41	52.655
683.73	50.000
684.06	51.613
684.38	50.209
684.70	49.177
685.02	47.047
685.34	51.072
685.67	50.000
685.99	48.393
686.31	47.038
686.63	48.227
686.96	48.799
687.28	48.362
687.60	50.391
687.92	46.693
688.24	48.622
688.56	45.491
688.89	46.581
689.21	51.641
689.53	49.655
689.85	45.657
690.17	47.534
690.49	50.577
690.82	47.470
691.14	51.179
691.46	49.224
691.78	49.119
692.10	47.246
692.42	52.222
692.74	50.215
693.06	50.562
693.39	49.664
693.71	48.307
694.03	51.188
694.35	46.501
694.67	48.463
694.99	49.361
695.31	50.255
695.63	46.939
695.95	54.839
696.27	48.878
696.59	49.465
696.91	50.562
697.23	51.823
697.56	46.875
697.88	48.198
698.20	49.036
698.52	47.534
698.84	50.728
699.16	45.714
699.48	47.500
699.80	47.118
700.12	51.385
700.44	48.883
700.76	52.478
701.08	50.872
701.40	48.036
701.72	51.852
702.04	51.282
702.36	49.096
702.68	49.401
703.00	49.565
703.32	50.430
703.64	53.235
703.96	51.744
704.28	48.817
704.60	50.949
704.91	52.381
705.23	51.780
705.55	51.351
705.87	50.853
706.19	50.694
706.51	50.347
706.83	53.770
707.15	48.726
707.47	49.311
707.79	48.711
708.11	47.583
708.43	47.382
708.74	51.948
709.06	47.354
709.38	48.276
709.70	50.000
710.02	50.307
710.34	51.815
710.66	49.206
710.98	50.789
711.29	44.839
711.61	46.006
711.93	49.180
712.25	50.831
712.57	48.432
712.89	51.799
713.20	52.921
713.52	46.269
713.84	48.043
714.16	50.820
714.48	48.889
714.80	47.692
715.11	45.821
715.43	50.602
715.75	48.910
716.07	47.541
716.39	46.488
716.70	53.659
717.02	49.630
717.34	48.473
717.66	53.112
717.97	49.590
718.29	55.042
718.61	50.794
718.93	47.312
719.24	46.691
719.56	43.396
719.88	44.364
720.20	46.816
720.51	56.015
720.83	51.406
721.15	52.869
721.46	46.275
721.78	49.425
722.10	51.600
722.42	55.785
722.73	47.012
723.05	55.020
723.37	47.451
723.68	43.725
724.00	49.593
724.32	53.086
724.63	48.963
724.95	48.760
725.27	49.561
725.58	49.138
725.90	46.032
726.22	52.030
726.53	49.810
726.85	45.882
727.16	50.752
727.48	47.692
727.80	47.541
728.11	46.639
728.43	52.066
728.74	47.266
729.06	46.591
729.38	45.136
729.69	48.819
730.01	50.394
730.32	54.582
730.64	46.520
730.96	50.000
731.27	46.429
731.59	46.945
731.90	46.933
732.22	46.626
732.53	48.675
732.85	45.638
733.16	51.087
733.48	45.296
733.80	48.043
734.11	51.379
734.43	48.639
734.74	49.555
735.06	46.395
735.37	46.177
735.69	45.484
736.00	46.801
736.32	48.013
736.63	46.207
736.95	46.739
737.26	48.675
737.58	48.921
737.89	49.821
738.21	48.496
738.52	50.769
738.83	47.656
739.15	53.846
739.46	56.048
739.78	48.252
740.09	43.357
740.41	46.853
740.72	48.175
741.04	50.000
741.35	43.723
741.66	52.315
741.98	46.667
742.29	47.887
742.61	55.080
742.92	57.009
743.23	48.684
743.55	49.550
743.86	60.444
744.18	49.524
744.49	51.724
744.80	48.223
745.12	52.577
745.43	48.744
745.74	47.573
746.06	50.732
746.37	48.899
746.68	46.269
747.00	57.592
747.31	48.558
747.62	39.631
747.94	48.035
748.25	45.581
748.56	52.381
748.88	44.565
749.19	44.131
749.50	56.863
749.82	48.444
750.13	52.863
750.44	48.780
750.75	49.600
751.07	48.929
751.38	43.542
751.69	46.565
752.01	48.077
752.32	44.747
752.63	45.000
752.94	46.429
753.26	45.217
753.57	57.143
753.88	47.414
754.19	46.473
754.51	44.922
754.82	52.174
755.13	51.440
755.44	50.000
755.75	52.263
756.07	44.177
756.38	48.437
756.69	46.570
757.00	48.780
757.31	52.349
757.63	48.910
757.94	44.509
758.25	46.221
758.56	49.057
758.87	42.898
759.18	46.667
759.50	48.043
759.81	50.730
760.12	44.257
760.43	49.515
760.74	49.687
761.05	43.820
761.36	47.305
761.67	47.633
761.99	46.774
762.30	48.913
762.61	44.528
762.92	52.915
763.23	49.289
763.54	49.333
763.85	51.899
764.16	48.163
764.47	46.186
764.78	43.071
765.10	50.719
765.41	48.065
765.72	48.742
766.03	42.049
766.34	44.737
766.65	46.964
766.96	53.000
767.27	47.917
767.58	51.163
767.89	49.677
768.20	56.442
768.51	48.087
768.82	52.432
769.13	50.500
769.44	46.930
769.75	48.052
770.06	44.037
770.37	44.131
770.68	52.083
770.99	48.020
771.30	50.485
771.61	46.759
771.92	44.156
772.23	51.869
772.54	46.277
772.85	48.521
773.16	47.561
773.47	56.627
773.78	49.451
774.09	44.000
774.39	48.765
774.70	43.624
775.01	50.725
775.32	46.269
775.63	41.322
775.94	57.895
776.25	42.857
776.56	45.082
776.87	51.327
777.18	61.062
777.48	47.273
777.79	43.478
778.10	38.532
778.41	38.136
778.72	52.066
779.03	46.269
779.34	54.135
779.65	45.098
779.95	56.522
780.26	34.694
780.57	48.276
780.88	50.926
781.19	43.434
781.50	40.000
781.80	46.405
782.11	49.359
782.42	39.157
782.73	34.307
783.04	45.946
783.34	50.000
783.65	44.186
783.96	42.276
784.27	52.991
784.57	44.715
784.88	43.089
785.19	47.368
785.50	31.959
785.81	40.952
786.11	53.922
786.42	49.091
786.73	45.946
787.04	48.515
787.34	45.714
787.65	38.095
787.96	34.314
788.26	54.054
788.57	56.452
788.88	35.937
789.19	42.735
789.49	44.538
789.80	53.846
790.11	46.018
790.41	45.455
790.72	50.943
791.03	44.444
791.33	40.789
791.64	39.785
791.95	50.667
792.25	37.143
792.56	50.000
792.87	42.857
793.17	35.526
793.48	28.378
793.79	26.761
794.09	35.443
794.40	42.553
794.70	47.664
795.01	34.211
795.32	36.364
795.62	47.321
795.93	45.361
796.23	31.868
796.54	50.526
796.85	28.767
797.15	25.000
797.46	53.425
797.76	33.803
798.07	47.500
798.37	41.176
798.68	40.000
798.99	32.857
799.29	53.947
799.60	43.333
799.90	36.111
800.21	42.188
800.51	42.857
800.82	39.344
801.12	17.544
801.43	40.845
801.73	27.119
802.04	45.902
802.34	38.182
802.65	46.154
802.95	38.889
803.26	57.500
803.56	55.769
803.87	23.684
804.17	50.000
804.48	35.385
804.78	58.974
805.09	30.233
805.39	53.125
805.70	20.755
806.00	68.421
806.30	35.135
806.61	47.059
806.91	46.914
807.22	29.333
807.52	35.821
807.83	51.613
808.13	44.444
808.43	29.091
808.74	45.455
809.04	47.170
809.35	46.575
809.65	42.105
809.95	38.235
810.26	54.902
810.56	40.000
810.86	36.735
811.17	85.714
811.47	36.538
811.77	45.161
812.08	0.000
812.38	52.381
812.69	30.435
812.99	22.581
813.29	23.810
813.59	22.222
813.90	14.894
814.20	27.907
814.50	62.500
814.81	41.667
815.11	17.073
815.41	33.333
815.72	62.857
816.02	38.889
816.32	43.590
816.62	29.730
816.93	-8.824
817.23	50.000
817.53	20.588
817.84	35.294
818.14	21.875
818.44	41.379
818.74	25.806
819.04	37.037
819.35	50.000
819.65	-8.000
819.95	10.000
820.25	4.000
820.56	13.158
820.86	22.500
821.16	31.915
821.46	36.207
821.76	15.385
822.07	7.500
822.37	41.860
822.67	40.000
822.97	16.216
823.27	27.027
823.57	24.000
823.88	21.622
824.18	-28.571
824.48	38.462
824.78	-84.615
825.08	17.391
825.38	20.833
825.69	20.833
825.99	-10.000
826.29	-5.405
826.59	11.765
826.89	40.000
827.19	28.571
827.49	39.474
827.79	31.250
828.09	23.333
828.39	39.130
828.70	-31.034
829.00	6.897
829.30	38.889
829.60	78.125
829.90	66.667
830.20	23.077
830.50	-28.571
830.80	14.286
831.10	38.462
831.40	38.095
831.70	73.529
832.00	37.500
832.30	15.789
832.60	0.000
832.90	-41.667
833.20	-5.882
833.50	-6.667
833.80	20.000
834.10	25.000
834.40	33.333
834.70	50.000
835.00	11.538
835.30	8.333
835.60	24.138
835.90	5.556
836.20	18.182
836.50	-83.333
836.80	34.286
837.10	34.286
837.40	5.882
837.70	9.091
838.00	25.000
838.30	12.500
838.60	14.286
838.90	15.000
839.19	-13.043
839.49	13.043
839.79	-27.778
840.09	-8.696
840.39	13.636
840.69	12.500
840.99	5.263
841.29	-43.750
841.59	0.000
841.88	-11.111
842.18	37.500
842.48	-17.647
842.78	13.793
843.08	35.714
843.38	-7.692
843.68	-11.111
843.97	-46.154
844.27	-45.455
844.57	-100.000
844.87	16.000
845.17	-180.000
845.47	42.857
845.76	-11.111
846.06	0.000
846.36	-125.000
846.66	-70.000
846.96	-10.526
847.25	-8.333
847.55	-100.000
847.85	6.667
848.15	-80.000
848.44	57.692
848.74	15.789
849.04	366.667
849.34	0.000
849.63	-47.368
849.93	0.000
850.23	-25.000
850.53	28.571
850.82	-4.000
851.12	0.000
851.42	-500.000
851.71	-7.143
852.01	-100.000
852.31	5.882
852.61	40.000
852.90	-33.333
853.20	-133.333
853.50	-5.556
853.79	-26.316
854.09	-46.667
854.39	3.571
854.68	-4.348
854.98	-141.667
855.28	55.172
855.57	25.000
855.87	5.000
856.17	-33.333
856.46	3.448
856.76	46.667
857.05	-82.353
857.35	-138.462
857.65	-9.091
857.94	25.926
858.24	-14.286
858.53	-64.286
858.83	-66.667
859.13	-66.667
859.42	42.857
859.72	-75.000
860.01	-166.667
860.31	-25.000
860.60	-140.000
860.90	-22.222
861.20	-25.000
861.49	-228.571
861.79	82.353
862.08	-400.000
862.38	-125.000
862.67	7.692
862.97	-17.647
863.26	10.000
863.56	0.000
863.85	66.667
864.15	-90.000
864.44	-53.846
864.74	15.000
865.03	-187.500
865.33	-166.667
865.62	-5.882
865.92	-300.000
866.21	-42.857
866.51	-83.333
866.80	-1200.000
867.10	-66.667
867.39	-23.529
867.69	60.870
867.98	-114.286
868.27	-180.000
868.57	-75.000
868.86	-127.273
869.16	-17.647
869.45	-50.000
869.75	-57.143
870.04	-0.000
870.33	-66.667
870.63	80.000
870.92	0.000
871.22	75.000
871.51	-81.818
871.80	-16.667
872.10	-20.000
>>>>>End Processed Spectral Data<<<<<
