SpectraSuite Data File
++++++++++++++++++++++++++++++++++++
Date: Sat May 16 11:15:07 PDT 2015
User: schluterlab
Dark Spectrum Present: Yes
Reference Spectrum Present: Yes
Number of Sampled Component Spectra: 1
Spectrometers: USB2E3373
Integration Time (usec): 3000 (USB2E3373)
Spectra Averaged: 3 (USB2E3373)
Boxcar Smoothing: 0 (USB2E3373)
Correct for Electrical Dark: No (USB2E3373)
Strobe/Lamp Enabled: No (USB2E3373)
Correct for Detector Non-linearity: No (USB2E3373)
Correct for Stray Light: No (USB2E3373)
Number of Pixels in Processed Spectrum: 2048
>>>>>Begin Processed Spectral Data<<<<<
178.53	0.000
178.91	60.000
179.29	266.667
179.67	-1000.000
180.04	61.538
180.42	-0.000
180.80	350.000
181.18	350.000
181.56	125.000
181.94	1600.000
182.31	300.000
182.69	-7.692
183.07	-533.333
183.45	1000.000
183.83	466.667
184.20	-57.143
184.58	-75.000
184.96	-150.000
185.34	68.750
185.72	-425.000
186.09	83.333
186.47	-100.000
186.85	-175.000
187.23	87.500
187.61	-350.000
187.98	-200.000
188.36	-87.500
188.74	-125.000
189.12	1900.000
189.49	228.571
189.87	-16.667
190.25	150.000
190.63	-7.143
191.00	-188.889
191.38	200.000
191.76	40.000
192.14	480.000
192.51	-200.000
192.89	-333.333
193.27	0.000
193.65	-77.778
194.02	-71.429
194.40	300.000
194.78	-20.000
195.15	-1000.000
195.53	-154.545
195.91	-266.667
196.29	260.000
196.66	-733.333
197.04	1500.000
197.42	25.000
197.79	46.667
198.17	-300.000
198.55	-500.000
198.92	-100.000
199.30	125.000
199.68	-400.000
200.05	-166.667
200.43	-88.889
200.81	-800.000
201.18	-8.333
201.56	114.286
201.94	-26.667
202.31	45.455
202.69	80.000
203.07	20.000
203.44	300.000
203.82	-133.333
204.19	-125.000
204.57	-150.000
204.95	-700.000
205.32	18.750
205.70	200.000
206.08	-900.000
206.45	27.778
206.83	-350.000
207.20	-450.000
207.58	-500.000
207.96	-333.333
208.33	-37.500
208.71	-122.222
209.08	150.000
209.46	-85.714
209.84	600.000
210.21	0.000
210.59	5.000
210.96	500.000
211.34	-150.000
211.71	200.000
212.09	225.000
212.46	1000.000
212.84	-2200.000
213.22	600.000
213.59	116.667
213.97	0.000
214.34	200.000
214.72	-150.000
215.09	-300.000
215.47	-200.000
215.84	-60.000
216.22	10.000
216.59	6.667
216.97	-325.000
217.34	350.000
217.72	-171.429
218.09	-83.333
218.47	-157.143
218.84	171.429
219.22	-71.429
219.59	0.000
219.97	200.000
220.34	300.000
220.72	150.000
221.09	-46.154
221.47	0.000
221.84	-0.000
222.22	-650.000
222.59	100.000
222.97	-187.500
223.34	-200.000
223.72	-166.667
224.09	-42.857
224.46	-200.000
224.84	-42.857
225.21	-14.286
225.59	9.091
225.96	-75.000
226.34	-71.429
226.71	-88.889
227.08	10.000
227.46	1400.000
227.83	-114.286
228.21	-137.500
228.58	250.000
228.95	6.250
229.33	-1300.000
229.70	-180.000
230.08	-650.000
230.45	-33.333
230.82	-166.667
231.20	-1000.000
231.57	-300.000
231.95	700.000
232.32	14.286
232.69	-100.000
233.07	-242.857
233.44	-650.000
233.81	-86.667
234.19	-11.111
234.56	0.000
234.93	12.500
235.31	-214.286
235.68	-35.714
236.05	-64.706
236.43	-54.545
236.80	-45.161
237.17	33.333
237.55	-33.333
237.92	-77.273
238.29	-51.429
238.67	20.588
239.04	-2.778
239.41	-6.452
239.79	-7.692
240.16	-19.048
240.53	-3.636
240.91	-15.385
241.28	0.000
241.65	18.462
242.02	-8.197
242.40	-8.197
242.77	3.030
243.14	-25.424
243.51	-22.857
243.89	-12.658
244.26	0.000
244.63	4.211
245.00	-6.316
245.38	3.390
245.75	2.655
246.12	0.800
246.49	-4.724
246.87	-4.065
247.24	-11.017
247.61	-3.390
247.98	-0.704
248.36	-9.091
248.73	1.899
249.10	-8.280
249.47	0.000
249.84	2.273
250.22	-5.952
250.59	0.000
250.96	-1.571
251.33	5.213
251.70	3.846
252.08	0.474
252.45	0.474
252.82	-2.381
253.19	2.979
253.56	0.403
253.94	-3.376
254.31	-2.146
254.68	-2.846
255.05	-3.629
255.42	0.794
255.79	0.358
256.16	-1.176
256.54	0.368
256.91	-0.758
257.28	-3.297
257.65	1.418
258.02	3.774
258.39	-0.334
258.76	0.338
259.14	1.235
259.51	2.295
259.88	-3.354
260.25	4.658
260.62	-0.965
260.99	-2.671
261.36	3.963
261.73	1.734
262.10	3.333
262.47	0.000
262.85	5.429
263.22	0.287
263.59	-4.615
263.96	2.899
264.33	-1.626
264.70	4.144
265.07	0.000
265.44	1.809
265.81	-2.326
266.18	-2.532
266.55	0.735
266.92	0.252
267.29	-0.242
267.66	-2.469
268.03	1.208
268.40	0.939
268.77	0.000
269.14	-0.464
269.51	0.920
269.88	-1.376
270.25	-0.466
270.62	0.686
270.99	0.901
271.36	-0.233
271.73	2.018
272.10	0.686
272.47	1.111
272.84	2.444
273.21	0.000
273.58	0.000
273.95	-0.658
274.32	0.226
274.69	2.407
275.06	3.476
275.43	-1.339
275.80	1.833
276.17	0.209
276.54	2.851
276.91	1.646
277.28	3.043
277.65	0.826
278.02	0.209
278.39	1.965
278.76	1.195
279.13	0.198
279.50	1.392
279.87	1.691
280.23	2.834
280.60	-0.795
280.97	-1.165
281.34	0.387
281.71	1.731
282.08	4.032
282.45	-1.426
282.82	1.357
283.19	0.545
283.56	2.747
283.92	0.353
284.29	-0.558
284.66	2.878
285.03	3.922
285.40	1.476
285.77	1.053
286.14	-0.722
286.51	0.178
286.87	1.089
287.24	0.512
287.61	1.983
287.98	0.520
288.35	-1.653
288.72	-0.679
289.08	-0.678
289.45	1.010
289.82	0.173
290.19	1.642
290.56	-0.165
290.93	1.749
291.29	0.972
291.66	0.483
292.03	2.198
292.40	1.355
292.77	0.311
293.13	0.813
293.50	2.080
293.87	1.380
294.24	1.357
294.60	-0.152
294.97	2.124
295.34	1.037
295.71	1.935
296.08	1.075
296.44	0.572
296.81	1.852
297.18	1.831
297.55	2.119
297.91	1.674
298.28	0.411
298.65	1.813
299.02	2.273
299.38	1.872
299.75	1.630
300.12	0.513
300.48	2.302
300.85	-0.524
301.22	2.846
301.59	2.081
301.95	1.511
302.32	-1.043
302.69	1.958
303.05	0.611
303.42	1.250
303.79	1.316
304.15	0.829
304.52	-0.233
304.89	2.715
305.25	0.611
305.62	1.293
305.99	3.534
306.35	1.887
306.72	0.569
307.09	2.043
307.45	0.568
307.82	1.453
308.19	1.790
308.55	2.288
308.92	1.719
309.29	2.054
309.65	2.015
310.02	1.512
310.38	1.838
310.75	3.381
311.12	2.996
311.48	3.653
311.85	2.987
312.22	2.987
312.58	3.255
312.95	1.427
313.31	3.397
313.68	4.523
314.05	4.451
314.41	3.018
314.78	2.997
315.14	4.047
315.51	4.458
315.87	6.099
316.24	5.539
316.61	4.894
316.97	4.975
317.34	5.202
317.70	5.659
318.07	6.903
318.43	7.584
318.80	7.136
319.16	5.816
319.53	7.707
319.89	7.432
320.26	9.020
320.62	7.692
320.99	9.353
321.35	7.586
321.72	9.519
322.08	10.682
322.45	9.901
322.81	11.143
323.18	11.623
323.54	10.536
323.91	13.902
324.27	12.928
324.64	12.431
325.00	13.438
325.37	14.208
325.73	15.048
326.10	14.792
326.46	16.637
326.83	16.936
327.19	17.431
327.56	19.761
327.92	18.097
328.29	19.913
328.65	18.364
329.01	19.523
329.38	21.053
329.74	20.788
330.11	20.762
330.47	21.253
330.84	21.632
331.20	22.292
331.56	21.696
331.93	22.913
332.29	23.014
332.66	22.739
333.02	22.081
333.38	22.581
333.75	23.063
334.11	22.311
334.48	22.418
334.84	24.234
335.20	23.936
335.57	22.834
335.93	24.351
336.29	22.852
336.66	22.555
337.02	24.054
337.38	23.619
337.75	23.003
338.11	23.256
338.47	23.843
338.84	24.319
339.20	23.111
339.56	24.955
339.93	23.986
340.29	22.852
340.65	24.126
341.02	24.958
341.38	23.673
341.74	24.047
342.11	23.294
342.47	24.893
342.83	23.426
343.20	24.167
343.56	23.592
343.92	24.040
344.28	23.886
344.65	23.432
345.01	24.706
345.37	24.834
345.73	22.831
346.10	22.649
346.46	23.639
346.82	24.138
347.19	23.583
347.55	24.398
347.91	23.622
348.27	24.025
348.63	23.990
349.00	24.344
349.36	23.419
349.72	24.363
350.08	24.619
350.45	23.247
350.81	24.841
351.17	23.794
351.53	23.309
351.89	24.414
352.26	23.488
352.62	24.731
352.98	24.130
353.34	23.981
353.70	23.320
354.07	24.626
354.43	24.427
354.79	24.723
355.15	23.882
355.51	24.922
355.87	24.506
356.24	24.226
356.60	25.705
356.96	24.172
357.32	24.861
357.68	23.602
358.04	24.711
358.40	24.594
358.77	24.111
359.13	24.560
359.49	23.054
359.85	25.229
360.21	24.962
360.57	25.753
360.93	24.889
361.29	25.262
361.66	24.238
362.02	25.000
362.38	25.312
362.74	24.689
363.10	25.179
363.46	26.496
363.82	26.312
364.18	24.964
364.54	26.805
364.90	24.878
365.26	25.535
365.62	25.802
365.98	26.387
366.35	25.634
366.71	25.229
367.07	25.900
367.43	27.042
367.79	26.186
368.15	27.027
368.51	26.224
368.87	26.305
369.23	25.825
369.59	26.250
369.95	27.132
370.31	26.160
370.67	25.524
371.03	27.259
371.39	25.884
371.75	27.539
372.11	27.618
372.47	28.344
372.83	27.121
373.19	27.071
373.55	27.868
373.91	27.881
374.27	27.036
374.63	27.191
374.99	27.051
375.35	27.927
375.71	28.899
376.07	28.474
376.42	27.616
376.78	28.627
377.14	28.339
377.50	29.078
377.86	28.479
378.22	27.952
378.58	28.721
378.94	28.175
379.30	28.885
379.66	29.326
380.02	28.105
380.38	29.305
380.74	29.015
381.09	29.291
381.45	29.415
381.81	29.038
382.17	29.825
382.53	29.240
382.89	29.067
383.25	30.464
383.61	29.422
383.97	29.149
384.32	28.911
384.68	30.653
385.04	30.012
385.40	30.067
385.76	30.305
386.12	29.669
386.48	30.260
386.83	30.675
387.19	31.201
387.55	31.314
387.91	31.535
388.27	30.579
388.62	30.589
388.98	30.406
389.34	31.640
389.70	30.024
390.06	30.205
390.42	32.115
390.77	31.104
391.13	32.236
391.49	31.878
391.85	31.920
392.20	30.886
392.56	30.360
392.92	32.116
393.28	31.573
393.64	31.088
393.99	32.615
394.35	31.752
394.71	31.316
395.07	32.706
395.42	31.764
395.78	31.301
396.14	33.209
396.50	32.416
396.85	32.634
397.21	33.232
397.57	33.009
397.92	32.845
398.28	32.667
398.64	32.897
399.00	33.427
399.35	32.864
399.71	33.856
400.07	34.149
400.42	33.516
400.78	33.393
401.14	33.473
401.49	33.019
401.85	33.069
402.21	33.373
402.57	33.374
402.92	34.110
403.28	33.456
403.63	33.673
403.99	33.934
404.35	33.937
404.70	33.528
405.06	34.487
405.42	33.702
405.77	33.484
406.13	33.049
406.49	34.572
406.84	34.313
407.20	35.512
407.55	34.832
407.91	32.902
408.27	34.375
408.62	34.456
408.98	35.415
409.34	33.699
409.69	34.026
410.05	33.960
410.40	34.641
410.76	34.618
411.11	34.788
411.47	34.271
411.83	35.208
412.18	34.344
412.54	34.533
412.89	35.055
413.25	34.061
413.60	34.447
413.96	33.949
414.31	34.740
414.67	34.857
415.03	35.188
415.38	36.239
415.74	35.825
416.09	35.742
416.45	34.458
416.80	36.021
417.16	34.551
417.51	36.638
417.87	35.340
418.22	36.410
418.58	36.457
418.93	36.603
419.29	36.826
419.64	36.621
420.00	37.060
420.35	36.192
420.71	37.275
421.06	36.864
421.42	36.358
421.77	36.293
422.12	37.157
422.48	37.039
422.83	37.472
423.19	36.192
423.54	37.579
423.90	35.512
424.25	37.161
424.61	37.998
424.96	38.327
425.31	37.172
425.67	37.135
426.02	36.202
426.38	37.689
426.73	37.113
427.09	38.971
427.44	37.159
427.79	36.744
428.15	38.719
428.50	38.827
428.85	38.549
429.21	38.129
429.56	37.865
429.92	38.577
430.27	38.584
430.62	38.976
430.98	38.630
431.33	38.420
431.68	39.464
432.04	40.235
432.39	39.430
432.74	38.909
433.10	39.280
433.45	38.975
433.80	39.418
434.16	39.441
434.51	39.671
434.86	40.305
435.22	40.256
435.57	39.596
435.92	39.918
436.28	39.941
436.63	40.079
436.98	38.373
437.34	40.697
437.69	39.907
438.04	40.669
438.39	40.433
438.75	39.697
439.10	40.200
439.45	40.253
439.81	38.916
440.16	40.829
440.51	40.118
440.86	39.907
441.22	39.746
441.57	41.421
441.92	40.614
442.27	40.639
442.63	40.826
442.98	39.955
443.33	41.131
443.68	41.115
444.03	41.306
444.39	40.773
444.74	41.960
445.09	40.186
445.44	40.574
445.79	41.866
446.15	40.690
446.50	40.610
446.85	40.585
447.20	39.939
447.55	41.381
447.91	43.290
448.26	41.508
448.61	41.313
448.96	42.745
449.31	41.375
449.66	42.244
450.02	40.720
450.37	41.101
450.72	41.243
451.07	41.358
451.42	41.512
451.77	42.490
452.12	42.074
452.47	41.310
452.83	42.283
453.18	42.188
453.53	41.915
453.88	42.045
454.23	42.140
454.58	43.257
454.93	42.632
455.28	42.129
455.63	42.138
455.98	43.313
456.34	41.804
456.69	41.526
457.04	42.225
457.39	41.627
457.74	41.170
458.09	41.647
458.44	42.206
458.79	41.031
459.14	41.985
459.49	42.629
459.84	41.147
460.19	40.871
460.54	41.500
460.89	42.265
461.24	42.562
461.59	41.911
461.94	42.202
462.29	42.764
462.64	42.951
462.99	41.968
463.34	41.053
463.69	41.539
464.04	39.953
464.39	40.382
464.74	41.785
465.09	39.808
465.44	41.681
465.79	41.286
466.14	41.887
466.49	42.832
466.84	41.236
467.19	41.958
467.54	39.557
467.89	42.417
468.24	41.865
468.59	42.536
468.94	40.643
469.29	40.806
469.64	41.779
469.99	42.336
470.34	40.882
470.68	41.933
471.03	41.982
471.38	40.972
471.73	43.566
472.08	41.968
472.43	42.149
472.78	41.933
473.13	42.147
473.48	41.481
473.83	41.315
474.17	41.465
474.52	43.798
474.87	41.317
475.22	41.121
475.57	41.722
475.92	41.631
476.27	41.086
476.61	42.085
476.96	42.370
477.31	40.797
477.66	41.284
478.01	41.707
478.36	39.550
478.70	41.965
479.05	41.103
479.40	41.347
479.75	40.571
480.10	40.278
480.45	40.087
480.79	40.276
481.14	41.545
481.49	40.852
481.84	40.915
482.19	40.018
482.53	41.288
482.88	39.725
483.23	40.376
483.58	40.102
483.92	41.472
484.27	40.408
484.62	39.136
484.97	39.244
485.31	39.552
485.66	38.377
486.01	38.566
486.36	39.629
486.70	40.366
487.05	39.406
487.40	39.663
487.75	39.416
488.09	39.191
488.44	39.445
488.79	39.476
489.13	39.901
489.48	40.416
489.83	40.568
490.17	40.618
490.52	40.399
490.87	39.630
491.22	39.561
491.56	39.676
491.91	39.790
492.26	39.623
492.60	39.724
492.95	39.124
493.30	39.924
493.64	39.398
493.99	40.201
494.34	38.952
494.68	40.590
495.03	39.675
495.37	39.479
495.72	39.489
496.07	39.840
496.41	39.972
496.76	39.589
497.11	40.697
497.45	40.230
497.80	39.420
498.14	39.882
498.49	39.879
498.84	38.883
499.18	39.279
499.53	39.601
499.87	39.527
500.22	39.118
500.56	38.369
500.91	39.064
501.26	38.574
501.60	38.325
501.95	39.710
502.29	38.592
502.64	39.085
502.98	38.141
503.33	38.487
503.67	38.314
504.02	37.760
504.36	38.137
504.71	38.754
505.06	38.243
505.40	38.423
505.75	38.821
506.09	38.473
506.44	38.195
506.78	39.237
507.13	38.157
507.47	38.654
507.82	37.584
508.16	38.705
508.51	37.558
508.85	38.251
509.19	37.991
509.54	38.055
509.88	38.245
510.23	37.736
510.57	38.889
510.92	39.098
511.26	37.214
511.61	37.959
511.95	37.338
512.30	37.603
512.64	36.839
512.98	38.449
513.33	37.342
513.67	37.912
514.02	37.248
514.36	38.283
514.70	36.842
515.05	37.393
515.39	36.967
515.74	37.580
516.08	37.464
516.42	37.280
516.77	37.493
517.11	36.613
517.46	37.859
517.80	37.545
518.14	37.258
518.49	36.999
518.83	35.964
519.17	37.241
519.52	35.917
519.86	37.276
520.20	37.347
520.55	35.754
520.89	36.255
521.23	36.264
521.58	36.238
521.92	37.049
522.26	36.571
522.61	36.375
522.95	35.290
523.29	35.047
523.64	35.540
523.98	35.582
524.32	35.827
524.66	35.280
525.01	36.031
525.35	36.469
525.69	35.849
526.04	34.856
526.38	34.882
526.72	34.483
527.06	37.044
527.41	35.380
527.75	34.191
528.09	34.944
528.43	34.820
528.78	34.485
529.12	35.211
529.46	34.085
529.80	33.828
530.15	34.192
530.49	34.347
530.83	34.119
531.17	33.266
531.51	33.423
531.86	33.970
532.20	33.063
532.54	33.289
532.88	33.926
533.22	33.623
533.57	33.551
533.91	32.647
534.25	33.124
534.59	32.355
534.93	32.421
535.27	32.851
535.62	33.312
535.96	32.644
536.30	31.806
536.64	32.869
536.98	32.627
537.32	31.237
537.66	34.216
538.01	32.509
538.35	32.297
538.69	31.684
539.03	31.754
539.37	32.468
539.71	32.221
540.05	32.145
540.39	32.895
540.73	32.274
541.07	32.240
541.42	30.655
541.76	31.163
542.10	32.748
542.44	31.979
542.78	32.293
543.12	30.482
543.46	30.411
543.80	30.702
544.14	30.826
544.48	30.643
544.82	31.123
545.16	31.187
545.50	28.869
545.84	30.737
546.18	31.692
546.52	29.445
546.86	30.271
547.20	30.380
547.54	29.063
547.88	29.595
548.22	29.620
548.56	30.194
548.90	30.930
549.24	29.993
549.58	29.570
549.92	29.187
550.26	30.130
550.60	29.587
550.94	29.416
551.28	30.324
551.62	29.025
551.96	28.944
552.30	28.920
552.64	28.008
552.98	29.292
553.32	29.004
553.66	28.911
554.00	29.211
554.34	28.592
554.68	28.509
555.02	28.654
555.36	27.678
555.69	28.009
556.03	28.140
556.37	28.450
556.71	28.060
557.05	29.194
557.39	28.137
557.73	28.009
558.07	27.581
558.41	27.150
558.75	27.909
559.08	26.848
559.42	27.948
559.76	27.837
560.10	28.635
560.44	29.263
560.78	26.722
561.12	27.605
561.45	26.644
561.79	27.387
562.13	26.648
562.47	26.891
562.81	26.733
563.15	26.802
563.48	26.330
563.82	26.910
564.16	26.640
564.50	26.546
564.84	27.646
565.17	26.459
565.51	26.793
565.85	27.924
566.19	26.877
566.52	25.897
566.86	26.296
567.20	26.090
567.54	26.521
567.88	25.014
568.21	25.895
568.55	25.239
568.89	24.702
569.23	24.988
569.56	25.095
569.90	25.688
570.24	24.953
570.57	23.831
570.91	24.141
571.25	24.449
571.59	24.727
571.92	24.137
572.26	24.206
572.60	24.139
572.93	23.970
573.27	23.872
573.61	23.688
573.95	23.816
574.28	22.941
574.62	23.335
574.96	23.405
575.29	23.399
575.63	22.909
575.97	23.112
576.30	23.458
576.64	23.081
576.98	22.717
577.31	22.861
577.65	23.216
577.98	21.985
578.32	22.374
578.66	22.706
578.99	22.379
579.33	22.884
579.67	22.343
580.00	22.545
580.34	22.187
580.67	21.770
581.01	21.938
581.35	21.818
581.68	22.176
582.02	21.957
582.35	21.870
582.69	22.359
583.02	22.458
583.36	21.926
583.70	21.838
584.03	22.010
584.37	21.624
584.70	21.649
585.04	21.671
585.37	21.408
585.71	21.553
586.04	21.505
586.38	21.358
586.72	21.392
587.05	21.665
587.39	21.524
587.72	21.635
588.06	21.623
588.39	21.333
588.73	21.092
589.06	21.643
589.40	21.917
589.73	21.211
590.07	21.085
590.40	21.734
590.73	21.311
591.07	21.516
591.40	21.144
591.74	21.937
592.07	20.901
592.41	20.212
592.74	20.830
593.08	21.044
593.41	20.592
593.75	20.046
594.08	20.705
594.41	20.665
594.75	20.763
595.08	20.526
595.42	20.882
595.75	20.029
596.09	20.334
596.42	21.031
596.75	20.699
597.09	20.882
597.42	19.904
597.75	20.195
598.09	20.560
598.42	20.283
598.76	19.352
599.09	19.534
599.42	19.723
599.76	20.159
600.09	19.847
600.42	19.825
600.76	19.435
601.09	19.901
601.42	19.707
601.76	20.093
602.09	19.387
602.42	19.588
602.76	18.612
603.09	19.919
603.42	18.977
603.76	19.426
604.09	19.343
604.42	19.484
604.76	18.622
605.09	19.078
605.42	19.415
605.75	18.974
606.09	19.095
606.42	18.601
606.75	19.150
607.09	18.880
607.42	18.530
607.75	18.499
608.08	19.295
608.42	18.780
608.75	18.738
609.08	18.461
609.41	19.183
609.75	18.479
610.08	18.235
610.41	18.265
610.74	19.004
611.07	18.458
611.41	18.154
611.74	19.075
612.07	19.173
612.40	18.443
612.73	18.309
613.07	18.877
613.40	18.829
613.73	18.311
614.06	17.683
614.39	18.320
614.72	17.765
615.06	17.391
615.39	17.580
615.72	18.468
616.05	16.676
616.38	17.992
616.71	17.477
617.05	17.310
617.38	18.080
617.71	16.769
618.04	17.205
618.37	17.421
618.70	18.449
619.03	18.145
619.36	19.027
619.69	17.588
620.03	16.873
620.36	17.089
620.69	17.229
621.02	18.113
621.35	18.306
621.68	17.705
622.01	16.586
622.34	18.323
622.67	16.797
623.00	17.138
623.33	18.134
623.66	16.248
623.99	17.143
624.32	16.964
624.65	17.807
624.99	17.028
625.32	15.868
625.65	17.716
625.98	16.510
626.31	17.292
626.64	17.238
626.97	16.267
627.30	16.936
627.63	16.321
627.96	16.710
628.29	17.096
628.62	16.619
628.95	17.421
629.28	16.917
629.61	15.800
629.94	15.879
630.26	16.501
630.59	16.382
630.92	16.617
631.25	15.625
631.58	16.402
631.91	16.170
632.24	15.444
632.57	16.778
632.90	16.782
633.23	16.355
633.56	16.023
633.89	16.509
634.22	16.647
634.55	16.346
634.88	15.840
635.20	14.232
635.53	15.903
635.86	14.736
636.19	16.239
636.52	15.651
636.85	16.245
637.18	13.875
637.51	16.233
637.83	13.848
638.16	14.474
638.49	15.586
638.82	17.375
639.15	16.732
639.48	13.489
639.81	15.906
640.13	15.676
640.46	14.387
640.79	17.507
641.12	15.797
641.45	17.360
641.77	15.269
642.10	13.746
642.43	15.933
642.76	15.591
643.09	15.397
643.41	16.032
643.74	15.739
644.07	15.601
644.40	17.990
644.73	16.007
645.05	15.359
645.38	15.397
645.71	16.838
646.04	17.815
646.36	14.311
646.69	16.782
647.02	14.982
647.35	16.065
647.67	15.146
648.00	15.114
648.33	17.032
648.66	12.903
648.98	13.057
649.31	13.692
649.64	14.219
649.96	14.286
650.29	14.754
650.62	15.146
650.94	15.683
651.27	13.518
651.60	13.495
651.92	15.411
652.25	13.856
652.58	12.436
652.90	13.323
653.23	14.355
653.56	15.217
653.88	13.770
654.21	14.430
654.54	15.116
654.86	14.607
655.19	13.467
655.52	14.512
655.84	13.001
656.17	14.308
656.49	19.598
656.82	20.373
657.15	15.636
657.47	11.420
657.80	8.597
658.13	10.022
658.45	13.599
658.78	13.474
659.10	14.296
659.43	13.350
659.75	14.280
660.08	13.958
660.41	12.637
660.73	12.321
661.06	15.072
661.38	13.036
661.71	13.193
662.03	13.911
662.36	15.565
662.68	12.658
663.01	12.951
663.33	12.472
663.66	14.378
663.98	10.938
664.31	12.528
664.63	14.381
664.96	13.232
665.28	14.317
665.61	12.051
665.93	15.021
666.26	12.955
666.58	14.345
666.91	14.254
667.23	14.474
667.56	11.791
667.88	12.670
668.21	15.668
668.53	12.150
668.86	12.471
669.18	13.470
669.50	14.486
669.83	12.165
670.15	13.677
670.48	11.682
670.80	10.023
671.13	11.738
671.45	10.135
671.77	13.490
672.10	12.623
672.42	12.915
672.75	10.545
673.07	12.793
673.39	12.933
673.72	12.402
674.04	13.376
674.37	9.897
674.69	13.525
675.01	9.574
675.34	13.015
675.66	14.471
675.98	11.013
676.31	12.217
676.63	13.333
676.95	13.496
677.28	9.281
677.60	14.253
677.92	12.335
678.25	13.129
678.57	13.992
678.89	10.482
679.22	11.530
679.54	13.215
679.86	9.800
680.18	14.829
680.51	11.173
680.83	13.333
681.15	10.983
681.48	13.387
681.80	12.500
682.12	12.475
682.44	13.949
682.77	8.874
683.09	12.788
683.41	13.496
683.73	9.589
684.06	10.538
684.38	13.389
684.70	10.700
685.02	12.205
685.34	12.671
685.67	10.985
685.99	9.263
686.31	12.747
686.63	12.589
686.96	11.275
687.28	10.597
687.60	12.109
687.92	10.117
688.24	12.205
688.56	12.024
688.89	11.752
689.21	12.910
689.53	8.736
689.85	11.581
690.17	11.211
690.49	11.085
690.82	9.880
691.14	8.726
691.46	11.086
691.78	10.793
692.10	9.746
692.42	11.111
692.74	12.232
693.06	10.337
693.39	11.633
693.71	8.578
694.03	12.311
694.35	9.707
694.67	11.111
694.99	6.905
695.31	11.224
695.63	11.224
695.95	10.422
696.27	8.229
696.59	10.963
696.91	9.831
697.23	10.938
697.56	11.298
697.88	9.009
698.20	9.636
698.52	8.520
698.84	11.408
699.16	9.524
699.48	9.250
699.80	9.774
700.12	11.839
700.44	7.542
700.76	6.997
701.08	8.140
701.40	9.668
701.72	11.111
702.04	10.897
702.36	12.048
702.68	9.880
703.00	9.855
703.32	5.444
703.64	13.529
703.96	13.372
704.28	8.876
704.60	7.278
704.91	7.302
705.23	7.443
705.55	6.757
705.87	10.922
706.19	7.292
706.51	10.069
706.83	9.836
707.15	9.554
707.47	6.612
707.79	12.113
708.11	11.196
708.43	10.723
708.74	6.494
709.06	6.685
709.38	10.057
709.70	4.688
710.02	10.736
710.34	4.290
710.66	9.206
710.98	11.041
711.29	2.903
711.61	6.390
711.93	7.541
712.25	7.309
712.57	5.923
712.89	11.151
713.20	6.873
713.52	5.970
713.84	6.406
714.16	9.836
714.48	7.302
714.80	8.923
715.11	9.798
715.43	12.651
715.75	8.100
716.07	6.230
716.39	8.696
716.70	10.105
717.02	6.667
717.34	9.924
717.66	8.714
717.97	9.016
718.29	9.244
718.61	11.508
718.93	11.828
719.24	5.515
719.56	4.528
719.88	8.727
720.20	10.861
720.51	10.902
720.83	6.024
721.15	9.016
721.46	7.451
721.78	8.429
722.10	8.000
722.42	9.091
722.73	6.773
723.05	6.024
723.37	10.588
723.68	6.073
724.00	12.602
724.32	9.465
724.63	5.394
724.95	11.983
725.27	1.754
725.58	9.052
725.90	7.937
726.22	12.177
726.53	13.308
726.85	4.706
727.16	9.023
727.48	6.154
727.80	2.459
728.11	6.303
728.43	6.198
728.74	10.938
729.06	8.712
729.38	6.226
729.69	7.480
730.01	8.268
730.32	5.976
730.64	9.890
730.96	10.448
731.27	11.429
731.59	11.576
731.90	5.215
732.22	9.509
732.53	11.921
732.85	8.725
733.16	4.348
733.48	7.317
733.80	5.338
734.11	10.000
734.43	7.143
734.74	10.386
735.06	8.150
735.37	5.810
735.69	3.871
736.00	5.387
736.32	3.642
736.63	6.207
736.95	6.159
737.26	7.616
737.58	6.475
737.89	13.620
738.21	6.391
738.52	8.846
738.83	11.719
739.15	8.120
739.46	4.032
739.78	7.343
740.09	7.343
740.41	7.343
740.72	4.380
741.04	11.111
741.35	4.762
741.66	14.352
741.98	6.667
742.29	13.146
742.61	4.813
742.92	10.280
743.23	3.509
743.55	7.207
743.86	12.889
744.18	6.190
744.49	10.837
744.80	8.629
745.12	10.309
745.43	7.538
745.74	4.854
746.06	8.293
746.37	5.286
746.68	5.970
747.00	6.806
747.31	7.692
747.62	9.677
747.94	5.677
748.25	8.372
748.56	10.000
748.88	1.087
749.19	12.207
749.50	11.275
749.82	9.333
750.13	12.335
750.44	4.878
750.75	4.400
751.07	9.286
751.38	5.904
751.69	7.252
752.01	8.462
752.32	3.502
752.63	1.538
752.94	9.524
753.26	7.391
753.57	7.589
753.88	0.862
754.19	4.979
754.51	3.516
754.82	3.162
755.13	4.938
755.44	3.306
755.75	5.761
756.07	0.000
756.38	8.203
756.69	7.220
757.00	4.181
757.31	6.711
757.63	8.411
757.94	6.936
758.25	6.105
758.56	10.243
758.87	9.375
759.18	2.333
759.50	8.185
759.81	-1.460
760.12	2.027
760.43	7.767
760.74	10.937
761.05	8.708
761.36	6.287
761.67	5.030
761.99	7.419
762.30	7.609
762.61	8.302
762.92	7.175
763.23	6.635
763.54	5.778
763.85	12.236
764.16	2.857
764.47	7.627
764.78	8.614
765.10	6.475
765.41	3.548
765.72	5.660
766.03	2.120
766.34	5.639
766.65	5.668
766.96	-0.500
767.27	5.208
767.58	5.233
767.89	3.871
768.20	1.840
768.51	3.825
768.82	5.405
769.13	-2.000
769.44	8.333
769.75	1.732
770.06	6.422
770.37	6.573
770.68	10.417
770.99	2.475
771.30	2.913
771.61	3.241
771.92	1.299
772.23	5.607
772.54	4.255
772.85	7.692
773.16	9.146
773.47	8.434
773.78	10.989
774.09	2.000
774.39	8.642
774.70	4.698
775.01	-4.348
775.32	-3.731
775.63	-0.826
775.94	9.023
776.25	7.857
776.56	0.820
776.87	3.540
777.18	15.044
777.48	-2.727
777.79	0.870
778.10	2.752
778.41	5.085
778.72	6.612
779.03	11.940
779.34	6.767
779.65	8.497
779.95	10.870
780.26	4.082
780.57	0.000
780.88	-1.852
781.19	-3.030
781.50	-2.400
781.80	1.961
782.11	8.974
782.42	9.639
782.73	0.000
783.04	8.784
783.34	-2.273
783.65	5.426
783.96	6.504
784.27	10.256
784.57	-5.691
784.88	0.813
785.19	11.404
785.50	-1.031
785.81	0.000
786.11	0.980
786.42	-10.000
786.73	0.901
787.04	16.832
787.34	3.810
787.65	1.905
787.96	-0.980
788.26	-0.901
788.57	8.871
788.88	2.344
789.19	-0.855
789.49	0.840
789.80	2.564
790.11	3.540
790.41	11.111
790.72	14.151
791.03	5.556
791.33	13.158
791.64	10.753
791.95	-1.333
792.25	-5.714
792.56	-2.439
792.87	8.163
793.17	-1.316
793.48	-8.108
793.79	-9.859
794.09	-6.329
794.40	1.064
794.70	0.000
795.01	-7.895
795.32	4.545
795.62	0.893
795.93	-6.186
796.23	-12.088
796.54	4.211
796.85	-5.479
797.15	-18.056
797.46	4.110
797.76	2.817
798.07	12.500
798.37	-8.824
798.68	-12.857
798.99	17.143
799.29	9.211
799.60	-5.000
799.90	-12.500
800.21	-10.938
800.51	-12.698
800.82	-4.918
801.12	-5.263
801.43	-5.634
801.73	-30.508
802.04	-4.918
802.34	-5.455
802.65	-1.923
802.95	-20.370
803.26	-15.000
803.56	3.846
803.87	-34.211
804.17	4.839
804.48	10.769
804.78	-17.949
805.09	-9.302
805.39	-40.625
805.70	-33.962
806.00	14.035
806.30	8.108
806.61	-1.471
806.91	9.877
807.22	-1.333
807.52	-1.493
807.83	17.742
808.13	-1.587
808.43	-5.455
808.74	-1.515
809.04	-1.887
809.35	-4.110
809.65	1.754
809.95	17.647
810.26	-5.882
810.56	2.000
810.86	4.082
811.17	0.000
811.47	-5.769
811.77	-3.226
812.08	-47.368
812.38	4.762
812.69	-17.391
812.99	-22.581
813.29	4.762
813.59	-44.444
813.90	-12.766
814.20	-30.233
814.50	-14.583
814.81	-1.667
815.11	-19.512
815.41	0.000
815.72	11.429
816.02	-47.222
816.32	-12.821
816.62	-18.919
816.93	-50.000
817.23	0.000
817.53	-26.471
817.84	-5.882
818.14	-40.625
818.44	-41.379
818.74	-45.161
819.04	-44.444
819.35	-6.667
819.65	-36.000
819.95	16.667
820.25	-24.000
820.56	-18.421
820.86	0.000
821.16	-10.638
821.46	-8.621
821.76	-15.385
822.07	-35.000
822.37	-16.279
822.67	-26.667
822.97	-29.730
823.27	-18.919
823.57	0.000
823.88	-10.811
824.18	-57.143
824.48	-50.000
824.78	-176.923
825.08	-8.696
825.38	-20.833
825.69	4.167
825.99	-15.000
826.29	-51.351
826.59	-32.353
826.89	-8.000
827.19	-45.714
827.49	-2.632
827.79	3.125
828.09	-33.333
828.39	-21.739
828.70	-48.276
829.00	-31.034
829.30	-16.667
829.60	-6.250
829.90	-33.333
830.20	-26.923
830.50	-33.333
830.80	-28.571
831.10	-7.692
831.40	-66.667
831.70	-17.647
832.00	-12.500
832.30	26.316
832.60	-68.750
832.90	-116.667
833.20	-123.529
833.50	-53.333
833.80	-46.667
834.10	-20.000
834.40	-37.500
834.70	-27.778
835.00	-23.077
835.30	-50.000
835.60	-13.793
835.90	-83.333
836.20	-109.091
836.50	-83.333
836.80	-14.286
837.10	25.714
837.40	-52.941
837.70	-81.818
838.00	-33.333
838.30	31.250
838.60	-14.286
838.90	25.000
839.19	-78.261
839.49	-34.783
839.79	-61.111
840.09	-30.435
840.39	-4.545
840.69	-50.000
840.99	-84.211
841.29	0.000
841.59	-71.429
841.88	-83.333
842.18	0.000
842.48	-41.176
842.78	10.345
843.08	-50.000
843.38	-46.154
843.68	-177.778
843.97	-53.846
844.27	-54.545
844.57	-220.000
844.87	24.000
845.17	-260.000
845.47	-35.714
845.76	-133.333
846.06	0.000
846.36	-150.000
846.66	-140.000
846.96	-15.789
847.25	-29.167
847.55	-108.333
847.85	-26.667
848.15	-90.000
848.44	30.769
848.74	-63.158
849.04	433.333
849.34	-122.222
849.63	-31.579
849.93	0.000
850.23	-35.000
850.53	-14.286
850.82	-8.000
851.12	-52.632
851.42	-1100.000
851.71	-35.714
852.01	-58.333
852.31	23.529
852.61	-46.667
852.90	-47.619
853.20	-350.000
853.50	-88.889
853.79	-52.632
854.09	-20.000
854.39	-10.714
854.68	-17.391
854.98	-233.333
855.28	10.345
855.57	-50.000
855.87	-20.000
856.17	-86.667
856.46	-13.793
856.76	-6.667
857.05	-52.941
857.35	-76.923
857.65	-63.636
857.94	-18.519
858.24	-14.286
858.53	-85.714
858.83	-141.667
859.13	-133.333
859.42	52.381
859.72	-225.000
860.01	-233.333
860.31	-25.000
860.60	-240.000
860.90	-200.000
861.20	-112.500
861.49	-85.714
861.79	-41.176
862.08	-500.000
862.38	-183.333
862.67	-38.462
862.97	23.529
863.26	40.000
863.56	-41.176
863.85	300.000
864.15	-70.000
864.44	-23.077
864.74	25.000
865.03	50.000
865.33	-216.667
865.62	-52.941
865.92	-450.000
866.21	-78.571
866.51	-150.000
866.80	0.000
867.10	-233.333
867.39	-47.059
867.69	56.522
867.98	-28.571
868.27	-280.000
868.57	-56.250
868.86	-145.455
869.16	-23.529
869.45	-16.667
869.75	-85.714
870.04	1500.000
870.33	-50.000
870.63	-160.000
870.92	-44.444
871.22	-66.667
871.51	-81.818
871.80	-58.333
872.10	10.000
>>>>>End Processed Spectral Data<<<<<
