SpectraSuite Data File
++++++++++++++++++++++++++++++++++++
Date: Sat May 16 11:47:59 PDT 2015
User: schluterlab
Dark Spectrum Present: Yes
Reference Spectrum Present: Yes
Number of Sampled Component Spectra: 1
Spectrometers: USB2E3373
Integration Time (usec): 3000 (USB2E3373)
Spectra Averaged: 3 (USB2E3373)
Boxcar Smoothing: 0 (USB2E3373)
Correct for Electrical Dark: No (USB2E3373)
Strobe/Lamp Enabled: No (USB2E3373)
Correct for Detector Non-linearity: No (USB2E3373)
Correct for Stray Light: No (USB2E3373)
Number of Pixels in Processed Spectrum: 2048
>>>>>Begin Processed Spectral Data<<<<<
178.53	0.000
178.91	166.667
179.29	566.667
179.67	-1100.000
180.04	-123.077
180.42	800.000
180.80	200.000
181.18	400.000
181.56	-162.500
181.94	1200.000
182.31	275.000
182.69	-69.231
183.07	-933.333
183.45	1150.000
183.83	333.333
184.20	-228.571
184.58	-187.500
184.96	-150.000
185.34	106.250
185.72	-250.000
186.09	50.000
186.47	-125.000
186.85	-75.000
187.23	-62.500
187.61	-300.000
187.98	-237.500
188.36	-137.500
188.74	-137.500
189.12	1600.000
189.49	328.571
189.87	-100.000
190.25	350.000
190.63	-28.571
191.00	-244.444
191.38	400.000
191.76	-73.333
192.14	660.000
192.51	-340.000
192.89	-166.667
193.27	0.000
193.65	-111.111
194.02	-57.143
194.40	600.000
194.78	-40.000
195.15	-1000.000
195.53	-118.182
195.91	-383.333
196.29	260.000
196.66	-633.333
197.04	2100.000
197.42	0.000
197.79	-33.333
198.17	-466.667
198.55	-700.000
198.92	-1500.000
199.30	225.000
199.68	-550.000
200.05	-11.111
200.43	-166.667
200.81	-1700.000
201.18	-150.000
201.56	257.143
201.94	-33.333
202.31	-9.091
202.69	90.000
203.07	-140.000
203.44	733.333
203.82	-250.000
204.19	-300.000
204.57	50.000
204.95	-1500.000
205.32	-31.250
205.70	500.000
206.08	-500.000
206.45	-94.444
206.83	-600.000
207.20	250.000
207.58	-666.667
207.96	-433.333
208.33	-162.500
208.71	-111.111
209.08	150.000
209.46	-214.286
209.84	400.000
210.21	0.000
210.59	-10.000
210.96	1800.000
211.34	-366.667
211.71	-133.333
212.09	500.000
212.46	500.000
212.84	-2500.000
213.22	533.333
213.59	116.667
213.97	-33.333
214.34	180.000
214.72	-100.000
215.09	-300.000
215.47	-200.000
215.84	-90.000
216.22	-130.000
216.59	6.667
216.97	-525.000
217.34	900.000
217.72	-114.286
218.09	-350.000
218.47	-142.857
218.84	128.571
219.22	-128.571
219.59	0.000
219.97	300.000
220.34	475.000
220.72	300.000
221.09	-92.308
221.47	0.000
221.84	166.667
222.22	-100.000
222.59	1500.000
222.97	-225.000
223.34	-1150.000
223.72	-600.000
224.09	-50.000
224.46	-450.000
224.84	-57.143
225.21	-171.429
225.59	-9.091
225.96	-175.000
226.34	-157.143
226.71	-244.444
227.08	-20.000
227.46	700.000
227.83	-142.857
228.21	-200.000
228.58	600.000
228.95	-112.500
229.33	-1000.000
229.70	-280.000
230.08	-850.000
230.45	-25.000
230.82	-300.000
231.20	-700.000
231.57	-300.000
231.95	1300.000
232.32	-14.286
232.69	-211.111
233.07	-257.143
233.44	-800.000
233.81	-106.667
234.19	-100.000
234.56	-37.500
234.93	-9.375
235.31	-314.286
235.68	-107.143
236.05	-35.294
236.43	-45.455
236.80	-6.452
237.17	-8.333
237.55	-76.190
237.92	-68.182
238.29	-25.714
238.67	-47.059
239.04	-8.333
239.41	-61.290
239.79	-53.846
240.16	-26.190
240.53	-40.000
240.91	-28.205
241.28	-3.636
241.65	-4.615
242.02	-11.475
242.40	-14.754
242.77	-4.545
243.14	-44.068
243.51	-34.286
243.89	-11.392
244.26	-13.483
244.63	-8.421
245.00	-7.368
245.38	-0.847
245.75	-9.735
246.12	-1.600
246.49	-3.150
246.87	-9.756
247.24	-12.712
247.61	-15.254
247.98	-1.408
248.36	-7.692
248.73	-8.228
249.10	-1.274
249.47	-3.509
249.84	-1.705
250.22	-14.286
250.59	-8.475
250.96	-5.236
251.33	1.896
251.70	-3.365
252.08	-7.583
252.45	-3.318
252.82	-6.667
253.19	-1.277
253.56	-3.629
253.94	-2.110
254.31	-1.288
254.68	-4.065
255.05	-3.629
255.42	1.190
255.79	-3.584
256.16	1.176
256.54	-1.103
256.91	-6.061
257.28	-3.663
257.65	-1.418
258.02	4.088
258.39	-2.007
258.76	-1.014
259.14	0.000
259.51	0.984
259.88	-0.305
260.25	3.416
260.62	-2.894
260.99	-0.297
261.36	0.915
261.73	-2.312
262.10	0.833
262.47	-1.425
262.85	3.143
263.22	-4.011
263.59	-2.462
263.96	-1.739
264.33	-1.626
264.70	0.000
265.07	0.000
265.44	-3.876
265.81	-2.067
266.18	-1.266
266.55	0.735
266.92	0.504
267.29	-1.453
267.66	0.247
268.03	1.449
268.40	-0.469
268.77	-1.928
269.14	-1.392
269.51	0.920
269.88	-0.459
270.25	-2.098
270.62	-0.229
270.99	-1.577
271.36	-1.399
271.73	-2.466
272.10	-2.746
272.47	-2.667
272.84	4.222
273.21	1.147
273.58	0.000
273.95	-1.535
274.32	-1.357
274.69	0.875
275.06	1.227
275.43	-4.911
275.80	0.204
276.17	-1.464
276.54	2.037
276.91	-1.235
277.28	1.217
277.65	-0.620
278.02	0.418
278.39	-0.982
278.76	-0.199
279.13	-0.395
279.50	-0.795
279.87	-1.057
280.23	0.810
280.60	0.596
280.97	-1.165
281.34	0.580
281.71	0.000
282.08	-2.016
282.45	-4.073
282.82	-0.388
283.19	-1.818
283.56	0.916
283.92	-0.707
284.29	-1.301
284.66	1.978
285.03	0.535
285.40	1.107
285.77	1.754
286.14	0.181
286.51	-1.776
286.87	0.181
287.24	1.877
287.61	1.818
287.98	-1.040
288.35	-1.157
288.72	0.340
289.08	-1.186
289.45	-1.347
289.82	1.557
290.19	0.328
290.56	-1.157
290.93	0.636
291.29	-0.324
291.66	-1.449
292.03	1.099
292.40	1.205
292.77	0.932
293.13	0.163
293.50	-1.040
293.87	0.460
294.24	1.056
294.60	-1.364
294.97	1.062
295.34	-0.444
295.71	0.744
296.08	-1.075
296.44	-1.144
296.81	1.709
297.18	-0.282
297.55	0.424
297.91	3.208
298.28	-1.781
298.65	2.371
299.02	1.337
299.38	0.401
299.75	0.408
300.12	0.897
300.48	1.407
300.85	-0.262
301.22	1.035
301.59	0.390
301.95	3.652
302.32	1.043
302.69	1.102
303.05	-0.366
303.42	0.875
303.79	0.598
304.15	-0.118
304.52	2.217
304.89	0.590
305.25	0.122
305.62	1.293
305.99	1.885
306.35	1.665
306.72	1.025
307.09	2.384
307.45	1.362
307.82	1.564
308.19	1.007
308.55	1.961
308.92	-0.644
309.29	1.297
309.65	1.909
310.02	1.836
310.38	1.514
310.75	2.152
311.12	2.169
311.48	1.775
311.85	2.575
312.22	2.369
312.58	2.035
312.95	2.650
313.31	2.597
313.68	2.915
314.05	4.055
314.41	1.710
314.78	0.400
315.14	3.751
315.51	2.634
315.87	2.807
316.24	1.458
316.61	4.223
316.97	3.085
317.34	2.890
317.70	1.855
318.07	3.638
318.43	2.903
318.80	3.850
319.16	1.220
319.53	1.316
319.89	3.010
320.26	2.353
320.62	2.212
320.99	2.488
321.35	2.069
321.72	2.866
322.08	2.572
322.45	2.178
322.81	3.074
323.18	3.842
323.54	3.697
323.91	2.502
324.27	3.137
324.64	3.748
325.00	3.578
325.37	2.986
325.73	4.549
326.10	2.569
326.46	3.590
326.83	4.085
327.19	4.254
327.56	4.940
327.92	3.398
328.29	2.944
328.65	3.909
329.01	4.152
329.38	3.657
329.74	4.762
330.11	3.898
330.47	4.087
330.84	5.133
331.20	3.791
331.56	3.829
331.93	3.552
332.29	3.836
332.66	4.126
333.02	3.529
333.38	3.943
333.75	5.165
334.11	3.733
334.48	4.678
334.84	6.124
335.20	4.344
335.57	4.061
335.93	4.387
336.29	5.403
336.66	4.229
337.02	4.414
337.38	3.922
337.75	5.004
338.11	3.667
338.47	4.359
338.84	4.446
339.20	4.657
339.56	4.545
339.93	4.409
340.29	4.163
340.65	3.497
341.02	4.384
341.38	4.549
341.74	5.080
342.11	3.669
342.47	3.777
342.83	3.526
343.20	5.038
343.56	4.245
343.92	5.509
344.28	5.467
344.65	4.208
345.01	4.538
345.37	4.319
345.73	4.419
346.10	4.497
346.46	3.412
346.82	4.411
347.19	4.108
347.55	4.334
347.91	4.409
348.27	4.455
348.63	4.120
349.00	5.091
349.36	2.888
349.72	4.857
350.08	3.609
350.45	3.388
350.81	4.618
351.17	3.939
351.53	4.216
351.89	4.527
352.26	4.264
352.62	5.069
352.98	3.877
353.34	4.876
353.70	3.938
354.07	4.957
354.43	5.455
354.79	5.151
355.15	4.313
355.51	3.906
355.87	4.111
356.24	3.495
356.60	4.996
356.96	5.697
357.32	5.780
357.68	4.291
358.04	4.311
358.40	4.486
358.77	4.328
359.13	4.744
359.49	4.913
359.85	4.040
360.21	5.327
360.57	5.045
360.93	5.778
361.29	5.456
361.66	4.878
362.02	4.734
362.38	4.916
362.74	5.788
363.10	5.022
363.46	5.413
363.82	5.831
364.18	5.499
364.54	6.505
364.90	5.171
365.26	5.492
365.62	6.201
365.98	5.761
366.35	4.718
366.71	5.215
367.07	5.857
367.43	6.589
367.79	6.323
368.15	3.983
368.51	5.385
368.87	6.593
369.23	5.895
369.59	6.389
369.95	5.567
370.31	6.470
370.67	4.700
371.03	5.175
371.39	5.021
371.75	6.223
372.11	6.169
372.47	5.785
372.83	6.467
373.19	5.786
373.55	6.474
373.91	5.263
374.27	6.297
374.63	6.418
374.99	6.467
375.35	5.787
375.71	7.157
376.07	6.023
376.42	5.828
376.78	6.536
377.14	7.322
377.50	6.963
377.86	6.307
378.22	6.595
378.58	7.103
378.94	6.473
379.30	6.825
379.66	6.740
380.02	7.368
380.38	6.647
380.74	6.624
381.09	7.733
381.45	7.876
381.81	6.655
382.17	5.952
382.53	6.383
382.89	7.835
383.25	7.405
383.61	8.019
383.97	7.532
384.32	7.509
384.68	8.283
385.04	7.186
385.40	7.912
385.76	7.744
386.12	7.683
386.48	8.663
386.83	8.037
387.19	7.472
387.55	8.359
387.91	7.528
388.27	7.720
388.62	7.392
388.98	7.995
389.34	7.956
389.70	7.734
390.06	8.266
390.42	8.141
390.77	8.076
391.13	8.447
391.49	8.110
391.85	8.105
392.20	8.192
392.56	7.575
392.92	9.013
393.28	8.783
393.64	8.719
393.99	7.877
394.35	8.637
394.71	8.894
395.07	8.726
395.42	7.747
395.78	7.480
396.14	8.910
396.50	8.563
396.85	8.760
397.21	9.174
397.57	8.511
397.92	8.841
398.28	8.222
398.64	8.745
399.00	9.157
399.35	7.948
399.71	8.711
400.07	8.716
400.42	8.333
400.78	8.169
401.14	8.383
401.49	7.901
401.85	8.298
402.21	8.999
402.57	8.374
402.92	8.685
403.28	8.517
403.63	8.149
403.99	7.334
404.35	8.575
404.70	9.011
405.06	8.304
405.42	7.934
405.77	8.201
406.13	7.666
406.49	7.609
406.84	8.098
407.20	8.539
407.55	7.600
407.91	8.031
408.27	8.517
408.62	7.817
408.98	7.338
409.34	7.617
409.69	7.813
410.05	8.126
410.40	7.357
410.76	8.121
411.11	7.481
411.47	8.056
411.83	8.435
412.18	7.488
412.54	7.505
412.89	8.262
413.25	6.848
413.60	7.776
413.96	7.517
414.31	8.318
414.67	8.254
415.03	7.891
415.38	7.482
415.74	7.474
416.09	7.928
416.45	7.011
416.80	8.973
417.16	8.040
417.51	8.273
417.87	7.961
418.22	8.660
418.58	8.922
418.93	8.400
419.29	8.532
419.64	7.601
420.00	8.748
420.35	8.220
420.71	7.803
421.06	9.527
421.42	7.787
421.77	8.654
422.12	8.506
422.48	8.605
422.83	8.884
423.19	8.909
423.54	9.395
423.90	8.560
424.25	9.219
424.61	9.349
424.96	9.830
425.31	9.503
425.67	9.341
426.02	9.696
426.38	10.103
426.73	9.468
427.09	9.865
427.44	9.716
427.79	9.477
428.15	10.892
428.50	10.323
428.85	9.772
429.21	10.681
429.56	10.625
429.92	11.273
430.27	10.618
430.62	10.345
430.98	11.134
431.33	10.512
431.68	11.206
432.04	10.688
432.39	10.769
432.74	10.731
433.10	10.974
433.45	10.881
433.80	11.198
434.16	11.231
434.51	10.904
434.86	12.244
435.22	12.027
435.57	11.200
435.92	11.723
436.28	12.700
436.63	11.136
436.98	11.569
437.34	12.699
437.69	11.785
438.04	11.912
438.39	12.154
438.75	11.991
439.10	13.326
439.45	12.432
439.81	12.349
440.16	12.152
440.51	12.353
440.86	12.435
441.22	11.553
441.57	12.632
441.92	13.197
442.27	12.554
442.63	13.466
442.98	13.093
443.33	13.070
443.68	13.392
444.03	13.851
444.39	13.020
444.74	13.601
445.09	13.596
445.44	13.506
445.79	14.023
446.15	14.020
446.50	13.065
446.85	13.853
447.20	14.351
447.55	14.254
447.91	14.767
448.26	13.799
448.61	14.205
448.96	14.846
449.31	14.036
449.66	14.825
450.02	13.906
450.37	14.319
450.72	14.576
451.07	15.211
451.42	13.693
451.77	15.021
452.12	14.839
452.47	15.176
452.83	14.153
453.18	14.991
453.53	14.739
453.88	15.909
454.23	15.115
454.58	15.227
454.93	14.924
455.28	15.233
455.63	15.233
455.98	15.060
456.34	14.803
456.69	15.885
457.04	15.612
457.39	14.474
457.74	14.826
458.09	15.371
458.44	15.242
458.79	15.583
459.14	15.288
459.49	15.808
459.84	15.571
460.19	15.453
460.54	15.729
460.89	14.798
461.24	14.815
461.59	15.651
461.94	15.913
462.29	16.319
462.64	15.020
462.99	16.332
463.34	16.003
463.69	15.712
464.04	15.290
464.39	15.114
464.74	15.603
465.09	15.815
465.44	15.398
465.79	16.074
466.14	16.168
466.49	15.371
466.84	15.906
467.19	15.773
467.54	14.873
467.89	15.845
468.24	16.271
468.59	16.052
468.94	16.270
469.29	16.049
469.64	15.566
469.99	16.745
470.34	15.631
470.68	17.515
471.03	17.275
471.38	16.250
471.73	16.713
472.08	16.265
472.43	16.216
472.78	16.867
473.13	15.374
473.48	15.954
473.83	15.447
474.17	15.860
474.52	17.391
474.87	17.483
475.22	15.752
475.57	16.222
475.92	16.793
476.27	16.400
476.61	16.225
476.96	16.713
477.31	16.792
477.66	16.547
478.01	16.802
478.36	16.815
478.70	16.284
479.05	16.549
479.40	16.632
479.75	16.565
480.10	17.163
480.45	15.619
480.79	17.078
481.14	16.257
481.49	16.941
481.84	16.551
482.19	17.405
482.53	16.525
482.88	16.184
483.23	16.901
483.58	16.744
483.92	16.866
484.27	16.172
484.62	16.199
484.97	16.836
485.31	15.296
485.66	15.429
486.01	15.588
486.36	16.403
486.70	16.660
487.05	16.322
487.40	16.506
487.75	16.115
488.09	15.905
488.44	16.576
488.79	16.661
489.13	16.927
489.48	17.210
489.83	16.419
490.17	16.674
490.52	16.712
490.87	16.028
491.22	17.001
491.56	17.037
491.91	16.889
492.26	16.887
492.60	16.603
492.95	16.564
493.30	16.722
493.64	16.408
493.99	16.922
494.34	16.952
494.68	17.931
495.03	16.587
495.37	16.667
495.72	17.289
496.07	16.987
496.41	17.230
496.76	16.758
497.11	16.816
497.45	17.193
497.80	16.708
498.14	16.749
498.49	16.575
498.84	16.748
499.18	18.177
499.53	15.879
499.87	16.651
500.22	16.471
500.56	17.059
500.91	16.749
501.26	17.855
501.60	16.851
501.95	17.150
502.29	17.430
502.64	16.785
502.98	17.010
503.33	17.011
503.67	17.098
504.02	17.238
504.36	17.255
504.71	17.021
505.06	16.925
505.40	17.914
505.75	17.226
506.09	17.189
506.44	17.343
506.78	18.314
507.13	16.941
507.47	17.736
507.82	17.346
508.16	16.943
508.51	17.053
508.85	16.718
509.19	17.216
509.54	17.283
509.88	17.660
510.23	18.344
510.57	17.407
510.92	18.475
511.26	17.172
511.61	17.981
511.95	18.534
512.30	18.417
512.64	17.585
512.98	17.602
513.33	18.232
513.67	18.537
514.02	17.897
514.36	18.504
514.70	18.110
515.05	18.239
515.39	18.339
515.74	18.557
516.08	17.867
516.42	18.754
516.77	19.064
517.11	18.936
517.46	19.139
517.80	19.314
518.14	18.116
518.49	18.171
518.83	18.101
519.17	18.769
519.52	18.566
519.86	18.519
520.20	19.010
520.55	18.585
520.89	18.723
521.23	19.536
521.58	18.683
521.92	19.633
522.26	19.175
522.61	19.011
522.95	18.571
523.29	19.310
523.64	18.301
523.98	18.905
524.32	18.730
524.66	18.758
525.01	19.332
525.35	18.879
525.69	19.388
526.04	18.930
526.38	19.733
526.72	18.263
527.06	18.685
527.41	18.548
527.75	18.350
528.09	19.259
528.43	18.951
528.78	19.410
529.12	19.270
529.46	18.557
529.80	19.109
530.15	19.189
530.49	17.658
530.83	19.122
531.17	18.721
531.51	18.821
531.86	18.631
532.20	18.556
532.54	18.516
532.88	17.918
533.22	19.251
533.57	18.930
533.91	18.477
534.25	18.102
534.59	18.239
534.93	17.548
535.27	18.439
535.62	17.967
535.96	18.746
536.30	18.717
536.64	18.659
536.98	18.008
537.32	16.655
537.66	17.515
538.01	18.076
538.35	18.919
538.69	17.447
539.03	18.483
539.37	17.764
539.71	18.145
540.05	18.232
540.39	18.421
540.73	18.590
541.07	19.126
541.42	17.016
541.76	17.342
542.10	18.974
542.44	18.588
542.78	18.725
543.12	17.855
543.46	17.329
543.80	17.793
544.14	17.864
544.48	19.160
544.82	18.065
545.16	18.578
545.50	16.958
545.84	18.289
546.18	18.655
546.52	17.994
546.86	19.444
547.20	18.495
547.54	17.011
547.88	17.916
548.22	18.152
548.56	17.836
548.90	18.666
549.24	17.449
549.58	17.361
549.92	18.657
550.26	18.714
550.60	18.279
550.94	18.540
551.28	18.134
551.62	18.242
551.96	18.090
552.30	18.188
552.64	18.086
552.98	17.870
553.32	18.038
553.66	18.890
554.00	18.266
554.34	17.184
554.68	17.471
555.02	18.379
555.36	18.188
555.69	17.837
556.03	18.526
556.37	18.990
556.71	18.969
557.05	19.364
557.39	18.189
557.73	19.402
558.07	17.860
558.41	18.699
558.75	18.327
559.08	17.354
559.42	18.453
559.76	18.558
560.10	18.941
560.44	18.858
560.78	18.650
561.12	18.496
561.45	18.082
561.79	17.909
562.13	17.602
562.47	17.507
562.81	18.175
563.15	18.684
563.48	18.314
563.82	18.188
564.16	17.918
564.50	18.481
564.84	17.328
565.17	17.971
565.51	17.797
565.85	18.188
566.19	19.565
566.52	17.547
566.86	17.762
567.20	18.947
567.54	18.193
567.88	16.974
568.21	17.897
568.55	17.020
568.89	16.849
569.23	16.752
569.56	16.225
569.90	17.113
570.24	16.347
570.57	16.344
570.91	16.491
571.25	16.407
571.59	16.422
571.92	15.982
572.26	16.058
572.60	16.568
572.93	15.887
573.27	15.793
573.61	15.830
573.95	16.791
574.28	15.847
574.62	15.963
574.96	16.052
575.29	16.159
575.63	16.220
575.97	15.696
576.30	15.813
576.64	15.953
576.98	15.576
577.31	15.709
577.65	16.238
577.98	15.923
578.32	15.555
578.66	15.631
578.99	15.715
579.33	15.800
579.67	15.648
580.00	15.526
580.34	15.778
580.67	15.911
581.01	15.448
581.35	15.548
581.68	15.286
582.02	15.568
582.35	16.091
582.69	15.818
583.02	15.915
583.36	16.039
583.70	16.206
584.03	15.921
584.37	16.103
584.70	16.310
585.04	16.253
585.37	15.728
585.71	16.062
586.04	16.616
586.38	16.520
586.72	16.770
587.05	16.822
587.39	16.553
587.72	16.804
588.06	16.534
588.39	16.320
588.73	16.657
589.06	16.528
589.40	17.554
589.73	17.139
590.07	17.007
590.40	17.269
590.73	17.393
591.07	16.762
591.40	17.288
591.74	17.072
592.07	17.568
592.41	17.495
592.74	17.487
593.08	17.645
593.41	17.237
593.75	16.617
594.08	17.110
594.41	17.338
594.75	17.743
595.08	17.068
595.42	17.233
595.75	16.979
596.09	17.579
596.42	18.249
596.75	17.421
597.09	18.299
597.42	17.547
597.75	17.405
598.09	18.527
598.42	17.676
598.76	17.442
599.09	16.496
599.42	16.993
599.76	17.554
600.09	17.748
600.42	17.660
600.76	17.815
601.09	17.433
601.42	16.502
601.76	17.835
602.09	17.342
602.42	17.407
602.76	17.075
603.09	17.339
603.42	17.405
603.76	17.830
604.09	17.501
604.42	17.361
604.76	17.532
605.09	17.948
605.42	17.730
605.75	17.163
606.09	17.227
606.42	16.590
606.75	17.604
607.09	18.394
607.42	17.518
607.75	16.733
608.08	17.804
608.42	17.644
608.75	17.617
609.08	16.951
609.41	17.588
609.75	17.504
610.08	18.480
610.41	17.590
610.74	17.650
611.07	18.509
611.41	17.448
611.74	18.355
612.07	18.851
612.40	17.644
612.73	18.040
613.07	17.722
613.40	18.555
613.73	18.256
614.06	17.463
614.39	17.756
614.72	17.095
615.06	17.065
615.39	16.983
615.72	18.305
616.05	17.228
616.38	18.050
616.71	17.778
617.05	18.818
617.38	18.824
617.71	17.138
618.04	17.453
618.37	17.862
618.70	18.709
619.03	18.348
619.36	19.380
619.69	19.957
620.03	18.113
620.36	17.440
620.69	18.449
621.02	17.884
621.35	18.468
621.68	18.033
622.01	18.285
622.34	19.255
622.67	18.438
623.00	18.822
623.33	19.851
623.66	18.390
623.99	18.496
624.32	18.527
624.65	18.617
624.99	19.044
625.32	18.413
625.65	18.648
625.98	17.919
626.31	19.331
626.64	18.577
626.97	19.606
627.30	18.468
627.63	19.085
627.96	18.886
628.29	19.301
628.62	19.007
628.95	19.291
629.28	18.609
629.61	17.861
629.94	19.376
630.26	19.384
630.59	20.201
630.92	19.620
631.25	19.758
631.58	19.683
631.91	19.149
632.24	20.667
632.57	20.222
632.90	20.460
633.23	20.911
633.56	18.246
633.89	20.873
634.22	20.071
634.55	18.149
634.88	20.314
635.20	19.476
635.53	20.229
635.86	18.766
636.19	19.780
636.52	19.594
636.85	18.291
637.18	18.250
637.51	19.579
637.83	18.642
638.16	19.342
638.49	18.897
638.82	19.434
639.15	19.585
639.48	19.326
639.81	20.609
640.13	20.676
640.46	19.658
640.79	20.868
641.12	21.016
641.45	20.947
641.77	20.359
642.10	19.940
642.43	19.575
642.76	19.528
643.09	20.476
643.41	22.540
643.74	22.099
644.07	22.309
644.40	21.880
644.73	21.452
645.05	20.868
645.38	21.523
645.71	23.196
646.04	20.336
646.36	19.546
646.69	17.647
647.02	21.480
647.35	21.300
647.67	17.883
648.00	21.441
648.33	24.621
648.66	17.742
648.98	20.382
649.31	18.154
649.64	22.188
649.96	18.367
650.29	19.672
650.62	21.515
650.94	20.573
651.27	21.837
651.60	20.934
651.92	21.062
652.25	20.534
652.58	19.761
652.90	21.027
653.23	19.032
653.56	21.572
653.88	18.525
654.21	19.966
654.54	17.774
654.86	19.743
655.19	18.338
655.52	17.234
655.84	16.052
656.17	17.563
656.49	23.878
656.82	24.773
657.15	18.741
657.47	13.792
657.80	10.523
658.13	12.242
658.45	16.390
658.78	16.012
659.10	16.289
659.43	15.677
659.75	16.208
660.08	16.406
660.41	16.362
660.73	17.052
661.06	17.826
661.38	21.250
661.71	18.929
662.03	20.766
662.36	20.896
662.68	17.932
663.01	21.231
663.33	21.088
663.66	20.601
663.98	21.429
664.31	22.148
664.63	23.009
664.96	18.438
665.28	23.427
665.61	17.548
665.93	21.605
666.26	22.672
666.58	21.622
666.91	20.267
667.23	22.588
667.56	19.501
667.88	23.529
668.21	19.585
668.53	18.925
668.86	23.095
669.18	22.831
669.50	18.224
669.83	20.438
670.15	19.955
670.48	19.393
670.80	20.046
671.13	18.962
671.45	20.946
671.77	18.844
672.10	22.682
672.42	20.111
672.75	18.909
673.07	15.315
673.39	16.940
673.72	22.244
674.04	16.985
674.37	16.495
674.69	21.926
675.01	19.787
675.34	19.089
675.66	23.326
675.98	20.925
676.31	19.910
676.63	20.000
676.95	19.027
677.28	18.794
677.60	20.362
677.92	22.907
678.25	21.007
678.57	19.342
678.89	19.287
679.22	20.964
679.54	22.485
679.86	19.200
680.18	22.243
680.51	18.063
680.83	19.810
681.15	18.690
681.48	21.095
681.80	17.742
682.12	16.097
682.44	19.843
682.77	16.017
683.09	21.174
683.41	22.124
683.73	17.352
684.06	19.355
684.38	21.130
684.70	19.547
685.02	17.520
685.34	16.959
685.67	16.667
685.99	17.580
686.31	21.364
686.63	19.858
686.96	19.593
687.28	19.846
687.60	21.680
687.92	17.899
688.24	19.685
688.56	19.038
688.89	17.521
689.21	20.131
689.53	21.609
689.85	17.149
690.17	17.040
690.49	18.014
690.82	20.000
691.14	18.160
691.46	21.064
691.78	20.485
692.10	20.551
692.42	15.778
692.74	17.811
693.06	18.427
693.39	20.358
693.71	15.576
694.03	21.598
694.35	16.479
694.67	18.676
694.99	13.299
695.31	18.367
695.63	18.367
695.95	18.362
696.27	20.200
696.59	20.588
696.91	20.787
697.23	16.927
697.56	16.346
697.88	17.568
698.20	16.916
698.52	17.937
698.84	17.961
699.16	16.429
699.48	15.500
699.80	16.541
700.12	20.655
700.44	14.804
700.76	18.367
701.08	20.058
701.40	16.314
701.72	20.370
702.04	22.436
702.36	19.277
702.68	17.964
703.00	20.870
703.32	16.046
703.64	20.294
703.96	19.767
704.28	23.669
704.60	14.241
704.91	17.143
705.23	15.534
705.55	19.932
705.87	20.137
706.19	15.278
706.51	15.625
706.83	23.279
707.15	17.834
707.47	18.733
707.79	17.784
708.11	14.758
708.43	19.202
708.74	19.740
709.06	14.485
709.38	17.816
709.70	18.125
710.02	19.939
710.34	14.851
710.66	17.460
710.98	15.773
711.29	13.548
711.61	17.572
711.93	14.098
712.25	18.937
712.57	16.028
712.89	16.906
713.20	24.055
713.52	19.030
713.84	18.149
714.16	17.377
714.48	15.873
714.80	16.615
715.11	17.291
715.43	21.386
715.75	17.445
716.07	14.754
716.39	19.064
716.70	18.815
717.02	19.630
717.34	16.412
717.66	21.577
717.97	18.033
718.29	12.605
718.61	17.063
718.93	18.996
719.24	15.074
719.56	17.736
719.88	17.818
720.20	17.978
720.51	16.917
720.83	15.261
721.15	13.115
721.46	21.961
721.78	18.391
722.10	21.600
722.42	13.636
722.73	14.741
723.05	19.679
723.37	18.039
723.68	14.980
724.00	21.545
724.32	22.222
724.63	16.183
724.95	22.314
725.27	18.860
725.58	12.931
725.90	16.270
726.22	23.247
726.53	17.490
726.85	12.941
727.16	17.293
727.48	15.769
727.80	11.885
728.11	17.647
728.43	18.595
728.74	18.359
729.06	18.561
729.38	16.342
729.69	16.929
730.01	18.504
730.32	15.936
730.64	23.077
730.96	17.537
731.27	12.857
731.59	15.756
731.90	15.031
732.22	15.337
732.53	16.887
732.85	12.081
733.16	15.217
733.48	16.376
733.80	17.438
734.11	17.241
734.43	17.347
734.74	16.024
735.06	17.241
735.37	18.960
735.69	16.774
736.00	14.478
736.32	16.887
736.63	14.828
736.95	16.667
737.26	18.212
737.58	17.266
737.89	18.280
738.21	12.782
738.52	17.308
738.83	16.406
739.15	13.248
739.46	15.323
739.78	15.035
740.09	13.986
740.41	13.287
740.72	18.978
741.04	14.683
741.35	11.255
741.66	12.500
741.98	12.381
742.29	15.962
742.61	15.508
742.92	20.093
743.23	17.544
743.55	13.964
743.86	20.000
744.18	14.286
744.49	20.197
744.80	18.274
745.12	14.948
745.43	19.598
745.74	20.388
746.06	12.683
746.37	23.789
746.68	13.930
747.00	18.848
747.31	11.538
747.62	17.512
747.94	13.100
748.25	19.535
748.56	16.667
748.88	14.130
749.19	18.779
749.50	19.608
749.82	17.333
750.13	12.775
750.44	19.512
750.75	16.000
751.07	16.786
751.38	15.498
751.69	12.214
752.01	14.615
752.32	13.230
752.63	12.308
752.94	17.857
753.26	18.261
753.57	16.964
753.88	14.224
754.19	10.788
754.51	15.234
754.82	13.043
755.13	17.284
755.44	16.529
755.75	18.930
756.07	8.434
756.38	15.625
756.69	15.162
757.00	14.286
757.31	15.772
757.63	17.757
757.94	16.763
758.25	15.698
758.56	17.520
758.87	13.636
759.18	13.000
759.50	13.523
759.81	13.139
760.12	15.878
760.43	17.476
760.74	15.625
761.05	16.573
761.36	14.072
761.67	14.497
761.99	14.839
762.30	14.130
762.61	12.075
762.92	16.592
763.23	17.062
763.54	16.000
763.85	17.722
764.16	14.694
764.47	18.220
764.78	15.730
765.10	18.345
765.41	16.129
765.72	15.409
766.03	7.774
766.34	15.789
766.65	14.575
766.96	17.000
767.27	15.625
767.58	15.116
767.89	8.387
768.20	19.632
768.51	14.754
768.82	15.135
769.13	13.000
769.44	15.351
769.75	15.152
770.06	12.844
770.37	15.023
770.68	16.667
770.99	13.366
771.30	11.165
771.61	17.130
771.92	13.853
772.23	7.477
772.54	11.702
772.85	8.284
773.16	16.463
773.47	21.687
773.78	20.330
774.09	10.000
774.39	8.025
774.70	11.409
775.01	8.696
775.32	11.194
775.63	5.785
775.94	24.812
776.25	16.429
776.56	21.311
776.87	15.044
777.18	15.044
777.48	-8.182
777.79	12.174
778.10	5.505
778.41	9.322
778.72	9.091
779.03	20.896
779.34	18.045
779.65	15.686
779.95	14.493
780.26	12.925
780.57	-1.724
780.88	8.333
781.19	6.061
781.50	4.800
781.80	9.150
782.11	12.821
782.42	10.843
782.73	8.759
783.04	17.568
783.34	21.970
783.65	6.977
783.96	16.260
784.27	-1.709
784.57	5.691
784.88	10.569
785.19	20.175
785.50	-2.062
785.81	3.810
786.11	-1.961
786.42	3.636
786.73	14.414
787.04	16.832
787.34	7.619
787.65	2.857
787.96	8.824
788.26	21.622
788.57	16.129
788.88	6.250
789.19	6.838
789.49	5.042
789.80	2.564
790.11	19.469
790.41	10.101
790.72	21.698
791.03	-12.500
791.33	17.105
791.64	15.054
791.95	-16.000
792.25	-7.143
792.56	15.854
792.87	16.327
793.17	1.316
793.48	-10.811
793.79	9.859
794.09	-6.329
794.40	2.128
794.70	11.215
795.01	-6.140
795.32	9.091
795.62	8.036
795.93	10.309
796.23	7.692
796.54	16.842
796.85	0.000
797.15	4.167
797.46	0.000
797.76	1.408
798.07	20.000
798.37	7.353
798.68	5.714
798.99	15.714
799.29	9.211
799.60	0.000
799.90	-30.556
800.21	17.187
800.51	0.000
800.82	6.557
801.12	-5.263
801.43	7.042
801.73	10.169
802.04	8.197
802.34	-14.545
802.65	17.308
802.95	11.111
803.26	-17.500
803.56	3.846
803.87	-34.211
804.17	0.000
804.48	6.154
804.78	-28.205
805.09	-4.651
805.39	-34.375
805.70	-18.868
806.00	26.316
806.30	-2.703
806.61	14.706
806.91	7.407
807.22	0.000
807.52	17.910
807.83	-11.290
808.13	-6.349
808.43	-12.727
808.74	3.030
809.04	-15.094
809.35	1.370
809.65	22.807
809.95	-1.471
810.26	11.765
810.56	-16.000
810.86	-16.327
811.17	-28.571
811.47	-3.846
811.77	-16.129
812.08	-39.474
812.38	11.905
812.69	-4.348
812.99	-19.355
813.29	-26.190
813.59	-37.037
813.90	-12.766
814.20	-34.884
814.50	6.250
814.81	11.667
815.11	-4.878
815.41	-30.000
815.72	5.714
816.02	-16.667
816.32	-20.513
816.62	13.514
816.93	-52.941
817.23	-4.348
817.53	-38.235
817.84	8.824
818.14	-62.500
818.44	-41.379
818.74	-32.258
819.04	-81.481
819.35	-20.000
819.65	-4.000
819.95	3.333
820.25	-8.000
820.56	0.000
820.86	-20.000
821.16	4.255
821.46	20.690
821.76	-15.385
822.07	-32.500
822.37	-9.302
822.67	-60.000
822.97	-10.811
823.27	8.108
823.57	-24.000
823.88	10.811
824.18	-76.190
824.48	-65.385
824.78	-123.077
825.08	-43.478
825.38	-37.500
825.69	-45.833
825.99	5.000
826.29	-40.541
826.59	-17.647
826.89	-4.000
827.19	-54.286
827.49	-5.263
827.79	3.125
828.09	-43.333
828.39	-60.870
828.70	-68.966
829.00	-27.586
829.30	5.556
829.60	18.750
829.90	-16.667
830.20	-30.769
830.50	-85.714
830.80	-60.714
831.10	12.821
831.40	-95.238
831.70	2.941
832.00	-29.167
832.30	-15.789
832.60	-87.500
832.90	-75.000
833.20	-141.176
833.50	-140.000
833.80	-100.000
834.10	-55.000
834.40	8.333
834.70	-27.778
835.00	3.846
835.30	-50.000
835.60	-24.138
835.90	-66.667
836.20	-145.455
836.50	-141.667
836.80	-2.857
837.10	42.857
837.40	-17.647
837.70	-172.727
838.00	0.000
838.30	-56.250
838.60	-9.524
838.90	-10.000
839.19	-73.913
839.49	-30.435
839.79	-111.111
840.09	-21.739
840.39	-18.182
840.69	-131.250
840.99	42.105
841.29	-106.250
841.59	-71.429
841.88	-50.000
842.18	-29.167
842.48	-105.882
842.78	-3.448
843.08	-7.143
843.38	-169.231
843.68	-122.222
843.97	-115.385
844.27	-154.545
844.57	-260.000
844.87	-16.000
845.17	-120.000
845.47	-114.286
845.76	-200.000
846.06	0.000
846.36	-450.000
846.66	-190.000
846.96	-94.737
847.25	-8.333
847.55	-116.667
847.85	-60.000
848.15	-90.000
848.44	26.923
848.74	-5.263
849.04	466.667
849.34	-111.111
849.63	-73.684
849.93	0.000
850.23	-60.000
850.53	-19.048
850.82	-40.000
851.12	26.316
851.42	-1150.000
851.71	-14.286
852.01	-66.667
852.31	-76.471
852.61	-40.000
852.90	-80.952
853.20	-283.333
853.50	-55.556
853.79	-68.421
854.09	-60.000
854.39	-35.714
854.68	-65.217
854.98	-200.000
855.28	3.448
855.57	-81.250
855.87	-45.000
856.17	-53.333
856.46	-10.345
856.76	-73.333
857.05	-64.706
857.35	-153.846
857.65	-136.364
857.94	-22.222
858.24	-85.714
858.53	-64.286
858.83	-83.333
859.13	-166.667
859.42	4.762
859.72	-300.000
860.01	-333.333
860.31	-62.500
860.60	-680.000
860.90	-222.222
861.20	-112.500
861.49	-128.571
861.79	-141.176
862.08	-1000.000
862.38	-116.667
862.67	-53.846
862.97	-58.824
863.26	-5.000
863.56	0.000
863.85	600.000
864.15	-110.000
864.44	-100.000
864.74	-5.000
865.03	-287.500
865.33	-216.667
865.62	-94.118
865.92	-450.000
866.21	-92.857
866.51	-83.333
866.80	-1500.000
867.10	-333.333
867.39	-52.941
867.69	-34.783
867.98	-100.000
868.27	-300.000
868.57	-31.250
868.86	-172.727
869.16	-29.412
869.45	-100.000
869.75	-271.429
870.04	800.000
870.33	-66.667
870.63	-100.000
870.92	-188.889
871.22	-116.667
871.51	-118.182
871.80	-108.333
872.10	-40.000
>>>>>End Processed Spectral Data<<<<<
