SpectraSuite Data File
++++++++++++++++++++++++++++++++++++
Date: Sat May 16 11:28:20 PDT 2015
User: schluterlab
Dark Spectrum Present: Yes
Reference Spectrum Present: Yes
Number of Sampled Component Spectra: 1
Spectrometers: USB2E3373
Integration Time (usec): 3000 (USB2E3373)
Spectra Averaged: 3 (USB2E3373)
Boxcar Smoothing: 0 (USB2E3373)
Correct for Electrical Dark: No (USB2E3373)
Strobe/Lamp Enabled: No (USB2E3373)
Correct for Detector Non-linearity: No (USB2E3373)
Correct for Stray Light: No (USB2E3373)
Number of Pixels in Processed Spectrum: 2048
>>>>>Begin Processed Spectral Data<<<<<
178.53	0.000
178.91	113.333
179.29	666.667
179.67	-700.000
180.04	15.385
180.42	1000.000
180.80	300.000
181.18	375.000
181.56	-100.000
181.94	2000.000
182.31	450.000
182.69	23.077
183.07	-600.000
183.45	1450.000
183.83	266.667
184.20	-128.571
184.58	-187.500
184.96	-350.000
185.34	75.000
185.72	-300.000
186.09	216.667
186.47	-250.000
186.85	-200.000
187.23	-87.500
187.61	-350.000
187.98	-275.000
188.36	-137.500
188.74	-262.500
189.12	1600.000
189.49	300.000
189.87	-100.000
190.25	175.000
190.63	-71.429
191.00	-166.667
191.38	340.000
191.76	-60.000
192.14	300.000
192.51	-140.000
192.89	-433.333
193.27	0.000
193.65	-111.111
194.02	-185.714
194.40	600.000
194.78	-70.000
195.15	-400.000
195.53	-100.000
195.91	-316.667
196.29	360.000
196.66	-766.667
197.04	2400.000
197.42	-300.000
197.79	0.000
198.17	-166.667
198.55	-300.000
198.92	0.000
199.30	225.000
199.68	0.000
200.05	-144.444
200.43	-122.222
200.81	-1200.000
201.18	-100.000
201.56	214.286
201.94	-40.000
202.31	22.727
202.69	40.000
203.07	-100.000
203.44	533.333
203.82	-250.000
204.19	-525.000
204.57	-200.000
204.95	-300.000
205.32	-12.500
205.70	-100.000
206.08	-2700.000
206.45	-55.556
206.83	-900.000
207.20	-600.000
207.58	-600.000
207.96	-166.667
208.33	-200.000
208.71	-133.333
209.08	190.000
209.46	-142.857
209.84	850.000
210.21	0.000
210.59	55.000
210.96	-500.000
211.34	-300.000
211.71	-33.333
212.09	125.000
212.46	900.000
212.84	-1700.000
213.22	566.667
213.59	58.333
213.97	11.111
214.34	130.000
214.72	-60.000
215.09	-266.667
215.47	-200.000
215.84	-50.000
216.22	-150.000
216.59	-26.667
216.97	-500.000
217.34	500.000
217.72	-71.429
218.09	-416.667
218.47	-214.286
218.84	271.429
219.22	-71.429
219.59	0.000
219.97	271.429
220.34	325.000
220.72	137.500
221.09	-53.846
221.47	0.000
221.84	200.000
222.22	-650.000
222.59	900.000
222.97	-287.500
223.34	-550.000
223.72	-500.000
224.09	7.143
224.46	-225.000
224.84	-92.857
225.21	-271.429
225.59	-100.000
225.96	-100.000
226.34	-228.571
226.71	-144.444
227.08	5.000
227.46	1700.000
227.83	-200.000
228.21	-225.000
228.58	850.000
228.95	18.750
229.33	-1800.000
229.70	-280.000
230.08	-1500.000
230.45	-116.667
230.82	-216.667
231.20	-1700.000
231.57	-650.000
231.95	2400.000
232.32	14.286
232.69	-166.667
233.07	-257.143
233.44	-1350.000
233.81	-20.000
234.19	-155.556
234.56	0.000
234.93	-21.875
235.31	-214.286
235.68	-192.857
236.05	-64.706
236.43	-81.818
236.80	-25.806
237.17	-16.667
237.55	-47.619
237.92	-86.364
238.29	-5.714
238.67	-8.824
239.04	-11.111
239.41	-29.032
239.79	-58.974
240.16	-28.571
240.53	-25.455
240.91	-35.897
241.28	-10.909
241.65	10.769
242.02	-18.033
242.40	-13.115
242.77	-9.091
243.14	-30.508
243.51	-18.571
243.89	-26.582
244.26	-14.607
244.63	3.158
245.00	-12.632
245.38	-4.237
245.75	-5.310
246.12	-3.200
246.49	3.150
246.87	-12.195
247.24	-21.186
247.61	-12.712
247.98	-9.155
248.36	-3.497
248.73	-9.494
249.10	-15.924
249.47	-2.339
249.84	-3.409
250.22	-10.119
250.59	-1.695
250.96	-4.712
251.33	-1.422
251.70	-4.327
252.08	0.948
252.45	-6.161
252.82	-7.143
253.19	0.000
253.56	-2.823
253.94	-1.688
254.31	-4.292
254.68	-0.407
255.05	-6.452
255.42	-0.397
255.79	-5.735
256.16	-6.667
256.54	-2.941
256.91	-3.030
257.28	-5.861
257.65	0.000
258.02	0.314
258.39	-3.344
258.76	-6.419
259.14	-4.630
259.51	-0.656
259.88	1.220
260.25	-1.553
260.62	-3.859
260.99	-5.045
261.36	-2.439
261.73	-2.312
262.10	-1.111
262.47	-2.279
262.85	0.286
263.22	-1.433
263.59	-4.923
263.96	-3.478
264.33	-1.897
264.70	-1.934
265.07	-7.143
265.44	-0.258
265.81	-0.258
266.18	-3.544
266.55	-0.490
266.92	-0.504
267.29	-1.211
267.66	-1.975
268.03	1.449
268.40	-1.878
268.77	-1.205
269.14	-1.624
269.51	0.000
269.88	-1.835
270.25	-2.564
270.62	-1.373
270.99	-1.577
271.36	-3.730
271.73	-0.897
272.10	-0.458
272.47	-1.556
272.84	0.889
273.21	-3.670
273.58	-0.440
273.95	-2.412
274.32	-3.167
274.69	3.501
275.06	0.818
275.43	-4.688
275.80	0.611
276.17	-2.510
276.54	2.240
276.91	-1.029
277.28	-2.637
277.65	-1.446
278.02	-0.418
278.39	-1.179
278.76	-1.793
279.13	-0.791
279.50	-3.380
279.87	0.846
280.23	0.810
280.60	-1.392
280.97	-2.524
281.34	-2.515
281.71	0.577
282.08	-1.411
282.45	-3.462
282.82	-0.581
283.19	-0.182
283.56	0.000
283.92	-0.177
284.29	-2.788
284.66	0.540
285.03	0.357
285.40	-0.185
285.77	0.877
286.14	0.181
286.51	-0.888
286.87	1.815
287.24	0.512
287.61	0.496
287.98	-1.733
288.35	-1.322
288.72	-2.377
289.08	-3.559
289.45	-0.337
289.82	-4.671
290.19	1.149
290.56	-2.645
290.93	0.159
291.29	-2.431
291.66	-1.610
292.03	1.099
292.40	0.301
292.77	-1.087
293.13	-1.138
293.50	-0.446
293.87	-0.613
294.24	-0.151
294.60	-0.303
294.97	0.455
295.34	-0.889
295.71	-0.744
296.08	-1.690
296.44	-1.431
296.81	-0.285
297.18	0.141
297.55	0.989
297.91	1.395
298.28	0.411
298.65	-0.558
299.02	0.401
299.38	-0.535
299.75	-0.136
300.12	1.154
300.48	0.767
300.85	0.131
301.22	0.000
301.59	0.650
301.95	0.882
302.32	-1.043
302.69	0.734
303.05	-0.244
303.42	-1.000
303.79	-0.718
304.15	1.303
304.52	2.334
304.89	1.535
305.25	0.366
305.62	0.705
305.99	2.002
306.35	0.555
306.72	0.114
307.09	1.703
307.45	0.454
307.82	0.335
308.19	1.342
308.55	0.980
308.92	-0.215
309.29	-0.649
309.65	2.121
310.02	0.972
310.38	0.216
310.75	1.025
311.12	1.756
311.48	1.983
311.85	2.575
312.22	1.751
312.58	3.662
312.95	2.243
313.31	2.597
313.68	3.819
314.05	4.154
314.41	2.012
314.78	3.197
315.14	3.850
315.51	3.445
315.87	4.356
316.24	3.984
316.61	3.839
316.97	4.776
317.34	3.950
317.70	4.267
318.07	6.716
318.43	5.899
318.80	7.887
319.16	6.004
319.53	6.109
319.89	5.550
320.26	8.235
320.62	6.827
320.99	7.662
321.35	7.192
321.72	8.905
322.08	10.089
322.45	9.406
322.81	10.567
323.18	11.335
323.54	11.922
323.91	13.624
324.27	13.403
324.64	13.620
325.00	15.096
325.37	15.385
325.73	17.585
326.10	16.032
326.46	17.951
326.83	19.234
327.19	20.517
327.56	20.784
327.92	22.005
328.29	23.203
328.65	22.545
329.01	23.498
329.38	23.996
329.74	26.282
330.11	25.476
330.47	25.795
330.84	26.031
331.20	27.166
331.56	27.165
331.93	28.330
332.29	29.406
332.66	29.763
333.02	28.869
333.38	31.093
333.75	31.256
334.11	30.222
334.48	30.891
334.84	31.846
335.20	32.181
335.57	32.671
335.93	33.841
336.29	32.507
336.66	32.775
337.02	33.964
337.38	32.264
337.75	33.714
338.11	33.721
338.47	34.075
338.84	33.031
339.20	33.743
339.56	36.007
339.93	33.510
340.29	33.038
340.65	34.178
341.02	33.137
341.38	32.350
341.74	34.547
342.11	33.362
342.47	33.991
342.83	32.326
343.20	34.244
343.56	32.980
343.92	34.474
344.28	35.744
344.65	32.673
345.01	35.210
345.37	33.721
345.73	33.552
346.10	33.524
346.46	33.550
346.82	32.959
347.19	34.593
347.55	32.745
347.91	34.567
348.27	33.413
348.63	32.876
349.00	35.163
349.36	32.865
349.72	34.236
350.08	35.044
350.45	33.018
350.81	34.315
351.17	34.244
351.53	34.049
351.89	33.791
352.26	34.884
352.62	35.714
352.98	34.098
353.34	33.973
353.70	33.359
354.07	35.405
354.43	34.704
354.79	35.261
355.15	34.345
355.51	34.688
355.87	35.178
356.24	34.313
356.60	36.180
356.96	34.642
357.32	35.392
357.68	35.479
358.04	35.797
358.40	34.803
358.77	35.626
359.13	35.272
359.49	35.147
359.85	35.290
360.21	35.769
360.57	37.048
360.93	36.593
361.29	34.679
361.66	34.985
362.02	35.873
362.38	35.363
362.74	36.117
363.10	35.509
363.46	37.251
363.82	35.714
364.18	35.818
364.54	37.670
364.90	35.010
365.26	35.806
365.62	38.845
365.98	37.838
366.35	37.113
366.71	35.729
367.07	37.826
367.43	37.680
367.79	38.144
368.15	36.629
368.51	37.413
368.87	37.843
369.23	37.895
369.59	38.056
369.95	37.632
370.31	38.537
370.67	37.744
371.03	38.265
371.39	37.836
371.75	38.841
372.11	39.670
372.47	39.190
372.83	39.291
373.19	40.000
373.55	39.268
373.91	39.687
374.27	39.357
374.63	40.166
374.99	40.890
375.35	40.781
375.71	41.796
376.07	40.794
376.42	39.139
376.78	40.131
377.14	42.237
377.50	41.844
377.86	41.938
378.22	42.462
378.58	43.113
378.94	41.800
379.30	41.987
379.66	42.259
380.02	43.316
380.38	43.021
380.74	41.383
381.09	42.472
381.45	42.542
381.81	42.710
382.17	43.860
382.53	43.161
382.89	45.036
383.25	44.792
383.61	44.752
383.97	44.029
384.32	44.806
384.68	44.256
385.04	45.290
385.40	44.796
385.76	45.427
386.12	43.910
386.48	44.864
386.83	45.337
387.19	45.487
387.55	45.064
387.91	46.236
388.27	45.657
388.62	45.673
388.98	45.609
389.34	45.471
389.70	45.798
390.06	46.302
390.42	46.923
390.77	47.571
391.13	47.205
391.49	47.349
391.85	46.696
392.20	46.663
392.56	46.243
392.92	46.891
393.28	46.958
393.64	46.903
393.99	47.385
394.35	46.594
394.71	46.325
395.07	47.395
395.42	46.901
395.78	47.769
396.14	49.159
396.50	46.972
396.85	47.008
397.21	47.691
397.57	47.416
397.92	47.892
398.28	48.389
398.64	48.662
399.00	48.652
399.35	48.929
399.71	48.839
400.07	48.358
400.42	47.810
400.78	49.016
401.14	47.186
401.49	47.700
401.85	48.444
402.21	47.795
402.57	46.966
402.92	48.773
403.28	46.998
403.63	46.315
403.99	46.364
404.35	46.920
404.70	46.635
405.06	47.866
405.42	47.540
405.77	47.285
406.13	47.303
406.49	48.532
406.84	48.170
407.20	48.057
407.55	47.308
407.91	45.855
408.27	48.468
408.62	47.865
408.98	47.119
409.34	48.324
409.69	46.629
410.05	45.603
410.40	47.272
410.76	46.651
411.11	47.818
411.47	47.123
411.83	47.005
412.18	47.958
412.54	46.797
412.89	47.084
413.25	46.104
413.60	46.902
413.96	45.595
414.31	47.156
414.67	47.492
415.03	46.313
415.38	48.081
415.74	48.131
416.09	47.123
416.45	47.156
416.80	46.879
417.16	46.645
417.51	49.639
417.87	47.767
418.22	48.799
418.58	48.395
418.93	49.234
419.29	47.553
419.64	48.744
420.00	48.724
420.35	47.546
420.71	49.700
421.06	48.639
421.42	48.126
421.77	48.241
422.12	49.804
422.48	48.316
422.83	49.260
423.19	48.552
423.54	49.222
423.90	48.236
424.25	49.378
424.61	50.905
424.96	51.317
425.31	49.078
425.67	50.258
426.02	50.373
426.38	51.543
426.73	51.666
427.09	51.287
427.44	50.625
427.79	50.349
428.15	51.107
428.50	51.730
428.85	52.098
429.21	50.747
429.56	51.458
429.92	51.703
430.27	51.496
430.62	52.926
430.98	51.856
431.33	53.095
431.68	53.458
432.04	53.274
432.39	52.308
432.74	52.158
433.10	53.011
433.45	52.274
433.80	53.080
434.16	53.251
434.51	54.247
434.86	53.954
435.22	52.784
435.57	53.672
435.92	54.045
436.28	54.125
436.63	53.477
436.98	53.436
437.34	53.514
437.69	54.201
438.04	54.623
438.39	55.114
438.75	53.842
439.10	54.692
439.45	55.462
439.81	54.157
440.16	53.890
440.51	54.941
440.86	53.846
441.22	54.671
441.57	54.947
441.92	54.629
442.27	54.437
442.63	56.116
442.98	54.684
443.33	55.574
443.68	56.123
444.03	55.010
444.39	55.702
444.74	56.608
445.09	55.373
445.44	56.162
445.79	56.298
446.15	55.367
446.50	55.852
446.85	55.310
447.20	55.618
447.55	55.967
447.91	56.429
448.26	55.698
448.61	55.122
448.96	56.246
449.31	56.032
449.66	57.298
450.02	56.011
450.37	56.638
450.72	57.401
451.07	57.951
451.42	56.506
451.77	57.750
452.12	57.986
452.47	57.242
452.83	56.902
453.18	57.812
453.53	57.214
453.88	57.536
454.23	56.227
454.58	58.794
454.93	57.872
455.28	57.999
455.63	58.968
455.98	59.277
456.34	56.734
456.69	58.412
457.04	55.808
457.39	57.476
457.74	57.885
458.09	57.889
458.44	60.624
458.79	58.072
459.14	57.159
459.49	58.259
459.84	58.179
460.19	56.802
460.54	58.379
460.89	58.857
461.24	57.620
461.59	58.030
461.94	57.543
462.29	56.700
462.64	60.211
462.99	58.501
463.34	58.542
463.69	59.160
464.04	57.996
464.39	58.065
464.74	57.742
465.09	57.246
465.44	57.981
465.79	57.868
466.14	60.702
466.49	58.722
466.84	57.863
467.19	59.040
467.54	57.975
467.89	58.693
468.24	57.542
468.59	59.400
468.94	59.871
469.29	57.505
469.64	59.164
469.99	59.757
470.34	58.651
470.68	60.756
471.03	59.257
471.38	59.375
471.73	60.769
472.08	59.639
472.43	58.494
472.78	59.533
473.13	58.979
473.48	60.434
473.83	59.305
474.17	60.446
474.52	60.230
474.87	56.760
475.22	59.174
475.57	58.667
475.92	59.989
476.27	58.229
476.61	59.887
476.96	58.468
477.31	58.773
477.66	59.048
478.01	59.589
478.36	58.408
478.70	59.690
479.05	60.087
479.40	58.756
479.75	58.970
480.10	58.085
480.45	58.656
480.79	60.020
481.14	60.512
481.49	58.858
481.84	58.761
482.19	60.256
482.53	59.943
482.88	59.231
483.23	58.826
483.58	59.574
483.92	60.583
484.27	58.751
484.62	59.352
484.97	58.691
485.31	58.016
485.66	56.121
486.01	57.151
486.36	58.514
486.70	59.429
487.05	58.769
487.40	58.681
487.75	58.394
488.09	57.968
488.44	58.694
488.79	57.623
489.13	58.615
489.48	59.421
489.83	59.258
490.17	59.077
490.52	60.236
490.87	60.185
491.22	58.711
491.56	59.769
491.91	60.258
492.26	58.868
492.60	59.753
492.95	60.447
493.30	59.076
493.64	59.379
493.99	60.325
494.34	61.810
494.68	60.440
495.03	59.751
495.37	60.521
495.72	59.872
496.07	59.831
496.41	60.815
496.76	61.005
497.11	59.774
497.45	59.818
497.80	60.230
498.14	60.118
498.49	59.970
498.84	58.932
499.18	60.526
499.53	59.377
499.87	59.990
500.22	59.804
500.56	61.231
500.91	59.852
501.26	60.359
501.60	59.846
501.95	59.758
502.29	60.085
502.64	59.736
502.98	60.374
503.33	60.197
503.67	59.914
504.02	61.033
504.36	60.147
504.71	59.878
505.06	59.611
505.40	60.629
505.75	60.823
506.09	61.881
506.44	59.950
506.78	60.311
507.13	59.784
507.47	61.137
507.82	59.215
508.16	60.674
508.51	59.918
508.85	60.559
509.19	60.440
509.54	60.359
509.88	61.117
510.23	61.006
510.57	60.370
510.92	62.084
511.26	61.138
511.61	60.205
511.95	60.075
512.30	60.968
512.64	60.045
512.98	61.221
513.33	60.791
513.67	60.190
514.02	61.745
514.36	61.496
514.70	59.649
515.05	60.034
515.39	61.015
515.74	62.304
516.08	61.037
516.42	61.190
516.77	61.814
517.11	61.670
517.46	62.321
517.80	61.613
518.14	61.775
518.49	60.968
518.83	60.593
519.17	61.575
519.52	60.902
519.86	62.963
520.20	62.592
520.55	61.723
520.89	61.553
521.23	62.088
521.58	61.818
521.92	62.001
522.26	60.889
522.61	61.597
522.95	61.710
523.29	61.755
523.64	61.462
523.98	62.190
524.32	60.779
524.66	60.621
525.01	61.207
525.35	61.985
525.69	60.833
526.04	62.076
526.38	61.489
526.72	60.473
527.06	61.523
527.41	61.518
527.75	60.528
528.09	62.674
528.43	61.311
528.78	60.741
529.12	62.548
529.46	62.436
529.80	60.943
530.15	62.073
530.49	59.638
530.83	60.969
531.17	60.943
531.51	60.817
531.86	60.434
532.20	61.201
532.54	60.428
532.88	61.792
533.22	62.433
533.57	61.423
533.91	59.051
534.25	59.585
534.59	59.463
534.93	58.681
535.27	61.171
535.62	60.422
535.96	61.021
536.30	59.686
536.64	61.155
536.98	63.347
537.32	60.539
537.66	60.625
538.01	61.375
538.35	60.405
538.69	60.294
539.03	60.122
539.37	61.011
539.71	59.306
540.05	61.960
540.39	61.150
540.73	60.815
541.07	60.724
541.42	59.757
541.76	59.203
542.10	61.580
542.44	60.493
542.78	59.430
543.12	60.964
543.46	59.795
543.80	59.799
544.14	59.906
544.48	59.908
544.82	59.946
545.16	59.356
545.50	58.748
545.84	60.362
546.18	60.264
546.52	61.664
546.86	60.684
547.20	60.900
547.54	59.780
547.88	59.854
548.22	60.419
548.56	59.385
548.90	59.771
549.24	60.336
549.58	60.409
549.92	60.989
550.26	60.694
550.60	59.744
550.94	61.460
551.28	61.400
551.62	60.857
551.96	58.466
552.30	59.791
552.64	61.084
552.98	59.355
553.32	59.885
553.66	61.067
554.00	60.199
554.34	60.217
554.68	59.868
555.02	60.999
555.36	58.807
555.69	59.742
556.03	60.491
556.37	59.957
556.71	61.203
557.05	61.863
557.39	61.099
557.73	61.269
558.07	62.020
558.41	61.631
558.75	60.304
559.08	60.156
559.42	61.715
559.76	61.963
560.10	61.670
560.44	60.983
560.78	60.125
561.12	60.524
561.45	59.247
561.79	60.418
562.13	61.290
562.47	60.294
562.81	60.467
563.15	59.622
563.48	59.917
563.82	59.770
564.16	59.229
564.50	59.207
564.84	60.450
565.17	59.416
565.51	58.996
565.85	60.446
566.19	60.079
566.52	59.165
566.86	58.344
567.20	59.685
567.54	60.307
567.88	59.408
568.21	59.676
568.55	58.537
568.89	57.107
569.23	57.658
569.56	56.620
569.90	56.294
570.24	56.746
570.57	54.868
570.91	55.661
571.25	55.901
571.59	55.885
571.92	55.030
572.26	54.733
572.60	55.104
572.93	54.444
573.27	54.421
573.61	54.316
573.95	54.444
574.28	54.505
574.62	54.906
574.96	53.789
575.29	54.319
575.63	54.048
575.97	53.290
576.30	53.796
576.64	53.603
576.98	53.595
577.31	53.540
577.65	53.724
577.98	53.809
578.32	54.304
578.66	53.703
578.99	53.786
579.33	53.755
579.67	53.284
580.00	52.927
580.34	53.009
580.67	53.812
581.01	52.697
581.35	53.272
581.68	52.481
582.02	53.002
582.35	54.070
582.69	54.055
583.02	54.178
583.36	54.099
583.70	54.429
584.03	54.418
584.37	54.235
584.70	54.401
585.04	53.722
585.37	52.864
585.71	53.604
586.04	54.053
586.38	53.355
586.72	53.918
587.05	54.800
587.39	54.329
587.72	54.154
588.06	54.553
588.39	54.543
588.73	54.466
589.06	55.147
589.40	55.170
589.73	55.276
590.07	55.499
590.40	55.092
590.73	55.978
591.07	55.533
591.40	55.806
591.74	56.169
592.07	55.495
592.41	56.306
592.74	55.842
593.08	56.231
593.41	55.362
593.75	55.094
594.08	56.506
594.41	55.194
594.75	55.719
595.08	56.429
595.42	55.527
595.75	55.237
596.09	55.957
596.42	56.301
596.75	55.929
597.09	57.213
597.42	54.518
597.75	55.846
598.09	56.620
598.42	56.297
598.76	55.066
599.09	55.170
599.42	55.556
599.76	54.926
600.09	55.725
600.42	55.450
600.76	55.669
601.09	54.615
601.42	55.323
601.76	56.269
602.09	55.501
602.42	55.679
602.76	55.256
603.09	55.202
603.42	56.688
603.76	55.604
604.09	55.386
604.42	55.037
604.76	56.040
605.09	55.696
605.42	55.496
605.75	55.153
606.09	55.459
606.42	55.718
606.75	55.947
607.09	56.109
607.42	55.194
607.75	55.232
608.08	56.258
608.42	57.521
608.75	54.112
609.08	55.772
609.41	56.851
609.75	55.241
610.08	55.784
610.41	56.096
610.74	56.141
611.07	57.049
611.41	54.967
611.74	56.247
612.07	56.552
612.40	56.450
612.73	55.843
613.07	56.467
613.40	58.511
613.73	57.166
614.06	56.068
614.39	58.512
614.72	56.648
615.06	56.304
615.39	55.399
615.72	55.894
616.05	55.108
616.38	57.342
616.71	56.997
617.05	56.815
617.38	56.285
617.71	58.231
618.04	57.888
618.37	57.736
618.70	57.757
619.03	57.820
619.36	57.717
619.69	59.584
620.03	57.300
620.36	57.876
620.69	58.794
621.02	59.665
621.35	59.677
621.68	60.410
622.01	60.437
622.34	58.773
622.67	59.063
623.00	59.143
623.33	58.731
623.66	57.903
623.99	58.872
624.32	58.929
624.65	57.027
624.99	59.895
625.32	57.335
625.65	59.052
625.98	58.920
626.31	59.217
626.64	58.828
626.97	60.188
627.30	58.894
627.63	58.981
627.96	60.139
628.29	59.835
628.62	61.223
628.95	62.205
629.28	60.338
629.61	59.470
629.94	61.626
630.26	61.233
630.59	63.618
630.92	60.360
631.25	61.089
631.58	60.317
631.91	59.468
632.24	64.000
632.57	63.556
632.90	65.057
633.23	62.617
633.56	60.234
633.89	62.854
634.22	61.865
634.55	61.058
634.88	64.571
635.20	62.172
635.53	64.758
635.86	61.713
636.19	62.149
636.52	62.605
636.85	61.131
637.18	59.875
637.51	63.321
637.83	64.048
638.16	62.237
638.49	65.379
638.82	63.320
639.15	62.776
639.48	63.294
639.81	67.497
640.13	62.432
640.46	63.675
640.79	63.585
641.12	62.906
641.45	63.128
641.77	64.521
642.10	64.350
642.43	63.429
642.76	62.677
643.09	65.238
643.41	65.556
643.74	66.932
644.07	65.523
644.40	64.668
644.73	67.657
645.05	62.771
645.38	66.060
645.71	68.041
646.04	63.697
646.36	65.271
646.69	65.052
647.02	68.592
647.35	69.495
647.67	67.336
648.00	66.081
648.33	67.454
648.66	63.548
648.98	64.968
649.31	63.385
649.64	63.281
649.96	62.794
650.29	62.295
650.62	67.298
650.94	64.418
651.27	63.951
651.60	63.495
651.92	66.096
652.25	62.437
652.58	63.032
652.90	62.921
653.23	62.903
653.56	65.886
653.88	63.770
654.21	65.940
654.54	64.286
654.86	63.242
655.19	61.461
655.52	57.521
655.84	52.289
656.17	55.834
656.49	74.906
656.82	77.478
657.15	58.635
657.47	43.541
657.80	33.556
658.13	38.059
658.45	51.792
658.78	51.074
659.10	49.141
659.43	49.357
659.75	49.489
660.08	49.844
660.41	51.059
660.73	55.226
661.06	59.565
661.38	63.929
661.71	61.377
662.03	64.516
662.36	66.098
662.68	64.979
663.01	66.454
663.33	67.800
663.66	69.099
663.98	64.286
664.31	64.653
664.63	65.265
664.96	65.293
665.28	65.076
665.61	65.328
665.93	65.021
666.26	65.789
666.58	63.202
666.91	65.256
667.23	64.035
667.56	63.946
667.88	66.063
668.21	66.820
668.53	66.589
668.86	66.051
669.18	67.580
669.50	66.121
669.83	66.910
670.15	66.368
670.48	64.486
670.80	66.515
671.13	60.722
671.45	62.387
671.77	65.739
672.10	63.511
672.42	60.517
672.75	61.091
673.07	58.198
673.39	61.931
673.72	64.567
674.04	66.030
674.37	61.649
674.69	64.139
675.01	62.766
675.34	64.859
675.66	62.203
675.98	63.436
676.31	65.611
676.63	65.747
676.95	62.389
677.28	66.821
677.60	64.932
677.92	65.639
678.25	60.175
678.57	62.963
678.89	64.151
679.22	62.264
679.54	60.947
679.86	62.800
680.18	61.597
680.51	55.680
680.83	60.190
681.15	62.620
681.48	63.895
681.80	64.315
682.12	60.966
682.44	59.725
682.77	59.740
683.09	60.797
683.41	65.044
683.73	62.100
684.06	58.280
684.38	64.854
684.70	60.494
685.02	61.024
685.34	59.064
685.67	58.333
685.99	60.681
686.31	59.605
686.63	61.348
686.96	59.335
687.28	58.767
687.60	60.742
687.92	59.728
688.24	59.449
688.56	60.521
688.89	61.111
689.21	59.519
689.53	62.759
689.85	60.356
690.17	60.314
690.49	60.970
690.82	62.169
691.14	64.623
691.46	63.636
691.78	59.471
692.10	62.500
692.42	60.444
692.74	62.017
693.06	62.022
693.39	59.732
693.71	61.625
694.03	60.043
694.35	60.497
694.67	62.884
694.99	59.591
695.31	62.245
695.63	60.204
695.95	61.538
696.27	62.095
696.59	62.567
696.91	64.607
697.23	63.281
697.56	59.856
697.88	58.784
698.20	56.959
698.52	58.744
698.84	60.194
699.16	57.143
699.48	60.250
699.80	58.396
700.12	61.209
700.44	61.732
700.76	64.140
701.08	58.430
701.40	58.610
701.72	65.432
702.04	65.385
702.36	63.253
702.68	62.275
703.00	62.319
703.32	58.739
703.64	66.471
703.96	63.372
704.28	58.580
704.60	62.025
704.91	63.492
705.23	62.460
705.55	62.162
705.87	59.727
706.19	59.375
706.51	62.500
706.83	63.934
707.15	63.057
707.47	61.157
707.79	58.505
708.11	56.234
708.43	62.095
708.74	57.922
709.06	60.167
709.38	58.621
709.70	58.438
710.02	63.190
710.34	60.726
710.66	59.365
710.98	58.991
711.29	58.387
711.61	57.508
711.93	59.672
712.25	60.133
712.57	59.930
712.89	64.388
713.20	62.199
713.52	59.328
713.84	57.295
714.16	57.705
714.48	55.238
714.80	57.846
715.11	54.467
715.43	60.542
715.75	56.698
716.07	57.377
716.39	63.545
716.70	59.233
717.02	62.222
717.34	67.176
717.66	65.560
717.97	61.885
718.29	63.025
718.61	64.683
718.93	58.423
719.24	58.088
719.56	56.981
719.88	59.636
720.20	59.925
720.51	59.023
720.83	61.446
721.15	61.885
721.46	57.255
721.78	57.088
722.10	66.800
722.42	63.223
722.73	58.964
723.05	59.036
723.37	55.686
723.68	57.085
724.00	59.756
724.32	61.728
724.63	55.602
724.95	55.785
725.27	63.158
725.58	59.052
725.90	55.159
726.22	59.410
726.53	58.935
726.85	55.294
727.16	56.767
727.48	56.923
727.80	56.557
728.11	63.445
728.43	57.438
728.74	60.547
729.06	59.470
729.38	58.755
729.69	57.874
730.01	58.268
730.32	58.167
730.64	52.015
730.96	60.075
731.27	58.929
731.59	54.662
731.90	49.080
732.22	55.828
732.53	58.609
732.85	52.013
733.16	57.971
733.48	52.962
733.80	55.872
734.11	53.793
734.43	54.762
734.74	55.490
735.06	57.053
735.37	55.657
735.69	55.161
736.00	50.505
736.32	52.318
736.63	52.069
736.95	53.986
737.26	50.993
737.58	54.676
737.89	56.272
738.21	54.135
738.52	58.462
738.83	56.250
739.15	55.983
739.46	58.468
739.78	54.545
740.09	51.748
740.41	54.196
740.72	53.285
741.04	57.540
741.35	51.082
741.66	59.722
741.98	54.286
742.29	54.460
742.61	59.893
742.92	62.617
743.23	58.772
743.55	54.505
743.86	59.111
744.18	58.095
744.49	58.621
744.80	57.360
745.12	61.856
745.43	57.286
745.74	62.621
746.06	59.512
746.37	57.709
746.68	65.672
747.00	63.351
747.31	51.442
747.62	51.152
747.94	55.895
748.25	60.465
748.56	56.190
748.88	47.283
749.19	55.869
749.50	57.353
749.82	50.222
750.13	55.066
750.44	53.252
750.75	56.000
751.07	53.214
751.38	50.923
751.69	51.145
752.01	54.231
752.32	50.973
752.63	55.000
752.94	52.381
753.26	55.652
753.57	60.268
753.88	56.034
754.19	53.527
754.51	50.391
754.82	60.474
755.13	54.321
755.44	55.785
755.75	54.321
756.07	53.414
756.38	53.125
756.69	58.123
757.00	50.174
757.31	57.047
757.63	53.271
757.94	47.399
758.25	51.744
758.56	54.178
758.87	49.716
759.18	52.000
759.50	53.025
759.81	49.270
760.12	52.365
760.43	57.929
760.74	55.000
761.05	49.719
761.36	50.898
761.67	53.254
761.99	49.355
762.30	56.884
762.61	51.321
762.92	53.812
763.23	55.924
763.54	47.111
763.85	52.743
764.16	52.653
764.47	57.627
764.78	52.809
765.10	54.317
765.41	52.581
765.72	52.201
766.03	50.883
766.34	52.632
766.65	48.988
766.96	57.500
767.27	55.208
767.58	59.302
767.89	49.677
768.20	55.215
768.51	47.541
768.82	52.432
769.13	55.000
769.44	52.193
769.75	56.277
770.06	49.083
770.37	49.296
770.68	55.729
770.99	51.980
771.30	54.369
771.61	45.833
771.92	47.619
772.23	48.131
772.54	56.915
772.85	56.213
773.16	54.878
773.47	53.012
773.78	50.000
774.09	54.000
774.39	53.086
774.70	46.309
775.01	56.522
775.32	46.269
775.63	58.678
775.94	53.383
776.25	42.857
776.56	57.377
776.87	51.327
777.18	57.522
777.48	47.273
777.79	49.565
778.10	34.862
778.41	47.458
778.72	53.719
779.03	55.970
779.34	43.609
779.65	55.556
779.95	57.246
780.26	38.776
780.57	48.276
780.88	60.185
781.19	50.505
781.50	46.400
781.80	42.484
782.11	41.667
782.42	47.590
782.73	47.445
783.04	47.297
783.34	52.273
783.65	50.388
783.96	47.967
784.27	47.009
784.57	53.659
784.88	36.585
785.19	52.632
785.50	28.866
785.81	44.762
786.11	39.216
786.42	47.273
786.73	50.450
787.04	54.455
787.34	43.810
787.65	35.238
787.96	49.020
788.26	49.550
788.57	45.161
788.88	39.844
789.19	44.444
789.49	35.294
789.80	46.154
790.11	48.673
790.41	44.444
790.72	51.887
791.03	43.056
791.33	51.316
791.64	50.538
791.95	42.667
792.25	35.714
792.56	48.780
792.87	41.837
793.17	36.842
793.48	25.676
793.79	49.296
794.09	45.570
794.40	53.191
794.70	40.187
795.01	35.965
795.32	24.545
795.62	46.429
795.93	41.237
796.23	48.352
796.54	47.368
796.85	32.877
797.15	33.333
797.46	45.205
797.76	54.930
798.07	40.000
798.37	41.176
798.68	54.286
798.99	45.714
799.29	34.211
799.60	35.000
799.90	26.389
800.21	15.625
800.51	31.746
800.82	44.262
801.12	43.860
801.43	35.211
801.73	18.644
802.04	50.820
802.34	52.727
802.65	36.538
802.95	31.481
803.26	25.000
803.56	30.769
803.87	60.526
804.17	33.871
804.48	46.154
804.78	35.897
805.09	30.233
805.39	18.750
805.70	22.642
806.00	68.421
806.30	44.595
806.61	38.235
806.91	43.210
807.22	34.667
807.52	41.791
807.83	37.097
808.13	20.635
808.43	29.091
808.74	37.879
809.04	32.075
809.35	47.945
809.65	45.614
809.95	32.353
810.26	45.098
810.56	18.000
810.86	32.653
811.17	48.571
811.47	30.769
811.77	9.677
812.08	10.526
812.38	52.381
812.69	23.913
812.99	6.452
813.29	35.714
813.59	0.000
813.90	19.149
814.20	13.953
814.50	39.583
814.81	18.333
815.11	29.268
815.41	36.667
815.72	51.429
816.02	-13.889
816.32	38.462
816.62	13.514
816.93	-14.706
817.23	21.739
817.53	55.882
817.84	14.706
818.14	-9.375
818.44	3.448
818.74	38.710
819.04	44.444
819.35	50.000
819.65	12.000
819.95	30.000
820.25	-4.000
820.56	34.211
820.86	25.000
821.16	27.660
821.46	41.379
821.76	28.205
822.07	0.000
822.37	18.605
822.67	-10.000
822.97	24.324
823.27	13.514
823.57	48.000
823.88	18.919
824.18	-52.381
824.48	50.000
824.78	15.385
825.08	26.087
825.38	-25.000
825.69	25.000
825.99	10.000
826.29	2.703
826.59	14.706
826.89	52.000
827.19	28.571
827.49	34.211
827.79	12.500
828.09	26.667
828.39	17.391
828.70	-24.138
829.00	41.379
829.30	38.889
829.60	87.500
829.90	0.000
830.20	30.769
830.50	-38.095
830.80	-42.857
831.10	7.692
831.40	4.762
831.70	17.647
832.00	-16.667
832.30	5.263
832.60	-37.500
832.90	-33.333
833.20	-64.706
833.50	-26.667
833.80	-33.333
834.10	25.000
834.40	29.167
834.70	-5.556
835.00	30.769
835.30	33.333
835.60	24.138
835.90	-11.111
836.20	18.182
836.50	-41.667
836.80	-2.857
837.10	57.143
837.40	23.529
837.70	-18.182
838.00	45.833
838.30	-68.750
838.60	33.333
838.90	65.000
839.19	4.348
839.49	-8.696
839.79	-61.111
840.09	-21.739
840.39	-27.273
840.69	0.000
840.99	57.895
841.29	-43.750
841.59	7.143
841.88	-5.556
842.18	0.000
842.48	-23.529
842.78	-10.345
843.08	7.143
843.38	15.385
843.68	-88.889
843.97	-38.462
844.27	18.182
844.57	-120.000
844.87	4.000
845.17	-120.000
845.47	-28.571
845.76	0.000
846.06	0.000
846.36	-300.000
846.66	-70.000
846.96	26.316
847.25	58.333
847.55	-50.000
847.85	26.667
848.15	-50.000
848.44	38.462
848.74	10.526
849.04	600.000
849.34	-122.222
849.63	-31.579
849.93	0.000
850.23	-55.000
850.53	9.524
850.82	0.000
851.12	-63.158
851.42	-300.000
851.71	14.286
852.01	-100.000
852.31	23.529
852.61	33.333
852.90	-61.905
853.20	-150.000
853.50	-16.667
853.79	-47.368
854.09	-86.667
854.39	17.857
854.68	26.087
854.98	-150.000
855.28	3.448
855.57	-12.500
855.87	-10.000
856.17	0.000
856.46	0.000
856.76	-6.667
857.05	-41.176
857.35	-192.308
857.65	18.182
857.94	3.704
858.24	-50.000
858.53	-50.000
858.83	-58.333
859.13	-133.333
859.42	14.286
859.72	-125.000
860.01	-400.000
860.31	62.500
860.60	-240.000
860.90	-55.556
861.20	-112.500
861.49	-114.286
861.79	-29.412
862.08	-600.000
862.38	-108.333
862.67	-76.923
862.97	29.412
863.26	25.000
863.56	-5.882
863.85	466.667
864.15	-120.000
864.44	-61.538
864.74	20.000
865.03	-200.000
865.33	-183.333
865.62	-64.706
865.92	-475.000
866.21	-107.143
866.51	-75.000
866.80	-600.000
867.10	-233.333
867.39	-70.588
867.69	-13.043
867.98	71.429
868.27	-200.000
868.57	-68.750
868.86	-154.545
869.16	41.176
869.45	-150.000
869.75	-157.143
870.04	600.000
870.33	-108.333
870.63	-300.000
870.92	-166.667
871.22	-25.000
871.51	-18.182
871.80	16.667
872.10	-10.000
>>>>>End Processed Spectral Data<<<<<
