SpectraSuite Data File
++++++++++++++++++++++++++++++++++++
Date: Sat May 16 11:08:16 PDT 2015
User: schluterlab
Dark Spectrum Present: Yes
Reference Spectrum Present: Yes
Number of Sampled Component Spectra: 1
Spectrometers: USB2E3373
Integration Time (usec): 3000 (USB2E3373)
Spectra Averaged: 3 (USB2E3373)
Boxcar Smoothing: 0 (USB2E3373)
Correct for Electrical Dark: No (USB2E3373)
Strobe/Lamp Enabled: No (USB2E3373)
Correct for Detector Non-linearity: No (USB2E3373)
Correct for Stray Light: No (USB2E3373)
Number of Pixels in Processed Spectrum: 2048
>>>>>Begin Processed Spectral Data<<<<<
178.53	0.000
178.91	26.667
179.29	166.667
179.67	-1700.000
180.04	0.000
180.42	-700.000
180.80	125.000
181.18	25.000
181.56	62.500
181.94	-100.000
182.31	25.000
182.69	69.231
183.07	-300.000
183.45	650.000
183.83	-66.667
184.20	0.000
184.58	-62.500
184.96	75.000
185.34	87.500
185.72	-125.000
186.09	16.667
186.47	-162.500
186.85	-62.500
187.23	25.000
187.61	100.000
187.98	-50.000
188.36	-50.000
188.74	-112.500
189.12	300.000
189.49	57.143
189.87	50.000
190.25	200.000
190.63	-7.143
191.00	-33.333
191.38	180.000
191.76	100.000
192.14	120.000
192.51	-80.000
192.89	-66.667
193.27	0.000
193.65	44.444
194.02	-28.571
194.40	-33.333
194.78	10.000
195.15	400.000
195.53	-18.182
195.91	-150.000
196.29	-100.000
196.66	-100.000
197.04	700.000
197.42	200.000
197.79	80.000
198.17	166.667
198.55	-500.000
198.92	-300.000
199.30	112.500
199.68	-200.000
200.05	44.444
200.43	-11.111
200.81	100.000
201.18	-25.000
201.56	-114.286
201.94	-13.333
202.31	54.545
202.69	60.000
203.07	60.000
203.44	333.333
203.82	-83.333
204.19	175.000
204.57	75.000
204.95	-300.000
205.32	37.500
205.70	-0.000
206.08	600.000
206.45	16.667
206.83	-400.000
207.20	150.000
207.58	-133.333
207.96	-200.000
208.33	-12.500
208.71	-11.111
209.08	-10.000
209.46	28.571
209.84	-200.000
210.21	0.000
210.59	45.000
210.96	-1000.000
211.34	-50.000
211.71	133.333
212.09	-50.000
212.46	800.000
212.84	-900.000
213.22	466.667
213.59	50.000
213.97	100.000
214.34	-40.000
214.72	50.000
215.09	400.000
215.47	83.333
215.84	70.000
216.22	0.000
216.59	80.000
216.97	75.000
217.34	-150.000
217.72	57.143
218.09	-66.667
218.47	-57.143
218.84	57.143
219.22	85.714
219.59	0.000
219.97	-42.857
220.34	75.000
220.72	62.500
221.09	100.000
221.47	0.000
221.84	-0.000
222.22	200.000
222.59	200.000
222.97	0.000
223.34	150.000
223.72	33.333
224.09	92.857
224.46	250.000
224.84	-28.571
225.21	-85.714
225.59	54.545
225.96	0.000
226.34	114.286
226.71	-11.111
227.08	40.000
227.46	1600.000
227.83	28.571
228.21	-125.000
228.58	-100.000
228.95	18.750
229.33	-800.000
229.70	-240.000
230.08	-400.000
230.45	116.667
230.82	133.333
231.20	600.000
231.57	-50.000
231.95	-700.000
232.32	76.190
232.69	66.667
233.07	-42.857
233.44	0.000
233.81	46.667
234.19	133.333
234.56	-12.500
234.93	53.125
235.31	-100.000
235.68	-64.286
236.05	29.412
236.43	18.182
236.80	16.129
237.17	58.333
237.55	28.571
237.92	0.000
238.29	40.000
238.67	44.118
239.04	44.444
239.41	45.161
239.79	7.692
240.16	42.857
240.53	38.182
240.91	69.231
241.28	30.909
241.65	46.154
242.02	44.262
242.40	37.705
242.77	24.242
243.14	66.102
243.51	17.143
243.89	31.646
244.26	52.809
244.63	47.368
245.00	38.947
245.38	37.288
245.75	48.673
246.12	43.200
246.49	38.583
246.87	34.959
247.24	40.678
247.61	36.441
247.98	37.324
248.36	32.867
248.73	38.608
249.10	34.395
249.47	37.427
249.84	42.045
250.22	33.333
250.59	41.808
250.96	42.932
251.33	41.706
251.70	35.096
252.08	38.389
252.45	41.706
252.82	45.238
253.19	44.255
253.56	39.919
253.94	40.928
254.31	41.202
254.68	47.154
255.05	43.548
255.42	46.825
255.79	38.710
256.16	42.353
256.54	45.221
256.91	41.667
257.28	43.590
257.65	40.426
258.02	38.679
258.39	43.478
258.76	39.189
259.14	42.284
259.51	46.230
259.88	41.463
260.25	49.068
260.62	43.408
260.99	40.356
261.36	42.073
261.73	45.954
262.10	48.056
262.47	45.299
262.85	42.571
263.22	40.974
263.59	41.846
263.96	43.188
264.33	40.379
264.70	46.961
265.07	42.857
265.44	40.052
265.81	40.310
266.18	37.975
266.55	38.971
266.92	45.088
267.29	40.920
267.66	43.210
268.03	44.928
268.40	41.549
268.77	40.000
269.14	41.067
269.51	41.609
269.88	41.284
270.25	38.462
270.62	40.961
270.99	41.441
271.36	41.026
271.73	40.359
272.10	40.275
272.47	39.778
272.84	42.889
273.21	41.514
273.58	40.440
273.95	40.570
274.32	41.629
274.69	42.888
275.06	41.309
275.43	40.848
275.80	40.122
276.17	40.795
276.54	41.141
276.91	41.564
277.28	41.785
277.65	40.289
278.02	41.336
278.39	41.454
278.76	41.235
279.13	42.292
279.50	39.165
279.87	41.226
280.23	42.510
280.60	42.147
280.97	41.359
281.34	40.039
281.71	39.808
282.08	42.944
282.45	42.159
282.82	39.147
283.19	39.818
283.56	42.857
283.92	40.106
284.29	40.520
284.66	37.770
285.03	38.503
285.40	42.435
285.77	40.175
286.14	40.614
286.51	37.123
286.87	40.472
287.24	43.174
287.61	36.694
287.98	37.435
288.35	37.355
288.72	37.351
289.08	35.763
289.45	36.700
289.82	38.754
290.19	40.230
290.56	33.719
290.93	35.612
291.29	35.656
291.66	38.325
292.03	38.305
292.40	35.693
292.77	34.783
293.13	37.561
293.50	35.067
293.87	35.123
294.24	34.389
294.60	33.030
294.97	35.205
295.34	32.889
295.71	32.589
296.08	31.029
296.44	31.187
296.81	33.903
297.18	33.944
297.55	32.910
297.91	34.170
298.28	30.411
298.65	29.428
299.02	33.155
299.38	30.080
299.75	31.386
300.12	29.872
300.48	30.691
300.85	31.062
301.22	32.600
301.59	31.079
301.95	31.108
302.32	27.901
302.69	28.029
303.05	29.792
303.42	29.250
303.79	29.904
304.15	29.976
304.52	28.938
304.89	28.453
305.25	28.938
305.62	29.377
305.99	31.095
306.35	28.080
306.72	28.815
307.09	29.512
307.45	29.171
307.82	28.492
308.19	27.629
308.55	29.739
308.92	27.497
309.29	27.243
309.65	27.784
310.02	27.538
310.38	26.811
310.75	27.766
311.12	29.959
311.48	27.871
311.85	28.012
312.22	28.012
312.58	27.365
312.95	26.809
313.31	27.473
313.68	27.839
314.05	28.091
314.41	26.459
314.78	25.375
315.14	26.456
315.51	27.356
315.87	27.590
316.24	27.502
316.61	28.215
316.97	27.264
317.34	26.493
317.70	26.252
318.07	26.679
318.43	25.187
318.80	26.479
319.16	26.173
319.53	26.410
319.89	26.529
320.26	27.745
320.62	24.615
320.99	25.473
321.35	23.645
321.72	25.998
322.08	26.706
322.45	25.743
322.81	26.225
323.18	26.609
323.54	26.710
323.91	24.930
324.27	25.000
324.64	25.503
325.00	26.265
325.37	25.520
325.73	26.159
326.10	24.801
326.46	25.219
326.83	25.787
327.19	25.688
327.56	26.661
327.92	26.253
328.29	26.234
328.65	25.364
329.01	26.148
329.38	25.245
329.74	25.916
330.11	25.839
330.47	24.160
330.84	25.573
331.20	25.812
331.56	25.342
331.93	24.512
332.29	26.484
332.66	25.285
333.02	24.706
333.38	26.434
333.75	25.824
334.11	24.889
334.48	24.095
334.84	26.334
335.20	24.291
335.57	25.632
335.93	26.141
336.29	24.624
336.66	23.877
337.02	25.405
337.38	23.708
337.75	24.934
338.11	25.224
338.47	24.822
338.84	24.773
339.20	24.429
339.56	25.490
339.93	24.868
340.29	23.295
340.65	24.738
341.02	23.693
341.38	23.757
341.74	24.217
342.11	23.549
342.47	23.777
342.83	23.846
343.20	23.570
343.56	23.429
343.92	25.543
344.28	24.643
344.65	23.267
345.01	23.697
345.37	23.920
345.73	23.322
346.10	21.832
346.46	23.396
346.82	22.614
347.19	23.665
347.55	23.756
347.91	24.094
348.27	23.389
348.63	24.313
349.00	22.912
349.36	21.624
349.72	25.159
350.08	23.737
350.45	21.986
350.81	23.169
351.17	23.312
351.53	21.241
351.89	23.363
352.26	23.256
352.62	24.117
352.98	22.547
353.34	23.341
353.70	22.625
354.07	22.266
354.43	23.478
354.79	23.296
355.15	22.923
355.51	23.594
355.87	22.530
356.24	22.002
356.60	23.207
356.96	22.479
357.32	22.644
357.68	21.992
358.04	21.940
358.40	23.202
358.77	21.638
359.13	22.112
359.49	22.751
359.85	22.485
360.21	22.222
360.57	23.870
360.93	22.593
361.29	23.019
361.66	21.570
362.02	21.450
362.38	21.790
362.74	22.711
363.10	22.095
363.46	22.578
363.82	22.449
364.18	22.648
364.54	23.374
364.90	22.572
365.26	21.826
365.62	22.880
365.98	23.257
366.35	22.746
366.71	21.564
367.07	22.089
367.43	22.992
367.79	21.787
368.15	22.333
368.51	22.308
368.87	23.214
369.23	22.807
369.59	22.569
369.95	21.917
370.31	22.222
370.67	21.475
371.03	22.741
371.39	21.429
371.75	22.961
372.11	22.597
372.47	21.330
372.83	23.018
373.19	22.643
373.55	23.505
373.91	22.617
374.27	22.108
374.63	22.084
374.99	22.184
375.35	21.198
375.71	22.215
376.07	22.450
376.42	20.927
376.78	21.830
377.14	22.780
377.50	22.115
377.86	21.847
378.22	21.294
378.58	21.804
378.94	21.702
379.30	21.938
379.66	22.829
380.02	21.272
380.38	22.417
380.74	21.395
381.09	21.851
381.45	22.912
381.81	21.234
382.17	21.679
382.53	21.459
382.89	21.830
383.25	22.456
383.61	22.052
383.97	22.474
384.32	23.279
384.68	22.612
385.04	21.437
385.40	21.424
385.76	21.829
386.12	22.111
386.48	22.896
386.83	21.472
387.19	22.534
387.55	22.229
387.91	21.695
388.27	21.592
388.62	22.055
388.98	21.744
389.34	22.338
389.70	21.620
390.06	21.131
390.42	22.949
390.77	22.145
391.13	21.988
391.49	22.333
391.85	22.195
392.20	22.512
392.56	20.403
392.92	22.419
393.28	22.445
393.64	22.489
393.99	22.646
394.35	22.324
394.71	23.162
395.07	21.720
395.42	21.573
395.78	21.433
396.14	23.240
396.50	22.018
396.85	22.209
397.21	22.296
397.57	22.249
397.92	21.546
398.28	22.056
398.64	22.130
399.00	23.258
399.35	22.492
399.71	22.880
400.07	21.791
400.42	22.871
400.78	21.884
401.14	22.275
401.49	21.403
401.85	21.721
402.21	21.812
402.57	21.966
402.92	22.278
403.28	21.936
403.63	21.031
403.99	23.058
404.35	20.773
404.70	22.177
405.06	22.261
405.42	21.402
405.77	21.437
406.13	21.579
406.49	22.229
406.84	22.016
407.20	22.968
407.55	22.609
407.91	21.308
408.27	21.569
408.62	22.730
408.98	21.589
409.34	21.207
409.69	21.361
410.05	21.589
410.40	22.747
410.76	22.762
411.11	21.945
411.47	21.995
411.83	22.372
412.18	21.782
412.54	22.575
412.89	22.296
413.25	21.074
413.60	21.810
413.96	21.010
414.31	22.018
414.67	21.333
415.03	21.410
415.38	21.731
415.74	22.809
416.09	21.995
416.45	20.701
416.80	21.977
417.16	21.661
417.51	22.127
417.87	21.100
418.22	22.314
418.58	22.529
418.93	21.950
419.29	21.393
419.64	21.985
420.00	22.236
420.35	21.526
420.71	21.609
421.06	22.012
421.42	21.253
421.77	21.217
422.12	22.440
422.48	21.379
422.83	21.754
423.19	20.880
423.54	21.960
423.90	21.862
424.25	21.154
424.61	22.557
424.96	22.996
425.31	21.744
425.67	21.547
426.02	21.572
426.38	23.109
426.73	22.618
427.09	21.752
427.44	22.614
427.79	21.395
428.15	21.724
428.50	22.111
428.85	21.523
429.21	21.085
429.56	21.927
429.92	21.794
430.27	21.685
430.62	21.996
430.98	20.962
431.33	21.451
431.68	21.609
432.04	22.272
432.39	21.823
432.74	21.523
433.10	21.384
433.45	21.128
433.80	21.109
434.16	21.816
434.51	22.356
434.86	22.554
435.22	22.494
435.57	21.726
435.92	21.747
436.28	21.840
436.63	21.820
436.98	21.019
437.34	22.741
437.69	21.937
438.04	22.008
438.39	22.022
438.75	21.711
439.10	21.932
439.45	21.304
439.81	21.627
440.16	21.408
440.51	22.412
440.86	21.689
441.22	20.951
441.57	20.947
441.92	21.330
442.27	21.537
442.63	21.727
442.98	20.993
443.33	21.527
443.68	22.095
444.03	21.513
444.39	22.075
444.74	21.971
445.09	21.491
445.44	22.510
445.79	22.285
446.15	21.906
446.50	21.666
446.85	22.473
447.20	21.859
447.55	22.210
447.91	22.403
448.26	21.844
448.61	22.015
448.96	22.745
449.31	21.928
449.66	22.210
450.02	21.717
450.37	22.029
450.72	22.486
451.07	22.187
451.42	21.004
451.77	22.980
452.12	21.692
452.47	21.096
452.83	21.142
453.18	22.264
453.53	22.388
453.88	22.428
454.23	20.919
454.58	22.001
454.93	21.662
455.28	22.116
455.63	22.236
455.98	21.988
456.34	21.410
456.69	22.577
457.04	22.372
457.39	22.548
457.74	21.737
458.09	23.086
458.44	22.517
458.79	21.637
459.14	22.590
459.49	21.137
459.84	22.597
460.19	21.957
460.54	21.053
460.89	21.469
461.24	22.344
461.59	22.216
461.94	21.069
462.29	21.680
462.64	22.661
462.99	21.888
463.34	22.350
463.69	22.455
464.04	21.383
464.39	21.326
464.74	21.868
465.09	21.227
465.44	22.222
465.79	22.561
466.14	23.072
466.49	21.992
466.84	22.269
467.19	21.696
467.54	21.013
467.89	22.873
468.24	21.734
468.59	21.424
468.94	21.865
469.29	21.832
469.64	22.574
469.99	22.282
470.34	21.977
470.68	22.093
471.03	22.987
471.38	21.667
471.73	22.238
472.08	21.754
472.43	21.879
472.78	21.400
473.13	20.345
473.48	22.208
473.83	21.526
474.17	21.656
474.52	23.657
474.87	21.795
475.22	22.006
475.57	20.500
475.92	21.598
476.27	22.229
476.61	21.239
476.96	21.688
477.31	22.067
477.66	22.081
478.01	22.690
478.36	21.792
478.70	21.997
479.05	22.607
479.40	22.383
479.75	22.426
480.10	21.627
480.45	21.180
480.79	22.409
481.14	22.127
481.49	21.781
481.84	21.452
482.19	21.882
482.53	21.970
482.88	21.785
483.23	21.549
483.58	22.063
483.92	22.599
484.27	21.622
484.62	21.512
484.97	22.136
485.31	21.280
485.66	21.458
486.01	21.452
486.36	22.496
486.70	22.699
487.05	22.184
487.40	22.329
487.75	22.319
488.09	22.020
488.44	22.869
488.79	23.346
489.13	22.670
489.48	22.757
489.83	21.965
490.17	21.942
490.52	22.871
490.87	21.339
491.22	21.579
491.56	21.759
491.91	21.565
492.26	21.557
492.60	21.313
492.95	21.609
493.30	21.725
493.64	21.533
493.99	22.658
494.34	22.381
494.68	22.519
495.03	22.323
495.37	21.239
495.72	21.955
496.07	22.337
496.41	22.371
496.76	22.192
497.11	22.845
497.45	21.648
497.80	21.811
498.14	22.004
498.49	22.501
498.84	21.796
499.18	21.735
499.53	22.260
499.87	21.863
500.22	22.157
500.56	22.561
500.91	22.118
501.26	22.562
501.60	21.136
501.95	22.319
502.29	21.682
502.64	22.489
502.98	22.185
503.33	22.039
503.67	21.648
504.02	22.163
504.36	22.745
504.71	22.188
505.06	21.767
505.40	23.253
505.75	22.917
506.09	22.952
506.44	21.855
506.78	21.776
507.13	21.370
507.47	22.587
507.82	22.148
508.16	22.435
508.51	21.175
508.85	22.464
509.19	22.135
509.54	22.146
509.88	22.926
510.23	22.746
510.57	22.487
510.92	22.825
511.26	22.275
511.61	22.138
511.95	21.713
512.30	21.935
512.64	21.925
512.98	23.267
513.33	22.460
513.67	23.060
514.02	22.092
514.36	22.881
514.70	22.071
515.05	22.927
515.39	22.664
515.74	22.862
516.08	22.767
516.42	22.266
516.77	22.761
517.11	22.654
517.46	22.727
517.80	23.406
518.14	22.343
518.49	22.415
518.83	22.077
519.17	22.854
519.52	22.036
519.86	23.059
520.20	22.005
520.55	22.892
520.89	21.728
521.23	23.016
521.58	23.448
521.92	23.116
522.26	22.921
522.61	22.243
522.95	22.017
523.29	23.636
523.64	22.236
523.98	22.724
524.32	22.690
524.66	22.174
525.01	22.736
525.35	22.423
525.69	22.381
526.04	23.042
526.38	22.597
526.72	22.031
527.06	23.242
527.41	22.508
527.75	22.442
528.09	22.502
528.43	22.557
528.78	22.362
529.12	22.791
529.46	22.294
529.80	22.337
530.15	23.181
530.49	22.962
530.83	23.772
531.17	22.290
531.51	22.706
531.86	22.910
532.20	22.132
532.54	22.259
532.88	22.003
533.22	22.660
533.57	22.193
533.91	22.534
534.25	23.256
534.59	22.923
534.93	22.838
535.27	22.656
535.62	23.593
535.96	22.107
536.30	21.401
536.64	22.908
536.98	22.811
537.32	23.151
537.66	23.354
538.01	22.543
538.35	22.905
538.69	23.061
539.03	24.103
539.37	22.954
539.71	22.482
540.05	23.029
540.39	23.615
540.73	22.529
541.07	23.839
541.42	22.282
541.76	22.193
542.10	23.700
542.44	22.518
542.78	23.541
543.12	22.878
543.46	22.055
543.80	21.873
544.14	21.894
544.48	23.556
544.82	22.598
545.16	23.273
545.50	22.140
545.84	23.157
546.18	23.509
546.52	22.902
546.86	23.647
547.20	23.840
547.54	22.176
547.88	23.358
548.22	21.822
548.56	23.246
548.90	22.844
549.24	23.266
549.58	23.147
549.92	22.261
550.26	24.061
550.60	23.400
550.94	23.431
551.28	23.552
551.62	23.486
551.96	23.661
552.30	23.136
552.64	23.223
552.98	23.546
553.32	23.665
553.66	23.288
554.00	21.891
554.34	22.455
554.68	22.880
555.02	23.010
555.36	22.646
555.69	22.994
556.03	23.789
556.37	23.471
556.71	23.193
557.05	23.799
557.39	23.608
557.73	24.289
558.07	23.587
558.41	22.737
558.75	22.662
559.08	22.490
559.42	23.507
559.76	22.929
560.10	23.043
560.44	23.483
560.78	22.756
561.12	22.912
561.45	23.082
561.79	23.345
562.13	23.843
562.47	22.689
562.81	22.560
563.15	22.183
563.48	23.842
563.82	23.665
564.16	23.597
564.50	23.118
564.84	23.545
565.17	23.143
565.51	22.947
565.85	23.597
566.19	23.584
566.52	23.353
566.86	23.198
567.20	24.395
567.54	24.513
567.88	24.456
568.21	23.714
568.55	23.277
568.89	23.658
569.23	23.045
569.56	23.329
569.90	23.918
570.24	24.540
570.57	23.445
570.91	23.631
571.25	24.351
571.59	24.102
571.92	23.839
572.26	23.996
572.60	24.294
572.93	23.351
573.27	23.750
573.61	23.659
573.95	24.109
574.28	23.615
574.62	24.403
574.96	24.078
575.29	24.009
575.63	24.370
575.97	23.355
576.30	24.061
576.64	24.073
576.98	24.384
577.31	24.482
577.65	24.379
577.98	24.310
578.32	23.911
578.66	24.011
578.99	24.051
579.33	24.290
579.67	23.941
580.00	24.231
580.34	24.486
580.67	24.369
581.01	24.109
581.35	24.216
581.68	24.198
582.02	24.803
582.35	24.004
582.69	24.733
583.02	23.939
583.36	24.404
583.70	24.322
584.03	24.353
584.37	24.926
584.70	24.346
585.04	24.025
585.37	23.962
585.71	24.311
586.04	24.063
586.38	24.512
586.72	24.549
587.05	24.752
587.39	24.447
587.72	24.874
588.06	24.264
588.39	24.694
588.73	24.593
589.06	24.872
589.40	25.524
589.73	24.540
590.07	24.581
590.40	24.760
590.73	24.470
591.07	24.590
591.40	25.347
591.74	24.283
592.07	24.189
592.41	24.586
592.74	25.019
593.08	24.923
593.41	24.309
593.75	23.937
594.08	24.587
594.41	25.213
594.75	24.462
595.08	24.023
595.42	24.711
595.75	24.660
596.09	24.680
596.42	25.082
596.75	24.148
597.09	25.156
597.42	24.662
597.75	24.136
598.09	25.034
598.42	24.348
598.76	24.003
599.09	24.546
599.42	24.491
599.76	24.613
600.09	25.076
600.42	25.560
600.76	24.783
601.09	24.535
601.42	23.823
601.76	25.273
602.09	24.703
602.42	24.239
602.76	23.806
603.09	25.484
603.42	24.335
603.76	24.930
604.09	24.750
604.42	24.688
604.76	23.637
605.09	24.864
605.42	24.867
605.75	24.450
606.09	24.782
606.42	24.340
606.75	25.247
607.09	25.011
607.42	25.176
607.75	24.945
608.08	25.034
608.42	25.213
608.75	24.299
609.08	25.085
609.41	23.966
609.75	23.940
610.08	25.098
610.41	25.687
610.74	25.097
611.07	24.341
611.41	24.054
611.74	25.501
612.07	25.832
612.40	23.827
612.73	24.987
613.07	24.051
613.40	25.068
613.73	24.905
614.06	23.833
614.39	24.408
614.72	24.302
615.06	24.565
615.39	24.145
615.72	24.606
616.05	24.572
616.38	25.247
616.71	23.904
617.05	25.452
617.38	24.211
617.71	23.464
618.04	24.410
618.37	24.843
618.70	25.359
619.03	24.780
619.36	25.018
619.69	24.623
620.03	23.829
620.36	23.488
620.69	25.772
621.02	24.505
621.35	24.032
621.68	23.197
622.01	24.595
622.34	24.068
622.67	23.672
623.00	23.948
623.33	23.209
623.66	22.895
623.99	24.060
624.32	23.140
624.65	23.841
624.99	23.450
625.32	24.401
625.65	24.242
625.98	24.257
626.31	25.041
626.64	23.347
626.97	24.743
627.30	23.660
627.63	24.007
627.96	23.934
628.29	24.908
628.62	24.833
628.95	25.295
629.28	23.496
629.61	23.062
629.94	23.629
630.26	23.658
630.59	24.724
630.92	23.824
631.25	24.093
631.58	24.656
631.91	22.766
632.24	25.889
632.57	23.444
632.90	23.448
633.23	23.715
633.56	23.509
633.89	23.939
634.22	23.259
634.55	24.279
634.88	22.854
635.20	21.099
635.53	24.809
635.86	23.300
636.19	21.978
636.52	23.297
636.85	23.225
637.18	21.875
637.51	24.535
637.83	23.569
638.16	23.684
638.49	24.276
638.82	23.423
639.15	24.643
639.48	23.346
639.81	23.928
640.13	23.649
640.46	24.074
640.79	24.090
641.12	24.683
641.45	23.529
641.77	23.353
642.10	23.112
642.43	24.431
642.76	23.465
643.09	22.063
643.41	25.397
643.74	23.847
644.07	22.933
644.40	24.149
644.73	24.587
645.05	22.204
645.38	24.503
645.71	23.883
646.04	23.697
646.36	20.768
646.69	22.837
647.02	23.646
647.35	23.285
647.67	22.993
648.00	26.362
648.33	24.283
648.66	22.742
648.98	24.363
649.31	23.385
649.64	22.812
649.96	23.548
650.29	24.590
650.62	23.752
650.94	23.103
651.27	23.050
651.60	24.048
651.92	23.459
652.25	23.038
652.58	21.295
652.90	22.953
653.23	23.065
653.56	21.739
653.88	23.607
654.21	24.664
654.54	23.256
654.86	23.435
655.19	23.066
655.52	23.885
655.84	23.903
656.17	26.474
656.49	36.729
656.82	38.957
657.15	29.578
657.47	21.539
657.80	16.637
658.13	19.537
658.45	27.028
658.78	26.730
659.10	27.024
659.43	27.067
659.75	27.459
660.08	26.719
660.41	28.561
660.73	24.532
661.06	27.681
661.38	28.036
661.71	21.415
662.03	24.798
662.36	24.094
662.68	21.519
663.01	25.265
663.33	23.583
663.66	23.820
663.98	22.768
664.31	21.924
664.63	26.327
664.96	23.427
665.28	20.824
665.61	21.776
665.93	25.103
666.26	22.065
666.58	25.364
666.91	24.944
667.23	24.781
667.56	20.635
667.88	22.624
668.21	23.963
668.53	21.028
668.86	24.480
669.18	24.201
669.50	22.897
669.83	22.141
670.15	23.543
670.48	21.963
670.80	17.995
671.13	22.348
671.45	20.946
671.77	21.627
672.10	23.866
672.42	23.247
672.75	21.455
673.07	23.604
673.39	23.133
673.72	24.016
674.04	22.293
674.37	20.412
674.69	23.975
675.01	24.043
675.34	23.427
675.66	25.270
675.98	25.551
676.31	23.529
676.63	25.747
676.95	21.239
677.28	22.970
677.60	21.493
677.92	25.110
678.25	23.851
678.57	26.132
678.89	21.174
679.22	23.480
679.54	25.049
679.86	24.600
680.18	24.144
680.51	23.091
680.83	22.857
681.15	23.507
681.48	24.544
681.80	22.984
682.12	24.547
682.44	20.629
682.77	21.645
683.09	23.690
683.41	23.230
683.73	22.603
684.06	22.366
684.38	23.640
684.70	23.663
685.02	22.244
685.34	23.782
685.67	23.864
685.99	23.629
686.31	23.878
686.63	22.695
686.96	21.627
687.28	22.158
687.60	22.656
687.92	20.233
688.24	22.638
688.56	22.044
688.89	23.932
689.21	26.477
689.53	25.057
689.85	23.608
690.17	21.749
690.49	21.247
690.82	22.410
691.14	21.462
691.46	25.055
691.78	23.128
692.10	25.000
692.42	25.556
692.74	23.605
693.06	25.393
693.39	25.503
693.71	21.670
694.03	24.190
694.35	21.219
694.67	22.459
694.99	21.995
695.31	22.704
695.63	22.449
695.95	21.836
696.27	22.693
696.59	22.460
696.91	22.472
697.23	23.958
697.56	22.356
697.88	19.369
698.20	20.128
698.52	21.076
698.84	23.786
699.16	23.095
699.48	20.250
699.80	26.065
700.12	22.922
700.44	23.464
700.76	23.615
701.08	20.349
701.40	19.335
701.72	25.926
702.04	22.756
702.36	24.699
702.68	19.162
703.00	23.768
703.32	16.905
703.64	24.706
703.96	27.326
704.28	22.781
704.60	19.620
704.91	23.492
705.23	23.625
705.55	22.297
705.87	23.208
706.19	19.097
706.51	18.403
706.83	18.033
707.15	23.885
707.47	23.140
707.79	23.969
708.11	22.901
708.43	23.441
708.74	20.779
709.06	22.563
709.38	20.402
709.70	22.187
710.02	27.607
710.34	19.472
710.66	23.175
710.98	22.082
711.29	20.000
711.61	17.252
711.93	20.984
712.25	25.581
712.57	20.906
712.89	26.978
713.20	23.711
713.52	19.030
713.84	20.641
714.16	20.328
714.48	20.317
714.80	21.538
715.11	23.631
715.43	25.602
715.75	25.234
716.07	24.262
716.39	21.405
716.70	21.254
717.02	22.593
717.34	23.664
717.66	21.162
717.97	20.492
718.29	21.429
718.61	19.841
718.93	21.147
719.24	19.118
719.56	18.868
719.88	25.455
720.20	20.225
720.51	26.692
720.83	18.072
721.15	19.262
721.46	23.922
721.78	21.839
722.10	26.800
722.42	20.248
722.73	23.506
723.05	20.080
723.37	25.882
723.68	16.194
724.00	28.049
724.32	23.045
724.63	21.992
724.95	29.339
725.27	14.912
725.58	25.000
725.90	17.857
726.22	26.199
726.53	23.954
726.85	14.510
727.16	24.812
727.48	23.077
727.80	24.590
728.11	24.370
728.43	25.207
728.74	26.953
729.06	21.212
729.38	21.012
729.69	24.409
730.01	24.803
730.32	22.311
730.64	25.641
730.96	20.149
731.27	19.643
731.59	24.116
731.90	21.779
732.22	23.006
732.53	25.828
732.85	20.805
733.16	25.362
733.48	22.648
733.80	17.794
734.11	23.448
734.43	21.769
734.74	22.849
735.06	24.451
735.37	23.242
735.69	23.548
736.00	23.906
736.32	26.159
736.63	17.931
736.95	21.377
737.26	23.179
737.58	22.302
737.89	22.581
738.21	18.421
738.52	25.385
738.83	24.609
739.15	19.658
739.46	26.613
739.78	20.979
740.09	20.280
740.41	26.923
740.72	27.007
741.04	21.032
741.35	18.615
741.66	22.222
741.98	23.333
742.29	20.188
742.61	20.321
742.92	24.766
743.23	21.053
743.55	22.523
743.86	26.667
744.18	18.095
744.49	22.660
744.80	25.888
745.12	26.804
745.43	18.593
745.74	26.214
746.06	18.537
746.37	27.753
746.68	23.383
747.00	25.654
747.31	18.269
747.62	22.581
747.94	26.638
748.25	24.651
748.56	22.857
748.88	16.848
749.19	22.535
749.50	29.902
749.82	22.667
750.13	24.229
750.44	19.512
750.75	24.000
751.07	26.786
751.38	23.616
751.69	17.557
752.01	22.692
752.32	19.844
752.63	21.538
752.94	23.810
753.26	23.913
753.57	21.875
753.88	18.966
754.19	22.822
754.51	19.922
754.82	25.296
755.13	20.165
755.44	24.380
755.75	25.926
756.07	19.679
756.38	21.875
756.69	24.188
757.00	22.997
757.31	24.832
757.63	27.414
757.94	24.277
758.25	23.837
758.56	22.911
758.87	21.875
759.18	20.667
759.50	20.285
759.81	23.358
760.12	19.932
760.43	24.272
760.74	31.875
761.05	23.034
761.36	23.054
761.67	22.781
761.99	18.710
762.30	26.449
762.61	22.642
762.92	26.457
763.23	20.379
763.54	26.222
763.85	24.895
764.16	24.082
764.47	23.305
764.78	22.097
765.10	25.540
765.41	24.194
765.72	21.698
766.03	17.314
766.34	22.180
766.65	22.672
766.96	19.000
767.27	24.479
767.58	22.093
767.89	25.806
768.20	25.153
768.51	25.683
768.82	23.243
769.13	22.500
769.44	21.491
769.75	20.779
770.06	25.229
770.37	23.005
770.68	23.437
770.99	14.851
771.30	23.301
771.61	19.907
771.92	19.913
772.23	23.364
772.54	22.872
772.85	17.160
773.16	33.537
773.47	23.494
773.78	29.121
774.09	28.667
774.39	27.160
774.70	17.450
775.01	18.841
775.32	18.657
775.63	15.702
775.94	26.316
776.25	23.571
776.56	27.869
776.87	23.894
777.18	29.204
777.48	17.273
777.79	20.870
778.10	18.349
778.41	25.424
778.72	22.314
779.03	25.373
779.34	25.564
779.65	27.451
779.95	28.261
780.26	16.327
780.57	15.517
780.88	22.222
781.19	11.111
781.50	14.400
781.80	22.222
782.11	27.564
782.42	19.880
782.73	11.679
783.04	24.324
783.34	23.485
783.65	25.581
783.96	21.951
784.27	27.350
784.57	29.268
784.88	24.390
785.19	23.684
785.50	8.247
785.81	23.810
786.11	13.725
786.42	9.091
786.73	19.820
787.04	32.673
787.34	25.714
787.65	15.238
787.96	27.451
788.26	21.622
788.57	27.419
788.88	20.312
789.19	24.786
789.49	21.008
789.80	25.641
790.11	18.584
790.41	16.162
790.72	19.811
791.03	29.167
791.33	25.000
791.64	26.882
791.95	12.000
792.25	27.143
792.56	17.073
792.87	35.714
793.17	19.737
793.48	12.162
793.79	16.901
794.09	25.316
794.40	32.979
794.70	17.757
795.01	20.175
795.32	27.273
795.62	23.214
795.93	20.619
796.23	19.780
796.54	26.316
796.85	30.137
797.15	15.278
797.46	12.329
797.76	23.944
798.07	31.250
798.37	27.941
798.68	22.857
798.99	17.143
799.29	40.789
799.60	33.333
799.90	4.167
800.21	4.688
800.51	26.984
800.82	19.672
801.12	24.561
801.43	12.676
801.73	-5.085
802.04	19.672
802.34	27.273
802.65	34.615
802.95	24.074
803.26	0.000
803.56	30.769
803.87	28.947
804.17	24.194
804.48	21.538
804.78	2.564
805.09	27.907
805.39	9.375
805.70	11.321
806.00	24.561
806.30	28.378
806.61	36.765
806.91	46.914
807.22	25.333
807.52	22.388
807.83	12.903
808.13	11.111
808.43	23.636
808.74	19.697
809.04	5.660
809.35	13.699
809.65	61.404
809.95	29.412
810.26	19.608
810.56	4.000
810.86	16.327
811.17	42.857
811.47	32.692
811.77	12.903
812.08	-15.789
812.38	9.524
812.69	28.261
812.99	41.935
813.29	11.905
813.59	-11.111
813.90	10.638
814.20	11.628
814.50	25.000
814.81	41.667
815.11	17.073
815.41	13.333
815.72	42.857
816.02	16.667
816.32	43.590
816.62	45.946
816.93	-11.765
817.23	28.261
817.53	-11.765
817.84	44.118
818.14	-3.125
818.44	34.483
818.74	-3.226
819.04	0.000
819.35	53.333
819.65	28.000
819.95	23.333
820.25	20.000
820.56	-5.263
820.86	25.000
821.16	23.404
821.46	27.586
821.76	25.641
822.07	-10.000
822.37	18.605
822.67	-10.000
822.97	13.514
823.27	29.730
823.57	28.000
823.88	-5.405
824.18	4.762
824.48	38.462
824.78	-46.154
825.08	13.043
825.38	33.333
825.69	41.667
825.99	-35.000
826.29	-5.405
826.59	26.471
826.89	48.000
827.19	20.000
827.49	47.368
827.79	0.000
828.09	6.667
828.39	60.870
828.70	-13.793
829.00	34.483
829.30	38.889
829.60	59.375
829.90	16.667
830.20	23.077
830.50	38.095
830.80	25.000
831.10	35.897
831.40	9.524
831.70	5.882
832.00	8.333
832.30	15.789
832.60	12.500
832.90	-58.333
833.20	-52.941
833.50	-60.000
833.80	6.667
834.10	-10.000
834.40	25.000
834.70	33.333
835.00	3.846
835.30	20.833
835.60	20.690
835.90	-11.111
836.20	-54.545
836.50	-25.000
836.80	31.429
837.10	65.714
837.40	11.765
837.70	54.545
838.00	25.000
838.30	-6.250
838.60	23.810
838.90	45.000
839.19	-26.087
839.49	26.087
839.79	11.111
840.09	-13.043
840.39	-18.182
840.69	25.000
840.99	52.632
841.29	-18.750
841.59	71.429
841.88	11.111
842.18	-4.167
842.48	-41.176
842.78	51.724
843.08	107.143
843.38	15.385
843.68	-11.111
843.97	-76.923
844.27	9.091
844.57	-80.000
844.87	8.000
845.17	220.000
845.47	7.143
845.76	22.222
846.06	0.000
846.36	-75.000
846.66	-110.000
846.96	47.368
847.25	-4.167
847.55	-75.000
847.85	46.667
848.15	-80.000
848.44	111.538
848.74	15.789
849.04	366.667
849.34	155.556
849.63	0.000
849.93	0.000
850.23	-5.000
850.53	4.762
850.82	32.000
851.12	26.316
851.42	-450.000
851.71	50.000
852.01	-33.333
852.31	17.647
852.61	46.667
852.90	-4.762
853.20	116.667
853.50	-38.889
853.79	-10.526
854.09	-6.667
854.39	3.571
854.68	4.348
854.98	-141.667
855.28	37.931
855.57	50.000
855.87	25.000
856.17	40.000
856.46	31.034
856.76	0.000
857.05	17.647
857.35	-100.000
857.65	-18.182
857.94	14.815
858.24	7.143
858.53	-21.429
858.83	16.667
859.13	-33.333
859.42	57.143
859.72	-12.500
860.01	133.333
860.31	-12.500
860.60	-100.000
860.90	55.556
861.20	-25.000
861.49	-42.857
861.79	88.235
862.08	-150.000
862.38	25.000
862.67	92.308
862.97	17.647
863.26	25.000
863.56	47.059
863.85	300.000
864.15	-100.000
864.44	-30.769
864.74	35.000
865.03	-125.000
865.33	-66.667
865.62	23.529
865.92	-300.000
866.21	-57.143
866.51	50.000
866.80	300.000
867.10	233.333
867.39	29.412
867.69	65.217
867.98	-14.286
868.27	160.000
868.57	12.500
868.86	9.091
869.16	5.882
869.45	33.333
869.75	-114.286
870.04	1300.000
870.33	75.000
870.63	-100.000
870.92	-11.111
871.22	8.333
871.51	9.091
871.80	58.333
872.10	110.000
>>>>>End Processed Spectral Data<<<<<
