SpectraSuite Data File
++++++++++++++++++++++++++++++++++++
Date: Sat May 16 11:10:53 PDT 2015
User: schluterlab
Dark Spectrum Present: Yes
Reference Spectrum Present: Yes
Number of Sampled Component Spectra: 1
Spectrometers: USB2E3373
Integration Time (usec): 3000 (USB2E3373)
Spectra Averaged: 3 (USB2E3373)
Boxcar Smoothing: 0 (USB2E3373)
Correct for Electrical Dark: No (USB2E3373)
Strobe/Lamp Enabled: No (USB2E3373)
Correct for Detector Non-linearity: No (USB2E3373)
Correct for Stray Light: No (USB2E3373)
Number of Pixels in Processed Spectrum: 2048
>>>>>Begin Processed Spectral Data<<<<<
178.53	0.000
178.91	53.333
179.29	300.000
179.67	-800.000
180.04	-53.846
180.42	-300.000
180.80	25.000
181.18	175.000
181.56	-87.500
181.94	-300.000
182.31	100.000
182.69	-38.462
183.07	-333.333
183.45	750.000
183.83	400.000
184.20	0.000
184.58	25.000
184.96	75.000
185.34	75.000
185.72	-375.000
186.09	266.667
186.47	62.500
186.85	25.000
187.23	50.000
187.61	75.000
187.98	-150.000
188.36	12.500
188.74	-75.000
189.12	1000.000
189.49	142.857
189.87	25.000
190.25	325.000
190.63	21.429
191.00	-55.556
191.38	320.000
191.76	60.000
192.14	260.000
192.51	-100.000
192.89	-133.333
193.27	0.000
193.65	-55.556
194.02	-128.571
194.40	400.000
194.78	-40.000
195.15	-800.000
195.53	-63.636
195.91	-183.333
196.29	20.000
196.66	66.667
197.04	1300.000
197.42	175.000
197.79	73.333
198.17	-33.333
198.55	150.000
198.92	100.000
199.30	112.500
199.68	-150.000
200.05	0.000
200.43	-122.222
200.81	-600.000
201.18	-58.333
201.56	185.714
201.94	20.000
202.31	13.636
202.69	70.000
203.07	60.000
203.44	300.000
203.82	-216.667
204.19	-400.000
204.57	150.000
204.95	0.000
205.32	0.000
205.70	-100.000
206.08	-400.000
206.45	33.333
206.83	-300.000
207.20	350.000
207.58	-366.667
207.96	-133.333
208.33	-200.000
208.71	-77.778
209.08	170.000
209.46	-57.143
209.84	-0.000
210.21	0.000
210.59	40.000
210.96	-300.000
211.34	-166.667
211.71	-33.333
212.09	100.000
212.46	300.000
212.84	-1400.000
213.22	300.000
213.59	91.667
213.97	11.111
214.34	140.000
214.72	0.000
215.09	233.333
215.47	-50.000
215.84	-10.000
216.22	70.000
216.59	60.000
216.97	-175.000
217.34	600.000
217.72	-57.143
218.09	-50.000
218.47	-57.143
218.84	157.143
219.22	0.000
219.59	0.000
219.97	157.143
220.34	325.000
220.72	125.000
221.09	-84.615
221.47	0.000
221.84	433.333
222.22	-50.000
222.59	700.000
222.97	-50.000
223.34	-650.000
223.72	-433.333
224.09	21.429
224.46	50.000
224.84	-64.286
225.21	-242.857
225.59	36.364
225.96	-137.500
226.34	85.714
226.71	-222.222
227.08	40.000
227.46	600.000
227.83	-28.571
228.21	-125.000
228.58	400.000
228.95	0.000
229.33	-1300.000
229.70	-180.000
230.08	-400.000
230.45	33.333
230.82	33.333
231.20	300.000
231.57	50.000
231.95	-300.000
232.32	71.429
232.69	-77.778
233.07	-128.571
233.44	-700.000
233.81	0.000
234.19	-22.222
234.56	-50.000
234.93	40.625
235.31	-157.143
235.68	-78.571
236.05	-17.647
236.43	-81.818
236.80	29.032
237.17	20.833
237.55	-9.524
237.92	-31.818
238.29	-5.714
238.67	-5.882
239.04	-8.333
239.41	-25.806
239.79	-30.769
240.16	-9.524
240.53	-7.273
240.91	2.564
241.28	5.455
241.65	7.692
242.02	-3.279
242.40	0.000
242.77	-1.515
243.14	-18.644
243.51	-20.000
243.89	-8.861
244.26	-13.483
244.63	1.053
245.00	4.211
245.38	-3.390
245.75	2.655
246.12	-2.400
246.49	4.724
246.87	-0.813
247.24	-4.237
247.61	-11.017
247.98	-6.338
248.36	-6.993
248.73	-2.532
249.10	-1.274
249.47	0.585
249.84	0.568
250.22	-10.714
250.59	-2.260
250.96	-2.094
251.33	3.318
251.70	0.481
252.08	-3.318
252.45	-6.635
252.82	-3.810
253.19	-4.255
253.56	0.806
253.94	2.532
254.31	-1.288
254.68	-3.659
255.05	-2.823
255.42	0.397
255.79	-2.151
256.16	-1.176
256.54	0.000
256.91	-0.379
257.28	-3.297
257.65	-1.418
258.02	0.314
258.39	0.669
258.76	-1.014
259.14	0.000
259.51	2.623
259.88	0.610
260.25	-0.311
260.62	0.000
260.99	-2.374
261.36	-1.220
261.73	1.445
262.10	1.667
262.47	-1.140
262.85	2.286
263.22	-0.860
263.59	-2.462
263.96	0.870
264.33	1.355
264.70	0.276
265.07	-1.099
265.44	1.292
265.81	-0.775
266.18	-2.025
266.55	-0.245
266.92	0.504
267.29	-0.484
267.66	-1.728
268.03	-0.242
268.40	0.235
268.77	0.964
269.14	0.000
269.51	1.839
269.88	-1.606
270.25	-1.399
270.62	-1.602
270.99	0.225
271.36	1.166
271.73	-0.224
272.10	-1.831
272.47	-2.667
272.84	3.778
273.21	1.376
273.58	-0.220
273.95	-0.439
274.32	2.036
274.69	1.313
275.06	0.818
275.43	-1.786
275.80	3.462
276.17	0.418
276.54	2.240
276.91	0.000
277.28	1.826
277.65	0.826
278.02	-0.835
278.39	-0.786
278.76	-0.598
279.13	0.593
279.50	1.193
279.87	-0.634
280.23	-1.822
280.60	1.789
280.97	0.388
281.34	-1.547
281.71	0.577
282.08	0.806
282.45	-3.259
282.82	-0.775
283.19	-0.545
283.56	2.747
283.92	1.590
284.29	-0.929
284.66	-0.360
285.03	3.030
285.40	-1.107
285.77	2.807
286.14	1.444
286.51	-0.710
286.87	1.996
287.24	1.024
287.61	-0.165
287.98	0.000
288.35	-1.322
288.72	-0.170
289.08	-0.339
289.45	1.010
289.82	-0.692
290.19	1.314
290.56	-0.826
290.93	-0.636
291.29	-0.324
291.66	-1.771
292.03	-0.157
292.40	1.506
292.77	0.311
293.13	1.138
293.50	-1.189
293.87	0.920
294.24	0.000
294.60	-0.758
294.97	0.455
295.34	1.630
295.71	-0.149
296.08	-1.536
296.44	0.000
296.81	2.137
297.18	-0.141
297.55	2.260
297.91	2.092
298.28	-0.274
298.65	-0.697
299.02	1.872
299.38	0.535
299.75	-0.136
300.12	0.128
300.48	0.639
300.85	0.917
301.22	2.717
301.59	1.170
301.95	2.393
302.32	-0.522
302.69	0.367
303.05	0.366
303.42	1.000
303.79	0.598
304.15	1.303
304.52	1.634
304.89	-0.236
305.25	1.221
305.62	0.470
305.99	2.120
306.35	2.109
306.72	0.911
307.09	2.157
307.45	1.135
307.82	0.000
308.19	1.230
308.55	2.179
308.92	0.430
309.29	1.622
309.65	0.000
310.02	1.404
310.38	0.108
310.75	1.434
311.12	1.446
311.48	1.461
311.85	1.030
312.22	2.884
312.58	3.052
312.95	1.325
313.31	1.698
313.68	2.513
314.05	1.978
314.41	0.704
314.78	0.799
315.14	1.579
315.51	1.216
315.87	2.323
316.24	2.041
316.61	3.263
316.97	1.791
317.34	1.349
317.70	1.113
318.07	1.306
318.43	2.060
318.80	2.723
319.16	1.313
319.53	1.598
319.89	1.599
320.26	2.745
320.62	1.538
320.99	1.891
321.35	1.576
321.72	1.228
322.08	1.978
322.45	1.683
322.81	2.209
323.18	3.458
323.54	2.403
323.91	3.614
324.27	3.042
324.64	2.834
325.00	4.363
325.37	3.710
325.73	4.724
326.10	2.834
326.46	4.291
326.83	4.511
327.19	4.671
327.56	4.940
327.92	4.673
328.29	5.281
328.65	4.364
329.01	5.654
329.38	5.352
329.74	6.319
330.11	6.346
330.47	7.357
330.84	7.974
331.20	6.949
331.56	7.931
331.93	6.483
332.29	7.580
332.66	7.199
333.02	6.878
333.38	8.961
333.75	8.816
334.11	7.556
334.48	9.003
334.84	9.536
335.20	9.397
335.57	8.123
335.93	9.937
336.29	8.060
336.66	8.018
337.02	9.730
337.38	7.932
337.75	9.482
338.11	7.961
338.47	9.786
338.84	7.895
339.20	9.139
339.56	9.180
339.93	8.113
340.29	8.857
340.65	9.703
341.02	9.696
341.38	9.014
341.74	8.129
342.11	8.959
342.47	9.442
342.83	8.816
343.20	8.796
343.56	7.592
343.92	9.516
344.28	9.420
344.65	7.838
345.01	9.244
345.37	8.970
345.73	7.692
346.10	8.504
346.46	8.042
346.82	8.901
347.19	8.299
347.55	8.026
347.91	8.740
348.27	8.274
348.63	9.451
349.00	9.547
349.36	6.479
349.72	8.838
350.08	8.260
350.45	8.274
350.81	8.678
351.17	7.476
351.53	8.433
351.89	8.165
352.26	8.837
352.62	9.217
352.98	7.358
353.34	8.713
353.70	8.417
354.07	7.868
354.43	9.565
354.79	8.479
355.15	7.588
355.51	8.281
355.87	7.747
356.24	8.181
356.60	8.783
356.96	8.699
357.32	9.026
357.68	7.893
358.04	7.852
358.40	8.817
358.77	7.419
359.13	8.646
359.49	7.710
359.85	8.232
360.21	7.991
360.57	8.886
360.93	9.481
361.29	8.595
361.66	6.631
362.02	8.802
362.38	8.804
362.74	8.718
363.10	7.963
363.46	8.689
363.82	8.601
364.18	8.394
364.54	9.936
364.90	8.945
365.26	8.345
365.62	9.266
365.98	9.033
366.35	8.662
366.71	8.950
367.07	8.257
367.43	9.334
367.79	8.591
368.15	7.895
368.51	9.091
368.87	9.959
369.23	9.684
369.59	9.236
369.95	9.443
370.31	9.564
370.67	9.038
371.03	8.382
371.39	8.557
371.75	9.442
372.11	8.824
372.47	10.123
372.83	9.597
373.19	9.643
373.55	9.852
373.91	9.459
374.27	9.514
374.63	9.662
374.99	10.223
375.35	9.758
375.71	11.749
376.07	10.198
376.42	8.742
376.78	9.804
377.14	9.898
377.50	9.865
377.86	9.493
378.22	9.736
378.58	10.253
378.94	9.803
379.30	10.664
379.66	10.565
380.02	10.279
380.38	10.574
380.74	10.610
381.09	11.072
381.45	10.382
381.81	10.042
382.17	10.213
382.53	9.726
382.89	10.108
383.25	10.957
383.61	10.672
383.97	10.900
384.32	10.826
384.68	11.427
385.04	10.507
385.40	10.834
385.76	11.707
386.12	11.868
386.48	12.129
386.83	11.350
387.19	12.313
387.55	11.629
387.91	10.907
388.27	11.218
388.62	10.998
388.98	11.084
389.34	11.322
389.70	11.876
390.06	11.933
390.42	11.282
390.77	10.789
391.13	12.236
391.49	11.790
391.85	12.406
392.20	10.983
392.56	11.912
392.92	11.124
393.28	12.687
393.64	12.147
393.99	11.938
394.35	11.740
394.71	11.365
395.07	12.178
395.42	11.323
395.78	11.251
396.14	11.589
396.50	11.437
396.85	11.166
397.21	11.361
397.57	11.793
397.92	12.061
398.28	11.778
398.64	11.779
399.00	12.191
399.35	11.499
399.71	10.801
400.07	11.940
400.42	11.192
400.78	11.210
401.14	11.198
401.49	10.672
401.85	10.921
402.21	11.561
402.57	11.772
402.92	11.643
403.28	11.703
403.63	11.324
403.99	11.001
404.35	10.507
404.70	11.761
405.06	11.880
405.42	11.378
405.77	11.595
406.13	11.016
406.49	11.324
406.84	10.978
407.20	11.484
407.55	11.653
407.91	10.363
408.27	10.968
408.62	11.425
408.98	10.673
409.34	11.274
409.69	11.594
410.05	10.673
410.40	10.914
410.76	10.966
411.11	10.723
411.47	11.253
411.83	11.125
412.18	10.705
412.54	10.311
412.89	10.389
413.25	10.213
413.60	9.599
413.96	10.844
414.31	10.520
414.67	10.476
415.03	11.061
415.38	10.475
415.74	10.760
416.09	11.061
416.45	10.714
416.80	11.443
417.16	9.900
417.51	10.768
417.87	10.680
418.22	11.315
418.58	11.746
418.93	11.036
419.29	10.038
419.64	10.678
420.00	12.090
420.35	10.349
420.71	11.285
421.06	11.598
421.42	11.241
421.77	11.279
422.12	10.632
422.48	10.796
422.83	11.731
423.19	11.247
423.54	11.354
423.90	11.047
424.25	10.860
424.61	11.279
424.96	12.346
425.31	12.018
425.67	11.862
426.02	11.761
426.38	12.160
426.73	10.929
427.09	11.275
427.44	12.727
427.79	11.337
428.15	12.448
428.50	12.669
428.85	12.170
429.21	11.843
429.56	12.552
429.92	11.974
430.27	12.114
430.62	12.435
430.98	12.546
431.33	12.327
431.68	12.225
432.04	12.759
432.39	12.877
432.74	12.650
433.10	12.437
433.45	12.090
433.80	12.542
434.16	13.380
434.51	12.822
434.86	13.181
435.22	12.472
435.57	12.179
435.92	13.540
436.28	13.709
436.63	12.832
436.98	12.199
437.34	13.231
437.69	13.244
438.04	13.613
438.39	13.899
438.75	13.155
439.10	12.937
439.45	13.277
439.81	13.916
440.16	13.345
440.51	13.588
440.86	12.782
441.22	12.383
441.57	13.368
441.92	14.015
442.27	14.123
442.63	14.378
442.98	12.923
443.33	13.289
443.68	14.070
444.03	13.409
444.39	13.461
444.74	13.877
445.09	13.542
445.44	13.956
445.79	13.819
446.15	14.239
446.50	13.119
446.85	14.058
447.20	13.330
447.55	13.646
447.91	15.160
448.26	13.296
448.61	12.960
448.96	14.734
449.31	13.472
449.66	14.596
450.02	14.294
450.37	13.855
450.72	12.938
451.07	13.891
451.42	13.135
451.77	14.063
452.12	14.779
452.47	14.547
452.83	13.978
453.18	14.611
453.53	14.303
453.88	15.132
454.23	14.571
454.58	14.543
454.93	14.295
455.28	14.085
455.63	14.435
455.98	14.880
456.34	13.850
456.69	14.822
457.04	14.935
457.39	15.191
457.74	14.412
458.09	14.791
458.44	14.665
458.79	13.957
459.14	14.775
459.49	14.446
459.84	14.446
460.19	14.141
460.54	14.519
460.89	14.294
461.24	14.815
461.59	15.358
461.94	15.532
462.29	15.605
462.64	14.493
462.99	14.926
463.34	14.922
463.69	15.140
464.04	13.591
464.39	14.158
464.74	14.775
465.09	13.710
465.44	14.439
465.79	14.946
466.14	14.672
466.49	15.371
466.84	15.546
467.19	14.776
467.54	14.051
467.89	14.488
468.24	14.549
468.59	15.365
468.94	15.370
469.29	14.945
469.64	14.623
469.99	15.260
470.34	14.429
470.68	15.698
471.03	15.003
471.38	14.375
471.73	16.084
472.08	14.793
472.43	14.736
472.78	15.667
473.13	14.248
473.48	15.061
473.83	14.392
474.17	14.968
474.52	16.432
474.87	15.268
475.22	14.926
475.57	14.556
475.92	15.443
476.27	15.200
476.61	15.211
476.96	14.869
477.31	15.608
477.66	14.499
478.01	15.019
478.36	14.615
478.70	15.163
479.05	14.548
479.40	15.285
479.75	15.392
480.10	14.286
480.45	14.362
480.79	15.449
481.14	15.153
481.49	15.344
481.84	15.349
482.19	14.984
482.53	15.862
482.88	14.998
483.23	14.366
483.58	15.356
483.92	15.385
484.27	14.931
484.62	14.557
484.97	14.965
485.31	14.720
485.66	14.856
486.01	14.632
486.36	14.997
486.70	14.955
487.05	14.717
487.40	14.770
487.75	15.076
488.09	14.978
488.44	15.156
488.79	15.706
489.13	14.530
489.48	15.457
489.83	15.633
490.17	15.411
490.52	15.263
490.87	15.196
491.22	15.133
491.56	15.602
491.91	15.649
492.26	14.858
492.60	15.033
492.95	15.516
493.30	15.150
493.64	15.280
493.99	15.535
494.34	15.762
494.68	15.684
495.03	14.771
495.37	15.192
495.72	15.472
496.07	15.439
496.41	15.377
496.76	15.571
497.11	15.261
497.45	16.284
497.80	15.358
498.14	15.226
498.49	15.168
498.84	14.515
499.18	15.692
499.53	15.928
499.87	14.768
500.22	15.098
500.56	15.008
500.91	14.926
501.26	15.769
501.60	14.974
501.95	15.604
502.29	15.446
502.64	16.172
502.98	15.573
503.33	15.742
503.67	14.990
504.02	15.017
504.36	15.245
504.71	14.691
505.06	15.327
505.40	15.918
505.75	15.549
506.09	15.521
506.44	15.589
506.78	15.003
507.13	14.985
507.47	15.545
507.82	15.230
508.16	15.130
508.51	14.477
508.85	15.321
509.19	15.385
509.54	14.746
509.88	15.106
510.23	15.409
510.57	15.767
510.92	14.984
511.26	14.673
511.61	15.119
511.95	15.571
512.30	15.338
512.64	14.636
512.98	15.457
513.33	16.035
513.67	14.182
514.02	14.318
514.36	15.346
514.70	14.827
515.05	15.495
515.39	15.283
515.74	16.579
516.08	15.389
516.42	15.184
516.77	15.078
517.11	15.217
517.46	14.952
517.80	15.824
518.14	14.010
518.49	15.421
518.83	15.134
519.17	16.341
519.52	15.211
519.86	15.771
520.20	15.648
520.55	14.585
520.89	14.465
521.23	15.263
521.58	15.925
521.92	16.213
522.26	15.619
522.61	15.653
522.95	13.784
523.29	14.671
523.64	14.678
523.98	15.341
524.32	14.645
524.66	14.410
525.01	14.900
525.35	14.948
525.69	14.899
526.04	14.687
526.38	15.404
526.72	13.985
527.06	15.885
527.41	14.851
527.75	14.587
528.09	15.354
528.43	14.689
528.78	15.452
529.12	15.301
529.46	14.884
529.80	14.590
530.15	14.939
530.49	14.877
530.83	15.914
531.17	14.478
531.51	15.137
531.86	15.076
532.20	14.980
532.54	15.307
532.88	14.756
533.22	14.706
533.57	15.144
533.91	14.045
534.25	14.833
534.59	14.179
534.93	15.121
535.27	14.286
535.62	14.834
535.96	14.027
536.30	13.416
536.64	14.276
536.98	15.325
537.32	14.236
537.66	14.121
538.01	15.120
538.35	15.135
538.69	14.572
539.03	14.895
539.37	14.571
539.71	15.010
540.05	14.119
540.39	15.374
540.73	14.305
541.07	14.959
541.42	13.437
541.76	13.621
542.10	14.652
542.44	15.123
542.78	14.586
543.12	15.003
543.46	14.110
543.80	13.980
544.14	13.566
544.48	14.829
544.82	14.073
545.16	13.883
545.50	13.930
545.84	14.186
546.18	14.008
546.52	14.723
546.86	14.815
547.20	14.065
547.54	14.394
547.88	14.665
548.22	13.041
548.56	13.293
548.90	14.555
549.24	13.525
549.58	13.973
549.92	14.064
550.26	14.595
550.60	14.438
550.94	14.015
551.28	15.275
551.62	14.402
551.96	13.676
552.30	13.589
552.64	13.019
552.98	14.786
553.32	14.214
553.66	14.564
554.00	14.641
554.34	14.152
554.68	14.035
555.02	14.978
555.36	13.444
555.69	14.255
556.03	13.193
556.37	14.509
556.71	14.173
557.05	14.560
557.39	14.328
557.73	14.734
558.07	13.715
558.41	14.136
558.75	14.068
559.08	12.996
559.42	14.089
559.76	13.804
560.10	14.169
560.44	14.884
560.78	13.987
561.12	13.665
561.45	13.904
561.79	13.728
562.13	13.604
562.47	13.585
562.81	14.003
563.15	13.786
563.48	14.098
563.82	13.590
564.16	14.469
564.50	13.239
564.84	13.161
565.17	13.130
565.51	14.016
565.85	13.861
566.19	14.097
566.52	14.090
566.86	12.832
567.20	14.588
567.54	14.767
567.88	13.345
568.21	13.255
568.55	13.468
568.89	12.773
569.23	13.050
569.56	12.947
569.90	13.336
570.24	13.003
570.57	12.830
570.91	12.513
571.25	12.581
571.59	13.113
571.92	12.917
572.26	12.942
572.60	12.721
572.93	12.295
573.27	13.079
573.61	12.045
573.95	12.666
574.28	12.610
574.62	12.964
574.96	12.562
575.29	12.221
575.63	12.795
575.97	12.271
576.30	12.332
576.64	12.663
576.98	12.516
577.31	12.110
577.65	12.548
577.98	12.456
578.32	11.808
578.66	12.050
578.99	12.515
579.33	12.334
579.67	12.173
580.00	11.880
580.34	11.962
580.67	12.258
581.01	11.677
581.35	12.371
581.68	11.927
582.02	12.319
582.35	12.257
582.69	12.437
583.02	12.467
583.36	12.250
583.70	12.698
584.03	12.742
584.37	12.476
584.70	12.239
585.04	12.253
585.37	11.933
585.71	12.288
586.04	12.335
586.38	12.243
586.72	12.570
587.05	12.489
587.39	12.237
587.72	12.344
588.06	12.572
588.39	12.219
588.73	12.794
589.06	12.532
589.40	12.676
589.73	12.712
590.07	12.382
590.40	12.731
590.73	12.595
591.07	12.213
591.40	12.738
591.74	13.076
592.07	12.613
592.41	12.357
592.74	13.067
593.08	12.805
593.41	12.796
593.75	12.133
594.08	12.617
594.41	13.567
594.75	12.609
595.08	12.519
595.42	12.139
595.75	12.348
596.09	12.689
596.42	12.520
596.75	12.764
597.09	12.912
597.42	12.571
597.75	12.578
598.09	12.607
598.42	12.859
598.76	12.375
599.09	12.470
599.42	12.495
599.76	12.307
600.09	12.405
600.42	12.685
600.76	12.542
601.09	12.191
601.42	12.070
601.76	13.201
602.09	12.311
602.42	12.510
602.76	12.214
603.09	12.177
603.42	12.288
603.76	12.684
604.09	12.575
604.42	12.281
604.76	12.342
605.09	12.884
605.42	12.411
605.75	12.031
606.09	12.453
606.42	12.023
606.75	12.151
607.09	12.307
607.42	11.972
607.75	12.362
608.08	12.381
608.42	12.204
608.75	11.776
609.08	12.421
609.41	12.755
609.75	12.189
610.08	12.304
610.41	12.048
610.74	12.379
611.07	12.272
611.41	11.649
611.74	13.008
612.07	13.050
612.40	12.420
612.73	12.224
613.07	11.888
613.40	12.972
613.73	12.534
614.06	12.356
614.39	12.120
614.72	11.788
615.06	11.957
615.39	12.100
615.72	12.493
616.05	11.541
616.38	12.304
616.71	12.372
617.05	12.666
617.38	12.260
617.71	11.794
618.04	11.801
618.37	12.201
618.70	12.712
619.03	11.984
619.36	12.826
619.69	12.706
620.03	11.019
620.36	11.955
620.69	12.347
621.02	12.709
621.35	12.581
621.68	12.213
622.01	12.136
622.34	12.500
622.67	11.328
623.00	12.089
623.33	13.134
623.66	11.521
623.99	12.406
624.32	11.830
624.65	11.479
624.99	11.875
625.32	11.228
625.65	11.422
625.98	11.659
626.31	12.643
626.64	12.803
626.97	12.586
627.30	12.426
627.63	11.226
627.96	11.575
628.29	12.500
628.62	10.220
628.95	11.811
629.28	10.714
629.61	9.912
629.94	12.949
630.26	10.934
630.59	13.568
630.92	12.212
631.25	12.399
631.58	12.275
631.91	10.638
632.24	12.222
632.57	12.444
632.90	11.034
633.23	12.734
633.56	11.228
633.89	13.208
634.22	12.397
634.55	11.058
634.88	12.213
635.20	11.860
635.53	11.705
635.86	11.335
636.19	11.111
636.52	11.231
636.85	11.432
637.18	10.875
637.51	13.755
637.83	11.984
638.16	11.316
638.49	10.621
638.82	11.326
639.15	12.840
639.48	10.765
639.81	12.586
640.13	12.162
640.46	13.248
640.79	10.924
641.12	13.258
641.45	11.621
641.77	12.275
642.10	11.631
642.43	12.898
642.76	12.441
643.09	9.841
643.41	12.381
643.74	13.514
644.07	13.261
644.40	11.021
644.73	13.696
645.05	12.354
645.38	12.086
645.71	12.199
646.04	12.437
646.36	9.250
646.69	12.976
647.02	10.289
647.35	12.274
647.67	11.314
648.00	13.533
648.33	13.322
648.66	10.484
648.98	11.306
649.31	11.077
649.64	12.188
649.96	11.931
650.29	8.852
650.62	11.188
650.94	12.142
651.27	11.785
651.60	10.727
651.92	14.897
652.25	12.020
652.58	9.881
652.90	9.149
653.23	11.129
653.56	11.873
653.88	13.443
654.21	14.430
654.54	11.794
654.86	11.557
655.19	10.172
655.52	12.018
655.84	10.553
656.17	11.429
656.49	15.616
656.82	16.025
657.15	12.120
657.47	8.869
657.80	6.927
658.13	8.063
658.45	10.939
658.78	10.588
659.10	10.560
659.43	9.920
659.75	10.622
660.08	10.781
660.41	10.373
660.73	9.131
661.06	13.043
661.38	13.214
661.71	9.751
662.03	12.298
662.36	12.793
662.68	10.970
663.01	14.225
663.33	12.472
663.66	12.017
663.98	12.723
664.31	7.830
664.63	11.062
664.96	10.846
665.28	9.544
665.61	10.148
665.93	12.140
666.26	12.348
666.58	11.850
666.91	12.249
667.23	11.623
667.56	10.658
667.88	15.385
668.21	11.060
668.53	12.150
668.86	12.240
669.18	11.644
669.50	13.084
669.83	11.679
670.15	11.883
670.48	8.411
670.80	11.845
671.13	9.481
671.45	11.937
671.77	10.493
672.10	11.834
672.42	10.886
672.75	9.455
673.07	11.351
673.39	11.111
673.72	12.402
674.04	11.253
674.37	9.072
674.69	13.115
675.01	9.362
675.34	9.328
675.66	11.015
675.98	9.692
676.31	12.443
676.63	11.724
676.95	10.398
677.28	11.369
677.60	13.348
677.92	9.471
678.25	9.847
678.57	11.728
678.89	7.547
679.22	11.111
679.54	10.651
679.86	7.400
680.18	10.837
680.51	11.546
680.83	9.905
681.15	10.983
681.48	11.156
681.80	11.089
682.12	10.463
682.44	11.198
682.77	8.658
683.09	13.627
683.41	11.283
683.73	7.078
684.06	11.183
684.38	12.971
684.70	10.288
685.02	11.811
685.34	10.331
685.67	10.227
685.99	9.830
686.31	11.131
686.63	10.638
686.96	8.688
687.28	10.405
687.60	10.352
687.92	6.615
688.24	10.827
688.56	9.619
688.89	9.402
689.21	11.379
689.53	10.115
689.85	13.363
690.17	10.090
690.49	11.316
690.82	7.711
691.14	9.670
691.46	13.082
691.78	9.471
692.10	10.593
692.42	7.333
692.74	12.017
693.06	9.888
693.39	10.067
693.71	8.804
694.03	12.095
694.35	8.804
694.67	9.456
694.99	9.463
695.31	9.184
695.63	7.653
695.95	9.926
696.27	9.975
696.59	9.091
696.91	8.708
697.23	12.240
697.56	8.173
697.88	7.207
698.20	9.208
698.52	7.175
698.84	12.864
699.16	8.095
699.48	8.000
699.80	13.534
700.12	13.350
700.44	6.983
700.76	4.665
701.08	12.500
701.40	9.366
701.72	7.716
702.04	8.974
702.36	8.735
702.68	11.078
703.00	8.406
703.32	3.725
703.64	12.941
703.96	9.302
704.28	9.467
704.60	6.646
704.91	6.984
705.23	12.298
705.55	10.135
705.87	10.239
706.19	7.292
706.51	10.069
706.83	9.180
707.15	7.962
707.47	11.846
707.79	11.082
708.11	7.634
708.43	10.474
708.74	6.753
709.06	7.242
709.38	6.897
709.70	7.812
710.02	12.270
710.34	6.931
710.66	7.619
710.98	7.886
711.29	4.516
711.61	7.348
711.93	6.885
712.25	11.296
712.57	6.272
712.89	11.871
713.20	13.402
713.52	6.343
713.84	8.897
714.16	7.213
714.48	9.524
714.80	5.538
715.11	10.086
715.43	12.048
715.75	10.280
716.07	5.246
716.39	9.699
716.70	12.195
717.02	11.481
717.34	10.687
717.66	9.959
717.97	6.557
718.29	10.084
718.61	14.683
718.93	9.677
719.24	8.088
719.56	7.170
719.88	6.545
720.20	8.240
720.51	13.158
720.83	11.647
721.15	8.197
721.46	12.157
721.78	11.494
722.10	6.000
722.42	6.612
722.73	9.163
723.05	8.835
723.37	12.157
723.68	6.073
724.00	11.789
724.32	14.815
724.63	7.469
724.95	14.050
725.27	5.702
725.58	5.603
725.90	7.143
726.22	10.332
726.53	9.886
726.85	3.529
727.16	6.767
727.48	5.769
727.80	6.967
728.11	10.504
728.43	6.612
728.74	11.719
729.06	14.394
729.38	4.669
729.69	4.331
730.01	9.843
730.32	6.773
730.64	15.751
730.96	12.687
731.27	2.857
731.59	9.968
731.90	7.362
732.22	8.282
732.53	11.589
732.85	11.409
733.16	5.072
733.48	9.408
733.80	6.050
734.11	7.586
734.43	9.864
734.74	10.979
735.06	9.718
735.37	10.703
735.69	6.129
736.00	7.744
736.32	8.940
736.63	5.517
736.95	4.348
737.26	8.940
737.58	7.914
737.89	9.677
738.21	3.759
738.52	8.077
738.83	8.594
739.15	4.701
739.46	9.677
739.78	9.091
740.09	8.042
740.41	8.741
740.72	9.124
741.04	11.111
741.35	5.195
741.66	7.870
741.98	4.762
742.29	13.146
742.61	6.952
742.92	11.682
743.23	8.333
743.55	10.811
743.86	19.111
744.18	9.524
744.49	9.360
744.80	11.675
745.12	10.309
745.43	11.558
745.74	8.252
746.06	6.829
746.37	9.692
746.68	7.463
747.00	6.283
747.31	5.288
747.62	10.599
747.94	6.987
748.25	11.628
748.56	10.000
748.88	9.783
749.19	7.042
749.50	12.255
749.82	12.000
750.13	8.370
750.44	6.504
750.75	9.200
751.07	8.929
751.38	5.904
751.69	6.489
752.01	11.923
752.32	3.502
752.63	3.846
752.94	7.540
753.26	11.739
753.57	11.161
753.88	10.776
754.19	7.884
754.51	10.156
754.82	10.672
755.13	9.877
755.44	10.744
755.75	12.757
756.07	4.819
756.38	7.031
756.69	9.386
757.00	4.181
757.31	7.047
757.63	8.723
757.94	9.249
758.25	6.977
758.56	10.243
758.87	7.386
759.18	3.333
759.50	9.253
759.81	-1.460
760.12	6.757
760.43	10.680
760.74	10.625
761.05	11.236
761.36	7.186
761.67	4.142
761.99	6.129
762.30	11.594
762.61	10.189
762.92	10.762
763.23	3.791
763.54	7.556
763.85	13.080
764.16	8.163
764.47	10.593
764.78	8.614
765.10	8.633
765.41	3.871
765.72	7.233
766.03	0.000
766.34	8.647
766.65	10.931
766.96	2.500
767.27	10.417
767.58	11.628
767.89	9.677
768.20	7.975
768.51	16.393
768.82	3.784
769.13	4.500
769.44	3.947
769.75	12.121
770.06	9.633
770.37	9.859
770.68	1.562
770.99	7.921
771.30	8.252
771.61	12.037
771.92	5.195
772.23	11.682
772.54	6.383
772.85	5.917
773.16	-0.610
773.47	15.060
773.78	14.286
774.09	8.667
774.39	11.728
774.70	5.369
775.01	-0.725
775.32	-6.716
775.63	9.917
775.94	4.511
776.25	14.286
776.56	7.377
776.87	3.540
777.18	5.310
777.48	-5.455
777.79	2.609
778.10	0.000
778.41	5.932
778.72	0.826
779.03	8.955
779.34	8.271
779.65	8.497
779.95	2.899
780.26	0.000
780.57	1.724
780.88	4.630
781.19	-8.081
781.50	-3.200
781.80	6.536
782.11	1.282
782.42	11.446
782.73	0.730
783.04	6.757
783.34	3.788
783.65	10.853
783.96	5.691
784.27	0.000
784.57	-1.626
784.88	3.252
785.19	0.877
785.50	3.093
785.81	-0.952
786.11	-13.725
786.42	2.727
786.73	12.613
787.04	5.941
787.34	7.619
787.65	3.810
787.96	0.980
788.26	-3.604
788.57	13.710
788.88	-5.469
789.19	0.000
789.49	2.521
789.80	4.274
790.11	2.655
790.41	1.010
790.72	20.755
791.03	2.778
791.33	1.316
791.64	-1.075
791.95	1.333
792.25	-2.857
792.56	3.659
792.87	12.245
793.17	2.632
793.48	-8.108
793.79	-2.817
794.09	11.392
794.40	5.319
794.70	-1.869
795.01	-5.263
795.32	2.727
795.62	3.571
795.93	-2.062
796.23	-1.099
796.54	8.421
796.85	12.329
797.15	-16.667
797.46	12.329
797.76	2.817
798.07	6.250
798.37	-5.882
798.68	25.714
798.99	-4.286
799.29	6.579
799.60	-1.667
799.90	-6.944
800.21	-4.688
800.51	1.587
800.82	1.639
801.12	-7.018
801.43	-9.859
801.73	-5.085
802.04	8.197
802.34	1.818
802.65	-5.769
802.95	3.704
803.26	-25.000
803.56	1.923
803.87	-44.737
804.17	3.226
804.48	7.692
804.78	-15.385
805.09	-4.651
805.39	-18.750
805.70	-7.547
806.00	21.053
806.30	10.811
806.61	7.353
806.91	8.642
807.22	20.000
807.52	7.463
807.83	1.613
808.13	-9.524
808.43	-5.455
808.74	1.515
809.04	0.000
809.35	6.849
809.65	7.018
809.95	10.294
810.26	13.725
810.56	0.000
810.86	0.000
811.17	2.857
811.47	-5.769
811.77	-48.387
812.08	-18.421
812.38	0.000
812.69	-8.696
812.99	16.129
813.29	-9.524
813.59	-59.259
813.90	0.000
814.20	0.000
814.50	0.000
814.81	-5.000
815.11	-17.073
815.41	-40.000
815.72	11.429
816.02	25.000
816.32	-7.692
816.62	13.514
816.93	-17.647
817.23	-4.348
817.53	0.000
817.84	-5.882
818.14	-9.375
818.44	17.241
818.74	-32.258
819.04	-7.407
819.35	13.333
819.65	-32.000
819.95	-23.333
820.25	0.000
820.56	-26.316
820.86	-10.000
821.16	17.021
821.46	13.793
821.76	10.256
822.07	-25.000
822.37	-2.326
822.67	-40.000
822.97	-21.622
823.27	21.622
823.57	-32.000
823.88	-5.405
824.18	-9.524
824.48	-19.231
824.78	-115.385
825.08	17.391
825.38	-16.667
825.69	16.667
825.99	-50.000
826.29	-8.108
826.59	2.941
826.89	48.000
827.19	11.429
827.49	-2.632
827.79	12.500
828.09	-13.333
828.39	0.000
828.70	-44.828
829.00	-10.345
829.30	13.889
829.60	21.875
829.90	27.778
830.20	0.000
830.50	-33.333
830.80	-50.000
831.10	0.000
831.40	-9.524
831.70	17.647
832.00	4.167
832.30	-47.368
832.60	-50.000
832.90	-108.333
833.20	-41.176
833.50	-40.000
833.80	-20.000
834.10	0.000
834.40	8.333
834.70	-16.667
835.00	-11.538
835.30	-20.833
835.60	3.448
835.90	-50.000
836.20	-118.182
836.50	-75.000
836.80	11.429
837.10	48.571
837.40	5.882
837.70	-81.818
838.00	0.000
838.30	-6.250
838.60	-23.810
838.90	-15.000
839.19	4.348
839.49	-8.696
839.79	0.000
840.09	-13.043
840.39	-22.727
840.69	-12.500
840.99	-31.579
841.29	-25.000
841.59	-14.286
841.88	-50.000
842.18	-16.667
842.48	-82.353
842.78	-3.448
843.08	35.714
843.38	-30.769
843.68	-33.333
843.97	-23.077
844.27	-36.364
844.57	-400.000
844.87	0.000
845.17	20.000
845.47	-64.286
845.76	-88.889
846.06	0.000
846.36	-275.000
846.66	-140.000
846.96	-21.053
847.25	-12.500
847.55	-58.333
847.85	6.667
848.15	0.000
848.44	15.385
848.74	5.263
849.04	400.000
849.34	-22.222
849.63	26.316
849.93	0.000
850.23	-10.000
850.53	52.381
850.82	-40.000
851.12	-5.263
851.42	-400.000
851.71	-7.143
852.01	-33.333
852.31	0.000
852.61	26.667
852.90	-14.286
853.20	-33.333
853.50	-22.222
853.79	-15.789
854.09	-13.333
854.39	-10.714
854.68	30.435
854.98	-166.667
855.28	3.448
855.57	-43.750
855.87	-50.000
856.17	-93.333
856.46	17.241
856.76	6.667
857.05	5.882
857.35	-30.769
857.65	18.182
857.94	14.815
858.24	-71.429
858.53	-21.429
858.83	-125.000
859.13	-44.444
859.42	19.048
859.72	-87.500
860.01	-133.333
860.31	-125.000
860.60	-240.000
860.90	-211.111
861.20	-12.500
861.49	-71.429
861.79	23.529
862.08	-150.000
862.38	-83.333
862.67	-23.077
862.97	52.941
863.26	55.000
863.56	5.882
863.85	266.667
864.15	-40.000
864.44	0.000
864.74	35.000
865.03	-212.500
865.33	-83.333
865.62	0.000
865.92	-500.000
866.21	-128.571
866.51	-91.667
866.80	200.000
867.10	200.000
867.39	41.176
867.69	34.783
867.98	14.286
868.27	-420.000
868.57	25.000
868.86	-72.727
869.16	52.941
869.45	50.000
869.75	-171.429
870.04	300.000
870.33	-50.000
870.63	-100.000
870.92	-111.111
871.22	16.667
871.51	-45.455
871.80	41.667
872.10	10.000
>>>>>End Processed Spectral Data<<<<<
