SpectraSuite Data File
++++++++++++++++++++++++++++++++++++
Date: Sat May 16 11:43:29 PDT 2015
User: schluterlab
Dark Spectrum Present: Yes
Reference Spectrum Present: Yes
Number of Sampled Component Spectra: 1
Spectrometers: USB2E3373
Integration Time (usec): 3000 (USB2E3373)
Spectra Averaged: 3 (USB2E3373)
Boxcar Smoothing: 0 (USB2E3373)
Correct for Electrical Dark: No (USB2E3373)
Strobe/Lamp Enabled: No (USB2E3373)
Correct for Detector Non-linearity: No (USB2E3373)
Correct for Stray Light: No (USB2E3373)
Number of Pixels in Processed Spectrum: 2048
>>>>>Begin Processed Spectral Data<<<<<
178.53	0.000
178.91	140.000
179.29	566.667
179.67	-600.000
180.04	-38.462
180.42	400.000
180.80	650.000
181.18	575.000
181.56	-75.000
181.94	1600.000
182.31	525.000
182.69	-46.154
183.07	-466.667
183.45	1250.000
183.83	300.000
184.20	-257.143
184.58	-237.500
184.96	-425.000
185.34	106.250
185.72	-600.000
186.09	366.667
186.47	-187.500
186.85	-175.000
187.23	-100.000
187.61	-375.000
187.98	-200.000
188.36	-50.000
188.74	-112.500
189.12	2300.000
189.49	385.714
189.87	-66.667
190.25	150.000
190.63	-85.714
191.00	-166.667
191.38	260.000
191.76	-33.333
192.14	540.000
192.51	-140.000
192.89	-566.667
193.27	0.000
193.65	-66.667
194.02	-171.429
194.40	466.667
194.78	-140.000
195.15	-2200.000
195.53	-109.091
195.91	-450.000
196.29	420.000
196.66	-400.000
197.04	3300.000
197.42	-150.000
197.79	-13.333
198.17	-333.333
198.55	-900.000
198.92	-1000.000
199.30	125.000
199.68	-900.000
200.05	-66.667
200.43	-177.778
200.81	-1900.000
201.18	-50.000
201.56	257.143
201.94	-86.667
202.31	59.091
202.69	-60.000
203.07	-100.000
203.44	466.667
203.82	-283.333
204.19	-250.000
204.57	-300.000
204.95	-1500.000
205.32	-18.750
205.70	900.000
206.08	-2400.000
206.45	-77.778
206.83	-700.000
207.20	-300.000
207.58	-1000.000
207.96	-600.000
208.33	-262.500
208.71	-66.667
209.08	130.000
209.46	-171.429
209.84	800.000
210.21	0.000
210.59	-45.000
210.96	900.000
211.34	-333.333
211.71	-466.667
212.09	400.000
212.46	1200.000
212.84	-3000.000
213.22	633.333
213.59	200.000
213.97	-66.667
214.34	260.000
214.72	-90.000
215.09	-533.333
215.47	33.333
215.84	-50.000
216.22	-230.000
216.59	-46.667
216.97	-575.000
217.34	600.000
217.72	-171.429
218.09	-266.667
218.47	-357.143
218.84	214.286
219.22	-200.000
219.59	0.000
219.97	285.714
220.34	375.000
220.72	312.500
221.09	-107.692
221.47	0.000
221.84	466.667
222.22	-200.000
222.59	1000.000
222.97	-237.500
223.34	-900.000
223.72	-333.333
224.09	-78.571
224.46	-400.000
224.84	-35.714
225.21	-357.143
225.59	-54.545
225.96	-87.500
226.34	-85.714
226.71	-211.111
227.08	-15.000
227.46	1200.000
227.83	-385.714
228.21	-162.500
228.58	650.000
228.95	-81.250
229.33	-1800.000
229.70	-40.000
230.08	-900.000
230.45	-41.667
230.82	-166.667
231.20	-400.000
231.57	-750.000
231.95	1600.000
232.32	-19.048
232.69	-122.222
233.07	-214.286
233.44	-850.000
233.81	-80.000
234.19	-200.000
234.56	-81.250
234.93	21.875
235.31	-185.714
235.68	-128.571
236.05	-76.471
236.43	-77.273
236.80	-3.226
237.17	-12.500
237.55	-33.333
237.92	-86.364
238.29	20.000
238.67	-17.647
239.04	-47.222
239.41	-64.516
239.79	-33.333
240.16	-38.095
240.53	-1.818
240.91	-30.769
241.28	1.818
241.65	-7.692
242.02	4.918
242.40	-19.672
242.77	-19.697
243.14	-13.559
243.51	-31.429
243.89	-8.861
244.26	1.124
244.63	8.421
245.00	2.105
245.38	6.780
245.75	7.080
246.12	4.800
246.49	1.575
246.87	1.626
247.24	-9.322
247.61	-6.780
247.98	0.704
248.36	-1.399
248.73	3.165
249.10	-0.637
249.47	8.187
249.84	10.227
250.22	-7.143
250.59	6.780
250.96	5.759
251.33	5.687
251.70	2.404
252.08	7.583
252.45	-3.318
252.82	-3.333
253.19	5.106
253.56	4.435
253.94	2.954
254.31	4.292
254.68	6.911
255.05	2.419
255.42	6.746
255.79	6.093
256.16	7.843
256.54	11.397
256.91	1.894
257.28	0.733
257.65	3.191
258.02	5.660
258.39	5.017
258.76	3.378
259.14	3.704
259.51	4.590
259.88	7.622
260.25	8.075
260.62	2.894
260.99	2.374
261.36	7.012
261.73	5.780
262.10	6.944
262.47	4.274
262.85	9.714
263.22	3.725
263.59	4.615
263.96	10.435
264.33	5.962
264.70	5.801
265.07	3.571
265.44	4.651
265.81	3.359
266.18	5.063
266.55	3.186
266.92	7.053
267.29	6.295
267.66	2.963
268.03	8.937
268.40	7.042
268.77	7.470
269.14	4.408
269.51	5.747
269.88	3.899
270.25	3.730
270.62	5.721
270.99	4.730
271.36	6.061
271.73	5.157
272.10	6.178
272.47	6.667
272.84	8.667
273.21	6.422
273.58	4.835
273.95	4.605
274.32	4.751
274.69	9.190
275.06	6.339
275.43	5.357
275.80	7.332
276.17	7.113
276.54	7.943
276.91	4.733
277.28	5.274
277.65	6.405
278.02	5.846
278.39	6.090
278.76	6.375
279.13	6.522
279.50	7.157
279.87	7.822
280.23	7.895
280.60	5.567
280.97	4.660
281.34	4.642
281.71	5.385
282.08	7.056
282.45	3.666
282.82	5.039
283.19	6.000
283.56	9.890
283.92	7.067
284.29	3.717
284.66	6.115
285.03	6.595
285.40	7.196
285.77	7.544
286.14	6.137
286.51	5.684
286.87	7.260
287.24	7.509
287.61	7.934
287.98	5.719
288.35	6.777
288.72	6.282
289.08	5.085
289.45	9.428
289.82	5.190
290.19	6.897
290.56	5.455
290.93	3.339
291.29	4.214
291.66	5.797
292.03	7.692
292.40	6.777
292.77	6.366
293.13	5.854
293.50	5.795
293.87	5.828
294.24	4.827
294.60	3.788
294.97	8.649
295.34	4.000
295.71	7.143
296.08	4.455
296.44	6.152
296.81	6.268
297.18	5.211
297.55	6.356
297.91	6.834
298.28	6.027
298.65	5.997
299.02	7.487
299.38	6.150
299.75	5.299
300.12	6.923
300.48	5.754
300.85	4.194
301.22	5.045
301.59	6.632
301.95	8.312
302.32	5.737
302.69	6.487
303.05	5.983
303.42	5.750
303.79	5.263
304.15	6.635
304.52	6.301
304.89	5.785
305.25	6.105
305.62	5.993
305.99	6.478
306.35	6.104
306.72	7.517
307.09	5.902
307.45	5.789
307.82	5.475
308.19	5.257
308.55	6.427
308.92	4.941
309.29	6.162
309.65	6.257
310.02	5.400
310.38	4.649
310.75	6.967
311.12	6.508
311.48	5.637
311.85	6.591
312.22	7.415
312.58	7.325
312.95	6.116
313.31	6.094
313.68	7.538
314.05	8.309
314.41	5.433
314.78	5.295
315.14	5.627
315.51	6.991
315.87	7.260
316.24	6.706
316.61	7.198
316.97	5.771
317.34	7.129
317.70	6.679
318.07	7.836
318.43	6.554
318.80	6.854
319.16	5.535
319.53	7.049
319.89	5.738
320.26	6.863
320.62	4.904
320.99	6.567
321.35	5.616
321.72	5.220
322.08	6.429
322.45	5.743
322.81	6.916
323.18	7.589
323.54	6.839
323.91	6.580
324.27	6.369
324.64	7.221
325.00	7.243
325.37	7.059
325.73	9.361
326.10	6.200
326.46	7.531
326.83	8.170
327.19	7.506
327.56	9.625
327.92	8.751
328.29	8.398
328.65	8.364
329.01	9.452
329.38	8.296
329.74	10.348
330.11	9.701
330.47	9.355
330.84	10.174
331.20	9.206
331.56	9.845
331.93	9.769
332.29	9.863
332.66	10.097
333.02	9.774
333.38	10.663
333.75	9.884
334.11	9.956
334.48	9.532
334.84	10.499
335.20	10.993
335.57	10.108
335.93	11.817
336.29	10.186
336.66	10.220
337.02	10.000
337.38	8.824
337.75	11.150
338.11	10.733
338.47	10.854
338.84	11.162
339.20	11.424
339.56	12.210
339.93	10.670
340.29	10.540
340.65	11.451
341.02	11.467
341.38	10.952
341.74	9.738
342.11	11.007
342.47	10.644
342.83	10.663
343.20	10.931
343.56	9.796
343.92	11.770
344.28	11.354
344.65	10.314
345.01	10.420
345.37	11.877
345.73	9.247
346.10	8.913
346.46	10.236
346.82	10.505
347.19	10.764
347.55	10.353
347.91	10.472
348.27	10.740
348.63	10.905
349.00	11.535
349.36	10.304
349.72	10.908
350.08	12.109
350.45	10.796
350.81	10.350
351.17	10.209
351.53	9.785
351.89	10.509
352.26	11.473
352.62	11.828
352.98	12.184
353.34	10.871
353.70	10.347
354.07	11.959
354.43	11.462
354.79	11.569
355.15	9.345
355.51	10.312
355.87	10.988
356.24	10.405
356.60	12.571
356.96	11.393
357.32	10.214
357.68	11.111
358.04	11.470
358.40	10.441
358.77	10.433
359.13	10.406
359.49	10.960
359.85	10.290
360.21	11.035
360.57	11.672
360.93	11.407
361.29	11.286
361.66	9.985
362.02	11.243
362.38	11.592
362.74	11.722
363.10	10.330
363.46	11.966
363.82	11.152
364.18	11.216
364.54	12.152
364.90	11.251
365.26	10.913
365.62	11.048
365.98	12.589
366.35	11.549
366.71	10.571
367.07	11.362
367.43	12.835
367.79	11.340
368.15	11.238
368.51	11.189
368.87	12.088
369.23	11.018
369.59	11.528
369.95	12.474
370.31	12.447
370.67	9.978
371.03	11.443
371.39	11.598
371.75	11.373
372.11	11.191
372.47	11.424
372.83	12.031
373.19	11.500
373.55	12.526
373.91	11.878
374.27	12.320
374.63	12.077
374.99	12.239
375.35	11.978
375.71	12.694
376.07	11.910
376.42	11.523
376.78	12.157
377.14	11.254
377.50	12.315
377.86	12.159
378.22	11.872
378.58	11.859
378.94	11.591
379.30	11.944
379.66	12.993
380.02	11.289
380.38	12.326
380.74	11.899
381.09	12.537
381.45	12.589
381.81	11.797
382.17	11.842
382.53	11.854
382.89	12.321
383.25	11.800
383.61	12.264
383.97	13.105
384.32	12.516
384.68	13.059
385.04	12.077
385.40	12.234
385.76	12.134
386.12	12.305
386.48	13.181
386.83	12.393
387.19	13.329
387.55	11.993
387.91	11.796
388.27	11.460
388.62	12.620
388.98	12.235
389.34	12.913
389.70	11.937
390.06	12.119
390.42	12.051
390.77	11.483
391.13	13.540
391.49	12.913
391.85	11.908
392.20	12.015
392.56	12.401
392.92	11.865
393.28	12.801
393.64	12.748
393.99	12.800
394.35	13.443
394.71	12.415
395.07	12.994
395.42	12.336
395.78	12.759
396.14	12.773
396.50	13.211
396.85	12.338
397.21	12.880
397.57	13.070
397.92	13.349
398.28	13.056
398.64	12.731
399.00	13.371
399.35	12.627
399.71	13.182
400.07	12.537
400.42	12.226
400.78	12.701
401.14	12.754
401.49	12.854
401.85	12.203
402.21	13.349
402.57	13.046
402.92	13.342
403.28	12.561
403.63	12.762
403.99	12.741
404.35	12.500
404.70	13.107
405.06	13.495
405.42	11.378
405.77	12.500
406.13	13.458
406.49	12.642
406.84	12.717
407.20	13.428
407.55	12.476
407.91	12.047
408.27	13.480
408.62	13.049
408.98	12.735
409.34	12.797
409.69	12.728
410.05	12.371
410.40	13.182
410.76	12.389
411.11	13.279
411.47	13.171
411.83	13.570
412.18	12.933
412.54	12.813
412.89	13.123
413.25	12.279
413.60	12.697
413.96	12.754
414.31	13.761
414.67	13.333
415.03	13.325
415.38	12.167
415.74	12.822
416.09	13.171
416.45	12.302
416.80	14.044
417.16	12.558
417.51	13.460
417.87	12.298
418.22	13.021
418.58	12.965
418.93	12.692
419.29	13.676
419.64	12.123
420.00	13.487
420.35	12.655
420.71	13.025
421.06	13.491
421.42	12.822
421.77	13.680
422.12	13.654
422.48	12.614
422.83	13.440
423.19	13.641
423.54	12.968
423.90	12.840
424.25	12.500
424.61	13.088
424.96	13.517
425.31	13.136
425.67	13.066
426.02	12.163
426.38	13.672
426.73	13.384
427.09	13.174
427.44	13.750
427.79	13.023
428.15	13.824
428.50	14.194
428.85	14.089
429.21	13.503
429.56	13.906
429.92	13.727
430.27	13.410
430.62	13.793
430.98	14.062
431.33	13.554
431.68	13.887
432.04	13.990
432.39	13.504
432.74	13.909
433.10	13.844
433.45	13.414
433.80	13.662
434.16	13.595
434.51	13.479
434.86	13.708
435.22	13.976
435.57	13.280
435.92	14.830
436.28	14.303
436.63	13.397
436.98	12.486
437.34	13.881
437.69	13.419
438.04	14.124
438.39	14.380
438.75	13.213
439.10	14.381
439.45	12.915
439.81	14.036
440.16	13.345
440.51	13.824
440.86	13.302
441.22	12.825
441.57	13.632
441.92	14.169
442.27	13.203
442.63	14.109
442.98	13.431
443.33	13.784
443.68	13.549
444.03	13.556
444.39	13.607
444.74	13.877
445.09	14.200
445.44	14.463
445.79	14.125
446.15	15.225
446.50	13.936
446.85	14.366
447.20	14.351
447.55	14.199
447.91	14.599
448.26	13.296
448.61	14.544
448.96	15.182
449.31	14.318
449.66	15.226
450.02	14.127
450.37	14.435
450.72	14.237
451.07	14.896
451.42	13.445
451.77	14.243
452.12	14.660
452.47	14.547
452.83	13.745
453.18	14.927
453.53	13.993
453.88	14.952
454.23	14.148
454.58	14.543
454.93	14.673
455.28	14.659
455.63	14.496
455.98	15.181
456.34	14.168
456.69	15.197
457.04	15.304
457.39	14.414
457.74	13.763
458.09	15.023
458.44	14.896
458.79	14.686
459.14	14.946
459.49	14.683
459.84	14.840
460.19	14.499
460.54	14.277
460.89	14.350
461.24	15.543
461.59	14.830
461.94	14.831
462.29	15.247
462.64	15.020
462.99	15.529
463.34	15.057
463.69	15.013
464.04	15.114
464.39	14.994
464.74	14.598
465.09	14.372
465.44	14.777
465.79	15.623
466.14	15.478
466.49	15.026
466.84	15.066
467.19	14.900
467.54	13.608
467.89	15.166
468.24	14.964
468.59	14.241
468.94	14.469
469.29	14.750
469.64	15.903
469.99	15.935
470.34	15.564
470.68	16.788
471.03	16.380
471.38	15.278
471.73	14.545
472.08	14.859
472.43	15.894
472.78	15.267
473.13	14.579
473.48	15.890
473.83	14.950
474.17	15.669
474.52	16.560
474.87	15.676
475.22	14.277
475.57	15.111
475.92	16.631
476.27	15.943
476.61	15.549
476.96	15.484
477.31	16.039
477.66	16.104
478.01	16.153
478.36	16.029
478.70	16.337
479.05	16.063
479.40	16.010
479.75	15.494
480.10	15.228
480.45	15.426
480.79	17.226
481.14	15.554
481.49	16.167
481.84	15.765
482.19	15.989
482.53	16.098
482.88	15.899
483.23	16.056
483.58	16.605
483.92	15.528
484.27	14.754
484.62	15.853
484.97	15.939
485.31	15.744
485.66	14.810
486.01	15.074
486.36	15.483
486.70	15.941
487.05	15.690
487.40	16.319
487.75	16.002
488.09	15.905
488.44	16.306
488.79	16.908
489.13	16.965
489.48	16.966
489.83	16.725
490.17	16.064
490.52	16.304
490.87	16.351
491.22	16.674
491.56	16.620
491.91	16.412
492.26	16.698
492.60	16.461
492.95	16.897
493.30	17.294
493.64	16.502
493.99	16.969
494.34	16.238
494.68	16.901
495.03	16.396
495.37	15.978
495.72	17.191
496.07	17.269
496.41	16.906
496.76	16.804
497.11	16.910
497.45	17.098
497.80	16.408
498.14	18.026
498.49	16.826
498.84	16.893
499.18	17.446
499.53	16.853
499.87	16.844
500.22	17.157
500.56	17.259
500.91	16.650
501.26	17.855
501.60	16.899
501.95	17.923
502.29	16.297
502.64	17.303
502.98	16.627
503.33	16.917
503.67	17.193
504.02	16.900
504.36	18.137
504.71	16.515
505.06	16.875
505.40	18.114
505.75	16.972
506.09	17.594
506.44	17.494
506.78	17.612
507.13	16.529
507.47	17.945
507.82	18.018
508.16	18.031
508.51	17.053
508.85	16.770
509.19	17.007
509.54	17.653
509.88	18.670
510.23	17.558
510.57	17.884
510.92	17.723
511.26	18.022
511.61	17.981
511.95	17.996
512.30	18.252
512.64	17.307
512.98	18.537
513.33	17.957
513.67	17.700
514.02	17.785
514.36	17.839
514.70	17.997
515.05	19.039
515.39	17.993
515.74	18.674
516.08	18.559
516.42	18.810
516.77	18.255
517.11	18.535
517.46	18.900
517.80	18.291
518.14	17.512
518.49	18.410
518.83	18.754
519.17	18.946
519.52	18.334
519.86	19.355
520.20	18.399
520.55	18.646
520.89	17.971
521.23	19.170
521.58	18.746
521.92	18.746
522.26	19.302
522.61	19.011
522.95	18.698
523.29	18.809
523.64	19.363
523.98	19.987
524.32	19.862
524.66	18.385
525.01	18.433
525.35	19.394
525.69	19.584
526.04	19.060
526.38	19.987
526.72	18.966
527.06	19.987
527.41	18.482
527.75	18.746
528.09	18.994
528.43	18.295
528.78	19.598
529.12	19.846
529.46	18.235
529.80	18.980
530.15	19.317
530.49	19.211
530.83	20.301
531.17	19.125
531.51	19.424
531.86	19.355
532.20	19.298
532.54	19.452
532.88	19.631
533.22	18.984
533.57	19.321
533.91	19.600
534.25	18.416
534.59	18.301
534.93	18.668
535.27	18.754
535.62	19.309
535.96	18.811
536.30	18.914
536.64	20.120
536.98	19.986
537.32	18.245
537.66	19.484
538.01	20.069
538.35	19.257
538.69	18.316
539.03	19.025
539.37	19.228
539.71	19.280
540.05	18.095
540.39	19.183
540.73	19.834
541.07	20.355
541.42	18.096
541.76	19.601
542.10	20.054
542.44	19.787
542.78	18.860
543.12	19.348
543.46	18.082
543.80	19.064
544.14	19.342
544.48	20.079
544.82	18.336
545.16	18.779
545.50	18.506
545.84	19.541
546.18	19.417
546.52	19.203
546.86	19.088
547.20	19.480
547.54	18.388
547.88	19.376
548.22	17.562
548.56	18.370
548.90	19.340
549.24	18.500
549.58	17.996
549.92	18.728
550.26	20.520
550.60	19.488
550.94	19.416
551.28	18.886
551.62	19.498
551.96	18.886
552.30	18.258
552.64	18.930
552.98	19.622
553.32	19.336
553.66	19.178
554.00	19.972
554.34	18.339
554.68	18.933
555.02	20.043
555.36	18.045
555.69	18.696
556.03	19.298
556.37	18.848
556.71	19.184
557.05	19.512
557.39	17.817
557.73	19.767
558.07	18.915
558.41	19.297
558.75	18.631
559.08	18.444
559.42	19.985
559.76	18.558
560.10	19.016
560.44	19.509
560.78	18.163
561.12	17.943
561.45	18.699
561.79	18.676
562.13	17.602
562.47	18.487
562.81	17.893
563.15	18.404
563.48	19.281
563.82	18.729
564.16	17.782
564.50	18.817
564.84	18.320
565.17	17.971
565.51	18.253
565.85	18.526
566.19	18.445
566.52	18.917
566.86	17.509
567.20	18.039
567.54	18.252
567.88	17.979
568.21	18.233
568.55	17.922
568.89	17.247
569.23	17.677
569.56	17.066
569.90	17.270
570.24	17.324
570.57	16.977
570.91	16.287
571.25	17.121
571.59	16.766
571.92	17.054
572.26	16.777
572.60	17.344
572.93	16.600
573.27	16.433
573.61	16.318
573.95	16.658
574.28	16.416
574.62	16.675
574.96	16.226
575.29	16.616
575.63	16.512
575.97	16.721
576.30	16.580
576.64	16.554
576.98	16.049
577.31	16.520
577.65	16.216
577.98	16.338
578.32	16.312
578.66	16.339
578.99	16.384
579.33	16.277
579.67	16.688
580.00	16.121
580.34	16.512
580.67	16.867
581.01	15.676
581.35	16.032
581.68	15.725
582.02	16.229
582.35	16.223
582.69	16.160
583.02	16.777
583.36	16.373
583.70	16.590
584.03	16.622
584.37	16.671
584.70	16.151
585.04	16.127
585.37	15.609
585.71	16.159
586.04	16.287
586.38	15.664
586.72	16.319
587.05	15.944
587.39	16.170
587.72	16.140
588.06	16.699
588.39	16.064
588.73	16.626
589.06	16.944
589.40	17.004
589.73	16.289
590.07	16.642
590.40	17.011
590.73	16.353
591.07	17.254
591.40	17.288
591.74	16.985
592.07	16.306
592.41	16.391
592.74	16.641
593.08	16.512
593.41	16.645
593.75	15.859
594.08	16.211
594.41	17.079
594.75	16.421
595.08	16.654
595.42	16.655
595.75	15.987
596.09	16.453
596.42	17.553
596.75	16.128
597.09	17.275
597.42	16.499
597.75	16.608
598.09	17.262
598.42	16.483
598.76	16.321
599.09	16.417
599.42	16.032
599.76	16.346
600.09	16.298
600.42	16.483
600.76	16.535
601.09	16.635
601.42	16.225
601.76	16.511
602.09	16.196
602.42	16.667
602.76	16.244
603.09	17.097
603.42	16.277
603.76	17.192
604.09	16.139
604.42	16.070
604.76	16.877
605.09	16.410
605.42	16.667
605.75	16.300
606.09	16.438
606.42	16.003
606.75	16.788
607.09	16.542
607.42	16.549
607.75	16.291
608.08	17.081
608.42	16.982
608.75	16.495
609.08	16.659
609.41	17.040
609.75	17.016
610.08	16.422
610.41	15.711
610.74	17.166
611.07	16.684
611.41	15.734
611.74	17.584
612.07	16.541
612.40	17.004
612.73	16.855
613.07	17.006
613.40	17.187
613.73	16.948
614.06	16.365
614.39	16.460
614.72	16.257
615.06	16.033
615.39	16.658
615.72	17.110
616.05	16.952
616.38	17.411
616.71	16.817
617.05	16.828
617.38	17.028
617.71	16.216
618.04	16.957
618.37	16.918
618.70	18.579
619.03	17.265
619.36	18.534
619.69	17.875
620.03	17.287
620.36	16.667
620.69	17.157
621.02	17.656
621.35	16.452
621.68	17.541
622.01	17.233
622.34	18.012
622.67	16.406
623.00	18.210
623.33	18.060
623.66	17.430
623.99	17.143
624.32	17.857
624.65	17.439
624.99	16.878
625.32	16.168
625.65	17.793
625.98	17.293
626.31	18.597
626.64	18.410
626.97	18.664
627.30	17.872
627.63	16.062
627.96	17.668
628.29	17.739
628.62	17.479
628.95	18.898
629.28	17.481
629.61	17.664
629.94	18.242
630.26	18.887
630.59	18.794
630.92	17.518
631.25	19.254
631.58	19.153
631.91	17.021
632.24	18.222
632.57	19.333
632.90	18.966
633.23	18.341
633.56	17.661
633.89	18.396
634.22	18.890
634.55	19.351
634.88	18.863
635.20	18.227
635.53	19.466
635.86	18.640
636.19	18.559
636.52	18.757
636.85	17.088
637.18	18.625
637.51	20.198
637.83	18.375
638.16	17.237
638.49	17.379
638.82	18.533
639.15	18.547
639.48	17.380
639.81	20.332
640.13	19.730
640.46	20.085
640.79	19.468
641.12	20.028
641.45	19.369
641.77	19.611
642.10	19.940
642.43	19.272
642.76	18.898
643.09	18.095
643.41	19.048
643.74	19.714
644.07	19.969
644.40	19.287
644.73	21.452
645.05	17.362
645.38	19.371
645.71	18.213
646.04	21.513
646.36	20.244
646.69	19.723
647.02	18.773
647.35	19.856
647.67	18.613
648.00	17.926
648.33	21.922
648.66	17.419
648.98	18.631
649.31	18.769
649.64	17.969
649.96	17.896
650.29	16.885
650.62	19.105
650.94	19.562
651.27	19.584
651.60	18.685
651.92	21.062
652.25	18.531
652.58	16.865
652.90	19.422
653.23	18.387
653.56	19.398
653.88	18.033
654.21	20.805
654.54	19.269
654.86	19.262
655.19	18.911
655.52	17.234
655.84	13.811
656.17	14.890
656.49	21.010
656.82	22.325
657.15	17.210
657.47	12.679
657.80	9.735
658.13	11.439
658.45	15.824
658.78	15.578
659.10	16.015
659.43	16.075
659.75	16.601
660.08	16.927
660.41	17.239
660.73	17.382
661.06	19.420
661.38	19.643
661.71	20.268
662.03	18.347
662.36	21.535
662.68	19.620
663.01	21.868
663.33	20.635
663.66	21.459
663.98	18.304
664.31	20.358
664.63	20.796
664.96	20.174
665.28	18.872
665.61	18.393
665.93	21.193
666.26	21.255
666.58	20.582
666.91	18.486
667.23	19.518
667.56	19.274
667.88	20.588
668.21	17.281
668.53	17.757
668.86	19.861
669.18	18.721
669.50	21.262
669.83	17.032
670.15	20.179
670.48	17.290
670.80	20.729
671.13	16.704
671.45	19.595
671.77	19.272
672.10	19.329
672.42	18.266
672.75	19.091
673.07	15.856
673.39	19.672
673.72	18.701
674.04	16.773
674.37	17.732
674.69	19.672
675.01	19.574
675.34	16.486
675.66	20.734
675.98	19.163
676.31	22.624
676.63	19.540
676.95	18.142
677.28	19.490
677.60	18.778
677.92	21.586
678.25	17.724
678.57	19.959
678.89	19.287
679.22	16.981
679.54	19.527
679.86	14.200
680.18	18.061
680.51	16.946
680.83	18.667
681.15	17.341
681.48	19.473
681.80	18.145
682.12	18.109
682.44	18.664
682.77	16.450
683.09	20.545
683.41	22.345
683.73	17.352
684.06	17.634
684.38	19.038
684.70	16.667
685.02	16.929
685.34	14.815
685.67	15.720
685.99	16.257
686.31	18.671
686.63	17.021
686.96	17.375
687.28	16.378
687.60	15.625
687.92	17.510
688.24	17.717
688.56	19.639
688.89	17.308
689.21	19.256
689.53	19.770
689.85	18.931
690.17	14.574
690.49	18.707
690.82	15.422
691.14	16.274
691.46	17.517
691.78	16.740
692.10	18.220
692.42	16.000
692.74	18.026
693.06	18.427
693.39	16.107
693.71	15.350
694.03	18.575
694.35	16.930
694.67	16.312
694.99	16.368
695.31	18.367
695.63	17.347
695.95	18.859
696.27	17.456
696.59	18.182
696.91	17.697
697.23	21.615
697.56	18.269
697.88	16.441
698.20	16.916
698.52	15.022
698.84	18.932
699.16	16.429
699.48	17.000
699.80	16.541
700.12	21.159
700.44	17.039
700.76	15.160
701.08	20.930
701.40	14.804
701.72	15.123
702.04	18.269
702.36	20.181
702.68	17.066
703.00	15.072
703.32	16.905
703.64	18.824
703.96	16.279
704.28	17.456
704.60	16.456
704.91	12.381
705.23	17.476
705.55	15.878
705.87	20.137
706.19	12.500
706.51	15.278
706.83	20.328
707.15	16.561
707.47	17.080
707.79	14.175
708.11	13.740
708.43	15.960
708.74	14.026
709.06	15.042
709.38	16.667
709.70	18.125
710.02	21.166
710.34	13.861
710.66	13.333
710.98	18.927
711.29	13.226
711.61	15.016
711.93	18.689
712.25	18.272
712.57	17.073
712.89	17.626
713.20	21.993
713.52	15.299
713.84	19.929
714.16	18.033
714.48	16.508
714.80	16.000
715.11	15.850
715.43	18.976
715.75	17.134
716.07	14.098
716.39	18.729
716.70	22.300
717.02	18.519
717.34	14.885
717.66	18.257
717.97	12.705
718.29	15.126
718.61	17.857
718.93	17.921
719.24	12.868
719.56	12.453
719.88	19.636
720.20	16.479
720.51	16.541
720.83	12.450
721.15	16.393
721.46	17.255
721.78	14.176
722.10	15.200
722.42	14.463
722.73	17.928
723.05	18.876
723.37	19.216
723.68	11.741
724.00	17.886
724.32	20.165
724.63	16.598
724.95	19.835
725.27	15.351
725.58	12.500
725.90	12.302
726.22	13.653
726.53	15.209
726.85	6.667
727.16	16.541
727.48	15.769
727.80	14.754
728.11	13.025
728.43	14.463
728.74	20.703
729.06	16.288
729.38	16.732
729.69	12.205
730.01	16.535
730.32	13.546
730.64	23.077
730.96	16.791
731.27	14.286
731.59	15.113
731.90	17.178
732.22	15.031
732.53	17.219
732.85	13.758
733.16	18.116
733.48	12.544
733.80	11.032
734.11	13.793
734.43	14.966
734.74	16.617
735.06	11.912
735.37	11.621
735.69	13.548
736.00	11.448
736.32	15.563
736.63	11.724
736.95	12.319
737.26	17.219
737.58	12.590
737.89	13.262
738.21	14.286
738.52	13.462
738.83	12.500
739.15	11.538
739.46	19.758
739.78	15.035
740.09	15.734
740.41	12.238
740.72	15.693
741.04	15.079
741.35	11.255
741.66	22.222
741.98	10.000
742.29	18.779
742.61	18.717
742.92	18.224
743.23	17.982
743.55	15.315
743.86	20.000
744.18	11.905
744.49	17.241
744.80	16.244
745.12	9.278
745.43	11.558
745.74	19.417
746.06	16.098
746.37	20.705
746.68	16.915
747.00	15.707
747.31	11.538
747.62	11.521
747.94	15.284
748.25	11.163
748.56	18.571
748.88	10.326
749.19	15.962
749.50	22.549
749.82	22.222
750.13	19.824
750.44	15.041
750.75	16.400
751.07	16.786
751.38	11.808
751.69	11.069
752.01	17.308
752.32	14.786
752.63	11.538
752.94	14.286
753.26	11.304
753.57	16.518
753.88	14.655
754.19	14.938
754.51	19.922
754.82	16.996
755.13	13.169
755.44	19.421
755.75	19.753
756.07	9.639
756.38	14.453
756.69	12.274
757.00	13.589
757.31	12.752
757.63	16.511
757.94	14.162
758.25	18.023
758.56	19.407
758.87	13.636
759.18	12.000
759.50	15.302
759.81	8.394
760.12	12.500
760.43	15.210
760.74	12.812
761.05	15.449
761.36	16.168
761.67	14.201
761.99	15.806
762.30	15.942
762.61	17.358
762.92	13.453
763.23	16.114
763.54	16.444
763.85	17.722
764.16	18.776
764.47	15.254
764.78	16.105
765.10	14.388
765.41	11.613
765.72	13.522
766.03	7.774
766.34	9.774
766.65	12.551
766.96	13.500
767.27	20.312
767.58	16.860
767.89	10.323
768.20	14.724
768.51	13.115
768.82	18.919
769.13	9.000
769.44	11.842
769.75	10.390
770.06	15.596
770.37	15.023
770.68	14.583
770.99	11.881
771.30	16.505
771.61	16.204
771.92	11.255
772.23	11.682
772.54	8.511
772.85	11.243
773.16	17.683
773.47	14.458
773.78	15.385
774.09	7.333
774.39	8.642
774.70	11.409
775.01	9.420
775.32	13.433
775.63	1.653
775.94	24.812
776.25	11.429
776.56	9.016
776.87	17.699
777.18	15.044
777.48	6.364
777.79	11.304
778.10	11.009
778.41	11.864
778.72	8.264
779.03	15.672
779.34	10.526
779.65	15.033
779.95	16.667
780.26	6.122
780.57	2.586
780.88	11.111
781.19	2.020
781.50	6.400
781.80	5.229
782.11	12.821
782.42	16.265
782.73	8.029
783.04	12.838
783.34	13.636
783.65	5.426
783.96	13.821
784.27	11.966
784.57	10.569
784.88	7.317
785.19	13.158
785.50	8.247
785.81	9.524
786.11	5.882
786.42	1.818
786.73	15.315
787.04	14.851
787.34	11.429
787.65	4.762
787.96	5.882
788.26	16.216
788.57	15.323
788.88	8.594
789.19	5.983
789.49	10.924
789.80	8.547
790.11	24.779
790.41	4.040
790.72	15.094
791.03	8.333
791.33	-7.895
791.64	19.355
791.95	10.667
792.25	-12.857
792.56	14.634
792.87	12.245
793.17	6.579
793.48	-1.351
793.79	-5.634
794.09	6.329
794.40	11.702
794.70	11.215
795.01	3.509
795.32	3.636
795.62	14.286
795.93	4.124
796.23	9.890
796.54	7.368
796.85	2.740
797.15	-9.722
797.46	-1.370
797.76	5.634
798.07	10.000
798.37	16.176
798.68	7.143
798.99	1.429
799.29	15.789
799.60	8.333
799.90	-5.556
800.21	6.250
800.51	-1.587
800.82	3.279
801.12	0.000
801.43	7.042
801.73	-8.475
802.04	18.033
802.34	-1.818
802.65	-17.308
802.95	-3.704
803.26	-22.500
803.56	1.923
803.87	-10.526
804.17	11.290
804.48	29.231
804.78	-25.641
805.09	-11.628
805.39	-37.500
805.70	-15.094
806.00	28.070
806.30	22.973
806.61	14.706
806.91	11.111
807.22	4.000
807.52	0.000
807.83	-6.452
808.13	9.524
808.43	-9.091
808.74	18.182
809.04	-1.887
809.35	1.370
809.65	1.754
809.95	8.824
810.26	-3.922
810.56	6.000
810.86	-8.163
811.17	-42.857
811.47	-7.692
811.77	-25.806
812.08	-34.211
812.38	4.762
812.69	4.348
812.99	-35.484
813.29	-23.810
813.59	-44.444
813.90	14.894
814.20	-16.279
814.50	-22.917
814.81	-16.667
815.11	0.000
815.41	-26.667
815.72	8.571
816.02	-27.778
816.32	2.564
816.62	-32.432
816.93	-8.824
817.23	10.870
817.53	-44.118
817.84	-17.647
818.14	-53.125
818.44	-34.483
818.74	-19.355
819.04	-48.148
819.35	-13.333
819.65	-52.000
819.95	-30.000
820.25	-16.000
820.56	-21.053
820.86	-10.000
821.16	25.532
821.46	0.000
821.76	-12.821
822.07	-37.500
822.37	2.326
822.67	-13.333
822.97	-13.514
823.27	2.703
823.57	8.000
823.88	10.811
824.18	-52.381
824.48	0.000
824.78	-76.923
825.08	-17.391
825.38	-8.333
825.69	-8.333
825.99	-65.000
826.29	-24.324
826.59	0.000
826.89	-24.000
827.19	-20.000
827.49	5.263
827.79	-34.375
828.09	-23.333
828.39	-30.435
828.70	-48.276
829.00	-31.034
829.30	5.556
829.60	-3.125
829.90	-72.222
830.20	-30.769
830.50	-90.476
830.80	-28.571
831.10	-10.256
831.40	-28.571
831.70	-5.882
832.00	0.000
832.30	-47.368
832.60	-6.250
832.90	-75.000
833.20	-111.765
833.50	-93.333
833.80	-93.333
834.10	-65.000
834.40	-25.000
834.70	-22.222
835.00	-42.308
835.30	-45.833
835.60	-6.897
835.90	-88.889
836.20	-90.909
836.50	-125.000
836.80	11.429
837.10	0.000
837.40	-52.941
837.70	-109.091
838.00	4.167
838.30	-12.500
838.60	19.048
838.90	-25.000
839.19	-30.435
839.49	-26.087
839.79	-61.111
840.09	-52.174
840.39	-45.455
840.69	-100.000
840.99	5.263
841.29	-93.750
841.59	-21.429
841.88	-105.556
842.18	-12.500
842.48	-23.529
842.78	-41.379
843.08	-78.571
843.38	-38.462
843.68	-100.000
843.97	-46.154
844.27	-190.909
844.57	-260.000
844.87	0.000
845.17	-240.000
845.47	-85.714
845.76	-133.333
846.06	0.000
846.36	-325.000
846.66	-160.000
846.96	-21.053
847.25	-12.500
847.55	-108.333
847.85	-13.333
848.15	-140.000
848.44	-3.846
848.74	0.000
849.04	533.333
849.34	-177.778
849.63	-68.421
849.93	0.000
850.23	-25.000
850.53	-57.143
850.82	-12.000
851.12	-10.526
851.42	-700.000
851.71	-14.286
852.01	-116.667
852.31	17.647
852.61	-20.000
852.90	-52.381
853.20	-366.667
853.50	33.333
853.79	-52.632
854.09	-66.667
854.39	3.571
854.68	-43.478
854.98	-200.000
855.28	6.897
855.57	-131.250
855.87	-5.000
856.17	-26.667
856.46	-31.034
856.76	-160.000
857.05	-117.647
857.35	-176.923
857.65	-118.182
857.94	-33.333
858.24	-164.286
858.53	-64.286
858.83	-91.667
859.13	-122.222
859.42	9.524
859.72	-200.000
860.01	-500.000
860.31	-200.000
860.60	-520.000
860.90	-144.444
861.20	-237.500
861.49	-257.143
861.79	-17.647
862.08	-850.000
862.38	-75.000
862.67	-76.923
862.97	-17.647
863.26	35.000
863.56	-58.824
863.85	733.333
864.15	-110.000
864.44	-107.692
864.74	40.000
865.03	-262.500
865.33	-300.000
865.62	-52.941
865.92	-400.000
866.21	-57.143
866.51	-83.333
866.80	-2200.000
867.10	-400.000
867.39	11.765
867.69	39.130
867.98	-71.429
868.27	-300.000
868.57	-87.500
868.86	-118.182
869.16	-23.529
869.45	-283.333
869.75	-214.286
870.04	1700.000
870.33	0.000
870.63	-100.000
870.92	-55.556
871.22	-100.000
871.51	-136.364
871.80	-58.333
872.10	-160.000
>>>>>End Processed Spectral Data<<<<<
