SpectraSuite Data File
++++++++++++++++++++++++++++++++++++
Date: Sat May 16 11:42:20 PDT 2015
User: schluterlab
Dark Spectrum Present: Yes
Reference Spectrum Present: Yes
Number of Sampled Component Spectra: 1
Spectrometers: USB2E3373
Integration Time (usec): 3000 (USB2E3373)
Spectra Averaged: 3 (USB2E3373)
Boxcar Smoothing: 0 (USB2E3373)
Correct for Electrical Dark: No (USB2E3373)
Strobe/Lamp Enabled: No (USB2E3373)
Correct for Detector Non-linearity: No (USB2E3373)
Correct for Stray Light: No (USB2E3373)
Number of Pixels in Processed Spectrum: 2048
>>>>>Begin Processed Spectral Data<<<<<
178.53	0.000
178.91	106.667
179.29	533.333
179.67	-100.000
180.04	-46.154
180.42	1300.000
180.80	275.000
181.18	500.000
181.56	-50.000
181.94	900.000
182.31	425.000
182.69	-30.769
183.07	-1000.000
183.45	1600.000
183.83	633.333
184.20	-228.571
184.58	-175.000
184.96	-525.000
185.34	100.000
185.72	-250.000
186.09	233.333
186.47	-262.500
186.85	-112.500
187.23	-212.500
187.61	-25.000
187.98	-400.000
188.36	-75.000
188.74	-87.500
189.12	2400.000
189.49	285.714
189.87	-150.000
190.25	500.000
190.63	-50.000
191.00	-188.889
191.38	560.000
191.76	-6.667
192.14	500.000
192.51	-280.000
192.89	-466.667
193.27	0.000
193.65	-166.667
194.02	-328.571
194.40	333.333
194.78	-90.000
195.15	-1700.000
195.53	-200.000
195.91	-300.000
196.29	240.000
196.66	-533.333
197.04	2100.000
197.42	-125.000
197.79	6.667
198.17	-366.667
198.55	-500.000
198.92	-800.000
199.30	187.500
199.68	-750.000
200.05	-277.778
200.43	-166.667
200.81	-1700.000
201.18	-75.000
201.56	257.143
201.94	-26.667
202.31	-13.636
202.69	70.000
203.07	-120.000
203.44	333.333
203.82	-333.333
204.19	-425.000
204.57	-200.000
204.95	-1600.000
205.32	-81.250
205.70	1100.000
206.08	-1800.000
206.45	-44.444
206.83	-650.000
207.20	200.000
207.58	-366.667
207.96	-666.667
208.33	-150.000
208.71	-188.889
209.08	260.000
209.46	-214.286
209.84	600.000
210.21	0.000
210.59	20.000
210.96	600.000
211.34	-366.667
211.71	-433.333
212.09	300.000
212.46	1100.000
212.84	-3100.000
213.22	533.333
213.59	183.333
213.97	55.556
214.34	100.000
214.72	-100.000
215.09	-300.000
215.47	-316.667
215.84	-70.000
216.22	-180.000
216.59	-13.333
216.97	-550.000
217.34	800.000
217.72	-185.714
218.09	-266.667
218.47	-185.714
218.84	185.714
219.22	-14.286
219.59	0.000
219.97	242.857
220.34	325.000
220.72	175.000
221.09	-115.385
221.47	0.000
221.84	300.000
222.22	-800.000
222.59	1300.000
222.97	-162.500
223.34	-900.000
223.72	-533.333
224.09	-85.714
224.46	-25.000
224.84	-157.143
225.21	-185.714
225.59	-118.182
225.96	-150.000
226.34	-271.429
226.71	-188.889
227.08	-40.000
227.46	2000.000
227.83	-200.000
228.21	-225.000
228.58	650.000
228.95	-43.750
229.33	-1400.000
229.70	-300.000
230.08	-1050.000
230.45	-16.667
230.82	-66.667
231.20	-1400.000
231.57	-650.000
231.95	1300.000
232.32	-28.571
232.69	-200.000
233.07	-300.000
233.44	-1150.000
233.81	-80.000
234.19	-133.333
234.56	-50.000
234.93	12.500
235.31	-200.000
235.68	-92.857
236.05	-70.588
236.43	-100.000
236.80	-51.613
237.17	-41.667
237.55	-61.905
237.92	-31.818
238.29	-37.143
238.67	-8.824
239.04	-2.778
239.41	-25.806
239.79	-69.231
240.16	-19.048
240.53	-7.273
240.91	5.128
241.28	-7.273
241.65	9.231
242.02	-3.279
242.40	4.918
242.77	-13.636
243.14	-13.559
243.51	-24.286
243.89	-1.266
244.26	-10.112
244.63	9.474
245.00	1.053
245.38	2.542
245.75	8.850
246.12	3.200
246.49	7.874
246.87	0.813
247.24	-1.695
247.61	1.695
247.98	7.042
248.36	-4.196
248.73	6.962
249.10	-2.548
249.47	2.924
249.84	5.114
250.22	1.786
250.59	11.864
250.96	4.712
251.33	10.427
251.70	7.212
252.08	6.635
252.45	6.635
252.82	2.381
253.19	5.532
253.56	5.242
253.94	4.641
254.31	3.433
254.68	5.691
255.05	7.258
255.42	9.921
255.79	5.735
256.16	8.627
256.54	8.088
256.91	6.439
257.28	3.663
257.65	6.028
258.02	10.377
258.39	4.682
258.76	7.095
259.14	9.259
259.51	8.852
259.88	9.146
260.25	11.180
260.62	5.788
260.99	6.231
261.36	6.098
261.73	9.827
262.10	10.000
262.47	9.117
262.85	10.857
263.22	10.888
263.59	3.385
263.96	10.145
264.33	9.756
264.70	8.840
265.07	8.791
265.44	9.302
265.81	8.527
266.18	5.063
266.55	10.049
266.92	10.076
267.29	10.412
267.66	10.370
268.03	10.386
268.40	6.573
268.77	8.916
269.14	9.745
269.51	8.506
269.88	6.193
270.25	6.061
270.62	9.840
270.99	9.234
271.36	8.159
271.73	8.520
272.10	6.636
272.47	5.556
272.84	9.556
273.21	5.275
273.58	9.670
273.95	6.579
274.32	7.014
274.69	7.221
275.06	6.748
275.43	7.366
275.80	10.794
276.17	6.904
276.54	9.776
276.91	8.025
277.28	6.288
277.65	9.298
278.02	8.977
278.39	9.627
278.76	7.171
279.13	8.103
279.50	7.356
279.87	7.400
280.23	7.895
280.60	6.561
280.97	6.602
281.34	7.737
281.71	8.269
282.08	8.871
282.45	5.499
282.82	6.395
283.19	9.455
283.56	9.341
283.92	6.714
284.29	7.807
284.66	8.633
285.03	8.021
285.40	7.011
285.77	7.895
286.14	7.942
286.51	7.638
286.87	8.348
287.24	10.580
287.61	8.099
287.98	9.185
288.35	7.438
288.72	6.621
289.08	5.254
289.45	8.418
289.82	6.228
290.19	10.016
290.56	5.124
290.93	4.769
291.29	7.293
291.66	5.153
292.03	9.576
292.40	7.681
292.77	7.298
293.13	7.480
293.50	6.538
293.87	7.669
294.24	7.240
294.60	5.909
294.97	8.042
295.34	5.778
295.71	7.589
296.08	5.837
296.44	4.721
296.81	6.980
297.18	5.634
297.55	7.486
297.91	9.484
298.28	5.479
298.65	6.416
299.02	8.021
299.38	6.952
299.75	6.386
300.12	5.513
300.48	6.394
300.85	6.684
301.22	5.821
301.59	5.982
301.95	8.186
302.32	4.302
302.69	7.222
303.05	5.739
303.42	5.625
303.79	6.938
304.15	7.346
304.52	7.351
304.89	6.375
305.25	5.372
305.62	7.403
305.99	7.420
306.35	7.214
306.72	6.606
307.09	6.356
307.45	7.037
307.82	6.816
308.19	6.935
308.55	6.863
308.92	5.800
309.29	6.703
309.65	6.575
310.02	6.371
310.38	5.297
310.75	7.992
311.12	7.645
311.48	8.038
311.85	6.900
312.22	7.724
312.58	8.138
312.95	6.932
313.31	7.592
313.68	7.940
314.05	8.605
314.41	6.640
314.78	6.993
315.14	7.700
315.51	8.207
315.87	8.422
316.24	8.552
316.61	8.445
316.97	7.562
317.34	8.478
317.70	6.957
318.07	8.582
318.43	7.959
318.80	9.108
319.16	7.692
319.53	7.989
319.89	7.244
320.26	7.059
320.62	6.731
320.99	8.259
321.35	6.897
321.72	7.881
322.08	7.517
322.45	8.119
322.81	9.030
323.18	8.165
323.54	8.965
323.91	8.341
324.27	10.171
324.64	9.415
325.00	9.599
325.37	10.045
325.73	10.761
326.10	7.706
326.46	8.669
326.83	9.277
327.19	9.591
327.56	11.584
327.92	10.705
328.29	10.476
328.65	8.909
329.01	10.424
329.38	10.080
329.74	10.348
330.11	9.610
330.47	9.809
330.84	11.366
331.20	9.747
331.56	8.751
331.93	10.835
332.29	10.046
332.66	11.765
333.02	10.136
333.38	10.842
333.75	11.487
334.11	11.289
334.48	10.591
334.84	12.161
335.20	11.348
335.57	11.011
335.93	12.802
336.29	10.717
336.66	10.485
337.02	12.072
337.38	12.299
337.75	11.150
338.11	12.522
338.47	11.210
338.84	11.525
339.20	11.511
339.56	12.478
339.93	11.817
340.29	11.692
340.65	11.276
341.02	13.069
341.38	11.879
341.74	12.278
342.11	12.287
342.47	11.845
342.83	11.167
343.20	11.358
343.56	11.184
343.92	12.855
344.28	11.859
344.65	11.964
345.01	11.849
345.37	12.625
345.73	12.029
346.10	10.466
346.46	11.535
346.82	11.387
347.19	11.422
347.55	11.075
347.91	12.205
348.27	11.376
348.63	12.359
349.00	12.013
349.36	10.773
349.72	12.182
350.08	12.350
350.45	11.820
350.81	12.261
351.17	11.174
351.53	10.660
351.89	11.237
352.26	12.093
352.62	13.441
352.98	12.816
353.34	12.390
353.70	11.197
354.07	12.982
354.43	12.806
354.79	11.965
355.15	12.061
355.51	11.875
355.87	11.779
356.24	11.517
356.60	13.135
356.96	12.933
357.32	11.797
357.68	13.027
358.04	13.318
358.40	12.065
358.77	12.983
359.13	12.242
359.49	12.245
359.85	12.652
360.21	12.024
360.57	13.027
360.93	12.593
361.29	12.930
361.66	12.271
362.02	11.391
362.38	13.206
362.74	12.894
363.10	12.339
363.46	13.533
363.82	12.901
364.18	12.084
364.54	14.224
364.90	12.020
365.26	11.626
365.62	13.471
365.98	14.154
366.35	13.028
366.71	12.403
367.07	13.338
367.43	14.001
367.79	13.814
368.15	12.233
368.51	14.266
368.87	13.874
369.23	13.965
369.59	13.819
369.95	14.094
370.31	13.783
370.67	13.232
371.03	13.703
371.39	13.083
371.75	13.877
372.11	13.702
372.47	14.244
372.83	13.978
373.19	13.643
373.55	13.723
373.91	13.514
374.27	13.621
374.63	14.148
374.99	13.839
375.35	14.199
375.71	14.450
376.07	13.415
376.42	12.980
376.78	14.444
377.14	13.831
377.50	14.055
377.86	14.174
378.22	14.510
378.58	13.897
378.94	13.933
379.30	14.381
379.66	14.815
380.02	13.547
380.38	14.562
380.74	14.185
381.09	15.290
381.45	14.379
381.81	14.338
382.17	14.662
382.53	14.164
382.89	14.294
383.25	14.570
383.61	15.153
383.97	14.942
384.32	14.831
384.68	15.719
385.04	14.372
385.40	14.364
385.76	15.183
386.12	14.803
386.48	15.285
386.83	14.663
387.19	15.182
387.55	14.173
387.91	14.938
388.27	13.872
388.62	14.844
388.98	14.718
389.34	15.177
389.70	14.738
390.06	14.854
390.42	14.808
390.77	15.331
391.13	14.969
391.49	15.159
391.85	15.711
392.20	14.442
392.56	15.211
392.92	15.573
393.28	15.327
393.64	14.913
393.99	16.000
394.35	15.328
394.71	15.318
395.07	14.815
395.42	14.005
395.78	15.273
396.14	15.327
396.50	14.557
396.85	15.052
397.21	15.978
397.57	15.441
397.92	15.691
398.28	15.278
398.64	16.002
399.00	16.180
399.35	15.840
399.71	15.854
400.07	16.000
400.42	16.180
400.78	15.086
401.14	15.210
401.49	15.566
401.85	15.741
402.21	15.971
402.57	16.626
402.92	15.733
403.28	16.238
403.63	15.758
403.99	15.724
404.35	15.700
404.70	16.735
405.06	16.032
405.42	15.990
405.77	15.441
406.13	16.241
406.49	16.297
406.84	15.777
407.20	17.138
407.55	16.593
407.91	15.933
408.27	17.892
408.62	16.536
408.98	16.677
409.34	16.271
409.69	15.816
410.05	16.374
410.40	17.167
410.76	16.242
411.11	16.521
411.47	16.944
411.83	17.604
412.18	16.955
412.54	16.718
412.89	16.950
413.25	16.293
413.60	16.403
413.96	16.081
414.31	17.554
414.67	16.381
415.03	16.041
415.38	16.721
415.74	16.881
416.09	17.391
416.45	16.071
416.80	17.035
417.16	16.944
417.51	17.728
417.87	16.699
418.22	17.699
418.58	17.715
418.93	18.148
419.29	17.189
419.64	16.897
420.00	17.861
420.35	16.440
420.71	17.227
421.06	17.396
421.42	16.920
421.77	16.918
422.12	17.403
422.48	16.996
422.83	17.711
423.19	16.982
423.54	17.925
423.90	17.525
424.25	16.912
424.61	18.034
424.96	18.432
425.31	17.216
425.67	17.822
426.02	17.212
426.38	18.572
426.73	17.300
427.09	17.525
427.44	17.670
427.79	17.849
428.15	18.552
428.50	18.358
428.85	16.847
429.21	17.543
429.56	18.333
429.92	18.437
430.27	18.146
430.62	18.025
430.98	17.669
431.33	17.503
431.68	18.445
432.04	18.299
432.39	17.778
432.74	18.046
433.10	17.614
433.45	18.020
433.80	18.533
434.16	18.055
434.51	18.247
434.86	18.864
435.22	18.318
435.57	17.503
435.92	18.230
436.28	18.101
436.63	18.146
436.98	18.099
437.34	19.433
437.69	18.786
438.04	18.491
438.39	19.735
438.75	18.161
439.10	18.545
439.45	18.165
439.81	18.193
440.16	18.853
440.51	18.882
440.86	18.971
441.22	19.182
441.57	18.684
441.92	18.465
442.27	18.777
442.63	18.777
442.98	18.397
443.33	19.055
443.68	19.072
444.03	18.517
444.39	18.551
444.74	19.273
445.09	18.695
445.44	18.908
445.79	19.633
446.15	19.496
446.50	18.998
446.85	18.881
447.20	18.948
447.55	18.398
447.91	20.045
448.26	19.665
448.61	18.563
448.96	19.384
449.31	18.433
449.66	18.890
450.02	18.504
450.37	18.841
450.72	19.435
451.07	20.365
451.42	19.083
451.77	20.108
452.12	19.428
452.47	20.025
452.83	19.453
453.18	19.671
453.53	19.963
453.88	20.933
454.23	19.710
454.58	21.131
454.93	20.529
455.28	19.949
455.63	19.963
455.98	20.542
456.34	19.123
456.69	20.013
457.04	20.467
457.39	19.258
457.74	20.437
458.09	20.592
458.44	21.247
458.79	19.843
459.14	20.764
459.49	19.716
459.84	19.899
460.19	20.644
460.54	20.508
460.89	19.899
461.24	20.097
461.59	20.106
461.94	20.560
462.29	20.488
462.64	20.290
462.99	21.954
463.34	21.540
463.69	20.738
464.04	19.801
464.39	20.311
464.74	19.563
465.09	20.204
465.44	20.361
465.79	21.207
466.14	20.253
466.49	20.380
466.84	21.188
467.19	20.761
467.54	19.873
467.89	20.777
468.24	20.784
468.59	20.175
468.94	20.643
469.29	19.688
469.64	21.631
469.99	21.337
470.34	21.443
470.68	21.584
471.03	20.922
471.38	19.931
471.73	20.979
472.08	19.813
472.43	20.592
472.78	21.400
473.13	20.808
473.48	21.059
473.83	20.596
474.17	20.573
474.52	22.698
474.87	21.795
475.22	20.944
475.57	21.333
475.92	21.544
476.27	21.314
476.61	21.746
476.96	21.297
477.31	21.152
477.66	21.306
478.01	21.826
478.36	21.215
478.70	21.997
479.05	21.201
479.40	21.399
479.75	21.407
480.10	20.635
480.45	20.406
480.79	21.471
481.14	22.178
481.49	21.684
481.84	21.822
482.19	21.882
482.53	21.638
482.88	20.693
483.23	21.737
483.58	21.323
483.92	21.261
484.27	21.577
484.62	20.648
484.97	20.616
485.31	20.448
485.66	19.486
486.01	19.853
486.36	20.500
486.70	20.809
487.05	21.065
487.40	20.299
487.75	20.999
488.09	20.754
488.44	20.805
488.79	21.118
489.13	20.997
489.48	21.697
489.83	21.397
490.17	21.724
490.52	21.603
490.87	21.478
491.22	22.279
491.56	21.389
491.91	21.994
492.26	21.604
492.60	21.551
492.95	22.656
493.30	21.296
493.64	21.063
493.99	21.893
494.34	21.905
494.68	23.081
495.03	21.654
495.37	22.124
495.72	22.299
496.07	21.868
496.41	23.020
496.76	21.553
497.11	22.233
497.45	22.653
497.80	22.611
498.14	21.955
498.49	22.099
498.84	22.087
499.18	22.271
499.53	22.358
499.87	22.104
500.22	22.059
500.56	22.511
500.91	22.315
501.26	22.271
501.60	21.618
501.95	22.899
502.29	22.107
502.64	22.961
502.98	22.233
503.33	22.603
503.67	21.791
504.02	22.115
504.36	21.912
504.71	22.594
505.06	22.017
505.40	23.303
505.75	22.612
506.09	22.042
506.44	22.206
506.78	22.579
507.13	22.194
507.47	22.900
507.82	23.283
508.16	22.953
508.51	21.896
508.85	22.930
509.19	22.606
509.54	23.679
509.88	23.032
510.23	23.008
510.57	23.810
510.92	24.329
511.26	22.967
511.61	23.218
511.95	22.522
512.30	23.364
512.64	22.593
512.98	22.552
513.33	23.229
513.67	23.786
514.02	23.434
514.36	22.825
514.70	23.090
515.05	23.899
515.39	22.837
515.74	25.247
516.08	22.997
516.42	23.796
516.77	23.455
517.11	23.112
517.46	23.804
517.80	23.406
518.14	23.188
518.49	23.730
518.83	23.205
519.17	24.038
519.52	23.655
519.86	22.999
520.20	23.900
520.55	23.508
520.89	23.795
521.23	23.565
521.58	23.009
521.92	24.003
522.26	22.984
522.61	23.257
522.95	23.612
523.29	23.386
523.64	23.298
523.98	24.570
524.32	25.141
524.66	24.596
525.01	23.507
525.35	24.678
525.69	24.268
526.04	23.564
526.38	23.934
526.72	23.819
527.06	24.805
527.41	24.950
527.75	24.290
528.09	24.619
528.43	24.197
528.78	24.246
529.12	24.648
529.46	24.098
529.80	24.338
530.15	24.276
530.49	24.256
530.83	24.492
531.17	23.232
531.51	24.113
531.86	24.621
532.20	23.752
532.54	25.401
532.88	24.308
533.22	23.997
533.57	24.608
533.91	23.908
534.25	23.759
534.59	23.360
534.93	23.024
535.27	23.914
535.62	23.529
535.96	24.047
536.30	23.298
536.64	24.037
536.98	24.718
537.32	23.566
537.66	23.829
538.01	24.055
538.35	25.068
538.69	23.329
539.03	24.035
539.37	23.353
539.71	24.550
540.05	24.332
540.39	23.476
540.73	25.017
541.07	25.205
541.42	22.485
541.76	23.056
542.10	24.510
542.44	23.651
542.78	24.220
543.12	24.033
543.46	22.466
543.80	22.341
544.14	23.573
544.48	24.081
544.82	23.342
545.16	24.748
545.50	22.948
545.84	25.174
546.18	23.856
546.52	22.546
546.86	24.145
547.20	24.473
547.54	23.416
547.88	22.827
548.22	22.215
548.56	23.447
548.90	22.574
549.24	24.457
549.58	24.065
549.92	23.463
550.26	24.855
550.60	24.253
550.94	24.526
551.28	24.831
551.62	24.225
551.96	23.372
552.30	24.321
552.64	23.856
552.98	24.107
553.32	23.665
553.66	23.792
554.00	24.307
554.34	24.260
554.68	23.977
555.02	24.602
555.36	24.083
555.69	22.923
556.03	24.140
556.37	23.898
556.71	25.054
557.05	23.577
557.39	23.905
557.73	24.581
558.07	24.265
558.41	24.009
558.75	23.422
559.08	23.969
559.42	24.579
559.76	23.620
560.10	23.788
560.44	24.422
560.78	23.382
561.12	23.602
561.45	24.589
561.79	24.390
562.13	24.053
562.47	24.160
562.81	23.267
563.15	24.003
563.48	22.806
563.82	22.786
564.16	22.380
564.50	24.059
564.84	24.272
565.17	24.204
565.51	23.598
565.85	24.814
566.19	24.506
566.52	23.483
566.86	22.630
567.20	24.213
567.54	23.509
567.88	22.725
568.21	22.931
568.55	22.694
568.89	21.720
569.23	22.536
569.56	21.396
569.90	22.148
570.24	21.345
570.57	20.598
570.91	21.285
571.25	21.109
571.59	21.230
571.92	21.131
572.26	20.641
572.60	20.912
572.93	21.276
573.27	20.488
573.61	20.161
573.95	21.261
574.28	20.274
574.62	20.819
574.96	20.364
575.29	20.630
575.63	20.281
575.97	19.930
576.30	20.170
576.64	20.705
576.98	20.279
577.31	19.976
577.65	20.174
577.98	20.282
578.32	19.975
578.66	20.141
578.99	20.349
579.33	20.774
579.67	20.492
580.00	20.461
580.34	20.377
580.67	20.226
581.01	19.676
581.35	20.345
581.68	20.000
582.02	20.305
582.35	19.924
582.69	20.125
583.02	20.027
583.36	20.114
583.70	19.995
584.03	20.232
584.37	20.054
584.70	20.460
585.04	20.203
585.37	20.286
585.71	19.981
586.04	20.162
586.38	19.968
586.72	20.349
587.05	20.476
587.39	20.650
587.72	20.520
588.06	20.715
588.39	20.649
588.73	20.911
589.06	20.460
589.40	21.367
589.73	20.892
590.07	20.539
590.40	21.402
590.73	21.112
591.07	21.230
591.40	21.707
591.74	21.764
592.07	21.261
592.41	21.019
592.74	21.176
593.08	21.009
593.41	19.441
593.75	20.574
594.08	20.992
594.41	21.627
594.75	20.876
595.08	19.850
595.42	20.809
595.75	20.360
596.09	21.343
596.42	21.072
596.75	20.914
597.09	21.371
597.42	21.039
597.75	20.416
598.09	21.464
598.42	21.432
598.76	20.224
599.09	20.718
599.42	20.723
599.76	20.838
600.09	20.916
600.42	21.117
600.76	20.603
601.09	20.395
601.42	20.340
601.76	21.612
602.09	20.695
602.42	20.700
602.76	20.066
603.09	20.887
603.42	20.951
603.76	21.859
604.09	20.384
604.42	21.482
604.76	20.846
605.09	20.796
605.42	21.277
605.75	20.655
606.09	21.046
606.42	20.779
606.75	20.781
607.09	21.173
607.42	21.391
607.75	20.486
608.08	22.639
608.42	21.334
608.75	20.794
609.08	20.750
609.41	21.076
609.75	21.160
610.08	22.059
610.41	21.060
610.74	22.292
611.07	22.059
611.41	20.978
611.74	22.211
612.07	21.912
612.40	21.802
612.73	22.294
613.07	21.739
613.40	22.770
613.73	21.689
614.06	21.362
614.39	22.492
614.72	21.788
615.06	21.576
615.39	21.704
615.72	22.271
616.05	21.038
616.38	22.229
616.71	21.862
617.05	22.437
617.38	21.858
617.71	22.789
618.04	21.553
618.37	22.453
618.70	22.881
619.03	21.327
619.36	23.749
619.69	23.116
620.03	21.901
620.36	22.293
620.69	22.900
621.02	22.527
621.35	23.468
621.68	23.525
622.01	23.220
622.34	23.602
622.67	22.891
623.00	22.647
623.33	23.582
623.66	23.708
623.99	23.308
624.32	22.321
624.65	23.326
624.99	22.181
625.32	21.856
625.65	23.543
625.98	23.318
626.31	23.573
626.64	23.180
626.97	23.545
627.30	22.979
627.63	22.107
627.96	22.977
628.29	23.437
628.62	22.827
628.95	24.311
629.28	24.436
629.61	24.043
629.94	24.386
630.26	24.453
630.59	24.623
630.92	25.025
631.25	25.302
631.58	24.550
631.91	23.617
632.24	25.667
632.57	24.333
632.90	24.943
633.23	24.065
633.56	24.327
633.89	25.472
634.22	26.328
634.55	27.043
634.88	25.635
635.20	24.345
635.53	25.700
635.86	25.063
636.19	24.176
636.52	24.373
636.85	24.789
637.18	24.000
637.51	26.146
637.83	23.302
638.16	24.868
638.49	24.000
638.82	25.997
639.15	28.145
639.48	25.162
639.81	25.588
640.13	24.189
640.46	25.214
640.79	26.611
641.12	25.106
641.45	25.825
641.77	24.701
642.10	25.680
642.43	24.583
642.76	26.142
643.09	26.984
643.41	26.667
643.74	26.709
644.07	27.925
644.40	24.797
644.73	27.888
645.05	26.043
645.38	26.159
645.71	29.897
646.04	28.235
646.36	25.654
646.69	25.087
647.02	28.881
647.35	26.354
647.67	26.095
648.00	27.417
648.33	30.354
648.66	25.323
648.98	26.752
649.31	26.769
649.64	26.250
649.96	23.862
650.29	25.082
650.62	26.506
650.94	25.970
651.27	25.823
651.60	24.221
651.92	28.938
652.25	24.374
652.58	24.702
652.90	25.522
653.23	24.032
653.56	26.756
653.88	24.918
654.21	27.013
654.54	27.243
654.86	26.966
655.19	25.645
655.52	22.147
655.84	19.803
656.17	21.265
656.49	28.784
656.82	29.721
657.15	22.522
657.47	16.454
657.80	12.749
658.13	14.567
658.45	19.615
658.78	19.310
659.10	19.552
659.43	19.290
659.75	19.866
660.08	19.948
660.41	20.161
660.73	22.772
661.06	25.797
661.38	25.714
661.71	27.342
662.03	28.226
662.36	28.358
662.68	25.105
663.01	27.601
663.33	28.571
663.66	27.682
663.98	25.000
664.31	27.964
664.63	32.080
664.96	27.549
665.28	24.512
665.61	25.793
665.93	28.807
666.26	29.352
666.58	27.443
666.91	26.281
667.23	27.193
667.56	28.118
667.88	30.090
668.21	27.189
668.53	28.271
668.86	28.868
669.18	26.027
669.50	25.000
669.83	27.007
670.15	29.821
670.48	26.168
670.80	26.196
671.13	25.734
671.45	25.676
671.77	29.550
672.10	26.430
672.42	25.092
672.75	26.182
673.07	24.865
673.39	25.865
673.72	25.591
674.04	26.327
674.37	24.742
674.69	25.410
675.01	25.957
675.34	26.464
675.66	29.158
675.98	27.093
676.31	24.661
676.63	27.586
676.95	26.549
677.28	29.466
677.60	27.828
677.92	29.075
678.25	28.665
678.57	25.309
678.89	26.834
679.22	26.625
679.54	28.402
679.86	25.800
680.18	24.905
680.51	26.629
680.83	24.762
681.15	26.397
681.48	26.369
681.80	26.411
682.12	25.352
682.44	25.540
682.77	24.026
683.09	28.931
683.41	25.664
683.73	23.059
684.06	24.086
684.38	29.079
684.70	23.868
685.02	24.606
685.34	23.782
685.67	24.242
685.99	23.819
686.31	25.494
686.63	25.177
686.96	23.475
687.28	24.663
687.60	24.414
687.92	23.735
688.24	24.016
688.56	24.850
688.89	24.573
689.21	26.915
689.53	28.506
689.85	26.058
690.17	22.870
690.49	24.711
690.82	25.060
691.14	25.943
691.46	26.164
691.78	28.414
692.10	24.576
692.42	23.778
692.74	28.326
693.06	26.292
693.39	25.951
693.71	24.153
694.03	26.350
694.35	24.379
694.67	22.931
694.99	25.064
695.31	24.745
695.63	27.041
695.95	27.543
696.27	26.185
696.59	28.877
696.91	25.000
697.23	26.042
697.56	25.481
697.88	24.099
698.20	22.698
698.52	23.543
698.84	27.913
699.16	28.333
699.48	25.500
699.80	27.569
700.12	24.937
700.44	24.581
700.76	23.615
701.08	27.907
701.40	21.752
701.72	27.778
702.04	29.487
702.36	25.904
702.68	23.653
703.00	26.667
703.32	23.782
703.64	29.412
703.96	30.233
704.28	25.740
704.60	24.684
704.91	26.349
705.23	27.832
705.55	28.041
705.87	27.986
706.19	27.083
706.51	27.431
706.83	28.852
707.15	24.841
707.47	24.242
707.79	24.485
708.11	21.883
708.43	23.940
708.74	23.377
709.06	22.563
709.38	25.862
709.70	25.313
710.02	28.834
710.34	26.403
710.66	23.492
710.98	26.498
711.29	24.194
711.61	23.962
711.93	25.902
712.25	25.581
712.57	26.481
712.89	31.655
713.20	29.553
713.52	27.239
713.84	26.690
714.16	25.574
714.48	22.540
714.80	23.692
715.11	24.207
715.43	31.024
715.75	27.414
716.07	26.885
716.39	25.418
716.70	28.223
717.02	26.667
717.34	25.954
717.66	23.651
717.97	30.738
718.29	26.050
718.61	26.190
718.93	24.014
719.24	23.162
719.56	19.245
719.88	28.727
720.20	24.345
720.51	29.323
720.83	28.112
721.15	25.410
721.46	23.529
721.78	30.268
722.10	20.400
722.42	28.099
722.73	27.092
723.05	32.530
723.37	26.667
723.68	27.126
724.00	28.455
724.32	27.160
724.63	23.651
724.95	28.926
725.27	28.070
725.58	25.862
725.90	23.810
726.22	26.937
726.53	25.856
726.85	18.431
727.16	23.684
727.48	27.692
727.80	22.951
728.11	24.370
728.43	27.686
728.74	26.563
729.06	26.894
729.38	25.292
729.69	23.228
730.01	27.559
730.32	25.498
730.64	27.106
730.96	30.597
731.27	26.786
731.59	25.723
731.90	25.153
732.22	26.074
732.53	30.132
732.85	26.174
733.16	25.725
733.48	27.526
733.80	22.064
734.11	25.172
734.43	21.429
734.74	26.113
735.06	25.705
735.37	23.853
735.69	18.710
736.00	21.886
736.32	23.510
736.63	20.000
736.95	23.913
737.26	23.179
737.58	27.338
737.89	29.032
738.21	23.308
738.52	26.154
738.83	28.516
739.15	23.932
739.46	27.419
739.78	27.273
740.09	21.329
740.41	24.126
740.72	25.912
741.04	24.206
741.35	20.346
741.66	25.000
741.98	22.381
742.29	28.169
742.61	27.273
742.92	29.439
743.23	26.754
743.55	25.676
743.86	28.444
744.18	25.714
744.49	30.542
744.80	28.934
745.12	26.804
745.43	33.166
745.74	25.728
746.06	22.439
746.37	31.718
746.68	25.373
747.00	32.461
747.31	23.077
747.62	20.737
747.94	28.384
748.25	24.186
748.56	29.048
748.88	21.739
749.19	25.352
749.50	32.353
749.82	31.556
750.13	25.110
750.44	28.455
750.75	27.200
751.07	27.857
751.38	23.616
751.69	28.244
752.01	23.462
752.32	26.848
752.63	20.769
752.94	26.587
753.26	30.000
753.57	25.000
753.88	22.414
754.19	20.332
754.51	22.266
754.82	23.715
755.13	29.218
755.44	25.620
755.75	27.572
756.07	21.687
756.38	23.437
756.69	23.466
757.00	24.390
757.31	27.181
757.63	26.791
757.94	22.254
758.25	24.419
758.56	25.606
758.87	24.432
759.18	22.333
759.50	27.046
759.81	22.628
760.12	19.595
760.43	27.184
760.74	28.438
761.05	22.753
761.36	24.551
761.67	26.627
761.99	23.226
762.30	23.913
762.61	28.679
762.92	27.803
763.23	28.910
763.54	22.222
763.85	25.738
764.16	23.265
764.47	26.271
764.78	23.970
765.10	32.014
765.41	22.903
765.72	22.642
766.03	19.788
766.34	23.308
766.65	22.267
766.96	28.500
767.27	29.687
767.58	26.163
767.89	29.677
768.20	28.834
768.51	23.497
768.82	28.649
769.13	25.500
769.44	21.053
769.75	23.810
770.06	26.147
770.37	23.005
770.68	22.917
770.99	33.663
771.30	23.786
771.61	19.907
771.92	23.810
772.23	28.505
772.54	20.213
772.85	19.527
773.16	28.049
773.47	29.518
773.78	25.824
774.09	24.000
774.39	24.691
774.70	20.805
775.01	23.188
775.32	20.896
775.63	14.876
775.94	27.068
776.25	21.429
776.56	29.508
776.87	28.319
777.18	27.434
777.48	17.273
777.79	17.391
778.10	25.688
778.41	21.186
778.72	22.314
779.03	27.612
779.34	26.316
779.65	19.608
779.95	20.290
780.26	20.408
780.57	7.759
780.88	24.074
781.19	21.212
781.50	16.000
781.80	24.183
782.11	19.231
782.42	19.880
782.73	18.248
783.04	16.892
783.34	25.758
783.65	26.357
783.96	21.951
784.27	16.239
784.57	19.512
784.88	19.512
785.19	21.053
785.50	5.155
785.81	21.905
786.11	7.843
786.42	5.455
786.73	21.622
787.04	17.822
787.34	14.286
787.65	11.429
787.96	18.627
788.26	22.523
788.57	27.419
788.88	15.625
789.19	17.094
789.49	17.647
789.80	18.803
790.11	17.699
790.41	22.222
790.72	31.132
791.03	25.000
791.33	23.684
791.64	26.882
791.95	18.667
792.25	8.571
792.56	12.195
792.87	33.673
793.17	11.842
793.48	-4.054
793.79	7.042
794.09	21.519
794.40	24.468
794.70	14.953
795.01	5.263
795.32	5.455
795.62	25.893
795.93	12.371
796.23	7.692
796.54	36.842
796.85	15.068
797.15	13.889
797.46	19.178
797.76	19.718
798.07	23.750
798.37	19.118
798.68	20.000
798.99	11.429
799.29	30.263
799.60	18.333
799.90	9.722
800.21	4.688
800.51	23.810
800.82	4.918
801.12	19.298
801.43	-2.817
801.73	1.695
802.04	31.148
802.34	5.455
802.65	19.231
802.95	16.667
803.26	7.500
803.56	23.077
803.87	2.632
804.17	17.742
804.48	26.154
804.78	7.692
805.09	41.860
805.39	-3.125
805.70	-7.547
806.00	28.070
806.30	18.919
806.61	25.000
806.91	12.346
807.22	13.333
807.52	19.403
807.83	20.968
808.13	-3.175
808.43	3.636
808.74	13.636
809.04	5.660
809.35	20.548
809.65	8.772
809.95	17.647
810.26	25.490
810.56	-10.000
810.86	-12.245
811.17	25.714
811.47	15.385
811.77	61.290
812.08	-28.947
812.38	2.381
812.69	17.391
812.99	6.452
813.29	-7.143
813.59	-59.259
813.90	-2.128
814.20	-25.581
814.50	12.500
814.81	11.667
815.11	14.634
815.41	30.000
815.72	0.000
816.02	-27.778
816.32	38.462
816.62	-2.703
816.93	-23.529
817.23	4.348
817.53	5.882
817.84	20.588
818.14	-28.125
818.44	6.897
818.74	-25.806
819.04	-18.519
819.35	0.000
819.65	-16.000
819.95	-6.667
820.25	-56.000
820.56	5.263
820.86	-10.000
821.16	21.277
821.46	17.241
821.76	7.692
822.07	-42.500
822.37	20.930
822.67	-26.667
822.97	-5.405
823.27	16.216
823.57	-12.000
823.88	-2.703
824.18	-38.095
824.48	-30.769
824.78	-146.154
825.08	4.348
825.38	-25.000
825.69	-8.333
825.99	-40.000
826.29	2.703
826.59	-14.706
826.89	20.000
827.19	2.857
827.49	-10.526
827.79	0.000
828.09	6.667
828.39	4.348
828.70	-17.241
829.00	10.345
829.30	-11.111
829.60	-12.500
829.90	-61.111
830.20	-26.923
830.50	-71.429
830.80	-14.286
831.10	0.000
831.40	-66.667
831.70	-2.941
832.00	-4.167
832.30	-26.316
832.60	-25.000
832.90	-141.667
833.20	-76.471
833.50	-80.000
833.80	-66.667
834.10	-35.000
834.40	-25.000
834.70	-27.778
835.00	-19.231
835.30	-25.000
835.60	-20.690
835.90	-66.667
836.20	-181.818
836.50	-133.333
836.80	-17.143
837.10	37.143
837.40	-17.647
837.70	-172.727
838.00	-16.667
838.30	-43.750
838.60	-57.143
838.90	25.000
839.19	-21.739
839.49	-17.391
839.79	-88.889
840.09	-60.870
840.39	-13.636
840.69	-137.500
840.99	-26.316
841.29	-12.500
841.59	-107.143
841.88	-55.556
842.18	4.167
842.48	-41.176
842.78	17.241
843.08	-64.286
843.38	-84.615
843.68	-211.111
843.97	-100.000
844.27	-54.545
844.57	-200.000
844.87	0.000
845.17	40.000
845.47	-71.429
845.76	-144.444
846.06	0.000
846.36	-600.000
846.66	-140.000
846.96	-21.053
847.25	-4.167
847.55	-108.333
847.85	-20.000
848.15	-50.000
848.44	-15.385
848.74	-10.526
849.04	733.333
849.34	-233.333
849.63	-184.211
849.93	0.000
850.23	-65.000
850.53	-57.143
850.82	-40.000
851.12	-57.895
851.42	-200.000
851.71	14.286
852.01	-25.000
852.31	0.000
852.61	-60.000
852.90	4.762
853.20	-50.000
853.50	-11.111
853.79	-57.895
854.09	-73.333
854.39	-14.286
854.68	-39.130
854.98	-83.333
855.28	-3.448
855.57	-50.000
855.87	0.000
856.17	-113.333
856.46	-6.897
856.76	-60.000
857.05	-64.706
857.35	-100.000
857.65	-54.545
857.94	-22.222
858.24	-64.286
858.53	-85.714
858.83	-91.667
859.13	-144.444
859.42	66.667
859.72	-87.500
860.01	-266.667
860.31	-100.000
860.60	-540.000
860.90	-122.222
861.20	-125.000
861.49	-200.000
861.79	-17.647
862.08	-1150.000
862.38	-158.333
862.67	-76.923
862.97	-23.529
863.26	10.000
863.56	-29.412
863.85	833.333
864.15	-120.000
864.44	-23.077
864.74	0.000
865.03	-237.500
865.33	-316.667
865.62	-58.824
865.92	-725.000
866.21	-71.429
866.51	-141.667
866.80	-1700.000
867.10	-466.667
867.39	-17.647
867.69	8.696
867.98	-114.286
868.27	-120.000
868.57	-106.250
868.86	-81.818
869.16	-47.059
869.45	-83.333
869.75	-357.143
870.04	1800.000
870.33	-58.333
870.63	-280.000
870.92	-188.889
871.22	0.000
871.51	-109.091
871.80	-108.333
872.10	-80.000
>>>>>End Processed Spectral Data<<<<<
