SpectraSuite Data File
++++++++++++++++++++++++++++++++++++
Date: Sat May 16 11:33:03 PDT 2015
User: schluterlab
Dark Spectrum Present: Yes
Reference Spectrum Present: Yes
Number of Sampled Component Spectra: 1
Spectrometers: USB2E3373
Integration Time (usec): 3000 (USB2E3373)
Spectra Averaged: 3 (USB2E3373)
Boxcar Smoothing: 0 (USB2E3373)
Correct for Electrical Dark: No (USB2E3373)
Strobe/Lamp Enabled: No (USB2E3373)
Correct for Detector Non-linearity: No (USB2E3373)
Correct for Stray Light: No (USB2E3373)
Number of Pixels in Processed Spectrum: 2048
>>>>>Begin Processed Spectral Data<<<<<
178.53	0.000
178.91	146.667
179.29	500.000
179.67	-800.000
180.04	-130.769
180.42	500.000
180.80	350.000
181.18	425.000
181.56	-62.500
181.94	1600.000
182.31	475.000
182.69	-92.308
183.07	-766.667
183.45	1800.000
183.83	733.333
184.20	-200.000
184.58	-150.000
184.96	-350.000
185.34	212.500
185.72	-550.000
186.09	300.000
186.47	-125.000
186.85	-175.000
187.23	62.500
187.61	-75.000
187.98	-262.500
188.36	-262.500
188.74	-62.500
189.12	2500.000
189.49	385.714
189.87	-158.333
190.25	725.000
190.63	-85.714
191.00	-77.778
191.38	560.000
191.76	-20.000
192.14	400.000
192.51	-120.000
192.89	-300.000
193.27	0.000
193.65	-177.778
194.02	-285.714
194.40	333.333
194.78	-120.000
195.15	-500.000
195.53	-163.636
195.91	-383.333
196.29	220.000
196.66	-433.333
197.04	2600.000
197.42	-300.000
197.79	-13.333
198.17	-666.667
198.55	-350.000
198.92	-900.000
199.30	262.500
199.68	-650.000
200.05	-66.667
200.43	-111.111
200.81	-1600.000
201.18	-100.000
201.56	185.714
201.94	-26.667
202.31	-36.364
202.69	-50.000
203.07	-80.000
203.44	666.667
203.82	-250.000
204.19	-450.000
204.57	-125.000
204.95	-900.000
205.32	-25.000
205.70	1200.000
206.08	-2000.000
206.45	-11.111
206.83	-1300.000
207.20	100.000
207.58	-833.333
207.96	-666.667
208.33	-212.500
208.71	-155.556
209.08	310.000
209.46	-200.000
209.84	1250.000
210.21	0.000
210.59	-20.000
210.96	1800.000
211.34	-133.333
211.71	-200.000
212.09	175.000
212.46	850.000
212.84	-2500.000
213.22	400.000
213.59	100.000
213.97	-77.778
214.34	280.000
214.72	-90.000
215.09	-200.000
215.47	-150.000
215.84	-50.000
216.22	-110.000
216.59	-86.667
216.97	-350.000
217.34	150.000
217.72	-128.571
218.09	-266.667
218.47	-271.429
218.84	285.714
219.22	-42.857
219.59	0.000
219.97	200.000
220.34	550.000
220.72	300.000
221.09	-76.923
221.47	0.000
221.84	366.667
222.22	-650.000
222.59	1900.000
222.97	-100.000
223.34	-850.000
223.72	-400.000
224.09	-150.000
224.46	-450.000
224.84	-71.429
225.21	-157.143
225.59	-100.000
225.96	-137.500
226.34	-28.571
226.71	-100.000
227.08	65.000
227.46	-600.000
227.83	-114.286
228.21	-337.500
228.58	800.000
228.95	-25.000
229.33	-600.000
229.70	-380.000
230.08	-700.000
230.45	0.000
230.82	-133.333
231.20	-1600.000
231.57	-350.000
231.95	1700.000
232.32	-9.524
232.69	-155.556
233.07	-142.857
233.44	-850.000
233.81	-13.333
234.19	-166.667
234.56	-81.250
234.93	15.625
235.31	-171.429
235.68	-107.143
236.05	-52.941
236.43	-63.636
236.80	-19.355
237.17	-33.333
237.55	-66.667
237.92	-9.091
238.29	-25.714
238.67	5.882
239.04	-13.889
239.41	-41.935
239.79	-41.026
240.16	-40.476
240.53	-10.909
240.91	-17.949
241.28	9.091
241.65	12.308
242.02	-6.557
242.40	-9.836
242.77	0.000
243.14	-11.864
243.51	-15.714
243.89	-8.861
244.26	-1.124
244.63	4.211
245.00	-2.105
245.38	0.000
245.75	1.770
246.12	-0.800
246.49	8.661
246.87	-5.691
247.24	-6.780
247.61	-6.780
247.98	0.704
248.36	-2.797
248.73	8.228
249.10	-0.637
249.47	2.339
249.84	3.409
250.22	-2.381
250.59	5.650
250.96	3.141
251.33	3.791
251.70	4.808
252.08	0.000
252.45	4.265
252.82	8.571
253.19	2.979
253.56	5.645
253.94	8.439
254.31	8.155
254.68	8.130
255.05	1.210
255.42	6.746
255.79	3.226
256.16	6.667
256.54	6.985
256.91	4.924
257.28	6.227
257.65	7.447
258.02	10.692
258.39	7.358
258.76	4.730
259.14	4.321
259.51	7.213
259.88	10.976
260.25	7.143
260.62	6.109
260.99	7.418
261.36	7.012
261.73	7.514
262.10	9.167
262.47	7.692
262.85	10.571
263.22	7.163
263.59	4.615
263.96	9.275
264.33	9.485
264.70	9.116
265.07	5.769
265.44	5.685
265.81	7.752
266.18	7.595
266.55	7.843
266.92	7.809
267.29	6.780
267.66	6.914
268.03	9.179
268.40	11.033
268.77	7.952
269.14	6.497
269.51	11.264
269.88	5.505
270.25	6.760
270.62	7.094
270.99	9.910
271.36	8.392
271.73	7.848
272.10	8.238
272.47	8.222
272.84	10.222
273.21	10.321
273.58	9.011
273.95	7.895
274.32	8.824
274.69	10.722
275.06	11.247
275.43	7.366
275.80	9.776
276.17	10.251
276.54	8.758
276.91	10.494
277.28	8.519
277.65	6.198
278.02	9.186
278.39	9.234
278.76	8.964
279.13	6.719
279.50	9.344
279.87	7.611
280.23	9.312
280.60	6.958
280.97	8.932
281.34	6.963
281.71	10.577
282.08	10.685
282.45	6.925
282.82	9.690
283.19	8.000
283.56	9.890
283.92	9.364
284.29	6.506
284.66	9.532
285.03	7.130
285.40	8.487
285.77	10.175
286.14	7.942
286.51	9.769
286.87	9.256
287.24	10.068
287.61	9.917
287.98	8.492
288.35	9.256
288.72	8.319
289.08	6.102
289.45	8.418
289.82	8.131
290.19	10.181
290.56	7.603
290.93	7.949
291.29	6.807
291.66	8.052
292.03	8.320
292.40	8.735
292.77	8.075
293.13	7.154
293.50	8.470
293.87	5.982
294.24	7.391
294.60	5.606
294.97	9.105
295.34	7.111
295.71	7.887
296.08	6.759
296.44	5.007
296.81	7.692
297.18	7.465
297.55	7.345
297.91	7.113
298.28	7.123
298.65	6.695
299.02	8.155
299.38	6.952
299.75	6.929
300.12	7.179
300.48	7.289
300.85	7.208
301.22	6.468
301.59	6.762
301.95	7.557
302.32	6.389
302.69	7.222
303.05	6.227
303.42	5.250
303.79	8.134
304.15	6.635
304.52	7.701
304.89	7.084
305.25	5.861
305.62	6.698
305.99	8.952
306.35	6.548
306.72	5.923
307.09	7.264
307.45	5.902
307.82	5.922
308.19	6.488
308.55	7.407
308.92	6.015
309.29	7.027
309.65	6.893
310.02	6.479
310.38	6.703
310.75	7.377
311.12	7.025
311.48	7.620
311.85	6.488
312.22	7.312
312.58	7.426
312.95	6.626
313.31	7.692
313.68	7.739
314.05	7.715
314.41	6.640
314.78	6.294
315.14	7.700
315.51	7.700
315.87	8.132
316.24	7.872
316.61	7.869
316.97	7.562
317.34	7.225
317.70	7.607
318.07	8.582
318.43	8.052
318.80	8.732
319.16	6.567
319.53	7.801
319.89	6.773
320.26	9.118
320.62	7.500
320.99	8.060
321.35	6.995
321.72	9.110
322.08	8.704
322.45	8.515
322.81	9.222
323.18	8.742
323.54	9.150
323.91	9.082
324.27	9.506
324.64	9.141
325.00	10.558
325.37	9.593
325.73	10.411
326.10	9.389
326.46	9.982
326.83	10.383
327.19	11.009
327.56	10.818
327.92	10.620
328.29	11.688
328.65	9.909
329.01	10.954
329.38	11.864
329.74	13.553
330.11	12.421
330.47	11.807
330.84	12.557
331.20	11.372
331.56	11.577
331.93	12.789
332.29	12.420
332.66	12.379
333.02	12.127
333.38	12.366
333.75	13.980
334.11	11.644
334.48	12.798
334.84	14.086
335.20	12.943
335.57	12.455
335.93	12.892
336.29	13.109
336.66	12.511
337.02	12.523
337.38	12.567
337.75	12.906
338.11	12.075
338.47	12.544
338.84	12.160
339.20	13.445
339.56	13.458
339.93	13.051
340.29	12.312
340.65	12.587
341.02	12.395
341.38	13.395
341.74	12.616
342.11	13.908
342.47	12.446
342.83	13.014
343.20	13.237
343.56	11.755
343.92	13.773
344.28	12.616
344.65	12.624
345.01	12.605
345.37	13.040
345.73	12.520
346.10	12.265
346.46	12.510
346.82	12.430
347.19	12.325
347.55	13.563
347.91	13.150
348.27	11.376
348.63	12.843
349.00	13.445
349.36	11.866
349.72	14.889
350.08	12.510
350.45	12.924
350.81	13.455
351.17	11.736
351.53	11.854
351.89	14.147
352.26	13.566
352.62	13.978
352.98	14.003
353.34	13.349
353.70	12.201
354.07	13.533
354.43	13.676
354.79	13.867
355.15	12.780
355.51	13.438
355.87	13.518
356.24	12.867
356.60	14.424
356.96	14.165
357.32	13.856
357.68	13.103
358.04	13.472
358.40	13.225
358.77	13.138
359.13	13.619
359.49	13.454
359.85	13.262
360.21	13.090
360.57	13.931
360.93	13.556
361.29	13.303
361.66	11.509
362.02	11.760
362.38	13.866
362.74	12.894
363.10	12.984
363.46	14.245
363.82	14.140
364.18	13.893
364.54	15.154
364.90	13.906
365.26	13.623
365.62	12.972
365.98	14.651
366.35	12.606
366.71	13.037
367.07	14.185
367.43	14.482
367.79	12.852
368.15	12.802
368.51	13.776
368.87	14.011
369.23	13.895
369.59	14.097
369.95	13.883
370.31	14.698
370.67	13.232
371.03	14.140
371.39	13.508
371.75	14.449
372.11	14.204
372.47	14.751
372.83	14.534
373.19	14.071
373.55	14.638
373.91	15.149
374.27	13.279
374.63	14.493
374.99	14.673
375.35	13.728
375.71	15.598
376.07	14.031
376.42	14.172
376.78	14.118
377.14	14.373
377.50	15.538
377.86	13.719
378.22	14.384
378.58	14.330
378.94	13.748
379.30	15.356
379.66	15.543
380.02	14.201
380.38	14.804
380.74	14.244
381.09	14.938
381.45	16.110
381.81	14.519
382.17	15.100
382.53	14.347
382.89	14.833
383.25	14.931
383.61	14.917
383.97	15.677
384.32	15.519
384.68	15.296
385.04	14.734
385.40	14.364
385.76	14.939
386.12	15.116
386.48	15.408
386.83	15.583
387.19	15.003
387.55	14.900
387.91	14.760
388.27	14.234
388.62	15.144
388.98	14.537
389.34	15.361
389.70	14.799
390.06	14.108
390.42	15.321
390.77	15.142
391.13	14.907
391.49	15.346
391.85	14.838
392.20	14.381
392.56	15.150
392.92	15.174
393.28	15.385
393.64	15.634
393.99	15.631
394.35	14.964
394.71	15.009
395.07	15.568
395.42	14.243
395.78	14.519
396.14	15.078
396.50	15.046
396.85	15.238
397.21	15.431
397.57	15.319
397.92	15.984
398.28	15.222
398.64	15.943
399.00	15.337
399.35	15.389
399.71	15.447
400.07	14.866
400.42	15.207
400.78	15.683
401.14	15.030
401.49	14.917
401.85	15.497
402.21	15.495
402.57	15.170
402.92	14.286
403.28	14.583
403.63	14.620
403.99	15.040
404.35	14.976
404.70	14.570
405.06	14.533
405.42	13.838
405.77	15.328
406.13	15.048
406.49	15.339
406.84	14.517
407.20	15.960
407.55	14.820
407.91	14.832
408.27	15.625
408.62	15.274
408.98	15.100
409.34	14.260
409.69	14.682
410.05	14.918
410.40	15.512
410.76	15.234
411.11	14.589
411.47	14.322
411.83	15.770
412.18	14.418
412.54	14.033
412.89	15.371
413.25	14.640
413.60	14.095
413.96	14.603
414.31	14.985
414.67	14.921
415.03	15.524
415.38	16.135
415.74	15.528
416.09	14.514
416.45	14.616
416.80	15.605
417.16	15.150
417.51	15.430
417.87	14.887
418.22	14.539
418.58	16.046
418.93	15.451
419.29	15.182
419.64	14.950
420.00	16.403
420.35	14.725
420.71	14.826
421.06	15.385
421.42	15.398
421.77	16.583
422.12	15.669
422.48	15.607
422.83	15.718
423.19	16.036
423.54	15.965
423.90	15.211
424.25	15.837
424.61	16.526
424.96	16.442
425.31	16.154
425.67	16.160
426.02	16.466
426.38	16.878
426.73	16.540
427.09	17.034
427.44	17.216
427.79	16.279
428.15	17.235
428.50	16.833
428.85	16.307
429.21	17.156
429.56	17.656
429.92	16.583
430.27	17.248
430.62	17.398
430.98	17.094
431.33	17.876
431.68	18.016
432.04	18.411
432.39	18.063
432.74	17.806
433.10	17.727
433.45	17.962
433.80	17.805
434.16	17.894
434.51	17.699
434.86	19.215
435.22	18.708
435.57	18.849
435.92	18.230
436.28	18.754
436.63	18.485
436.98	18.671
437.34	18.783
437.69	18.436
438.04	17.924
438.39	18.893
438.75	18.801
439.10	18.712
439.45	18.588
439.81	20.120
440.16	19.534
440.51	19.882
440.86	18.913
441.22	19.071
441.57	19.579
441.92	19.488
442.27	19.968
442.63	19.796
442.98	18.736
443.33	18.781
443.68	18.812
444.03	19.597
444.39	19.383
444.74	20.264
445.09	19.463
445.44	19.246
445.79	20.143
446.15	20.099
446.50	18.672
446.85	19.651
447.20	19.612
447.55	20.718
447.91	20.213
448.26	19.665
448.61	20.204
448.96	20.000
449.31	20.068
449.66	20.378
450.02	19.003
450.37	19.652
450.72	20.056
451.07	20.050
451.42	19.517
451.77	19.808
452.12	20.262
452.47	20.025
452.83	19.336
453.18	20.430
453.53	20.274
453.88	20.813
454.23	19.710
454.58	21.255
454.93	21.285
455.28	20.778
455.63	21.069
455.98	21.867
456.34	20.140
456.69	22.201
457.04	21.143
457.39	20.335
457.74	20.732
458.09	20.766
458.44	21.940
458.79	21.020
459.14	20.936
459.49	21.788
459.84	21.473
460.19	20.883
460.54	20.327
460.89	20.740
461.24	20.826
461.59	21.043
461.94	21.897
462.29	21.084
462.64	21.871
462.99	22.155
463.34	21.404
463.69	21.374
464.04	20.855
464.39	20.729
464.74	21.099
465.09	21.046
465.44	20.981
465.79	21.545
466.14	22.267
466.49	21.416
466.84	21.609
467.19	22.132
467.54	20.633
467.89	22.256
468.24	21.259
468.59	22.174
468.94	21.994
469.29	21.248
469.64	21.631
469.99	22.822
470.34	21.443
470.68	22.892
471.03	22.299
471.38	21.111
471.73	23.147
472.08	22.423
472.43	22.265
472.78	23.467
473.13	21.803
473.48	21.315
473.83	21.650
474.17	22.420
474.52	22.634
474.87	22.669
475.22	22.537
475.57	22.500
475.92	22.624
476.27	22.229
476.61	22.310
476.96	22.638
477.31	22.390
477.66	21.749
478.01	22.961
478.36	22.420
478.70	23.225
479.05	23.148
479.40	23.005
479.75	23.242
480.10	23.264
480.45	21.760
480.79	22.655
481.14	22.780
481.49	22.701
481.84	22.561
482.19	22.704
482.53	22.727
482.88	22.496
483.23	22.300
483.58	23.312
483.92	23.077
484.27	22.463
484.62	23.024
484.97	22.525
485.31	21.504
485.66	20.747
486.01	21.176
486.36	21.698
486.70	22.679
487.05	22.306
487.40	21.848
487.75	22.291
488.09	21.773
488.44	22.903
488.79	23.028
489.13	22.632
489.48	23.858
489.83	23.231
490.17	22.987
490.52	23.505
490.87	22.725
491.22	23.400
491.56	23.194
491.91	23.378
492.26	23.396
492.60	23.454
492.95	23.513
493.30	23.392
493.64	23.225
493.99	23.470
494.34	23.333
494.68	24.064
495.03	23.518
495.37	23.156
495.72	24.116
496.07	23.463
496.41	24.224
496.76	23.653
497.11	23.881
497.45	24.425
497.80	23.912
498.14	23.084
498.49	23.807
498.84	23.689
499.18	24.513
499.53	23.916
499.87	24.180
500.22	23.873
500.56	23.662
500.91	23.744
501.26	24.648
501.60	23.736
501.95	24.783
502.29	23.335
502.64	24.752
502.98	24.389
503.33	23.590
503.67	23.707
504.02	24.288
504.36	23.971
504.71	24.316
505.06	23.315
505.40	24.800
505.75	24.085
506.09	25.329
506.44	24.211
506.78	24.034
507.13	24.717
507.47	25.196
507.82	24.109
508.16	25.181
508.51	24.472
508.85	24.534
509.19	24.228
509.54	25.106
509.88	24.947
510.23	25.052
510.57	25.132
510.92	25.725
511.26	24.721
511.61	25.270
511.95	24.784
512.30	24.794
512.64	25.097
512.98	25.908
513.33	25.755
513.67	25.963
514.02	25.168
514.36	25.983
514.70	25.071
515.05	26.015
515.39	24.856
515.74	26.702
516.08	25.072
516.42	25.836
516.77	26.112
517.11	25.915
517.46	26.435
517.80	25.933
518.14	26.329
518.49	26.420
518.83	25.223
519.17	26.761
519.52	26.663
519.86	26.464
520.20	26.467
520.55	26.338
520.89	26.362
521.23	26.068
521.58	26.270
521.92	26.536
522.26	26.730
522.61	26.362
522.95	26.356
523.29	27.085
523.64	26.296
523.98	26.989
524.32	26.901
524.66	25.963
525.01	26.397
525.35	27.191
525.69	26.025
526.04	27.154
526.38	27.244
526.72	26.309
527.06	27.214
527.41	26.535
527.75	25.941
528.09	26.473
528.43	27.082
528.78	26.193
529.12	26.248
529.46	26.095
529.80	26.662
530.15	27.109
530.49	24.838
530.83	28.225
531.17	26.128
531.51	26.256
531.86	26.860
532.20	26.923
532.54	27.406
532.88	26.943
533.22	26.939
533.57	26.371
533.91	25.843
534.25	25.770
534.59	26.046
534.93	24.767
535.27	26.180
535.62	26.407
535.96	25.921
536.30	25.785
536.64	27.224
536.98	26.766
537.32	26.745
537.66	25.866
538.01	26.667
538.35	26.757
538.69	26.337
539.03	27.420
539.37	26.081
539.71	26.217
540.05	26.182
540.39	26.316
540.73	26.952
541.07	26.844
541.42	27.144
541.76	26.645
542.10	27.076
542.44	26.982
542.78	26.934
543.12	26.680
543.46	25.890
543.80	25.753
544.14	25.520
544.48	26.181
544.82	26.861
545.16	27.431
545.50	25.841
545.84	27.816
546.18	26.838
546.52	27.952
546.86	26.567
547.20	27.145
547.54	25.895
547.88	27.405
548.22	26.343
548.56	26.186
548.90	27.358
549.24	26.980
549.58	26.817
549.92	27.350
550.26	27.962
550.60	26.529
550.94	28.175
551.28	27.765
551.62	27.770
551.96	27.569
552.30	26.690
552.64	26.953
552.98	27.610
553.32	27.417
553.66	27.037
554.00	27.363
554.34	27.437
554.68	27.558
555.02	27.641
555.36	27.534
555.69	27.292
556.03	26.877
556.37	27.383
556.71	27.702
557.05	29.194
557.39	27.840
557.73	28.155
558.07	27.958
558.41	27.599
558.75	27.757
559.08	27.160
559.42	28.714
559.76	28.374
560.10	27.591
560.44	27.529
560.78	26.583
561.12	27.812
561.45	27.808
561.79	27.596
562.13	28.050
562.47	27.591
562.81	27.440
563.15	27.012
563.48	28.127
563.82	28.262
564.16	26.640
564.50	27.554
564.84	27.712
565.17	27.056
565.51	29.140
565.85	27.992
566.19	27.141
566.52	27.202
566.86	27.686
567.20	28.208
567.54	27.584
567.88	26.912
568.21	26.902
568.55	26.776
568.89	26.392
569.23	26.701
569.56	25.977
569.90	26.003
570.24	25.893
570.57	24.499
570.91	25.026
571.25	25.195
571.59	24.758
571.92	24.464
572.26	24.476
572.60	25.132
572.93	24.311
573.27	24.604
573.61	23.975
573.95	24.295
574.28	24.210
574.62	24.453
574.96	24.053
575.29	24.212
575.63	24.476
575.97	23.894
576.30	24.253
576.64	24.543
576.98	24.011
577.31	24.386
577.65	24.133
577.98	24.061
578.32	24.163
578.66	23.812
578.99	23.812
579.33	24.165
579.67	24.220
580.00	24.330
580.34	24.437
580.67	24.859
581.01	23.720
581.35	24.300
581.68	23.569
582.02	24.215
582.35	23.947
582.69	24.411
583.02	24.823
583.36	24.786
583.70	24.322
584.03	24.784
584.37	24.817
584.70	24.874
585.04	24.582
585.37	23.699
585.71	24.746
586.04	24.747
586.38	24.726
586.72	25.479
587.05	24.979
587.39	24.857
587.72	24.741
588.06	25.089
588.39	25.577
588.73	25.468
589.06	26.566
589.40	26.554
589.73	26.133
590.07	25.637
590.40	25.572
590.73	25.830
591.07	26.475
591.40	26.820
591.74	26.499
592.07	25.811
592.41	26.752
592.74	26.134
593.08	26.399
593.41	25.855
593.75	25.058
594.08	26.132
594.41	26.211
594.75	26.463
595.08	26.353
595.42	26.879
595.75	26.314
596.09	26.504
596.42	26.514
596.75	26.348
597.09	27.070
597.42	26.451
597.75	26.395
598.09	26.841
598.42	26.293
598.76	25.540
599.09	25.809
599.42	26.144
599.76	25.783
600.09	26.756
600.42	25.750
600.76	26.064
601.09	25.864
601.42	26.474
601.76	26.597
602.09	27.526
602.42	27.160
602.76	26.215
603.09	26.129
603.42	26.873
603.76	26.765
604.09	26.912
604.42	26.103
604.76	27.082
605.09	27.848
605.42	27.748
605.75	26.994
606.09	27.397
606.42	26.896
606.75	27.394
607.09	27.128
607.42	27.993
607.75	26.976
608.08	27.564
608.42	27.578
608.75	26.869
609.08	27.423
609.41	27.454
609.75	27.694
610.08	28.333
610.41	27.855
610.74	27.756
611.07	27.485
611.41	27.080
611.74	27.918
612.07	28.303
612.40	27.665
612.73	27.894
613.07	27.298
613.40	28.571
613.73	29.046
614.06	27.403
614.39	28.579
614.72	27.039
615.06	27.609
615.39	27.672
615.72	28.408
616.05	26.946
616.38	29.193
616.71	29.369
617.05	28.408
617.38	28.916
617.71	28.378
618.04	27.640
618.37	29.057
618.70	30.443
619.03	29.316
619.36	30.021
619.69	29.792
620.03	28.788
620.36	29.817
620.69	29.648
621.02	29.985
621.35	29.516
621.68	30.902
622.01	31.149
622.34	30.668
622.67	29.766
623.00	29.686
623.33	30.746
623.66	29.690
623.99	30.376
624.32	30.283
624.65	30.243
624.99	29.649
625.32	28.892
625.65	30.070
625.98	30.125
626.31	31.892
626.64	30.962
626.97	31.507
627.30	31.660
627.63	30.225
627.96	30.548
628.29	32.629
628.62	31.232
628.95	32.579
629.28	30.921
629.61	31.501
629.94	32.514
630.26	32.604
630.59	32.563
630.92	31.832
631.25	33.266
631.58	33.651
631.91	32.447
632.24	33.000
632.57	32.444
632.90	33.448
633.23	33.762
633.56	33.099
633.89	34.788
634.22	33.176
634.55	33.654
634.88	33.495
635.20	33.583
635.53	34.351
635.86	33.753
636.19	33.822
636.52	32.855
636.85	32.371
637.18	32.750
637.51	34.325
637.83	34.621
638.16	34.868
638.49	35.724
638.82	32.561
639.15	35.538
639.48	34.890
639.81	34.578
640.13	33.108
640.46	34.473
640.79	33.754
641.12	34.838
641.45	34.290
641.77	34.581
642.10	33.535
642.43	36.874
642.76	35.118
643.09	34.286
643.41	36.190
643.74	37.043
644.07	34.477
644.40	37.115
644.73	34.983
645.05	36.895
645.38	38.742
645.71	38.660
646.04	38.655
646.36	36.126
646.69	35.640
647.02	37.726
647.35	39.170
647.67	36.496
648.00	38.489
648.33	38.617
648.66	33.065
648.98	34.076
649.31	35.231
649.64	35.156
649.96	34.694
650.29	32.623
650.62	36.145
650.94	35.919
651.27	35.529
651.60	34.948
651.92	38.870
652.25	34.391
652.58	34.923
652.90	33.547
653.23	34.677
653.56	32.943
653.88	35.246
654.21	36.074
654.54	35.880
654.86	34.671
655.19	34.957
655.52	29.252
655.84	26.224
656.17	27.896
656.49	37.988
656.82	39.993
657.15	30.203
657.47	22.275
657.80	17.356
658.13	19.691
658.45	26.650
658.78	26.795
659.10	27.422
659.43	26.883
659.75	28.088
660.08	28.021
660.41	28.999
660.73	30.143
661.06	33.913
661.38	35.179
661.71	35.755
662.03	39.113
662.36	34.968
662.68	36.920
663.01	36.730
663.33	38.549
663.66	36.910
663.98	35.938
664.31	35.570
664.63	39.381
664.96	37.527
665.28	37.527
665.61	34.672
665.93	36.214
666.26	35.830
666.58	37.422
666.91	37.862
667.23	39.912
667.56	38.322
667.88	40.498
668.21	35.484
668.53	37.150
668.86	38.568
669.18	39.954
669.50	36.916
669.83	35.766
670.15	38.117
670.48	38.084
670.80	37.130
671.13	34.537
671.45	34.685
671.77	38.972
672.10	35.503
672.42	36.531
672.75	35.455
673.07	29.550
673.39	35.701
673.72	35.827
674.04	36.518
674.37	35.464
674.69	35.656
675.01	38.723
675.34	37.093
675.66	37.797
675.98	36.344
676.31	37.557
676.63	39.770
676.95	37.168
677.28	36.427
677.60	40.045
677.92	37.445
678.25	35.011
678.57	35.597
678.89	36.478
679.22	38.155
679.54	38.264
679.86	35.400
680.18	37.072
680.51	32.030
680.83	37.905
681.15	35.838
681.48	34.280
681.80	34.274
682.12	35.614
682.44	34.185
682.77	35.281
683.09	33.543
683.41	38.938
683.73	34.475
684.06	36.129
684.38	37.238
684.70	38.477
685.02	35.039
685.34	34.893
685.67	35.606
685.99	32.136
686.31	34.829
686.63	34.574
686.96	32.163
687.28	32.948
687.60	34.570
687.92	32.101
688.24	36.024
688.56	34.469
688.89	33.120
689.21	38.731
689.53	35.632
689.85	36.971
690.17	34.529
690.49	35.797
690.82	33.976
691.14	36.321
691.46	37.251
691.78	34.802
692.10	35.593
692.42	35.556
692.74	35.193
693.06	36.629
693.39	34.004
693.71	35.892
694.03	35.421
694.35	35.666
694.67	36.170
694.99	32.992
695.31	36.735
695.63	34.184
695.95	34.243
696.27	36.908
696.59	36.364
696.91	36.236
697.23	37.760
697.56	34.615
697.88	35.811
698.20	31.692
698.52	32.511
698.84	38.350
699.16	33.571
699.48	33.000
699.80	38.346
700.12	35.516
700.44	36.313
700.76	35.277
701.08	36.047
701.40	33.233
701.72	37.963
702.04	37.500
702.36	39.759
702.68	34.431
703.00	41.739
703.32	33.524
703.64	40.882
703.96	40.116
704.28	39.349
704.60	37.975
704.91	35.873
705.23	40.453
705.55	37.838
705.87	38.225
706.19	36.458
706.51	38.194
706.83	38.361
707.15	36.624
707.47	38.843
707.79	35.309
708.11	32.824
708.43	34.414
708.74	34.286
709.06	30.641
709.38	33.046
709.70	33.750
710.02	38.650
710.34	34.653
710.66	33.651
710.98	33.123
711.29	34.516
711.61	38.339
711.93	36.393
712.25	36.545
712.57	36.934
712.89	39.928
713.20	37.457
713.52	33.955
713.84	36.655
714.16	35.738
714.48	35.238
714.80	36.000
715.11	34.582
715.43	35.843
715.75	36.137
716.07	34.426
716.39	36.455
716.70	38.676
717.02	40.000
717.34	38.550
717.66	40.664
717.97	38.934
718.29	36.134
718.61	36.905
718.93	34.409
719.24	36.029
719.56	30.943
719.88	37.818
720.20	33.708
720.51	34.962
720.83	37.751
721.15	36.066
721.46	38.039
721.78	35.632
722.10	33.600
722.42	35.124
722.73	37.450
723.05	38.956
723.37	36.863
723.68	34.008
724.00	40.244
724.32	37.037
724.63	36.100
724.95	40.083
725.27	32.456
725.58	32.759
725.90	35.714
726.22	35.793
726.53	38.403
726.85	30.980
727.16	37.970
727.48	30.385
727.80	29.508
728.11	36.975
728.43	31.405
728.74	36.719
729.06	39.015
729.38	33.852
729.69	35.039
730.01	37.795
730.32	37.052
730.64	35.165
730.96	33.582
731.27	37.500
731.59	29.582
731.90	35.583
732.22	37.117
732.53	35.762
732.85	32.550
733.16	32.609
733.48	29.268
733.80	32.384
734.11	31.724
734.43	32.993
734.74	36.499
735.06	33.229
735.37	33.639
735.69	33.871
736.00	29.630
736.32	30.795
736.63	30.690
736.95	30.072
737.26	33.775
737.58	35.252
737.89	36.918
738.21	31.203
738.52	33.462
738.83	32.812
739.15	35.470
739.46	37.097
739.78	30.420
740.09	32.168
740.41	32.168
740.72	37.226
741.04	32.937
741.35	35.498
741.66	35.185
741.98	37.143
742.29	38.028
742.61	37.968
742.92	40.654
743.23	31.579
743.55	34.685
743.86	39.556
744.18	37.143
744.49	43.842
744.80	36.041
745.12	35.052
745.43	37.186
745.74	38.835
746.06	32.195
746.37	36.123
746.68	41.791
747.00	38.220
747.31	35.096
747.62	37.788
747.94	34.498
748.25	37.209
748.56	35.238
748.88	36.413
749.19	32.394
749.50	41.176
749.82	32.444
750.13	40.529
750.44	34.553
750.75	34.400
751.07	32.857
751.38	34.686
751.69	31.679
752.01	28.462
752.32	30.739
752.63	33.077
752.94	34.921
753.26	33.043
753.57	35.268
753.88	31.034
754.19	34.855
754.51	28.906
754.82	35.968
755.13	36.626
755.44	35.537
755.75	32.510
756.07	32.129
756.38	32.422
756.69	32.130
757.00	30.314
757.31	34.564
757.63	35.514
757.94	28.035
758.25	31.686
758.56	35.310
758.87	34.943
759.18	30.000
759.50	31.673
759.81	31.387
760.12	30.068
760.43	32.362
760.74	38.437
761.05	32.022
761.36	29.940
761.67	34.320
761.99	26.774
762.30	34.058
762.61	34.717
762.92	36.323
763.23	38.389
763.54	32.444
763.85	33.755
764.16	35.510
764.47	35.169
764.78	35.206
765.10	33.813
765.41	27.419
765.72	32.075
766.03	27.915
766.34	28.947
766.65	34.413
766.96	30.000
767.27	28.646
767.58	36.628
767.89	31.613
768.20	36.196
768.51	36.066
768.82	28.649
769.13	31.500
769.44	29.386
769.75	31.602
770.06	30.734
770.37	28.638
770.68	31.250
770.99	33.663
771.30	27.184
771.61	26.389
771.92	32.035
772.23	31.776
772.54	36.170
772.85	30.769
773.16	32.317
773.47	40.361
773.78	40.110
774.09	33.333
774.39	30.864
774.70	36.913
775.01	29.710
775.32	30.597
775.63	28.926
775.94	39.098
776.25	42.857
776.56	32.787
776.87	30.973
777.18	30.088
777.48	27.273
777.79	28.696
778.10	33.945
778.41	26.271
778.72	35.537
779.03	32.836
779.34	34.586
779.65	37.908
779.95	37.681
780.26	25.170
780.57	26.724
780.88	35.185
781.19	30.303
781.50	23.200
781.80	28.105
782.11	26.282
782.42	34.337
782.73	27.007
783.04	29.730
783.34	27.273
783.65	31.783
783.96	34.146
784.27	23.077
784.57	21.138
784.88	17.886
785.19	32.456
785.50	23.711
785.81	28.571
786.11	25.490
786.42	25.455
786.73	27.928
787.04	37.624
787.34	24.762
787.65	29.524
787.96	27.451
788.26	26.126
788.57	37.097
788.88	21.875
789.19	23.932
789.49	16.807
789.80	27.350
790.11	32.743
790.41	21.212
790.72	33.962
791.03	16.667
791.33	23.684
791.64	24.731
791.95	40.000
792.25	30.000
792.56	14.634
792.87	31.633
793.17	21.053
793.48	13.514
793.79	28.169
794.09	34.177
794.40	23.404
794.70	25.234
795.01	13.158
795.32	26.364
795.62	25.893
795.93	19.588
796.23	26.374
796.54	29.474
796.85	20.548
797.15	15.278
797.46	32.877
797.76	40.845
798.07	36.250
798.37	42.647
798.68	30.000
798.99	31.429
799.29	25.000
799.60	25.000
799.90	26.389
800.21	4.688
800.51	22.222
800.82	36.066
801.12	29.825
801.43	21.127
801.73	18.644
802.04	29.508
802.34	20.000
802.65	28.846
802.95	31.481
803.26	-5.000
803.56	11.538
803.87	26.316
804.17	41.935
804.48	27.692
804.78	25.641
805.09	32.558
805.39	12.500
805.70	18.868
806.00	40.351
806.30	35.135
806.61	45.588
806.91	20.988
807.22	33.333
807.52	20.896
807.83	9.677
808.13	17.460
808.43	14.545
808.74	22.727
809.04	35.849
809.35	30.137
809.65	50.877
809.95	25.000
810.26	21.569
810.56	4.000
810.86	18.367
811.17	5.714
811.47	17.308
811.77	9.677
812.08	-44.737
812.38	33.333
812.69	23.913
812.99	22.581
813.29	-7.143
813.59	-7.407
813.90	2.128
814.20	0.000
814.50	18.750
814.81	-1.667
815.11	9.756
815.41	-6.667
815.72	28.571
816.02	11.111
816.32	23.077
816.62	2.703
816.93	-17.647
817.23	13.043
817.53	-26.471
817.84	2.941
818.14	3.125
818.44	-17.241
818.74	16.129
819.04	-51.852
819.35	6.667
819.65	-12.000
819.95	26.667
820.25	-16.000
820.56	-18.421
820.86	47.500
821.16	27.660
821.46	27.586
821.76	7.692
822.07	-20.000
822.37	-11.628
822.67	-10.000
822.97	21.622
823.27	-2.703
823.57	32.000
823.88	13.514
824.18	-28.571
824.48	-11.538
824.78	-146.154
825.08	13.043
825.38	-29.167
825.69	12.500
825.99	-55.000
826.29	0.000
826.59	5.882
826.89	32.000
827.19	11.429
827.49	13.158
827.79	-9.375
828.09	-26.667
828.39	-30.435
828.70	-55.172
829.00	31.034
829.30	19.444
829.60	34.375
829.90	11.111
830.20	-23.077
830.50	-23.810
830.80	-50.000
831.10	15.385
831.40	-9.524
831.70	14.706
832.00	8.333
832.30	-47.368
832.60	-6.250
832.90	-166.667
833.20	-52.941
833.50	-46.667
833.80	20.000
834.10	-55.000
834.40	-8.333
834.70	-22.222
835.00	-11.538
835.30	-8.333
835.60	10.345
835.90	-66.667
836.20	-136.364
836.50	-108.333
836.80	31.429
837.10	54.286
837.40	23.529
837.70	-100.000
838.00	-12.500
838.30	0.000
838.60	0.000
838.90	5.000
839.19	0.000
839.49	-17.391
839.79	-11.111
840.09	-17.391
840.39	59.091
840.69	-62.500
840.99	5.263
841.29	-12.500
841.59	-57.143
841.88	-22.222
842.18	-12.500
842.48	-88.235
842.78	3.448
843.08	21.429
843.38	7.692
843.68	-44.444
843.97	-107.692
844.27	-81.818
844.57	-180.000
844.87	4.000
845.17	120.000
845.47	-85.714
845.76	-88.889
846.06	0.000
846.36	-200.000
846.66	-90.000
846.96	-42.105
847.25	-16.667
847.55	-58.333
847.85	-13.333
848.15	-90.000
848.44	11.538
848.74	0.000
849.04	366.667
849.34	-122.222
849.63	-73.684
849.93	0.000
850.23	-40.000
850.53	-57.143
850.82	-20.000
851.12	-5.263
851.42	-550.000
851.71	-50.000
852.01	-108.333
852.31	-5.882
852.61	-20.000
852.90	23.810
853.20	-183.333
853.50	-83.333
853.79	-26.316
854.09	20.000
854.39	-17.857
854.68	-17.391
854.98	-108.333
855.28	-10.345
855.57	0.000
855.87	-35.000
856.17	-73.333
856.46	37.931
856.76	-40.000
857.05	-41.176
857.35	-146.154
857.65	-90.909
857.94	0.000
858.24	-64.286
858.53	-57.143
858.83	-150.000
859.13	-244.444
859.42	-14.286
859.72	-100.000
860.01	-466.667
860.31	-100.000
860.60	-580.000
860.90	-100.000
861.20	-62.500
861.49	-114.286
861.79	-17.647
862.08	-350.000
862.38	-150.000
862.67	-30.769
862.97	47.059
863.26	15.000
863.56	-64.706
863.85	333.333
864.15	-180.000
864.44	-92.308
864.74	-15.000
865.03	-287.500
865.33	-283.333
865.62	-52.941
865.92	-425.000
866.21	-92.857
866.51	-83.333
866.80	-900.000
867.10	100.000
867.39	17.647
867.69	8.696
867.98	-214.286
868.27	-420.000
868.57	-118.750
868.86	-190.909
869.16	-5.882
869.45	-216.667
869.75	-257.143
870.04	500.000
870.33	-25.000
870.63	-380.000
870.92	-88.889
871.22	-33.333
871.51	-18.182
871.80	-58.333
872.10	-40.000
>>>>>End Processed Spectral Data<<<<<
