SpectraSuite Data File
++++++++++++++++++++++++++++++++++++
Date: Sat May 16 11:15:47 PDT 2015
User: schluterlab
Dark Spectrum Present: Yes
Reference Spectrum Present: Yes
Number of Sampled Component Spectra: 1
Spectrometers: USB2E3373
Integration Time (usec): 3000 (USB2E3373)
Spectra Averaged: 3 (USB2E3373)
Boxcar Smoothing: 0 (USB2E3373)
Correct for Electrical Dark: No (USB2E3373)
Strobe/Lamp Enabled: No (USB2E3373)
Correct for Detector Non-linearity: No (USB2E3373)
Correct for Stray Light: No (USB2E3373)
Number of Pixels in Processed Spectrum: 2048
>>>>>Begin Processed Spectral Data<<<<<
178.53	0.000
178.91	86.667
179.29	366.667
179.67	-300.000
180.04	-46.154
180.42	700.000
180.80	150.000
181.18	450.000
181.56	-87.500
181.94	-0.000
182.31	325.000
182.69	7.692
183.07	-100.000
183.45	1250.000
183.83	466.667
184.20	-128.571
184.58	-112.500
184.96	-250.000
185.34	81.250
185.72	-250.000
186.09	250.000
186.47	-212.500
186.85	-125.000
187.23	-50.000
187.61	-100.000
187.98	-212.500
188.36	-87.500
188.74	-150.000
189.12	300.000
189.49	228.571
189.87	-16.667
190.25	275.000
190.63	-92.857
191.00	-33.333
191.38	180.000
191.76	40.000
192.14	360.000
192.51	-140.000
192.89	0.000
193.27	0.000
193.65	66.667
194.02	-128.571
194.40	600.000
194.78	-100.000
195.15	-400.000
195.53	-63.636
195.91	-250.000
196.29	200.000
196.66	-333.333
197.04	1400.000
197.42	0.000
197.79	33.333
198.17	-333.333
198.55	-500.000
198.92	100.000
199.30	225.000
199.68	-100.000
200.05	-111.111
200.43	0.000
200.81	-600.000
201.18	16.667
201.56	171.429
201.94	-33.333
202.31	45.455
202.69	70.000
203.07	-60.000
203.44	500.000
203.82	-400.000
204.19	-200.000
204.57	-425.000
204.95	-900.000
205.32	56.250
205.70	1100.000
206.08	-1600.000
206.45	-5.556
206.83	-1100.000
207.20	250.000
207.58	-366.667
207.96	-466.667
208.33	-212.500
208.71	-144.444
209.08	110.000
209.46	-100.000
209.84	650.000
210.21	0.000
210.59	70.000
210.96	-300.000
211.34	-200.000
211.71	-100.000
212.09	225.000
212.46	450.000
212.84	-2500.000
213.22	466.667
213.59	175.000
213.97	-11.111
214.34	140.000
214.72	-70.000
215.09	-200.000
215.47	-100.000
215.84	10.000
216.22	-40.000
216.59	26.667
216.97	-375.000
217.34	200.000
217.72	0.000
218.09	-166.667
218.47	-114.286
218.84	142.857
219.22	100.000
219.59	0.000
219.97	142.857
220.34	325.000
220.72	212.500
221.09	-38.462
221.47	0.000
221.84	-133.333
222.22	-150.000
222.59	800.000
222.97	-225.000
223.34	-650.000
223.72	-566.667
224.09	-57.143
224.46	125.000
224.84	64.286
225.21	-42.857
225.59	27.273
225.96	-12.500
226.34	14.286
226.71	-44.444
227.08	25.000
227.46	1100.000
227.83	-128.571
228.21	-225.000
228.58	550.000
228.95	-43.750
229.33	-1600.000
229.70	-220.000
230.08	-750.000
230.45	-33.333
230.82	83.333
231.20	-700.000
231.57	-400.000
231.95	700.000
232.32	-61.905
232.69	-122.222
233.07	-28.571
233.44	-550.000
233.81	26.667
234.19	33.333
234.56	-31.250
234.93	43.750
235.31	114.286
235.68	-50.000
236.05	41.176
236.43	-9.091
236.80	48.387
237.17	33.333
237.55	19.048
237.92	-27.273
238.29	0.000
238.67	35.294
239.04	38.889
239.41	16.129
239.79	-10.256
240.16	21.429
240.53	21.818
240.91	61.538
241.28	40.000
241.65	46.154
242.02	47.541
242.40	50.820
242.77	42.424
243.14	55.932
243.51	42.857
243.89	46.835
244.26	53.933
244.63	52.632
245.00	50.526
245.38	43.220
245.75	46.903
246.12	48.000
246.49	48.819
246.87	45.528
247.24	47.458
247.61	50.000
247.98	45.070
248.36	48.252
248.73	50.000
249.10	43.312
249.47	56.725
249.84	55.114
250.22	43.452
250.59	48.023
250.96	52.880
251.33	48.815
251.70	44.712
252.08	49.289
252.45	47.393
252.82	54.762
253.19	50.638
253.56	49.597
253.94	50.633
254.31	54.936
254.68	56.098
255.05	52.016
255.42	49.206
255.79	49.462
256.16	55.294
256.54	51.103
256.91	50.758
257.28	52.015
257.65	47.872
258.02	52.516
258.39	53.846
258.76	46.284
259.14	48.457
259.51	57.377
259.88	47.256
260.25	56.832
260.62	53.376
260.99	46.588
261.36	53.963
261.73	54.624
262.10	50.556
262.47	50.712
262.85	53.143
263.22	50.716
263.59	56.000
263.96	54.493
264.33	49.864
264.70	52.210
265.07	51.374
265.44	50.646
265.81	49.612
266.18	50.886
266.55	49.020
266.92	54.660
267.29	51.332
267.66	52.346
268.03	50.242
268.40	51.643
268.77	53.494
269.14	48.956
269.51	49.885
269.88	48.165
270.25	50.350
270.62	50.114
270.99	52.703
271.36	50.816
271.73	51.345
272.10	52.403
272.47	50.444
272.84	51.778
273.21	55.505
273.58	49.890
273.95	51.096
274.32	54.751
274.69	51.641
275.06	51.738
275.43	50.893
275.80	52.953
276.17	51.674
276.54	51.527
276.91	50.823
277.28	49.493
277.65	51.446
278.02	53.236
278.39	49.312
278.76	50.797
279.13	49.407
279.50	52.286
279.87	50.317
280.23	50.810
280.60	49.503
280.97	51.650
281.34	50.290
281.71	48.077
282.08	53.024
282.45	51.527
282.82	54.457
283.19	49.818
283.56	51.465
283.92	47.880
284.29	50.372
284.66	45.863
285.03	48.841
285.40	49.631
285.77	50.702
286.14	49.819
286.51	50.622
286.87	49.728
287.24	47.952
287.61	49.421
287.98	47.834
288.35	46.116
288.72	46.180
289.08	45.254
289.45	48.485
289.82	45.156
290.19	47.455
290.56	44.298
290.93	42.607
291.29	43.436
291.66	47.343
292.03	44.113
292.40	42.771
292.77	43.168
293.13	43.740
293.50	43.239
293.87	43.098
294.24	43.439
294.60	41.515
294.97	42.944
295.34	41.630
295.71	41.369
296.08	40.399
296.44	39.628
296.81	40.313
297.18	38.592
297.55	40.960
297.91	41.562
298.28	38.767
298.65	38.633
299.02	40.241
299.38	36.765
299.75	38.451
300.12	38.974
300.48	37.340
300.85	38.663
301.22	37.387
301.59	38.101
301.95	38.035
302.32	37.288
302.69	37.087
303.05	35.775
303.42	36.125
303.79	36.603
304.15	35.308
304.52	35.356
304.89	36.718
305.25	34.921
305.62	35.958
305.99	37.927
306.35	35.294
306.72	36.333
307.09	36.209
307.45	34.733
307.82	32.514
308.19	35.459
308.55	34.314
308.92	33.190
309.29	34.811
309.65	34.358
310.02	33.693
310.38	33.405
310.75	32.684
311.12	34.298
311.48	33.299
311.85	32.853
312.22	32.853
312.58	34.893
312.95	32.212
313.31	32.867
313.68	34.271
314.05	32.839
314.41	32.596
314.78	32.068
315.14	32.873
315.51	31.814
315.87	32.139
316.24	32.556
316.61	32.438
316.97	33.632
317.34	32.563
317.70	31.076
318.07	33.022
318.43	31.367
318.80	32.582
319.16	32.645
319.53	31.485
319.89	31.421
320.26	31.961
320.62	30.481
320.99	30.746
321.35	29.557
321.72	31.525
322.08	32.938
322.45	32.970
322.81	33.910
323.18	31.988
323.54	32.717
323.91	31.233
324.27	31.654
324.64	30.439
325.00	30.628
325.37	30.226
325.73	30.359
326.10	28.875
326.46	29.422
326.83	30.979
327.19	30.692
327.56	31.346
327.92	31.096
328.29	30.909
328.65	30.273
329.01	30.300
329.38	30.419
329.74	32.601
330.11	29.918
330.47	30.427
330.84	30.064
331.20	30.054
331.56	30.447
331.93	31.528
332.29	30.685
332.66	30.729
333.02	29.774
333.38	29.839
333.75	30.187
334.11	30.044
334.48	30.274
334.84	29.659
335.20	29.876
335.57	30.235
335.93	30.260
336.29	29.761
336.66	29.163
337.02	30.090
337.38	27.897
337.75	29.412
338.11	29.517
338.47	29.270
338.84	28.131
339.20	28.471
339.56	29.412
339.93	29.806
340.29	28.344
340.65	28.584
341.02	29.595
341.38	28.559
341.74	28.027
342.11	28.242
342.47	28.240
342.83	28.380
343.20	28.950
343.56	27.755
343.92	28.548
344.28	29.521
344.65	28.218
345.01	27.983
345.37	27.741
345.73	26.759
346.10	26.492
346.46	28.270
346.82	27.747
347.19	27.034
347.55	27.689
347.91	29.055
348.27	27.128
348.63	28.433
349.00	28.481
349.36	25.215
349.72	29.061
350.08	27.586
350.45	26.714
350.81	27.548
351.17	26.929
351.53	25.617
351.89	26.516
352.26	26.822
352.62	27.803
352.98	27.453
353.34	27.738
353.70	25.714
354.07	27.773
354.43	27.431
354.79	26.387
355.15	27.157
355.51	27.109
355.87	27.589
356.24	26.608
356.60	28.203
356.96	26.482
357.32	26.524
357.68	26.207
358.04	26.790
358.40	25.831
358.77	26.043
359.13	27.008
359.49	26.606
359.85	27.058
360.21	26.636
360.57	27.108
360.93	26.593
361.29	25.785
361.66	24.924
362.02	25.888
362.38	25.605
362.74	25.861
363.10	25.251
363.46	26.852
363.82	26.822
364.18	27.207
364.54	26.948
364.90	25.996
365.26	25.321
365.62	27.085
365.98	25.747
366.35	25.704
366.71	25.018
367.07	25.829
367.43	26.561
367.79	25.842
368.15	24.964
368.51	26.503
368.87	25.893
369.23	26.035
369.59	26.042
369.95	26.004
370.31	27.145
370.67	25.886
371.03	26.531
371.39	25.318
371.75	26.681
372.11	25.466
372.47	25.597
372.83	25.035
373.19	26.714
373.55	27.445
373.91	25.249
374.27	24.778
374.63	26.639
374.99	26.565
375.35	25.841
375.71	27.009
376.07	26.968
376.42	25.099
376.78	25.948
377.14	26.847
377.50	26.241
377.86	25.943
378.22	25.817
378.58	25.571
378.94	26.017
379.30	26.082
379.66	25.744
380.02	26.025
380.38	25.317
380.74	25.147
381.09	26.128
381.45	26.014
381.81	25.408
382.17	25.815
382.53	24.438
382.89	26.256
383.25	26.490
383.61	25.177
383.97	25.781
384.32	25.907
384.68	25.816
385.04	25.845
385.40	25.685
385.76	25.854
386.12	26.296
386.48	27.104
386.83	25.460
387.19	26.360
387.55	25.742
387.91	25.963
388.27	25.271
388.62	25.901
388.98	25.742
389.34	25.153
389.70	26.005
390.06	25.171
390.42	26.346
390.77	25.615
391.13	26.087
391.49	25.265
391.85	25.748
392.20	25.546
392.56	25.107
392.92	25.613
393.28	26.177
393.64	25.616
393.99	26.215
394.35	24.878
394.71	26.251
395.07	26.114
395.42	24.374
395.78	25.959
396.14	25.919
396.50	25.810
396.85	25.787
397.21	26.549
397.57	25.836
397.92	25.059
398.28	25.056
398.64	25.521
399.00	26.685
399.35	26.212
399.71	26.481
400.07	25.552
400.42	25.912
400.78	25.999
401.14	26.347
401.49	25.059
401.85	26.419
402.21	25.626
402.57	24.818
402.92	26.243
403.28	24.755
403.63	24.805
403.99	25.420
404.35	25.242
404.70	25.746
405.06	25.836
405.42	25.646
405.77	24.943
406.13	25.099
406.49	25.764
406.84	25.255
407.20	26.148
407.55	25.459
407.91	25.648
408.27	25.490
408.62	25.857
408.98	25.955
409.34	25.289
409.69	25.079
410.05	24.864
410.40	25.628
410.76	25.015
411.11	25.499
411.47	25.256
411.83	25.367
412.18	24.691
412.54	24.039
412.89	24.909
413.25	24.085
413.60	24.362
413.96	24.153
414.31	25.138
414.67	24.254
415.03	25.744
415.38	25.504
415.74	25.709
416.09	24.872
416.45	24.868
416.80	25.618
417.16	23.721
417.51	25.279
417.87	25.049
418.22	25.601
418.58	25.160
418.93	25.261
419.29	25.345
419.64	24.435
420.00	25.273
420.35	25.133
420.71	25.030
421.06	25.562
421.42	24.590
421.77	25.126
422.12	24.678
422.48	25.013
422.83	25.000
423.19	24.220
423.54	25.360
423.90	24.060
424.25	23.756
424.61	25.211
424.96	25.278
425.31	24.483
425.67	25.158
426.02	24.211
426.38	25.166
426.73	25.073
427.09	25.000
427.44	25.227
427.79	25.000
428.15	25.972
428.50	24.399
428.85	24.760
429.21	24.737
429.56	23.958
429.92	24.649
430.27	24.327
430.62	25.444
430.98	24.621
431.33	25.133
431.68	25.255
432.04	25.518
432.39	24.900
432.74	24.460
433.10	24.986
433.45	23.777
433.80	25.084
434.16	25.148
434.51	25.096
434.86	25.659
435.22	25.111
435.57	24.235
435.92	25.381
436.28	24.748
436.63	24.647
436.98	24.570
437.34	24.867
437.69	23.921
438.04	24.390
438.39	25.030
438.75	24.447
439.10	24.764
439.45	23.476
439.81	24.940
440.16	24.645
440.51	25.176
440.86	25.159
441.22	24.046
441.57	24.895
441.92	25.064
442.27	23.918
442.63	23.873
442.98	24.379
443.33	24.437
443.68	24.388
444.03	25.540
444.39	24.914
444.74	24.835
445.09	24.616
445.44	25.380
445.79	24.681
446.15	24.589
446.50	24.496
446.85	24.577
447.20	24.566
447.55	24.475
447.91	25.267
448.26	24.469
448.61	23.995
448.96	25.042
449.31	25.366
449.66	25.701
450.02	24.155
450.37	24.464
450.72	24.068
451.07	24.199
451.42	23.048
451.77	24.656
452.12	24.732
452.47	24.307
452.83	24.345
453.18	25.617
453.53	24.192
453.88	25.478
454.23	25.091
454.58	24.860
454.93	24.811
455.28	25.813
455.63	24.263
455.98	24.458
456.34	24.206
456.69	24.703
457.04	23.417
457.39	22.907
457.74	24.335
458.09	24.072
458.44	24.942
458.79	23.823
459.14	24.244
459.49	24.630
459.84	24.396
460.19	24.284
460.54	24.803
460.89	24.664
461.24	24.347
461.59	24.033
461.94	24.761
462.29	24.777
462.64	24.901
462.99	24.431
463.34	23.903
463.69	24.618
464.04	23.726
464.39	24.014
464.74	24.645
465.09	23.211
465.44	23.858
465.79	25.042
466.14	25.029
466.49	24.928
466.84	24.490
467.19	24.875
467.54	23.101
467.89	24.168
468.24	24.406
468.59	24.360
468.94	24.630
469.29	24.042
469.64	24.865
469.99	25.051
470.34	24.182
470.68	24.346
471.03	24.226
471.38	23.611
471.73	24.406
472.08	23.561
472.43	23.938
472.78	24.133
473.13	22.664
473.48	23.803
473.83	23.511
474.17	23.694
474.52	24.361
474.87	24.126
475.22	24.484
475.57	23.889
475.92	24.352
476.27	23.086
476.61	23.155
476.96	24.707
477.31	24.327
477.66	23.575
478.01	24.095
478.36	23.625
478.70	24.506
479.05	23.472
479.40	23.990
479.75	23.853
480.10	24.157
480.45	23.211
480.79	24.778
481.14	24.134
481.49	23.621
481.84	23.486
482.19	24.440
482.53	24.432
482.88	23.683
483.23	23.286
483.58	23.959
483.92	24.128
484.27	22.596
484.62	23.801
484.97	24.708
485.31	23.136
485.66	22.719
486.01	23.438
486.36	24.232
486.70	25.082
487.05	24.155
487.40	23.611
487.75	24.228
488.09	24.460
488.44	25.169
488.79	24.903
489.13	26.017
489.48	25.082
489.83	24.891
490.17	24.815
490.52	24.139
490.87	23.557
491.22	24.241
491.56	24.120
491.91	24.427
492.26	22.972
492.60	23.644
492.95	23.989
493.30	23.440
493.64	22.708
493.99	23.423
494.34	23.952
494.68	24.438
495.03	23.566
495.37	23.500
495.72	24.263
496.07	23.932
496.41	24.595
496.76	23.425
497.11	24.305
497.45	24.569
497.80	23.312
498.14	23.428
498.49	23.606
498.84	24.223
499.18	25.390
499.53	23.624
499.87	23.793
500.22	23.578
500.56	23.462
500.91	23.645
501.26	24.503
501.60	23.736
501.95	23.865
502.29	24.091
502.64	23.527
502.98	23.383
503.33	23.120
503.67	23.611
504.02	23.177
504.36	23.873
504.71	22.999
505.06	23.565
505.40	24.601
505.75	23.222
506.09	23.610
506.44	23.910
506.78	23.583
507.13	24.408
507.47	23.839
507.82	23.645
508.16	24.197
508.51	23.854
508.85	23.551
509.19	23.077
509.54	23.996
509.88	23.617
510.23	23.532
510.57	23.704
510.92	24.006
511.26	23.179
511.61	23.056
511.95	24.030
512.30	23.749
512.64	22.816
512.98	23.157
513.33	23.229
513.67	23.953
514.02	23.714
514.36	23.601
514.70	23.543
515.05	22.927
515.39	23.299
515.74	25.131
516.08	23.516
516.42	23.796
516.77	23.281
517.11	22.883
517.46	23.923
517.80	23.947
518.14	22.645
518.49	23.670
518.83	23.917
519.17	23.623
519.52	23.193
519.86	23.656
520.20	23.105
520.55	22.831
520.89	22.542
521.23	22.833
521.58	22.445
521.92	24.319
522.26	23.365
522.61	22.624
522.95	22.463
523.29	23.072
523.64	22.798
523.98	23.616
524.32	23.444
524.66	23.043
525.01	23.186
525.35	23.776
525.69	24.073
526.04	23.368
526.38	24.570
526.72	23.052
527.06	23.372
527.41	23.300
527.75	22.904
528.09	23.627
528.43	24.262
528.78	22.927
529.12	24.968
529.46	23.840
529.80	23.822
530.15	23.760
530.49	23.415
530.83	24.558
531.17	22.492
531.51	23.175
531.86	23.371
532.20	22.402
532.54	23.195
532.88	23.123
533.22	23.463
533.57	23.499
533.91	23.096
534.25	22.690
534.59	22.986
534.93	22.464
535.27	23.474
535.62	22.762
535.96	23.594
536.30	22.906
536.64	23.705
536.98	22.740
537.32	23.151
537.66	22.743
538.01	22.887
538.35	24.054
538.69	23.329
539.03	23.290
539.37	23.021
539.71	22.882
540.05	23.509
540.39	22.992
540.73	23.082
541.07	23.634
541.42	22.890
541.76	22.525
542.10	23.498
542.44	23.851
542.78	23.270
543.12	23.286
543.46	21.438
543.80	23.211
544.14	23.170
544.48	23.885
544.82	23.884
545.16	23.407
545.50	22.948
545.84	23.922
546.18	23.856
546.52	23.826
546.86	22.507
547.20	23.910
547.54	23.416
547.88	24.088
548.22	22.739
548.56	23.180
548.90	24.057
549.24	22.985
549.58	22.865
549.92	23.604
550.26	24.566
550.60	23.542
550.94	23.285
551.28	23.777
551.62	22.452
551.96	23.951
552.30	22.369
552.64	23.082
552.98	23.546
553.32	23.232
553.66	23.216
554.00	23.810
554.34	22.671
554.68	22.588
555.02	23.589
555.36	23.364
555.69	22.923
556.03	23.298
556.37	23.329
556.71	23.765
557.05	23.873
557.39	22.123
557.73	22.538
558.07	23.060
558.41	22.737
558.75	22.586
559.08	21.946
559.42	22.665
559.76	22.776
560.10	23.043
560.44	22.905
560.78	23.730
561.12	23.257
561.45	23.219
561.79	23.624
562.13	23.422
562.47	23.389
562.81	22.348
563.15	22.883
563.48	23.428
563.82	23.259
564.16	22.786
564.50	23.992
564.84	23.743
565.17	23.408
565.51	23.403
565.85	22.921
566.19	23.254
566.52	22.962
566.86	23.388
567.20	24.334
567.54	24.158
567.88	23.004
568.21	24.161
568.55	23.383
568.89	22.366
569.23	23.323
569.56	23.077
569.90	23.682
570.24	23.788
570.57	23.585
570.91	23.495
571.25	24.157
571.59	24.071
571.92	23.988
572.26	23.457
572.60	23.953
572.93	23.970
573.27	23.140
573.61	23.487
573.95	23.576
574.28	23.951
574.62	23.767
574.96	23.729
575.29	23.374
575.63	23.892
575.97	23.544
576.30	23.705
576.64	23.499
576.98	23.663
577.31	23.433
577.65	23.641
577.98	23.874
578.32	23.763
578.66	23.546
578.99	23.788
579.33	23.939
579.67	23.738
580.00	23.710
580.34	24.095
580.67	24.344
581.01	23.629
581.35	23.880
581.68	23.168
582.02	23.701
582.35	23.645
582.69	24.190
583.02	24.359
583.36	24.380
583.70	23.733
584.03	24.892
584.37	24.330
584.70	24.504
585.04	24.228
585.37	23.699
585.71	23.851
586.04	24.088
586.38	23.202
586.72	24.070
587.05	24.073
587.39	23.190
587.72	23.706
588.06	24.292
588.39	24.238
588.73	24.562
589.06	25.064
589.40	24.425
589.73	24.150
590.07	24.363
590.40	23.579
590.73	24.710
591.07	23.975
591.40	24.350
591.74	24.283
592.07	24.279
592.41	24.544
592.74	23.213
593.08	23.515
593.41	23.783
593.75	23.211
594.08	23.832
594.41	24.399
594.75	23.669
595.08	24.323
595.42	23.736
595.75	24.072
596.09	23.710
596.42	24.509
596.75	24.105
597.09	24.622
597.42	23.745
597.75	23.782
598.09	24.763
598.42	23.906
598.76	23.131
599.09	23.047
599.42	23.491
599.76	23.518
600.09	23.588
600.42	23.585
600.76	23.277
601.09	23.547
601.42	23.862
601.76	23.598
602.09	23.681
602.42	23.416
602.76	23.639
603.09	23.992
603.42	23.771
603.76	23.734
604.09	23.468
604.42	23.106
604.76	23.419
605.09	24.231
605.42	23.404
605.75	23.846
606.09	24.118
606.42	23.377
606.75	22.799
607.09	23.952
607.42	23.592
607.75	23.223
608.08	23.452
608.42	23.273
608.75	23.084
609.08	23.868
609.41	23.966
609.75	23.891
610.08	24.265
610.41	23.566
610.74	23.743
611.07	24.442
611.41	22.642
611.74	23.599
612.07	23.899
612.40	23.881
612.73	23.533
613.07	23.886
613.40	24.357
613.73	23.869
614.06	22.460
614.39	24.126
614.72	22.793
615.06	22.228
615.39	22.572
615.72	23.520
616.05	22.860
616.38	22.925
616.71	23.183
617.05	24.065
617.38	23.653
617.71	23.280
618.04	22.733
618.37	23.082
618.70	22.947
619.03	22.817
619.36	24.242
619.69	23.259
620.03	22.245
620.36	21.589
620.69	24.049
621.02	23.135
621.35	22.823
621.68	22.459
622.01	23.058
622.34	22.593
622.67	22.031
623.00	22.953
623.33	23.060
623.66	21.713
623.99	21.654
624.32	22.098
624.65	23.620
624.99	23.002
625.32	22.305
625.65	23.932
625.98	22.770
626.31	23.491
626.64	22.594
626.97	22.688
627.30	23.064
627.63	21.416
627.96	22.454
628.29	22.702
628.62	21.968
628.95	22.343
629.28	22.462
629.61	21.688
629.94	21.645
630.26	22.863
630.59	23.518
630.92	21.622
631.25	22.681
631.58	21.270
631.91	21.809
632.24	22.444
632.57	22.444
632.90	22.184
633.23	22.196
633.56	20.117
633.89	21.462
634.22	21.724
634.55	22.476
634.88	21.644
635.20	21.598
635.53	21.120
635.86	20.529
636.19	21.612
636.52	21.147
636.85	20.337
637.18	20.750
637.51	21.933
637.83	21.172
638.16	20.526
638.49	20.138
638.82	20.849
639.15	21.401
639.48	20.752
639.81	23.513
640.13	20.541
640.46	20.798
640.79	21.008
641.12	22.144
641.45	22.238
641.77	21.257
642.10	20.242
642.43	21.851
642.76	21.732
643.09	20.794
643.41	20.794
643.74	22.099
644.07	21.685
644.40	20.421
644.73	22.112
645.05	17.529
645.38	21.026
645.71	20.962
646.04	23.697
646.36	20.593
646.69	20.069
647.02	20.939
647.35	21.480
647.67	21.533
648.00	22.320
648.33	21.248
648.66	18.065
648.98	21.975
649.31	21.077
649.64	20.937
649.96	19.780
650.29	20.820
650.62	22.547
650.94	19.224
651.27	23.570
651.60	20.242
651.92	20.890
652.25	21.703
652.58	18.058
652.90	21.188
653.23	20.806
653.56	21.237
653.88	21.803
654.21	21.141
654.54	22.757
654.86	19.904
655.19	22.923
655.52	21.542
655.84	20.582
656.17	23.038
656.49	33.031
656.82	35.970
657.15	28.124
657.47	20.820
657.80	15.986
658.13	18.805
658.45	26.443
658.78	27.425
659.10	28.842
659.43	28.843
659.75	28.914
660.08	28.698
660.41	27.757
660.73	26.073
661.06	26.812
661.38	25.714
661.71	19.312
662.03	23.992
662.36	21.535
662.68	18.987
663.01	19.108
663.33	21.088
663.66	20.815
663.98	16.964
664.31	18.121
664.63	22.345
664.96	19.523
665.28	21.041
665.61	17.970
665.93	19.959
666.26	20.850
666.58	21.206
666.91	21.604
667.23	19.518
667.56	17.234
667.88	22.624
668.21	18.894
668.53	16.355
668.86	20.323
669.18	20.776
669.50	20.327
669.83	19.465
670.15	18.834
670.48	18.925
670.80	16.401
671.13	17.833
671.45	16.441
671.77	18.415
672.10	21.302
672.42	19.557
672.75	20.000
673.07	19.279
673.39	20.219
673.72	20.866
674.04	22.081
674.37	18.144
674.69	22.951
675.01	20.213
675.34	19.089
675.66	21.598
675.98	18.502
676.31	20.814
676.63	19.310
676.95	21.460
677.28	20.418
677.60	21.041
677.92	20.705
678.25	19.694
678.57	20.576
678.89	19.497
679.22	20.964
679.54	20.316
679.86	18.400
680.18	20.722
680.51	18.994
680.83	21.143
681.15	19.653
681.48	22.921
681.80	20.363
682.12	18.913
682.44	22.200
682.77	17.749
683.09	20.545
683.41	20.575
683.73	18.721
684.06	17.634
684.38	21.339
684.70	19.753
685.02	20.669
685.34	18.519
685.67	17.045
685.99	18.715
686.31	21.185
686.63	21.454
686.96	20.518
687.28	19.268
687.60	22.656
687.92	16.926
688.24	19.882
688.56	20.641
688.89	18.376
689.21	22.101
689.53	19.770
689.85	20.935
690.17	16.368
690.49	18.245
690.82	21.687
691.14	18.160
691.46	17.738
691.78	19.383
692.10	20.127
692.42	18.444
692.74	21.245
693.06	19.326
693.39	19.687
693.71	17.833
694.03	20.086
694.35	17.833
694.67	19.858
694.99	16.368
695.31	19.898
695.63	17.602
695.95	20.596
696.27	19.950
696.59	19.251
696.91	17.978
697.23	19.792
697.56	18.750
697.88	16.216
698.20	17.131
698.52	18.610
698.84	19.660
699.16	21.667
699.48	18.500
699.80	19.799
700.12	22.166
700.44	19.274
700.76	17.201
701.08	20.930
701.40	13.897
701.72	23.457
702.04	19.231
702.36	19.277
702.68	17.665
703.00	18.261
703.32	14.613
703.64	20.294
703.96	18.605
704.28	20.710
704.60	14.557
704.91	14.921
705.23	13.592
705.55	12.500
705.87	16.041
706.19	12.847
706.51	16.319
706.83	20.656
707.15	14.013
707.47	19.835
707.79	16.753
708.11	15.013
708.43	19.451
708.74	15.584
709.06	16.156
709.38	18.391
709.70	15.625
710.02	19.632
710.34	13.201
710.66	14.603
710.98	14.826
711.29	18.387
711.61	16.294
711.93	16.066
712.25	17.940
712.57	16.376
712.89	17.986
713.20	19.244
713.52	18.284
713.84	18.149
714.16	19.344
714.48	18.413
714.80	18.769
715.11	16.427
715.43	18.373
715.75	19.626
716.07	16.393
716.39	17.391
716.70	18.118
717.02	15.185
717.34	18.321
717.66	15.768
717.97	16.393
718.29	14.286
718.61	18.651
718.93	19.713
719.24	13.603
719.56	15.094
719.88	18.182
720.20	17.978
720.51	19.925
720.83	12.048
721.15	14.344
721.46	19.216
721.78	20.690
722.10	18.800
722.42	18.595
722.73	13.546
723.05	15.261
723.37	19.216
723.68	15.789
724.00	21.138
724.32	14.815
724.63	15.768
724.95	23.140
725.27	10.965
725.58	21.552
725.90	15.079
726.22	22.509
726.53	21.293
726.85	12.157
727.16	19.925
727.48	15.000
727.80	18.033
728.11	13.025
728.43	23.140
728.74	19.141
729.06	17.803
729.38	18.677
729.69	15.354
730.01	13.386
730.32	12.351
730.64	18.315
730.96	19.030
731.27	16.786
731.59	18.971
731.90	17.791
732.22	20.552
732.53	23.510
732.85	15.436
733.16	15.580
733.48	18.815
733.80	14.947
734.11	18.276
734.43	19.728
734.74	16.914
735.06	21.003
735.37	20.795
735.69	19.032
736.00	16.835
736.32	14.238
736.63	13.103
736.95	19.928
737.26	18.543
737.58	16.547
737.89	18.280
738.21	12.030
738.52	17.692
738.83	18.750
739.15	15.812
739.46	18.548
739.78	17.133
740.09	16.783
740.41	17.832
740.72	25.182
741.04	14.286
741.35	15.152
741.66	18.056
741.98	12.381
742.29	22.066
742.61	18.717
742.92	16.822
743.23	16.228
743.55	17.568
743.86	20.444
744.18	15.238
744.49	12.808
744.80	20.812
745.12	13.918
745.43	13.568
745.74	18.932
746.06	16.098
746.37	20.264
746.68	15.423
747.00	14.660
747.31	13.462
747.62	17.512
747.94	16.157
748.25	16.744
748.56	15.238
748.88	10.326
749.19	16.432
749.50	25.490
749.82	20.889
750.13	16.740
750.44	13.008
750.75	13.200
751.07	21.071
751.38	17.343
751.69	12.595
752.01	17.692
752.32	19.844
752.63	14.615
752.94	18.254
753.26	16.522
753.57	21.429
753.88	14.224
754.19	14.108
754.51	15.625
754.82	16.206
755.13	16.461
755.44	17.769
755.75	21.811
756.07	12.048
756.38	19.922
756.69	19.495
757.00	19.861
757.31	17.114
757.63	20.249
757.94	16.763
758.25	15.698
758.56	19.137
758.87	18.466
759.18	17.000
759.50	24.555
759.81	14.234
760.12	14.865
760.43	22.654
760.74	17.812
761.05	17.416
761.36	20.359
761.67	17.751
761.99	19.677
762.30	19.203
762.61	20.377
762.92	18.386
763.23	18.483
763.54	16.444
763.85	17.722
764.16	18.367
764.47	19.068
764.78	16.479
765.10	21.223
765.41	12.258
765.72	18.868
766.03	10.954
766.34	19.925
766.65	17.004
766.96	14.500
767.27	15.104
767.58	18.023
767.89	15.484
768.20	17.791
768.51	12.568
768.82	14.054
769.13	17.500
769.44	16.228
769.75	17.316
770.06	17.431
770.37	15.023
770.68	17.708
770.99	16.337
771.30	17.476
771.61	18.981
771.92	14.719
772.23	19.159
772.54	19.149
772.85	15.976
773.16	12.805
773.47	16.867
773.78	25.275
774.09	17.333
774.39	21.605
774.70	12.752
775.01	19.565
775.32	12.687
775.63	9.917
775.94	13.534
776.25	17.143
776.56	13.115
776.87	17.699
777.18	22.124
777.48	4.545
777.79	10.435
778.10	9.174
778.41	8.475
778.72	14.050
779.03	24.627
779.34	12.782
779.65	12.418
779.95	15.942
780.26	2.721
780.57	14.655
780.88	13.889
781.19	2.020
781.50	6.400
781.80	11.765
782.11	20.513
782.42	16.867
782.73	11.679
783.04	22.297
783.34	11.364
783.65	22.481
783.96	17.886
784.27	15.385
784.57	11.382
784.88	14.634
785.19	10.526
785.50	3.093
785.81	7.619
786.11	7.843
786.42	1.818
786.73	14.414
787.04	13.861
787.34	17.143
787.65	13.333
787.96	24.510
788.26	15.315
788.57	12.903
788.88	17.187
789.19	12.821
789.49	5.882
789.80	14.530
790.11	16.814
790.41	9.091
790.72	17.925
791.03	-1.389
791.33	5.263
791.64	12.903
791.95	1.333
792.25	-2.857
792.56	14.634
792.87	14.286
793.17	14.474
793.48	6.757
793.79	-1.408
794.09	1.266
794.40	17.021
794.70	13.084
795.01	7.895
795.32	5.455
795.62	9.821
795.93	16.495
796.23	1.099
796.54	15.789
796.85	-1.370
797.15	1.389
797.46	16.438
797.76	14.085
798.07	13.750
798.37	4.412
798.68	22.857
798.99	14.286
799.29	17.105
799.60	10.000
799.90	-8.333
800.21	0.000
800.51	14.286
800.82	4.918
801.12	15.789
801.43	14.085
801.73	5.085
802.04	14.754
802.34	-12.727
802.65	-5.769
802.95	5.556
803.26	-7.500
803.56	5.769
803.87	-2.632
804.17	8.065
804.48	12.308
804.78	-17.949
805.09	0.000
805.39	-9.375
805.70	-16.981
806.00	40.351
806.30	21.622
806.61	22.059
806.91	9.877
807.22	21.333
807.52	8.955
807.83	-3.226
808.13	19.048
808.43	-5.455
808.74	4.545
809.04	0.000
809.35	8.219
809.65	17.544
809.95	1.471
810.26	25.490
810.56	0.000
810.86	-10.204
811.17	5.714
811.47	7.692
811.77	25.806
812.08	-31.579
812.38	2.381
812.69	15.217
812.99	3.226
813.29	2.381
813.59	-74.074
813.90	-19.149
814.20	-30.233
814.50	2.083
814.81	13.333
815.11	-2.439
815.41	-26.667
815.72	25.714
816.02	-36.111
816.32	23.077
816.62	27.027
816.93	-44.118
817.23	13.043
817.53	-26.471
817.84	29.412
818.14	-53.125
818.44	-20.690
818.74	-9.677
819.04	-25.926
819.35	-26.667
819.65	-24.000
819.95	0.000
820.25	-28.000
820.56	-5.263
820.86	-5.000
821.16	6.383
821.46	12.069
821.76	-20.513
822.07	-30.000
822.37	-16.279
822.67	0.000
822.97	-2.703
823.27	-24.324
823.57	40.000
823.88	10.811
824.18	-85.714
824.48	-11.538
824.78	-130.769
825.08	26.087
825.38	4.167
825.69	-12.500
825.99	-90.000
826.29	-10.811
826.59	2.941
826.89	16.000
827.19	11.429
827.49	21.053
827.79	9.375
828.09	-3.333
828.39	13.043
828.70	-13.793
829.00	-13.793
829.30	-5.556
829.60	37.500
829.90	-16.667
830.20	-15.385
830.50	-33.333
830.80	-21.429
831.10	15.385
831.40	-19.048
831.70	-29.412
832.00	4.167
832.30	26.316
832.60	-62.500
832.90	-100.000
833.20	-70.588
833.50	-33.333
833.80	-46.667
834.10	-25.000
834.40	33.333
834.70	16.667
835.00	-34.615
835.30	-12.500
835.60	13.793
835.90	-77.778
836.20	-136.364
836.50	-133.333
836.80	2.857
837.10	37.143
837.40	-41.176
837.70	-45.455
838.00	-4.167
838.30	-43.750
838.60	0.000
838.90	15.000
839.19	-43.478
839.49	0.000
839.79	-66.667
840.09	13.043
840.39	-50.000
840.69	0.000
840.99	-47.368
841.29	18.750
841.59	0.000
841.88	-77.778
842.18	0.000
842.48	-111.765
842.78	20.690
843.08	-14.286
843.38	-69.231
843.68	-144.444
843.97	-38.462
844.27	-45.455
844.57	-120.000
844.87	12.000
845.17	-400.000
845.47	-100.000
845.76	-122.222
846.06	0.000
846.36	-125.000
846.66	-80.000
846.96	-31.579
847.25	0.000
847.55	-33.333
847.85	13.333
848.15	-210.000
848.44	3.846
848.74	47.368
849.04	400.000
849.34	-66.667
849.63	-52.632
849.93	0.000
850.23	-35.000
850.53	-19.048
850.82	-32.000
851.12	-78.947
851.42	-500.000
851.71	-28.571
852.01	-100.000
852.31	-29.412
852.61	-6.667
852.90	-66.667
853.20	-216.667
853.50	-5.556
853.79	-21.053
854.09	-46.667
854.39	3.571
854.68	-39.130
854.98	-191.667
855.28	6.897
855.57	6.250
855.87	-5.000
856.17	-26.667
856.46	6.897
856.76	-46.667
857.05	-47.059
857.35	-100.000
857.65	-54.545
857.94	-7.407
858.24	-100.000
858.53	-14.286
858.83	-25.000
859.13	-55.556
859.42	9.524
859.72	-87.500
860.01	-333.333
860.31	-87.500
860.60	-480.000
860.90	-77.778
861.20	-75.000
861.49	-257.143
861.79	0.000
862.08	-550.000
862.38	-25.000
862.67	-15.385
862.97	17.647
863.26	55.000
863.56	-5.882
863.85	600.000
864.15	-90.000
864.44	-53.846
864.74	10.000
865.03	-150.000
865.33	-183.333
865.62	-23.529
865.92	-525.000
866.21	-35.714
866.51	-75.000
866.80	-700.000
867.10	-266.667
867.39	-58.824
867.69	52.174
867.98	-14.286
868.27	-280.000
868.57	-100.000
868.86	-81.818
869.16	5.882
869.45	-16.667
869.75	-114.286
870.04	1000.000
870.33	-33.333
870.63	-200.000
870.92	-22.222
871.22	-66.667
871.51	-63.636
871.80	8.333
872.10	-20.000
>>>>>End Processed Spectral Data<<<<<
