SpectraSuite Data File
++++++++++++++++++++++++++++++++++++
Date: Sat May 16 11:22:06 PDT 2015
User: schluterlab
Dark Spectrum Present: Yes
Reference Spectrum Present: Yes
Number of Sampled Component Spectra: 1
Spectrometers: USB2E3373
Integration Time (usec): 3000 (USB2E3373)
Spectra Averaged: 3 (USB2E3373)
Boxcar Smoothing: 0 (USB2E3373)
Correct for Electrical Dark: No (USB2E3373)
Strobe/Lamp Enabled: No (USB2E3373)
Correct for Detector Non-linearity: No (USB2E3373)
Correct for Stray Light: No (USB2E3373)
Number of Pixels in Processed Spectrum: 2048
>>>>>Begin Processed Spectral Data<<<<<
178.53	0.000
178.91	120.000
179.29	366.667
179.67	-800.000
180.04	-7.692
180.42	1300.000
180.80	425.000
181.18	325.000
181.56	-62.500
181.94	1500.000
182.31	500.000
182.69	-30.769
183.07	-666.667
183.45	1150.000
183.83	200.000
184.20	-185.714
184.58	-87.500
184.96	-175.000
185.34	125.000
185.72	-475.000
186.09	216.667
186.47	-212.500
186.85	-212.500
187.23	-237.500
187.61	-425.000
187.98	-212.500
188.36	-50.000
188.74	-150.000
189.12	-0.000
189.49	257.143
189.87	-58.333
190.25	350.000
190.63	7.143
191.00	-155.556
191.38	620.000
191.76	-46.667
192.14	300.000
192.51	-180.000
192.89	-266.667
193.27	0.000
193.65	-22.222
194.02	-328.571
194.40	566.667
194.78	-210.000
195.15	-1400.000
195.53	36.364
195.91	-250.000
196.29	400.000
196.66	-400.000
197.04	2000.000
197.42	-50.000
197.79	13.333
198.17	-300.000
198.55	-300.000
198.92	-1000.000
199.30	200.000
199.68	-750.000
200.05	-77.778
200.43	-200.000
200.81	-1400.000
201.18	-66.667
201.56	314.286
201.94	-73.333
202.31	-18.182
202.69	-30.000
203.07	-160.000
203.44	400.000
203.82	-550.000
204.19	-450.000
204.57	-400.000
204.95	-1100.000
205.32	-81.250
205.70	200.000
206.08	-2500.000
206.45	-22.222
206.83	-400.000
207.20	-250.000
207.58	-600.000
207.96	-500.000
208.33	-25.000
208.71	-66.667
209.08	180.000
209.46	-128.571
209.84	650.000
210.21	0.000
210.59	30.000
210.96	1200.000
211.34	-300.000
211.71	-233.333
212.09	525.000
212.46	900.000
212.84	-2100.000
213.22	1066.667
213.59	191.667
213.97	44.444
214.34	180.000
214.72	-20.000
215.09	-466.667
215.47	-33.333
215.84	-100.000
216.22	-90.000
216.59	-73.333
216.97	-400.000
217.34	1000.000
217.72	-57.143
218.09	-266.667
218.47	-257.143
218.84	242.857
219.22	28.571
219.59	0.000
219.97	100.000
220.34	550.000
220.72	187.500
221.09	-38.462
221.47	0.000
221.84	-133.333
222.22	50.000
222.59	500.000
222.97	-262.500
223.34	-850.000
223.72	-266.667
224.09	-71.429
224.46	-500.000
224.84	-42.857
225.21	-185.714
225.59	-145.455
225.96	-125.000
226.34	-57.143
226.71	-155.556
227.08	5.000
227.46	1600.000
227.83	-271.429
228.21	-250.000
228.58	200.000
228.95	-37.500
229.33	-1600.000
229.70	-100.000
230.08	-450.000
230.45	-33.333
230.82	-100.000
231.20	-500.000
231.57	-950.000
231.95	1500.000
232.32	-4.762
232.69	-155.556
233.07	-42.857
233.44	-1150.000
233.81	-53.333
234.19	-111.111
234.56	-75.000
234.93	21.875
235.31	-228.571
235.68	-107.143
236.05	-17.647
236.43	-54.545
236.80	-22.581
237.17	-25.000
237.55	-38.095
237.92	-86.364
238.29	0.000
238.67	-14.706
239.04	-41.667
239.41	-32.258
239.79	-64.103
240.16	-45.238
240.53	-23.636
240.91	-35.897
241.28	-1.818
241.65	3.077
242.02	-9.836
242.40	-18.033
242.77	-6.061
243.14	-18.644
243.51	-25.714
243.89	-7.595
244.26	-15.730
244.63	-15.789
245.00	-14.737
245.38	-5.932
245.75	-1.770
246.12	-5.600
246.49	-6.299
246.87	-6.504
247.24	-11.017
247.61	-11.017
247.98	-4.930
248.36	-5.594
248.73	-7.595
249.10	-10.191
249.47	-4.094
249.84	2.841
250.22	-17.857
250.59	-3.955
250.96	-9.948
251.33	4.265
251.70	-9.135
252.08	-3.318
252.45	-9.479
252.82	-8.095
253.19	-2.553
253.56	-4.839
253.94	-5.485
254.31	-4.292
254.68	-2.033
255.05	-6.855
255.42	-3.175
255.79	-3.584
256.16	-3.137
256.54	-5.882
256.91	-3.788
257.28	-7.692
257.65	-1.773
258.02	1.258
258.39	-3.010
258.76	-7.432
259.14	-4.321
259.51	-1.967
259.88	-3.049
260.25	-0.932
260.62	-3.537
260.99	-6.231
261.36	-0.915
261.73	-1.156
262.10	-0.833
262.47	-3.134
262.85	0.857
263.22	-1.719
263.59	-7.385
263.96	-2.029
264.33	-0.542
264.70	-1.105
265.07	-1.923
265.44	-2.584
265.81	0.258
266.18	-4.304
266.55	-2.206
266.92	-2.519
267.29	-2.421
267.66	-4.444
268.03	-1.208
268.40	-0.235
268.77	0.000
269.14	-2.320
269.51	-2.529
269.88	-2.294
270.25	-3.730
270.62	-1.831
270.99	-1.802
271.36	-1.166
271.73	-3.363
272.10	-3.661
272.47	-3.111
272.84	-0.222
273.21	-1.376
273.58	-0.659
273.95	-3.289
274.32	-1.131
274.69	-0.438
275.06	-1.227
275.43	-3.348
275.80	-1.222
276.17	-0.628
276.54	2.648
276.91	-2.263
277.28	-3.854
277.65	-1.860
278.02	-1.670
278.39	1.179
278.76	-3.386
279.13	-1.581
279.50	-2.783
279.87	-2.114
280.23	-0.607
280.60	-0.398
280.97	-2.136
281.34	-2.708
281.71	-1.731
282.08	-1.815
282.45	-1.426
282.82	-2.713
283.19	-1.273
283.56	2.381
283.92	-1.237
284.29	-2.045
284.66	-0.360
285.03	0.891
285.40	-1.292
285.77	0.351
286.14	-1.805
286.51	-0.533
286.87	-0.363
287.24	-0.683
287.61	-0.496
287.98	-2.080
288.35	-1.157
288.72	-1.528
289.08	-4.068
289.45	0.000
289.82	-1.384
290.19	1.314
290.56	-3.636
290.93	-1.749
291.29	-1.945
291.66	-1.127
292.03	1.099
292.40	-0.452
292.77	-0.776
293.13	-0.325
293.50	-0.743
293.87	-1.380
294.24	-0.452
294.60	-3.333
294.97	-0.152
295.34	-1.778
295.71	-2.232
296.08	-2.458
296.44	-1.860
296.81	-3.134
297.18	-0.423
297.55	-0.282
297.91	0.000
298.28	-1.644
298.65	-1.813
299.02	0.401
299.38	-1.604
299.75	-1.495
300.12	0.000
300.48	0.384
300.85	0.000
301.22	0.647
301.59	-0.520
301.95	0.378
302.32	-2.086
302.69	0.734
303.05	-0.611
303.42	-0.375
303.79	0.359
304.15	0.592
304.52	1.400
304.89	0.826
305.25	-1.221
305.62	-0.588
305.99	0.942
306.35	1.554
306.72	-0.456
307.09	-0.341
307.45	-0.681
307.82	-1.788
308.19	0.224
308.55	-0.654
308.92	-0.215
309.29	-0.108
309.65	0.000
310.02	0.000
310.38	-0.432
310.75	0.512
311.12	-0.413
311.48	0.000
311.85	-0.412
312.22	-0.206
312.58	0.305
312.95	0.000
313.31	0.000
313.68	1.910
314.05	1.385
314.41	0.805
314.78	0.400
315.14	2.567
315.51	1.114
315.87	2.517
316.24	1.846
316.61	2.687
316.97	1.990
317.34	1.349
317.70	1.763
318.07	3.265
318.43	1.592
318.80	3.568
319.16	2.908
319.53	2.538
319.89	2.916
320.26	3.039
320.62	2.788
320.99	4.080
321.35	2.069
321.72	3.378
322.08	5.539
322.45	2.871
322.81	5.572
323.18	4.899
323.54	4.436
323.91	5.839
324.27	5.228
324.64	6.033
325.00	7.330
325.37	7.602
325.73	8.049
326.10	7.086
326.46	7.618
326.83	8.766
327.19	9.174
327.56	10.733
327.92	9.431
328.29	11.342
328.65	10.182
329.01	10.336
329.38	12.400
329.74	12.821
330.11	11.967
330.47	11.989
330.84	14.024
331.20	13.177
331.56	13.947
331.93	14.476
332.29	15.068
332.66	15.628
333.02	16.652
333.38	15.771
333.75	16.296
334.11	18.044
334.48	16.152
334.84	18.460
335.20	17.287
335.57	17.329
335.93	19.069
336.29	18.158
336.66	17.269
337.02	17.748
337.38	18.717
337.75	17.998
338.11	18.426
338.47	19.039
338.84	19.056
339.20	18.366
339.56	20.143
339.93	19.400
340.29	17.981
340.65	18.881
341.02	19.056
341.38	18.366
341.74	19.560
342.11	18.174
342.47	19.828
342.83	20.067
343.20	19.471
343.56	18.612
343.92	19.699
344.28	20.606
344.65	19.637
345.01	19.160
345.37	20.100
345.73	19.885
346.10	17.743
346.46	19.740
346.82	19.166
347.19	18.899
347.55	20.385
347.91	18.740
348.27	18.218
348.63	19.790
349.00	19.889
349.36	18.189
349.72	20.462
350.08	19.166
350.45	19.307
350.81	19.506
351.17	19.855
351.53	18.377
351.89	19.402
352.26	20.000
352.62	20.430
352.98	19.462
353.34	20.544
353.70	20.000
354.07	19.197
354.43	20.000
354.79	19.968
355.15	19.888
355.51	19.297
355.87	20.316
356.24	20.254
356.60	21.434
356.96	20.631
357.32	19.794
357.68	19.464
358.04	19.554
358.40	19.876
358.77	19.165
359.13	19.587
359.49	20.181
359.85	19.893
360.21	19.330
360.57	20.633
360.93	19.481
361.29	20.254
361.66	18.826
362.02	20.340
362.38	20.543
362.74	20.806
363.10	20.373
363.46	20.798
363.82	20.627
364.18	20.767
364.54	21.015
364.90	19.916
365.26	20.613
365.62	22.024
365.98	20.910
366.35	21.056
366.71	20.437
367.07	20.536
367.43	21.345
367.79	20.619
368.15	21.053
368.51	22.098
368.87	22.665
369.23	22.035
369.59	21.667
369.95	21.705
370.31	22.152
370.67	20.752
371.03	22.012
371.39	20.509
371.75	22.604
372.11	22.669
372.47	21.186
372.83	21.766
373.19	22.357
373.55	21.675
373.91	22.333
374.27	21.492
374.63	21.601
374.99	22.670
375.35	21.534
375.71	23.430
376.07	22.793
376.42	20.728
376.78	22.549
377.14	22.508
377.50	23.146
377.86	23.277
378.22	22.613
378.58	23.101
378.94	23.736
379.30	22.364
379.66	23.315
380.02	22.400
380.38	23.082
380.74	22.743
381.09	22.964
381.45	23.747
381.81	22.202
382.17	23.308
382.53	23.100
382.89	23.684
383.25	22.637
383.61	23.172
383.97	24.189
384.32	23.905
384.68	24.123
385.04	23.430
385.40	23.007
385.76	23.841
386.12	23.673
386.48	24.814
386.83	24.110
387.19	24.507
387.55	23.743
387.91	24.778
388.27	23.764
388.62	23.498
388.98	23.501
389.34	23.623
389.70	24.056
390.06	23.741
390.42	24.231
390.77	24.038
391.13	24.099
391.49	24.392
391.85	23.628
392.20	23.847
392.56	23.396
392.92	23.731
393.28	23.938
393.64	22.850
393.99	24.246
394.35	23.114
394.71	23.780
395.07	23.603
395.42	23.182
395.78	23.130
396.14	25.421
396.50	24.220
396.85	23.998
397.21	23.694
397.57	23.708
397.92	24.122
398.28	24.833
398.64	24.033
399.00	24.551
399.35	24.014
399.71	23.810
400.07	24.179
400.42	24.148
400.78	22.958
401.14	24.311
401.49	23.644
401.85	23.490
402.21	24.672
402.57	23.604
402.92	24.229
403.28	23.468
403.63	22.828
403.99	23.493
404.35	23.490
404.70	23.815
405.06	23.414
405.42	23.616
405.77	22.964
406.13	23.680
406.49	22.648
406.84	23.395
407.20	23.086
407.55	24.319
407.91	22.150
408.27	22.794
408.62	23.271
408.98	22.620
409.34	23.035
409.69	23.503
410.05	23.166
410.40	23.053
410.76	23.770
411.11	22.880
411.47	23.465
411.83	23.044
412.18	22.958
412.54	22.453
412.89	23.269
413.25	22.668
413.60	22.722
413.96	22.736
414.31	22.752
414.67	22.667
415.03	23.221
415.38	23.682
415.74	24.678
416.09	22.379
416.45	23.016
416.80	23.017
417.16	23.389
417.51	24.819
417.87	22.977
418.22	23.578
418.58	23.299
418.93	23.912
419.29	24.467
419.64	23.241
420.00	24.362
420.35	23.773
420.71	24.310
421.06	24.556
421.42	23.536
421.77	23.953
422.12	24.566
422.48	24.105
422.83	24.146
423.19	24.053
423.54	24.726
423.90	24.002
424.25	24.717
424.61	26.538
424.96	26.097
425.31	25.936
425.67	25.387
426.02	25.760
426.38	25.771
426.73	25.482
427.09	24.939
427.44	26.818
427.79	25.000
428.15	27.050
428.50	26.804
428.85	26.019
429.21	25.623
429.56	26.667
429.92	26.002
430.27	27.019
430.62	26.803
430.98	26.712
431.33	27.215
431.68	27.989
432.04	28.707
432.39	27.749
432.74	27.158
433.10	26.899
433.45	27.404
433.80	28.611
434.16	28.318
434.51	28.219
434.86	28.998
435.22	28.174
435.57	27.723
435.92	28.429
436.28	28.190
436.63	27.756
436.98	28.465
437.34	29.947
437.69	28.996
438.04	28.417
438.39	30.144
438.75	29.045
439.10	29.706
439.45	29.330
439.81	29.578
440.16	29.529
440.51	30.000
440.86	29.265
441.22	29.022
441.57	30.368
441.92	31.202
442.27	30.682
442.63	30.901
442.98	30.192
443.33	30.313
443.68	30.276
444.03	30.010
444.39	30.250
444.74	31.333
445.09	30.592
445.44	31.289
445.79	31.311
446.15	31.380
446.50	30.321
446.85	30.888
447.20	32.022
447.55	30.166
447.91	32.903
448.26	31.620
448.61	31.636
448.96	31.317
449.31	31.905
449.66	31.654
450.02	30.748
450.37	30.841
450.72	31.186
451.07	32.935
451.42	31.165
451.77	32.436
452.12	32.539
452.47	31.612
452.83	33.197
453.18	32.954
453.53	32.898
453.88	33.313
454.23	31.983
454.58	33.561
454.93	33.438
455.28	33.206
455.63	32.924
455.98	33.795
456.34	32.465
456.69	33.709
457.04	32.944
457.39	33.433
457.74	33.963
458.09	33.295
458.44	32.968
458.79	33.072
459.14	32.687
459.49	33.629
459.84	33.446
460.19	33.890
460.54	32.668
460.89	33.184
461.24	34.426
461.59	34.818
461.94	34.246
462.29	33.115
462.64	34.585
462.99	35.141
463.34	33.693
463.69	33.142
464.04	33.158
464.39	33.931
464.74	33.747
465.09	32.712
465.44	33.615
465.79	33.277
466.14	35.155
466.49	33.736
466.84	34.034
467.19	34.539
467.54	33.544
467.89	34.217
468.24	34.679
468.59	34.478
468.94	34.405
469.29	34.568
469.64	35.108
469.99	35.314
470.34	34.937
470.68	36.192
471.03	34.756
471.38	35.278
471.73	36.294
472.08	34.806
472.43	34.878
472.78	35.800
473.13	35.056
473.48	34.588
473.83	34.926
474.17	35.924
474.52	36.701
474.87	36.072
475.22	35.221
475.57	34.778
475.92	35.637
476.27	35.143
476.61	34.986
476.96	35.103
477.31	35.361
477.66	35.861
478.01	36.035
478.36	34.468
478.70	36.199
479.05	35.749
479.40	35.699
479.75	36.442
480.10	35.516
480.45	35.735
480.79	36.525
481.14	35.374
481.49	35.915
481.84	36.523
482.19	35.678
482.53	35.985
482.88	35.691
483.23	35.822
483.58	36.679
483.92	35.882
484.27	35.268
484.62	35.464
484.97	35.542
485.31	34.784
485.66	33.494
486.01	34.026
486.36	35.046
486.70	36.237
487.05	35.636
487.40	34.856
487.75	35.177
488.09	34.775
488.44	35.318
488.79	35.373
489.13	35.983
489.48	36.052
489.83	36.201
490.17	37.048
490.52	36.911
490.87	35.982
491.22	36.618
491.56	37.130
491.91	36.784
492.26	36.226
492.60	37.012
492.95	36.982
493.30	36.875
493.64	37.047
493.99	36.998
494.34	36.429
494.68	37.172
495.03	37.428
495.37	36.971
495.72	37.672
496.07	37.729
496.41	37.795
496.76	36.941
497.11	37.353
497.45	37.308
497.80	37.319
498.14	36.935
498.49	37.418
498.84	38.058
499.18	37.914
499.53	37.360
499.87	37.403
500.22	37.745
500.56	37.669
500.91	37.734
501.26	37.797
501.60	36.206
501.95	38.019
502.29	37.837
502.64	37.718
502.98	37.614
503.33	37.829
503.67	37.739
504.02	38.098
504.36	38.725
504.71	37.639
505.06	37.394
505.40	38.323
505.75	38.364
506.09	39.029
506.44	37.995
506.78	38.284
507.13	37.745
507.47	39.124
507.82	38.565
508.16	38.446
508.51	37.764
508.85	38.043
509.19	37.834
509.54	38.002
509.88	37.872
510.23	37.683
510.57	39.259
510.92	39.098
511.26	38.278
511.61	37.473
511.95	39.063
512.30	38.538
512.64	37.618
512.98	39.494
513.33	38.880
513.67	38.414
514.02	38.647
514.36	38.670
514.70	38.766
515.05	38.822
515.39	38.639
515.74	39.151
516.08	38.444
516.42	39.433
516.77	38.879
517.11	39.016
517.46	40.550
517.80	39.471
518.14	39.493
518.49	38.733
518.83	38.754
519.17	40.734
519.52	37.767
519.86	40.621
520.20	39.425
520.55	40.246
520.89	38.009
521.23	39.805
521.58	40.251
521.92	39.139
522.26	38.794
522.61	39.670
522.95	38.226
523.29	40.502
523.64	39.350
523.98	40.356
524.32	38.529
524.66	38.447
525.01	39.627
525.35	40.077
525.69	39.753
526.04	40.470
526.38	39.975
526.72	38.825
527.06	39.779
527.41	39.208
527.75	39.538
528.09	39.841
528.43	38.623
528.78	39.510
529.12	39.885
529.46	39.111
529.80	39.832
530.15	38.957
530.49	38.745
530.83	39.948
531.17	39.259
531.51	39.250
531.86	40.026
532.20	40.486
532.54	39.104
532.88	39.065
533.22	39.171
533.57	39.752
533.91	38.764
534.25	37.901
534.59	37.914
534.93	38.270
535.27	38.829
535.62	38.811
535.96	39.043
536.30	38.940
536.64	38.380
536.98	40.254
537.32	38.908
537.66	38.561
538.01	39.038
538.35	37.635
538.69	38.035
539.03	38.592
539.37	38.656
539.71	38.626
540.05	37.491
540.39	39.543
540.73	38.079
541.07	39.071
541.42	38.893
541.76	38.007
542.10	39.365
542.44	38.108
542.78	39.145
543.12	38.968
543.46	38.699
543.80	36.990
544.14	38.684
544.48	38.255
544.82	38.024
545.16	39.973
545.50	38.829
545.84	38.248
546.18	37.517
546.52	37.980
546.86	39.245
547.20	39.170
547.54	39.394
547.88	37.823
548.22	37.353
548.56	38.410
548.90	40.027
549.24	38.402
549.58	38.744
549.92	39.576
550.26	39.379
550.60	38.976
550.94	38.686
551.28	39.127
551.62	38.479
551.96	38.929
552.30	39.024
552.64	38.424
552.98	38.823
553.32	38.745
553.66	38.645
554.00	38.806
554.34	38.773
554.68	39.035
555.02	38.784
555.36	38.533
555.69	38.968
556.03	37.965
556.37	39.260
556.71	38.654
557.05	39.394
557.39	39.792
557.73	39.387
558.07	39.412
558.41	38.145
558.75	38.479
559.08	38.366
559.42	39.587
559.76	38.574
560.10	39.821
560.44	39.668
560.78	38.761
561.12	39.614
561.45	39.110
561.79	38.955
562.13	39.481
562.47	38.655
562.81	38.897
563.15	38.768
563.48	39.323
563.82	38.675
564.16	38.201
564.50	38.777
564.84	38.823
565.17	38.594
565.51	38.331
565.85	40.500
566.19	38.406
566.52	38.748
566.86	38.875
567.20	39.044
567.54	38.512
567.88	37.298
568.21	38.199
568.55	38.176
568.89	36.630
569.23	36.280
569.56	35.813
569.90	36.349
570.24	36.716
570.57	35.079
570.91	35.464
571.25	35.895
571.59	35.279
571.92	34.821
572.26	35.500
572.60	34.967
572.93	34.624
573.27	34.634
573.61	34.012
573.95	34.433
574.28	34.102
574.62	35.180
574.96	34.073
575.29	34.121
575.63	34.298
575.97	33.981
576.30	34.420
576.64	33.577
576.98	34.287
577.31	33.826
577.65	33.617
577.98	33.714
578.32	33.972
578.66	34.314
578.99	34.153
579.33	34.363
579.67	34.339
580.00	33.606
580.34	33.244
580.67	34.126
581.01	33.318
581.35	33.936
581.68	33.168
582.02	34.276
582.35	33.277
582.69	34.433
583.02	34.549
583.36	34.342
583.70	33.794
584.03	34.671
584.37	34.398
584.70	33.888
585.04	34.152
585.37	33.723
585.71	34.180
586.04	34.448
586.38	34.296
586.72	34.301
587.05	34.948
587.39	34.499
587.72	34.404
588.06	34.911
588.39	34.776
588.73	35.697
589.06	35.038
589.40	35.898
589.73	35.198
590.07	35.215
590.40	34.871
590.73	36.545
591.07	35.738
591.40	36.655
591.74	37.098
592.07	36.036
592.41	36.178
592.74	35.396
593.08	36.251
593.41	35.822
593.75	34.982
594.08	35.873
594.41	36.118
594.75	35.561
595.08	36.015
595.42	36.236
595.75	35.612
596.09	35.080
596.42	35.925
596.75	35.748
597.09	36.109
597.42	35.661
597.75	36.094
598.09	36.105
598.42	35.307
598.76	35.133
599.09	35.596
599.42	36.063
599.76	35.183
600.09	35.916
600.42	36.081
600.76	35.028
601.09	35.549
601.42	35.101
601.76	35.670
602.09	35.746
602.42	35.514
602.76	35.854
603.09	35.605
603.42	36.060
603.76	35.221
604.09	35.923
604.42	35.262
604.76	35.717
605.09	36.212
605.42	36.303
605.75	35.748
606.09	35.949
606.42	35.442
606.75	35.595
607.09	36.303
607.42	35.651
607.75	35.629
608.08	37.009
608.42	36.991
608.75	35.561
609.08	36.824
609.41	35.825
609.75	36.031
610.08	36.324
610.41	35.711
610.74	35.832
611.07	36.258
611.41	35.653
611.74	35.990
612.07	37.540
612.40	36.087
612.73	36.403
613.07	36.434
613.40	37.165
613.73	36.458
614.06	35.969
614.39	37.204
614.72	35.307
615.06	36.739
615.39	35.920
615.72	36.665
616.05	36.610
616.38	37.551
616.71	37.898
617.05	37.394
617.38	37.152
617.71	35.872
618.04	37.081
618.37	37.296
618.70	37.484
619.03	37.441
619.36	39.253
619.69	38.047
620.03	37.259
620.36	36.990
620.69	36.755
621.02	36.834
621.35	37.823
621.68	37.623
622.01	38.511
622.34	39.053
622.67	38.203
623.00	37.261
623.33	37.910
623.66	36.706
623.99	37.970
624.32	37.351
624.65	37.748
624.99	37.192
625.32	37.275
625.65	38.617
625.98	38.028
626.31	37.684
626.64	37.992
626.97	39.041
627.30	37.532
627.63	38.774
627.96	38.903
628.29	39.062
628.62	40.210
628.95	40.945
629.28	39.098
629.61	39.450
629.94	39.603
630.26	41.252
630.59	40.905
630.92	40.541
631.25	40.827
631.58	38.730
631.91	39.255
632.24	41.111
632.57	41.444
632.90	40.230
633.23	42.173
633.56	39.181
633.89	39.976
634.22	39.906
634.55	38.101
634.88	38.331
635.20	40.699
635.53	41.985
635.86	39.169
636.19	39.683
636.52	39.068
636.85	38.147
637.18	39.500
637.51	41.388
637.83	41.145
638.16	40.000
638.49	40.414
638.82	41.055
639.15	40.726
639.48	39.170
639.81	40.387
640.13	39.595
640.46	40.171
640.79	41.457
641.12	40.197
641.45	40.746
641.77	43.413
642.10	39.728
642.43	41.730
642.76	39.685
643.09	40.794
643.41	40.952
643.74	42.925
644.07	40.718
644.40	41.653
644.73	42.409
645.05	42.738
645.38	40.894
645.71	43.986
646.04	41.849
646.36	42.059
646.69	41.349
647.02	43.502
647.35	42.780
647.67	42.336
648.00	42.882
648.33	42.159
648.66	42.097
648.98	41.720
649.31	40.769
649.64	41.563
649.96	37.677
650.29	40.820
650.62	42.169
650.94	40.472
651.27	41.075
651.60	40.830
651.92	41.267
652.25	39.733
652.58	39.864
652.90	40.931
653.23	41.129
653.56	38.796
653.88	36.885
654.21	39.933
654.54	39.867
654.86	41.252
655.19	39.255
655.52	35.147
655.84	31.866
656.17	34.604
656.49	46.978
656.82	48.168
657.15	36.678
657.47	26.993
657.80	20.670
658.13	23.516
658.45	31.667
658.78	31.417
659.10	30.710
659.43	31.108
659.75	31.314
660.08	31.354
660.41	32.067
660.73	35.094
661.06	40.580
661.38	41.071
661.71	40.153
662.03	42.339
662.36	41.791
662.68	39.662
663.01	42.675
663.33	44.218
663.66	42.275
663.98	39.955
664.31	39.374
664.63	44.248
664.96	41.432
665.28	43.384
665.61	39.323
665.93	41.770
666.26	42.105
666.58	40.956
666.91	40.757
667.23	41.228
667.56	39.909
667.88	41.176
668.21	40.323
668.53	40.187
668.86	41.801
669.18	43.607
669.50	40.654
669.83	42.092
670.15	39.013
670.48	39.486
670.80	40.547
671.13	37.472
671.45	40.090
671.77	40.685
672.10	40.434
672.42	38.192
672.75	38.909
673.07	38.198
673.39	38.251
673.72	38.583
674.04	41.614
674.37	39.588
674.69	40.779
675.01	39.574
675.34	38.829
675.66	38.877
675.98	40.749
676.31	42.534
676.63	42.529
676.95	39.823
677.28	40.139
677.60	40.950
677.92	43.392
678.25	40.044
678.57	41.975
678.89	38.155
679.22	42.977
679.54	42.209
679.86	38.400
680.18	39.544
680.51	36.685
680.83	37.333
681.15	36.224
681.48	38.945
681.80	38.105
682.12	38.229
682.44	38.114
682.77	35.281
683.09	37.317
683.41	38.717
683.73	36.301
684.06	37.634
684.38	37.657
684.70	36.008
685.02	38.386
685.34	37.427
685.67	35.417
685.99	36.484
686.31	38.241
686.63	36.525
686.96	34.381
687.28	35.838
687.60	39.063
687.92	31.907
688.24	37.795
688.56	35.271
688.89	37.607
689.21	37.856
689.53	39.310
689.85	39.421
690.17	37.668
690.49	36.490
690.82	36.867
691.14	37.736
691.46	38.803
691.78	36.784
692.10	37.712
692.42	34.444
692.74	36.266
693.06	35.730
693.39	35.570
693.71	36.117
694.03	39.525
694.35	35.440
694.67	35.934
694.99	37.084
695.31	39.031
695.63	35.714
695.95	37.469
696.27	39.900
696.59	38.770
696.91	38.483
697.23	34.115
697.56	34.856
697.88	35.135
698.20	32.334
698.52	34.305
698.84	33.252
699.16	34.286
699.48	35.750
699.80	37.594
700.12	36.776
700.44	36.592
700.76	38.192
701.08	37.500
701.40	35.952
701.72	34.877
702.04	39.103
702.36	35.542
702.68	35.629
703.00	36.522
703.32	31.805
703.64	40.000
703.96	36.628
704.28	38.166
704.60	36.709
704.91	36.825
705.23	36.893
705.55	36.149
705.87	39.249
706.19	35.069
706.51	35.764
706.83	40.000
707.15	41.401
707.47	38.292
707.79	38.660
708.11	33.842
708.43	33.167
708.74	34.805
709.06	35.097
709.38	30.747
709.70	33.750
710.02	34.969
710.34	34.323
710.66	36.825
710.98	33.123
711.29	30.968
711.61	34.505
711.93	34.754
712.25	35.880
712.57	35.192
712.89	40.647
713.20	43.986
713.52	33.955
713.84	38.434
714.16	34.098
714.48	34.603
714.80	32.923
715.11	34.006
715.43	36.747
715.75	32.710
716.07	34.098
716.39	35.117
716.70	33.798
717.02	34.444
717.34	32.443
717.66	36.929
717.97	32.787
718.29	36.555
718.61	42.063
718.93	38.351
719.24	37.132
719.56	29.057
719.88	34.909
720.20	36.704
720.51	34.962
720.83	34.940
721.15	35.656
721.46	40.000
721.78	29.502
722.10	29.600
722.42	31.405
722.73	34.263
723.05	38.956
723.37	32.549
723.68	36.032
724.00	35.772
724.32	39.918
724.63	26.556
724.95	37.603
725.27	29.386
725.58	34.483
725.90	30.952
726.22	40.959
726.53	34.601
726.85	31.765
727.16	35.714
727.48	28.846
727.80	27.459
728.11	36.555
728.43	33.058
728.74	37.500
729.06	34.470
729.38	33.074
729.69	32.677
730.01	38.189
730.32	35.060
730.64	33.333
730.96	36.194
731.27	30.000
731.59	35.370
731.90	30.368
732.22	31.902
732.53	32.450
732.85	30.201
733.16	30.435
733.48	31.707
733.80	32.740
734.11	36.897
734.43	31.973
734.74	30.267
735.06	30.721
735.37	33.028
735.69	28.065
736.00	29.293
736.32	30.795
736.63	24.828
736.95	33.696
737.26	29.801
737.58	26.978
737.89	31.541
738.21	31.955
738.52	31.923
738.83	32.031
739.15	29.060
739.46	33.065
739.78	29.720
740.09	31.119
740.41	26.224
740.72	30.657
741.04	32.540
741.35	31.602
741.66	27.315
741.98	21.905
742.29	35.211
742.61	35.294
742.92	33.178
743.23	30.702
743.55	35.135
743.86	36.444
744.18	30.476
744.49	38.916
744.80	38.071
745.12	28.866
745.43	33.166
745.74	34.466
746.06	28.293
746.37	32.159
746.68	29.353
747.00	36.126
747.31	24.038
747.62	33.641
747.94	32.314
748.25	31.628
748.56	32.857
748.88	34.783
749.19	30.047
749.50	40.196
749.82	31.556
750.13	36.123
750.44	30.894
750.75	28.400
751.07	30.714
751.38	27.675
751.69	28.626
752.01	34.231
752.32	29.572
752.63	25.769
752.94	24.603
753.26	32.174
753.57	33.036
753.88	34.052
754.19	29.876
754.51	26.953
754.82	26.877
755.13	25.926
755.44	30.579
755.75	31.276
756.07	23.695
756.38	30.078
756.69	29.964
757.00	29.268
757.31	30.537
757.63	31.464
757.94	25.723
758.25	27.907
758.56	28.841
758.87	28.977
759.18	26.000
759.50	27.402
759.81	25.547
760.12	23.649
760.43	31.068
760.74	29.062
761.05	25.562
761.36	28.743
761.67	26.923
761.99	24.839
762.30	30.435
762.61	33.208
762.92	26.906
763.23	29.858
763.54	26.667
763.85	27.426
764.16	28.163
764.47	28.814
764.78	28.464
765.10	28.777
765.41	25.806
765.72	25.786
766.03	21.201
766.34	28.195
766.65	26.316
766.96	19.000
767.27	29.167
767.58	28.488
767.89	17.419
768.20	27.607
768.51	27.322
768.82	30.811
769.13	28.500
769.44	25.439
769.75	28.571
770.06	28.899
770.37	24.413
770.68	26.562
770.99	27.723
771.30	23.786
771.61	24.537
771.92	21.645
772.23	31.776
772.54	30.319
772.85	23.077
773.16	32.317
773.47	27.711
773.78	25.824
774.09	32.000
774.39	27.160
774.70	21.477
775.01	26.087
775.32	27.612
775.63	18.182
775.94	30.075
776.25	17.857
776.56	36.066
776.87	23.894
777.18	30.973
777.48	22.727
777.79	15.652
778.10	27.523
778.41	20.339
778.72	22.314
779.03	32.836
779.34	23.308
779.65	24.183
779.95	23.188
780.26	23.129
780.57	26.724
780.88	26.852
781.19	15.152
781.50	16.000
781.80	24.837
782.11	27.564
782.42	21.084
782.73	21.168
783.04	22.973
783.34	22.727
783.65	22.481
783.96	31.707
784.27	15.385
784.57	18.699
784.88	13.008
785.19	31.579
785.50	8.247
785.81	7.619
786.11	20.588
786.42	15.455
786.73	25.225
787.04	22.772
787.34	14.286
787.65	31.429
787.96	14.706
788.26	28.829
788.57	27.419
788.88	29.687
789.19	11.966
789.49	17.647
789.80	14.530
790.11	31.858
790.41	24.242
790.72	17.925
791.03	16.667
791.33	9.211
791.64	20.430
791.95	18.667
792.25	24.286
792.56	24.390
792.87	27.551
793.17	30.263
793.48	9.459
793.79	14.085
794.09	26.582
794.40	18.085
794.70	21.495
795.01	-0.877
795.32	19.091
795.62	24.107
795.93	19.588
796.23	8.791
796.54	28.421
796.85	-1.370
797.15	15.278
797.46	15.068
797.76	9.859
798.07	23.750
798.37	13.235
798.68	31.429
798.99	17.143
799.29	10.526
799.60	21.667
799.90	4.167
800.21	17.187
800.51	15.873
800.82	26.230
801.12	5.263
801.43	-1.408
801.73	30.508
802.04	9.836
802.34	18.182
802.65	0.000
802.95	14.815
803.26	-22.500
803.56	13.462
803.87	-15.789
804.17	22.581
804.48	30.769
804.78	7.692
805.09	-2.326
805.39	-9.375
805.70	7.547
806.00	29.825
806.30	18.919
806.61	11.765
806.91	19.753
807.22	2.667
807.52	16.418
807.83	-3.226
808.13	0.000
808.43	-7.273
808.74	10.606
809.04	7.547
809.35	13.699
809.65	29.825
809.95	20.588
810.26	7.843
810.56	-2.000
810.86	-14.286
811.17	-14.286
811.47	1.923
811.77	9.677
812.08	-28.947
812.38	11.905
812.69	0.000
812.99	-16.129
813.29	7.143
813.59	-44.444
813.90	6.383
814.20	-18.605
814.50	6.250
814.81	13.333
815.11	0.000
815.41	20.000
815.72	25.714
816.02	-16.667
816.32	10.256
816.62	10.811
816.93	-38.235
817.23	26.087
817.53	-2.941
817.84	5.882
818.14	-21.875
818.44	3.448
818.74	-6.452
819.04	-55.556
819.35	-3.333
819.65	-20.000
819.95	26.667
820.25	-88.000
820.56	-34.211
820.86	-17.500
821.16	17.021
821.46	8.621
821.76	-2.564
822.07	-15.000
822.37	4.651
822.67	-6.667
822.97	-13.514
823.27	27.027
823.57	52.000
823.88	2.703
824.18	-28.571
824.48	-26.923
824.78	-76.923
825.08	-17.391
825.38	-41.667
825.69	-8.333
825.99	-45.000
826.29	-16.216
826.59	-17.647
826.89	-32.000
827.19	-22.857
827.49	-10.526
827.79	-12.500
828.09	0.000
828.39	21.739
828.70	-27.586
829.00	-13.793
829.30	13.889
829.60	21.875
829.90	-5.556
830.20	-50.000
830.50	-80.952
830.80	-7.143
831.10	10.256
831.40	-61.905
831.70	-14.706
832.00	-41.667
832.30	-78.947
832.60	-50.000
832.90	-150.000
833.20	-70.588
833.50	-100.000
833.80	-66.667
834.10	-70.000
834.40	4.167
834.70	-16.667
835.00	0.000
835.30	20.833
835.60	17.241
835.90	-66.667
836.20	-45.455
836.50	-91.667
836.80	-5.714
837.10	57.143
837.40	-70.588
837.70	-90.909
838.00	29.167
838.30	0.000
838.60	-23.810
838.90	30.000
839.19	-43.478
839.49	-34.783
839.79	-33.333
840.09	-39.130
840.39	-68.182
840.69	-68.750
840.99	10.526
841.29	-112.500
841.59	14.286
841.88	-111.111
842.18	-4.167
842.48	-76.471
842.78	-3.448
843.08	-85.714
843.38	-100.000
843.68	-144.444
843.97	-107.692
844.27	-45.455
844.57	60.000
844.87	40.000
845.17	-140.000
845.47	-21.429
845.76	-122.222
846.06	0.000
846.36	-375.000
846.66	-160.000
846.96	-15.789
847.25	-37.500
847.55	-108.333
847.85	-33.333
848.15	-130.000
848.44	34.615
848.74	-21.053
849.04	600.000
849.34	-55.556
849.63	-78.947
849.93	0.000
850.23	-50.000
850.53	23.810
850.82	-4.000
851.12	-26.316
851.42	-600.000
851.71	50.000
852.01	-91.667
852.31	-76.471
852.61	-33.333
852.90	-38.095
853.20	-200.000
853.50	-50.000
853.79	-42.105
854.09	-120.000
854.39	-25.000
854.68	-30.435
854.98	-175.000
855.28	-34.483
855.57	-62.500
855.87	-60.000
856.17	-60.000
856.46	-10.345
856.76	-66.667
857.05	-70.588
857.35	-107.692
857.65	-18.182
857.94	-18.519
858.24	-21.429
858.53	-100.000
858.83	-83.333
859.13	-88.889
859.42	38.095
859.72	-175.000
860.01	-500.000
860.31	-62.500
860.60	-120.000
860.90	-155.556
861.20	-125.000
861.49	-171.429
861.79	29.412
862.08	-750.000
862.38	-133.333
862.67	-69.231
862.97	-23.529
863.26	15.000
863.56	-82.353
863.85	666.667
864.15	-140.000
864.44	-130.769
864.74	-60.000
865.03	-137.500
865.33	-150.000
865.62	-11.765
865.92	-525.000
866.21	-135.714
866.51	-108.333
866.80	-800.000
867.10	-133.333
867.39	-11.765
867.69	43.478
867.98	-100.000
868.27	-320.000
868.57	-62.500
868.86	-145.455
869.16	0.000
869.45	-83.333
869.75	-228.571
870.04	1500.000
870.33	-141.667
870.63	-180.000
870.92	-88.889
871.22	-58.333
871.51	-27.273
871.80	-41.667
872.10	50.000
>>>>>End Processed Spectral Data<<<<<
