SpectraSuite Data File
++++++++++++++++++++++++++++++++++++
Date: Sat May 16 11:45:54 PDT 2015
User: schluterlab
Dark Spectrum Present: Yes
Reference Spectrum Present: Yes
Number of Sampled Component Spectra: 1
Spectrometers: USB2E3373
Integration Time (usec): 3000 (USB2E3373)
Spectra Averaged: 3 (USB2E3373)
Boxcar Smoothing: 0 (USB2E3373)
Correct for Electrical Dark: No (USB2E3373)
Strobe/Lamp Enabled: No (USB2E3373)
Correct for Detector Non-linearity: No (USB2E3373)
Correct for Stray Light: No (USB2E3373)
Number of Pixels in Processed Spectrum: 2048
>>>>>Begin Processed Spectral Data<<<<<
178.53	0.000
178.91	153.333
179.29	533.333
179.67	-1200.000
180.04	-38.462
180.42	700.000
180.80	675.000
181.18	350.000
181.56	-12.500
181.94	700.000
182.31	475.000
182.69	-30.769
183.07	-233.333
183.45	1950.000
183.83	600.000
184.20	-171.429
184.58	-187.500
184.96	-500.000
185.34	93.750
185.72	-725.000
186.09	133.333
186.47	-175.000
186.85	-212.500
187.23	0.000
187.61	-125.000
187.98	-300.000
188.36	-100.000
188.74	-175.000
189.12	1200.000
189.49	285.714
189.87	-141.667
190.25	350.000
190.63	-64.286
191.00	-188.889
191.38	380.000
191.76	-6.667
192.14	540.000
192.51	-360.000
192.89	-233.333
193.27	0.000
193.65	-200.000
194.02	-185.714
194.40	366.667
194.78	-60.000
195.15	-2200.000
195.53	-181.818
195.91	-400.000
196.29	280.000
196.66	-666.667
197.04	2100.000
197.42	-200.000
197.79	-33.333
198.17	-433.333
198.55	-1200.000
198.92	-900.000
199.30	287.500
199.68	-300.000
200.05	-122.222
200.43	-177.778
200.81	-2000.000
201.18	-158.333
201.56	214.286
201.94	-26.667
202.31	27.273
202.69	-40.000
203.07	-120.000
203.44	866.667
203.82	-483.333
204.19	-575.000
204.57	-350.000
204.95	-1100.000
205.32	-18.750
205.70	1400.000
206.08	-1900.000
206.45	-55.556
206.83	-1050.000
207.20	-600.000
207.58	-566.667
207.96	-733.333
208.33	-275.000
208.71	-255.556
209.08	240.000
209.46	-85.714
209.84	850.000
210.21	0.000
210.59	5.000
210.96	700.000
211.34	-300.000
211.71	-33.333
212.09	275.000
212.46	1100.000
212.84	-2400.000
213.22	500.000
213.59	116.667
213.97	-88.889
214.34	50.000
214.72	-130.000
215.09	-433.333
215.47	-483.333
215.84	-60.000
216.22	0.000
216.59	-33.333
216.97	-450.000
217.34	1050.000
217.72	-85.714
218.09	-316.667
218.47	-257.143
218.84	242.857
219.22	-128.571
219.59	0.000
219.97	128.571
220.34	475.000
220.72	362.500
221.09	-76.923
221.47	0.000
221.84	433.333
222.22	-800.000
222.59	-300.000
222.97	-312.500
223.34	-1050.000
223.72	-333.333
224.09	-71.429
224.46	-550.000
224.84	-28.571
225.21	-171.429
225.59	-190.909
225.96	-187.500
226.34	-185.714
226.71	-277.778
227.08	15.000
227.46	2300.000
227.83	-328.571
228.21	-212.500
228.58	450.000
228.95	-68.750
229.33	-900.000
229.70	-320.000
230.08	-1050.000
230.45	-25.000
230.82	-150.000
231.20	-1600.000
231.57	-950.000
231.95	2200.000
232.32	-23.810
232.69	-255.556
233.07	-271.429
233.44	-1100.000
233.81	-66.667
234.19	-66.667
234.56	-68.750
234.93	3.125
235.31	-228.571
235.68	-121.429
236.05	0.000
236.43	-86.364
236.80	-35.484
237.17	-70.833
237.55	-61.905
237.92	-95.455
238.29	-34.286
238.67	-52.941
239.04	-22.222
239.41	-70.968
239.79	-56.410
240.16	-45.238
240.53	-21.818
240.91	-23.077
241.28	-7.273
241.65	0.000
242.02	-11.475
242.40	-16.393
242.77	-13.636
243.14	-25.424
243.51	-34.286
243.89	-10.127
244.26	-17.978
244.63	-7.368
245.00	2.105
245.38	-9.322
245.75	4.425
246.12	-8.800
246.49	-2.362
246.87	-4.065
247.24	-16.949
247.61	-14.407
247.98	-4.225
248.36	-9.091
248.73	0.633
249.10	-13.376
249.47	-3.509
249.84	-2.273
250.22	-10.714
250.59	5.085
250.96	-2.094
251.33	2.370
251.70	-4.808
252.08	-2.844
252.45	-2.844
252.82	-4.286
253.19	-0.851
253.56	-3.226
253.94	-1.266
254.31	-2.575
254.68	0.813
255.05	-6.048
255.42	-1.190
255.79	-1.434
256.16	-1.569
256.54	2.206
256.91	-2.652
257.28	-1.832
257.65	-4.610
258.02	2.201
258.39	-2.007
258.76	-1.351
259.14	-1.852
259.51	3.607
259.88	0.305
260.25	3.416
260.62	1.929
260.99	-0.593
261.36	2.134
261.73	2.312
262.10	1.667
262.47	-0.570
262.85	4.571
263.22	-0.287
263.59	-0.615
263.96	1.159
264.33	1.897
264.70	1.657
265.07	1.923
265.44	-0.517
265.81	3.359
266.18	-0.759
266.55	1.716
266.92	4.030
267.29	3.632
267.66	2.469
268.03	0.966
268.40	2.817
268.77	0.000
269.14	0.696
269.51	2.069
269.88	0.000
270.25	-2.098
270.62	-0.458
270.99	1.351
271.36	3.263
271.73	0.897
272.10	2.059
272.47	1.556
272.84	4.222
273.21	2.064
273.58	2.857
273.95	0.658
274.32	0.905
274.69	1.969
275.06	3.272
275.43	-0.893
275.80	1.833
276.17	2.929
276.54	2.444
276.91	0.206
277.28	1.826
277.65	4.752
278.02	2.296
278.39	1.965
278.76	0.199
279.13	3.755
279.50	1.988
279.87	4.017
280.23	3.441
280.60	2.187
280.97	0.777
281.34	0.967
281.71	4.038
282.08	2.621
282.45	-1.426
282.82	2.713
283.19	2.182
283.56	1.832
283.92	3.180
284.29	0.743
284.66	2.698
285.03	1.248
285.40	3.137
285.77	5.263
286.14	1.625
286.51	2.131
286.87	3.267
287.24	4.266
287.61	4.628
287.98	0.867
288.35	2.645
288.72	1.528
289.08	-0.169
289.45	1.347
289.82	0.865
290.19	1.478
290.56	2.149
290.93	0.954
291.29	3.241
291.66	0.644
292.03	2.512
292.40	2.560
292.77	2.174
293.13	2.276
293.50	3.269
293.87	2.454
294.24	3.167
294.60	-0.303
294.97	2.276
295.34	0.296
295.71	1.935
296.08	1.075
296.44	0.858
296.81	3.846
297.18	1.127
297.55	2.119
297.91	2.371
298.28	1.781
298.65	0.558
299.02	3.342
299.38	2.807
299.75	2.174
300.12	2.949
300.48	2.430
300.85	0.786
301.22	2.199
301.59	2.731
301.95	3.778
302.32	-0.130
302.69	1.958
303.05	2.198
303.42	1.875
303.79	2.273
304.15	2.725
304.52	1.867
304.89	3.896
305.25	2.320
305.62	3.290
305.99	5.300
306.35	2.664
306.72	0.683
307.09	3.859
307.45	3.746
307.82	1.788
308.19	2.573
308.55	3.159
308.92	1.611
309.29	2.054
309.65	2.651
310.02	1.944
310.38	1.514
310.75	1.025
311.12	3.409
311.48	3.340
311.85	2.266
312.22	3.605
312.58	4.069
312.95	2.039
313.31	2.498
313.68	3.819
314.05	3.264
314.41	2.113
314.78	2.098
315.14	3.554
315.51	2.330
315.87	4.163
316.24	3.207
316.61	4.031
316.97	2.786
317.34	2.987
317.70	1.763
318.07	3.545
318.43	3.652
318.80	4.038
319.16	1.407
319.53	3.195
319.89	3.104
320.26	4.216
320.62	2.404
320.99	3.383
321.35	2.857
321.72	2.354
322.08	3.561
322.45	3.267
322.81	3.842
323.18	3.170
323.54	3.789
323.91	4.356
324.27	4.278
324.64	3.748
325.00	4.450
325.37	2.896
325.73	5.599
326.10	3.454
326.46	4.203
326.83	4.596
327.19	5.004
327.56	4.429
327.92	4.928
328.29	4.329
328.65	3.909
329.01	4.240
329.38	3.925
329.74	5.586
330.11	5.077
330.47	5.904
330.84	5.775
331.20	4.513
331.56	5.014
331.93	4.174
332.29	4.932
332.66	5.004
333.02	4.706
333.38	5.914
333.75	5.254
334.11	4.089
334.48	4.413
334.84	5.949
335.20	5.496
335.57	4.513
335.93	5.819
336.29	5.314
336.66	4.670
337.02	5.586
337.38	4.635
337.75	5.092
338.11	4.114
338.47	5.427
338.84	5.626
339.20	5.800
339.56	6.150
339.93	4.497
340.29	4.606
340.65	4.283
341.02	5.649
341.38	5.981
341.74	5.843
342.11	5.034
342.47	5.064
342.83	4.534
343.20	5.551
343.56	5.469
343.92	6.678
344.28	5.971
344.65	4.703
345.01	5.042
345.37	6.645
345.73	3.601
346.10	4.252
346.46	5.280
346.82	5.774
347.19	5.341
347.55	4.334
347.91	5.276
348.27	4.853
348.63	5.816
349.00	5.648
349.36	4.215
349.72	5.573
350.08	5.613
350.45	4.807
350.81	6.608
351.17	4.823
351.53	5.012
351.89	4.931
352.26	5.814
352.62	6.375
352.98	5.617
353.34	5.995
353.70	6.023
354.07	5.586
354.43	5.771
354.79	5.547
355.15	5.032
355.51	5.391
355.87	5.692
356.24	5.004
356.60	5.399
356.96	5.851
357.32	4.355
357.68	3.985
358.04	5.697
358.40	5.568
358.77	4.173
359.13	5.356
359.49	5.291
359.85	5.945
360.21	5.784
360.57	5.873
360.93	6.000
361.29	5.830
361.66	4.268
362.02	4.808
362.38	6.163
362.74	5.495
363.10	5.524
363.46	6.339
363.82	6.050
364.18	6.512
364.54	6.505
364.90	5.660
365.26	5.421
365.62	5.987
365.98	6.828
366.35	5.704
366.71	5.990
367.07	5.716
367.43	6.658
367.79	5.911
368.15	4.694
368.51	6.643
368.87	7.143
369.23	6.596
369.59	7.153
369.95	6.131
370.31	6.821
370.67	5.134
371.03	6.195
371.39	5.799
371.75	6.867
372.11	5.595
372.47	5.929
372.83	6.259
373.19	6.214
373.55	6.334
373.91	6.899
374.27	6.639
374.63	6.625
374.99	6.885
375.35	6.662
375.71	7.090
376.07	5.681
376.42	5.762
376.78	6.863
377.14	5.492
377.50	6.641
377.86	6.242
378.22	6.407
378.58	6.238
378.94	6.720
379.30	6.216
379.66	7.407
380.02	6.239
380.38	5.740
380.74	6.741
381.09	6.561
381.45	6.623
381.81	5.929
382.17	6.516
382.53	7.173
382.89	6.938
383.25	7.044
383.61	7.075
383.97	7.165
384.32	6.946
384.68	7.316
385.04	6.944
385.40	6.391
385.76	7.195
386.12	7.370
386.48	7.673
386.83	7.362
387.19	7.113
387.55	7.026
387.91	7.469
388.27	5.911
388.62	7.031
388.98	7.087
389.34	6.671
389.70	6.943
390.06	6.588
390.42	6.987
390.77	6.814
391.13	7.391
391.49	6.862
391.85	6.671
392.20	6.129
392.56	7.025
392.92	6.902
393.28	7.348
393.64	6.795
393.99	7.754
394.35	6.752
394.71	7.783
395.07	7.156
395.42	6.734
395.78	6.600
396.14	7.975
396.50	7.523
396.85	7.094
397.21	7.594
397.57	8.207
397.92	7.026
398.28	7.111
398.64	7.020
399.00	7.809
399.35	6.933
399.71	8.072
400.07	6.925
400.42	7.360
400.78	7.275
401.14	7.844
401.49	7.488
401.85	7.749
402.21	7.628
402.57	6.978
402.92	7.867
403.28	7.843
403.63	6.711
403.99	6.961
404.35	7.307
404.70	7.022
405.06	8.824
405.42	6.642
405.77	7.070
406.13	7.382
406.49	6.950
406.84	6.539
407.20	8.127
407.55	7.473
407.91	6.606
408.27	7.966
408.62	7.336
408.98	6.974
409.34	6.825
409.69	7.813
410.05	7.702
410.40	7.051
410.76	7.587
411.11	7.419
411.47	6.777
411.83	6.785
412.18	6.993
412.54	6.345
412.89	7.412
413.25	6.553
413.60	6.561
413.96	5.915
414.31	7.829
414.67	6.857
415.03	7.633
415.38	7.612
415.74	7.990
416.09	7.417
416.45	5.820
416.80	7.607
417.16	6.977
417.51	8.339
417.87	6.667
418.22	6.637
418.58	7.959
418.93	7.541
419.29	7.465
419.64	6.721
420.00	8.505
420.35	7.156
420.71	7.143
421.06	7.751
421.42	7.026
421.77	7.091
422.12	7.946
422.48	7.536
422.83	7.062
423.19	7.517
423.54	7.550
423.90	6.998
424.25	7.466
424.61	7.841
424.96	7.782
425.31	7.658
425.67	7.278
426.02	7.344
426.38	8.046
426.73	8.416
427.09	8.027
427.44	8.295
427.79	6.977
428.15	8.558
428.50	8.211
428.85	7.194
429.21	8.688
429.56	7.969
429.92	7.766
430.27	7.577
430.62	7.471
430.98	7.893
431.33	7.311
431.68	8.365
432.04	8.394
432.39	7.806
432.74	7.914
433.10	7.935
433.45	7.830
433.80	7.671
434.16	8.651
434.51	8.384
434.86	8.494
435.22	9.131
435.57	7.895
435.92	7.620
436.28	8.546
436.63	8.084
436.98	7.732
437.34	8.506
437.69	7.526
438.04	8.508
438.39	8.604
438.75	8.265
439.10	8.717
439.45	7.061
439.81	8.554
440.16	8.745
440.51	8.412
440.86	8.849
441.22	7.131
441.57	8.421
441.92	8.798
442.27	8.333
442.63	8.423
442.98	7.788
443.33	8.841
443.68	8.598
444.03	8.399
444.39	8.762
444.74	8.480
445.09	8.772
445.44	8.554
445.79	7.904
446.15	9.200
446.50	8.710
446.85	8.825
447.20	8.784
447.55	9.006
447.91	8.478
448.26	8.492
448.61	8.546
448.96	8.908
449.31	8.681
449.66	8.701
450.02	8.753
450.37	8.000
450.72	8.305
451.07	8.108
451.42	7.931
451.77	8.498
452.12	8.462
452.47	8.753
452.83	8.969
453.18	8.792
453.53	9.017
453.88	8.852
454.23	7.860
454.58	9.323
454.93	9.257
455.28	8.349
455.63	9.275
455.98	8.916
456.34	8.513
456.69	9.193
457.04	9.035
457.39	8.672
457.74	8.978
458.09	9.165
458.44	8.776
458.79	8.464
459.14	9.412
459.49	9.118
459.84	8.938
460.19	9.189
460.54	8.348
460.89	8.800
461.24	8.804
461.59	9.144
461.94	8.912
462.29	9.232
462.64	9.223
462.99	9.371
463.34	9.318
463.69	9.224
464.04	8.553
464.39	9.020
464.74	9.102
465.09	9.321
465.44	9.250
465.79	10.039
466.14	9.551
466.49	9.096
466.84	8.703
467.19	9.352
467.54	8.544
467.89	9.679
468.24	8.967
468.59	8.994
468.94	8.939
469.29	8.967
469.64	9.771
469.99	10.196
470.34	9.486
470.68	9.157
471.03	9.911
471.38	8.542
471.73	8.881
472.08	8.835
472.43	9.138
472.78	8.800
473.13	8.085
473.48	9.700
473.83	8.809
474.17	9.554
474.52	9.783
474.87	10.373
475.22	9.027
475.57	9.444
475.92	9.611
476.27	10.114
476.61	8.845
476.96	9.167
477.31	9.473
477.66	10.238
478.01	10.265
478.36	10.162
478.70	9.824
479.05	9.248
479.40	10.155
479.75	9.072
480.10	9.722
480.45	9.381
480.79	9.625
481.14	9.634
481.49	10.116
481.84	9.524
482.19	9.868
482.53	9.943
482.88	9.682
483.23	9.765
483.58	10.453
483.92	9.699
484.27	9.437
484.62	9.676
484.97	9.821
485.31	9.376
485.66	9.468
486.01	9.449
486.36	9.773
486.70	10.189
487.05	9.998
487.40	9.909
487.75	10.107
488.09	9.821
488.44	10.047
488.79	10.223
489.13	10.042
489.48	11.256
489.83	10.087
490.17	9.839
490.52	9.828
490.87	9.977
491.22	9.482
491.56	10.602
491.91	9.828
492.26	10.000
492.60	9.943
492.95	10.090
493.30	10.148
493.64	9.779
493.99	10.038
494.34	9.857
494.68	10.206
495.03	10.038
495.37	9.390
495.72	10.314
496.07	10.042
496.41	10.283
496.76	9.726
497.11	9.986
497.45	10.536
497.80	9.905
498.14	10.707
498.49	9.392
498.84	9.612
499.18	10.770
499.53	10.862
499.87	8.929
500.22	9.951
500.56	10.455
500.91	10.000
501.26	10.286
501.60	10.014
501.95	9.952
502.29	10.345
502.64	10.702
502.98	9.727
503.33	10.385
503.67	10.105
504.02	10.043
504.36	10.588
504.71	9.980
505.06	10.684
505.40	10.778
505.75	9.807
506.09	10.415
506.44	10.576
506.78	10.437
507.13	9.990
507.47	11.059
507.82	10.325
508.16	10.622
508.51	10.459
508.85	10.973
509.19	10.780
509.54	11.099
509.88	10.691
510.23	10.797
510.57	11.693
510.92	10.687
511.26	10.633
511.61	10.097
511.95	10.614
512.30	10.885
512.64	10.740
512.98	11.606
513.33	11.422
513.67	11.614
514.02	11.074
514.36	12.355
514.70	11.036
515.05	11.721
515.39	11.130
515.74	11.867
516.08	11.700
516.42	11.558
516.77	12.594
517.11	11.384
517.46	11.782
517.80	11.552
518.14	11.473
518.49	12.373
518.83	12.344
519.17	12.256
519.52	12.146
519.86	12.246
520.20	12.286
520.55	11.569
520.89	12.398
521.23	12.393
521.58	11.787
521.92	11.970
522.26	12.508
522.61	11.724
522.95	12.061
523.29	11.975
523.64	12.055
523.98	12.858
524.32	12.759
524.66	12.360
525.01	12.460
525.35	12.629
525.69	12.817
526.04	12.141
526.38	13.367
526.72	12.452
527.06	13.281
527.41	11.749
527.75	12.211
528.09	13.104
528.43	13.377
528.78	13.442
529.12	13.444
529.46	12.500
529.80	13.557
530.15	13.587
530.49	13.066
530.83	13.360
531.17	12.660
531.51	14.334
531.86	13.430
532.20	13.428
532.54	13.235
532.88	12.978
533.22	13.703
533.57	13.446
533.91	13.171
534.25	13.639
534.59	12.929
534.93	13.317
535.27	13.971
535.62	14.194
535.96	13.445
536.30	13.089
536.64	14.475
536.98	13.701
537.32	14.029
537.66	12.899
538.01	14.708
538.35	13.243
538.69	13.102
539.03	14.150
539.37	13.307
539.71	13.476
540.05	13.160
540.39	13.573
540.73	13.545
541.07	14.481
541.42	13.032
541.76	12.558
542.10	14.315
542.44	13.458
542.78	15.129
543.12	14.121
543.46	13.562
543.80	13.177
544.14	14.103
544.48	14.108
544.82	13.329
545.16	13.280
545.50	13.257
545.84	13.839
546.18	13.870
546.52	14.154
546.86	14.031
547.20	13.994
547.54	12.603
547.88	14.599
548.22	12.647
548.56	14.228
548.90	13.814
549.24	13.385
549.58	14.255
549.92	13.852
550.26	14.090
550.60	13.442
550.94	14.526
551.28	14.673
551.62	13.885
551.96	14.544
552.30	13.937
552.64	14.356
552.98	14.436
553.32	13.131
553.66	13.987
554.00	13.930
554.34	13.574
554.68	13.743
555.02	14.327
555.36	13.731
555.69	13.610
556.03	14.456
556.37	14.794
556.71	14.245
557.05	15.078
557.39	14.254
557.73	14.223
558.07	14.243
558.41	13.912
558.75	14.525
559.08	13.541
559.42	14.089
559.76	14.494
560.10	15.362
560.44	14.812
560.78	13.918
561.12	14.562
561.45	14.315
561.79	13.659
562.13	13.745
562.47	15.126
562.81	14.144
563.15	13.786
563.48	14.720
563.82	14.469
564.16	14.672
564.50	14.046
564.84	14.352
565.17	14.191
565.51	14.276
565.85	14.131
566.19	14.295
566.52	15.003
566.86	13.780
567.20	14.831
567.54	14.885
567.88	13.847
568.21	14.262
568.55	14.210
568.89	13.419
569.23	13.744
569.56	13.367
569.90	13.926
570.24	13.191
570.57	13.497
570.91	13.499
571.25	13.489
571.59	13.831
571.92	13.810
572.26	13.571
572.60	14.397
572.93	14.122
573.27	13.384
573.61	13.565
573.95	13.811
574.28	13.439
574.62	13.599
574.96	13.285
575.29	13.618
575.63	13.857
575.97	13.646
576.30	13.511
576.64	14.047
576.98	13.585
577.31	13.850
577.65	13.912
577.98	13.535
578.32	13.597
578.66	13.663
578.99	13.852
579.33	13.866
579.67	13.442
580.00	13.095
580.34	13.478
580.67	13.239
581.01	13.346
581.35	13.444
581.68	13.282
582.02	13.530
582.35	13.579
582.69	13.604
583.02	13.660
583.36	13.990
583.70	13.774
584.03	13.766
584.37	13.829
584.70	13.693
585.04	13.519
585.37	13.341
585.71	13.667
586.04	13.931
586.38	13.766
586.72	14.008
587.05	13.452
587.39	13.439
587.72	13.884
588.06	14.003
588.39	13.842
588.73	14.544
589.06	14.482
589.40	14.256
589.73	14.412
590.07	13.729
590.40	14.760
590.73	13.715
591.07	13.607
591.40	14.255
591.74	14.031
592.07	13.604
592.41	13.970
592.74	14.181
593.08	14.315
593.41	13.849
593.75	13.386
594.08	13.947
594.41	14.381
594.75	14.156
595.08	14.361
595.42	14.162
595.75	13.965
596.09	14.280
596.42	14.607
596.75	14.230
597.09	15.227
597.42	14.273
597.75	14.172
598.09	14.550
598.42	14.229
598.76	13.704
599.09	14.246
599.42	14.033
599.76	14.081
600.09	14.618
600.42	14.470
600.76	13.974
601.09	13.900
601.42	13.573
601.76	14.759
602.09	13.701
602.42	14.115
602.76	14.001
603.09	14.315
603.42	14.424
603.76	14.599
604.09	14.417
604.42	14.779
604.76	14.828
605.09	14.557
605.42	15.160
605.75	14.618
606.09	14.114
606.42	14.118
606.75	14.684
607.09	14.513
607.42	14.701
607.75	14.746
608.08	14.596
608.42	14.238
608.75	14.393
609.08	14.613
609.41	14.748
609.75	14.432
610.08	15.000
610.41	14.458
610.74	14.410
611.07	15.112
611.41	14.120
611.74	15.116
612.07	14.715
612.40	14.925
612.73	14.970
613.07	14.584
613.40	15.380
613.73	14.932
614.06	13.674
614.39	15.051
614.72	14.022
615.06	14.946
615.39	13.728
615.72	14.286
616.05	14.522
616.38	14.858
616.71	15.135
617.05	15.078
617.38	15.789
617.71	13.759
618.04	15.528
618.37	15.220
618.70	14.733
619.03	15.504
619.36	15.715
619.69	15.865
620.03	14.187
620.36	14.416
620.69	14.358
621.02	15.525
621.35	15.887
621.68	15.410
622.01	14.644
622.34	15.839
622.67	14.141
623.00	14.843
623.33	15.821
623.66	14.993
623.99	15.188
624.32	14.137
624.65	15.011
624.99	14.787
625.32	14.446
625.65	15.695
625.98	14.085
626.31	15.824
626.64	14.644
626.97	14.983
627.30	15.574
627.63	14.680
627.96	15.579
628.29	16.085
628.62	14.709
628.95	15.551
629.28	15.132
629.61	14.622
629.94	16.068
630.26	16.799
630.59	15.779
630.92	13.914
631.25	16.835
631.58	15.026
631.91	15.851
632.24	15.889
632.57	15.667
632.90	15.517
633.23	16.121
633.56	16.023
633.89	14.976
634.22	16.883
634.55	15.986
634.88	16.566
635.20	15.231
635.53	16.158
635.86	14.861
636.19	15.507
636.52	16.129
636.85	14.320
637.18	13.500
637.51	16.729
637.83	15.712
638.16	15.526
638.49	13.793
638.82	16.088
639.15	15.045
639.48	16.342
639.81	15.353
640.13	15.000
640.46	16.239
640.79	15.406
641.12	17.348
641.45	16.499
641.77	16.766
642.10	16.012
642.43	15.326
642.76	14.488
643.09	16.190
643.41	16.984
643.74	15.898
644.07	17.473
644.40	17.504
644.73	15.842
645.05	16.027
645.38	17.384
645.71	17.698
646.04	17.983
646.36	15.707
646.69	17.474
647.02	15.884
647.35	16.065
647.67	17.518
648.00	17.399
648.33	18.044
648.66	15.000
648.98	16.401
649.31	15.692
649.64	16.094
649.96	14.129
650.29	15.410
650.62	14.802
650.94	16.526
651.27	16.984
651.60	15.917
651.92	17.466
652.25	17.028
652.58	15.503
652.90	14.125
653.23	16.774
653.56	15.217
653.88	13.443
654.21	17.282
654.54	16.611
654.86	16.212
655.19	14.613
655.52	15.420
655.84	13.843
656.17	15.079
656.49	20.856
656.82	22.197
657.15	17.107
657.47	12.730
657.80	9.744
658.13	11.203
658.45	15.183
658.78	14.992
659.10	16.214
659.43	15.922
659.75	16.758
660.08	16.562
660.41	16.070
660.73	17.052
661.06	19.420
661.38	17.321
661.71	16.826
662.03	16.935
662.36	17.058
662.68	16.245
663.01	15.499
663.33	16.780
663.66	16.738
663.98	15.179
664.31	17.002
664.63	16.814
664.96	11.931
665.28	19.523
665.61	14.376
665.93	19.136
666.26	16.802
666.58	19.335
666.91	19.599
667.23	15.789
667.56	17.234
667.88	16.516
668.21	17.051
668.53	12.617
668.86	16.397
669.18	15.068
669.50	15.888
669.83	16.545
670.15	16.143
670.48	13.084
670.80	16.173
671.13	16.930
671.45	15.090
671.77	15.846
672.10	16.568
672.42	16.421
672.75	15.818
673.07	16.577
673.39	13.479
673.72	18.307
674.04	16.136
674.37	13.608
674.69	15.984
675.01	16.809
675.34	15.401
675.66	17.495
675.98	16.740
676.31	18.326
676.63	19.080
676.95	17.699
677.28	14.153
677.60	18.326
677.92	18.502
678.25	16.630
678.57	17.695
678.89	16.352
679.22	17.610
679.54	16.765
679.86	15.200
680.18	15.209
680.51	13.035
680.83	18.286
681.15	17.341
681.48	16.633
681.80	15.927
682.12	17.505
682.44	14.342
682.77	17.100
683.09	18.449
683.41	19.027
683.73	14.155
684.06	16.559
684.38	17.992
684.70	17.695
685.02	16.732
685.34	14.815
685.67	15.152
685.99	16.257
686.31	16.158
686.63	17.021
686.96	15.527
687.28	16.570
687.60	16.797
687.92	14.591
688.24	15.354
688.56	15.631
688.89	14.957
689.21	17.068
689.53	15.632
689.85	17.595
690.17	14.350
690.49	15.935
690.82	13.735
691.14	15.094
691.46	17.517
691.78	17.401
692.10	17.373
692.42	15.556
692.74	14.807
693.06	14.157
693.39	17.226
693.71	17.607
694.03	17.711
694.35	13.995
694.67	14.421
694.99	14.066
695.31	17.092
695.63	14.541
695.95	14.144
696.27	12.219
696.59	16.310
696.91	18.258
697.23	16.146
697.56	14.423
697.88	13.288
698.20	13.062
698.52	16.143
698.84	17.476
699.16	15.238
699.48	11.000
699.80	16.040
700.12	18.640
700.44	11.173
700.76	15.743
701.08	16.279
701.40	11.178
701.72	16.358
702.04	16.987
702.36	18.072
702.68	11.377
703.00	17.971
703.32	14.327
703.64	18.235
703.96	20.058
704.28	20.118
704.60	13.608
704.91	13.968
705.23	15.534
705.55	12.838
705.87	15.700
706.19	13.889
706.51	13.194
706.83	14.754
707.15	13.057
707.47	16.253
707.79	16.495
708.11	12.723
708.43	15.960
708.74	15.325
709.06	13.928
709.38	14.080
709.70	11.250
710.02	21.779
710.34	14.521
710.66	15.238
710.98	13.249
711.29	16.452
711.61	14.377
711.93	14.754
712.25	18.272
712.57	11.150
712.89	17.626
713.20	20.619
713.52	16.045
713.84	13.879
714.16	16.721
714.48	13.016
714.80	15.692
715.11	14.409
715.43	18.373
715.75	18.069
716.07	16.393
716.39	15.050
716.70	14.634
717.02	14.815
717.34	14.122
717.66	13.278
717.97	16.803
718.29	10.924
718.61	16.270
718.93	14.695
719.24	15.809
719.56	10.566
719.88	12.364
720.20	15.730
720.51	21.053
720.83	13.253
721.15	12.295
721.46	15.686
721.78	19.540
722.10	14.400
722.42	9.917
722.73	11.155
723.05	13.253
723.37	16.471
723.68	16.194
724.00	17.886
724.32	17.284
724.63	13.278
724.95	20.248
725.27	8.772
725.58	11.207
725.90	15.079
726.22	19.926
726.53	16.730
726.85	11.765
727.16	15.789
727.48	12.308
727.80	10.656
728.11	9.664
728.43	15.702
728.74	17.188
729.06	18.561
729.38	12.451
729.69	12.992
730.01	11.417
730.32	10.757
730.64	20.147
730.96	14.925
731.27	14.643
731.59	15.756
731.90	16.258
732.22	12.883
732.53	15.894
732.85	15.436
733.16	19.928
733.48	15.679
733.80	12.456
734.11	11.724
734.43	15.986
734.74	21.365
735.06	13.166
735.37	15.902
735.69	12.903
736.00	15.825
736.32	15.232
736.63	11.724
736.95	14.130
737.26	19.536
737.58	12.950
737.89	17.563
738.21	13.910
738.52	14.615
738.83	17.578
739.15	16.239
739.46	18.548
739.78	14.336
740.09	13.986
740.41	16.084
740.72	13.139
741.04	15.873
741.35	12.121
741.66	16.667
741.98	9.524
742.29	13.615
742.61	20.856
742.92	13.551
743.23	9.211
743.55	18.468
743.86	13.778
744.18	14.286
744.49	18.227
744.80	15.228
745.12	12.371
745.43	12.060
745.74	13.592
746.06	13.659
746.37	18.502
746.68	19.900
747.00	13.613
747.31	18.269
747.62	13.825
747.94	17.031
748.25	13.488
748.56	16.667
748.88	7.065
749.19	16.432
749.50	20.588
749.82	20.889
750.13	15.859
750.44	15.447
750.75	12.400
751.07	22.500
751.38	11.808
751.69	12.595
752.01	14.231
752.32	12.451
752.63	10.769
752.94	16.270
753.26	15.217
753.57	15.179
753.88	16.379
754.19	14.523
754.51	14.844
754.82	12.648
755.13	16.049
755.44	11.570
755.75	11.523
756.07	10.442
756.38	7.031
756.69	20.217
757.00	13.937
757.31	14.094
757.63	17.757
757.94	15.896
758.25	15.116
758.56	18.329
758.87	16.761
759.18	13.667
759.50	17.794
759.81	10.584
760.12	13.851
760.43	13.916
760.74	16.875
761.05	14.607
761.36	14.072
761.67	15.089
761.99	10.323
762.30	18.478
762.61	13.962
762.92	17.937
763.23	12.796
763.54	11.111
763.85	21.097
764.16	14.286
764.47	16.949
764.78	13.483
765.10	15.108
765.41	15.806
765.72	15.409
766.03	13.428
766.34	15.789
766.65	13.360
766.96	9.000
767.27	15.625
767.58	17.442
767.89	10.323
768.20	18.405
768.51	15.301
768.82	16.757
769.13	14.500
769.44	17.982
769.75	14.719
770.06	15.138
770.37	11.737
770.68	10.937
770.99	9.406
771.30	9.709
771.61	11.111
771.92	12.121
772.23	17.757
772.54	14.894
772.85	7.692
773.16	17.073
773.47	13.253
773.78	18.681
774.09	14.667
774.39	9.877
774.70	6.040
775.01	11.594
775.32	7.463
775.63	5.785
775.94	18.045
776.25	17.857
776.56	13.934
776.87	17.699
777.18	20.354
777.48	8.182
777.79	6.957
778.10	5.505
778.41	11.864
778.72	14.050
779.03	20.896
779.34	17.293
779.65	5.882
779.95	21.739
780.26	4.762
780.57	0.862
780.88	3.704
781.19	-1.010
781.50	5.600
781.80	3.268
782.11	15.385
782.42	10.843
782.73	2.920
783.04	11.486
783.34	9.848
783.65	7.752
783.96	10.569
784.27	7.692
784.57	12.195
784.88	8.943
785.19	18.421
785.50	0.000
785.81	5.714
786.11	2.941
786.42	-2.727
786.73	12.613
787.04	12.871
787.34	7.619
787.65	9.524
787.96	7.843
788.26	18.018
788.57	12.903
788.88	9.375
789.19	3.419
789.49	9.244
789.80	6.838
790.11	12.389
790.41	4.040
790.72	8.491
791.03	-1.389
791.33	2.632
791.64	5.376
791.95	-1.333
792.25	11.429
792.56	12.195
792.87	21.429
793.17	-2.632
793.48	-4.054
793.79	-9.859
794.09	-3.797
794.40	13.830
794.70	13.084
795.01	5.263
795.32	-1.818
795.62	8.036
795.93	2.062
796.23	-9.890
796.54	8.421
796.85	-8.219
797.15	4.167
797.46	10.959
797.76	9.859
798.07	16.250
798.37	2.941
798.68	21.429
798.99	7.143
799.29	9.211
799.60	1.667
799.90	-4.167
800.21	-3.125
800.51	3.175
800.82	14.754
801.12	-12.281
801.43	8.451
801.73	-20.339
802.04	9.836
802.34	-9.091
802.65	-23.077
802.95	-5.556
803.26	-22.500
803.56	-3.846
803.87	-36.842
804.17	-11.290
804.48	6.154
804.78	-28.205
805.09	0.000
805.39	-78.125
805.70	-18.868
806.00	24.561
806.30	14.865
806.61	13.235
806.91	14.815
807.22	12.000
807.52	5.970
807.83	-3.226
808.13	1.587
808.43	-18.182
808.74	4.545
809.04	3.774
809.35	9.589
809.65	8.772
809.95	2.941
810.26	19.608
810.56	-20.000
810.86	-22.449
811.17	-28.571
811.47	1.923
811.77	-25.806
812.08	-60.526
812.38	-14.286
812.69	4.348
812.99	-6.452
813.29	-26.190
813.59	-40.741
813.90	-8.511
814.20	-16.279
814.50	-10.417
814.81	-11.667
815.11	-2.439
815.41	-26.667
815.72	0.000
816.02	-33.333
816.32	15.385
816.62	18.919
816.93	-47.059
817.23	-2.174
817.53	-35.294
817.84	-2.941
818.14	-37.500
818.44	0.000
818.74	-41.935
819.04	0.000
819.35	-13.333
819.65	-80.000
819.95	-33.333
820.25	0.000
820.56	-23.684
820.86	0.000
821.16	-14.894
821.46	10.345
821.76	-2.564
822.07	-47.500
822.37	-6.977
822.67	-26.667
822.97	-13.514
823.27	-13.514
823.57	16.000
823.88	-2.703
824.18	-85.714
824.48	-30.769
824.78	-61.538
825.08	-52.174
825.38	-62.500
825.69	8.333
825.99	-75.000
826.29	-48.649
826.59	-20.588
826.89	0.000
827.19	-17.143
827.49	10.526
827.79	-25.000
828.09	-33.333
828.39	-13.043
828.70	-41.379
829.00	-17.241
829.30	-19.444
829.60	6.250
829.90	-5.556
830.20	-53.846
830.50	-119.048
830.80	-21.429
831.10	-15.385
831.40	-71.429
831.70	-5.882
832.00	-37.500
832.30	-36.842
832.60	-162.500
832.90	-91.667
833.20	-117.647
833.50	-133.333
833.80	-100.000
834.10	-45.000
834.40	-33.333
834.70	-50.000
835.00	-23.077
835.30	-12.500
835.60	-51.724
835.90	-77.778
836.20	-163.636
836.50	-158.333
836.80	-14.286
837.10	11.429
837.40	-82.353
837.70	-136.364
838.00	-20.833
838.30	-87.500
838.60	-4.762
838.90	55.000
839.19	-34.783
839.49	-60.870
839.79	-105.556
840.09	-21.739
840.39	-50.000
840.69	-56.250
840.99	-26.316
841.29	-50.000
841.59	-78.571
841.88	-16.667
842.18	-50.000
842.48	-64.706
842.78	-24.138
843.08	14.286
843.38	-46.154
843.68	-211.111
843.97	-107.692
844.27	-45.455
844.57	-360.000
844.87	12.000
845.17	-120.000
845.47	-71.429
845.76	-144.444
846.06	0.000
846.36	-550.000
846.66	-170.000
846.96	-36.842
847.25	-37.500
847.55	-125.000
847.85	-33.333
848.15	-100.000
848.44	23.077
848.74	-63.158
849.04	633.333
849.34	0.000
849.63	-63.158
849.93	0.000
850.23	-75.000
850.53	-9.524
850.82	-44.000
851.12	-26.316
851.42	-800.000
851.71	-78.571
852.01	-125.000
852.31	-29.412
852.61	-60.000
852.90	-61.905
853.20	-200.000
853.50	-16.667
853.79	-5.263
854.09	-60.000
854.39	-39.286
854.68	-26.087
854.98	-191.667
855.28	-13.793
855.57	-12.500
855.87	-15.000
856.17	-86.667
856.46	-3.448
856.76	-113.333
857.05	-23.529
857.35	-200.000
857.65	-118.182
857.94	-14.815
858.24	-78.571
858.53	-114.286
858.83	-66.667
859.13	-255.556
859.42	-19.048
859.72	-250.000
860.01	-466.667
860.31	-75.000
860.60	-600.000
860.90	-200.000
861.20	-150.000
861.49	-228.571
861.79	-23.529
862.08	-550.000
862.38	-116.667
862.67	-84.615
862.97	-64.706
863.26	-20.000
863.56	-64.706
863.85	700.000
864.15	-120.000
864.44	-107.692
864.74	-10.000
865.03	-225.000
865.33	-133.333
865.62	-76.471
865.92	-550.000
866.21	-114.286
866.51	-141.667
866.80	-700.000
867.10	-333.333
867.39	-52.941
867.69	-17.391
867.98	-114.286
868.27	-320.000
868.57	-68.750
868.86	-127.273
869.16	-17.647
869.45	-216.667
869.75	-100.000
870.04	700.000
870.33	-16.667
870.63	-40.000
870.92	-188.889
871.22	-50.000
871.51	-63.636
871.80	-50.000
872.10	-30.000
>>>>>End Processed Spectral Data<<<<<
