SpectraSuite Data File
++++++++++++++++++++++++++++++++++++
Date: Sat May 16 11:44:33 PDT 2015
User: schluterlab
Dark Spectrum Present: Yes
Reference Spectrum Present: Yes
Number of Sampled Component Spectra: 1
Spectrometers: USB2E3373
Integration Time (usec): 3000 (USB2E3373)
Spectra Averaged: 3 (USB2E3373)
Boxcar Smoothing: 0 (USB2E3373)
Correct for Electrical Dark: No (USB2E3373)
Strobe/Lamp Enabled: No (USB2E3373)
Correct for Detector Non-linearity: No (USB2E3373)
Correct for Stray Light: No (USB2E3373)
Number of Pixels in Processed Spectrum: 2048
>>>>>Begin Processed Spectral Data<<<<<
178.53	0.000
178.91	206.667
179.29	500.000
179.67	-1800.000
180.04	-46.154
180.42	-300.000
180.80	275.000
181.18	275.000
181.56	50.000
181.94	1700.000
182.31	375.000
182.69	-76.923
183.07	-833.333
183.45	1350.000
183.83	766.667
184.20	-128.571
184.58	-275.000
184.96	-425.000
185.34	118.750
185.72	-575.000
186.09	250.000
186.47	-137.500
186.85	-100.000
187.23	-75.000
187.61	-225.000
187.98	-287.500
188.36	-200.000
188.74	-162.500
189.12	1200.000
189.49	328.571
189.87	-183.333
190.25	375.000
190.63	-21.429
191.00	-244.444
191.38	500.000
191.76	-13.333
192.14	460.000
192.51	-140.000
192.89	-300.000
193.27	0.000
193.65	-111.111
194.02	-228.571
194.40	733.333
194.78	-190.000
195.15	-1200.000
195.53	-109.091
195.91	-316.667
196.29	360.000
196.66	-466.667
197.04	1800.000
197.42	-350.000
197.79	-6.667
198.17	-333.333
198.55	-800.000
198.92	-1200.000
199.30	275.000
199.68	-450.000
200.05	-222.222
200.43	-100.000
200.81	-2500.000
201.18	-133.333
201.56	100.000
201.94	-80.000
202.31	-9.091
202.69	0.000
203.07	-140.000
203.44	366.667
203.82	-166.667
204.19	-250.000
204.57	-225.000
204.95	-1800.000
205.32	-6.250
205.70	600.000
206.08	-1900.000
206.45	-27.778
206.83	-1600.000
207.20	50.000
207.58	-600.000
207.96	-366.667
208.33	-200.000
208.71	-211.111
209.08	280.000
209.46	-257.143
209.84	1150.000
210.21	0.000
210.59	5.000
210.96	300.000
211.34	-216.667
211.71	-500.000
212.09	275.000
212.46	750.000
212.84	-2700.000
213.22	366.667
213.59	158.333
213.97	-33.333
214.34	130.000
214.72	-100.000
215.09	-400.000
215.47	-383.333
215.84	-80.000
216.22	-70.000
216.59	-26.667
216.97	-300.000
217.34	650.000
217.72	-185.714
218.09	-233.333
218.47	-400.000
218.84	228.571
219.22	-28.571
219.59	0.000
219.97	342.857
220.34	375.000
220.72	187.500
221.09	-107.692
221.47	0.000
221.84	533.333
222.22	-850.000
222.59	1600.000
222.97	-200.000
223.34	-900.000
223.72	-266.667
224.09	-85.714
224.46	-425.000
224.84	-14.286
225.21	-242.857
225.59	-100.000
225.96	-162.500
226.34	-100.000
226.71	-200.000
227.08	25.000
227.46	2000.000
227.83	-257.143
228.21	-250.000
228.58	300.000
228.95	-43.750
229.33	-2300.000
229.70	-140.000
230.08	-850.000
230.45	-16.667
230.82	-183.333
231.20	-1600.000
231.57	-800.000
231.95	1500.000
232.32	38.095
232.69	-122.222
233.07	-157.143
233.44	-1100.000
233.81	-73.333
234.19	-11.111
234.56	-100.000
234.93	12.500
235.31	-214.286
235.68	-121.429
236.05	-41.176
236.43	-63.636
236.80	-35.484
237.17	-20.833
237.55	-57.143
237.92	-54.545
238.29	-14.286
238.67	2.941
239.04	13.889
239.41	-9.677
239.79	-23.077
240.16	-9.524
240.53	7.273
240.91	2.564
241.28	9.091
241.65	16.923
242.02	19.672
242.40	-1.639
242.77	27.273
243.14	-1.695
243.51	10.000
243.89	13.924
244.26	17.978
244.63	26.316
245.00	20.000
245.38	24.576
245.75	31.858
246.12	26.400
246.49	24.409
246.87	25.203
247.24	26.271
247.61	22.034
247.98	22.535
248.36	25.874
248.73	31.013
249.10	28.662
249.47	30.409
249.84	31.818
250.22	25.595
250.59	27.684
250.96	30.890
251.33	24.171
251.70	31.250
252.08	34.597
252.45	27.014
252.82	30.952
253.19	32.766
253.56	29.839
253.94	34.177
254.31	29.614
254.68	34.959
255.05	29.435
255.42	29.762
255.79	30.466
256.16	33.725
256.54	37.500
256.91	31.439
257.28	24.908
257.65	35.106
258.02	36.792
258.39	33.779
258.76	31.081
259.14	30.864
259.51	35.410
259.88	28.963
260.25	36.646
260.62	33.441
260.99	32.047
261.36	36.890
261.73	32.948
262.10	31.389
262.47	33.333
262.85	38.571
263.22	31.519
263.59	31.385
263.96	32.464
264.33	34.417
264.70	34.807
265.07	34.341
265.44	32.041
265.81	33.075
266.18	30.127
266.55	31.863
266.92	38.035
267.29	34.140
267.66	32.099
268.03	34.783
268.40	32.160
268.77	34.699
269.14	29.930
269.51	35.402
269.88	27.523
270.25	32.634
270.62	33.638
270.99	29.730
271.36	35.897
271.73	33.857
272.10	36.156
272.47	33.556
272.84	34.444
273.21	32.110
273.58	33.846
273.95	30.921
274.32	35.973
274.69	36.324
275.06	33.742
275.43	30.580
275.80	33.809
276.17	32.218
276.54	34.216
276.91	33.539
277.28	31.846
277.65	32.025
278.02	35.282
278.39	33.595
278.76	35.259
279.13	33.202
279.50	33.002
279.87	35.941
280.23	35.628
280.60	36.382
280.97	34.951
281.34	35.203
281.71	34.231
282.08	34.476
282.45	33.198
282.82	31.977
283.19	31.818
283.56	33.700
283.92	34.806
284.29	31.041
284.66	32.734
285.03	34.403
285.40	34.317
285.77	34.912
286.14	32.310
286.51	33.570
286.87	33.757
287.24	32.253
287.61	30.744
287.98	30.849
288.35	31.240
288.72	32.937
289.08	31.695
289.45	30.303
289.82	31.315
290.19	32.512
290.56	29.091
290.93	29.730
291.29	29.498
291.66	29.952
292.03	31.868
292.40	30.572
292.77	26.708
293.13	29.756
293.50	28.380
293.87	27.761
294.24	30.468
294.60	26.061
294.97	28.225
295.34	27.704
295.71	27.679
296.08	26.728
296.44	28.755
296.81	28.632
297.18	26.479
297.55	27.401
297.91	28.452
298.28	25.616
298.65	25.662
299.02	28.209
299.38	26.337
299.75	25.543
300.12	25.641
300.48	25.192
300.85	25.819
301.22	27.296
301.59	24.187
301.95	27.834
302.32	23.598
302.69	26.561
303.05	24.908
303.42	25.125
303.79	26.196
304.15	24.882
304.52	24.621
304.89	23.613
305.25	25.519
305.62	23.619
305.99	25.206
306.35	24.861
306.72	23.235
307.09	25.312
307.45	23.156
307.82	22.011
308.19	24.049
308.55	23.312
308.92	22.234
309.29	23.027
309.65	24.178
310.02	22.570
310.38	21.730
310.75	23.156
311.12	23.450
311.48	23.382
311.85	22.554
312.22	22.760
312.58	24.313
312.95	23.955
313.31	24.775
313.68	22.613
314.05	22.552
314.41	23.038
314.78	23.177
315.14	23.100
315.51	23.404
315.87	22.749
316.24	23.421
316.61	23.321
316.97	22.985
317.34	23.218
317.70	22.913
318.07	22.575
318.43	22.191
318.80	22.441
319.16	21.857
319.53	22.368
319.89	23.142
320.26	21.961
320.62	21.731
320.99	21.294
321.35	21.182
321.72	24.156
322.08	23.046
322.45	20.693
322.81	22.767
323.18	21.902
323.54	21.996
323.91	21.501
324.27	22.053
324.64	22.303
325.00	21.990
325.37	21.176
325.73	23.010
326.10	21.523
326.46	21.278
326.83	22.553
327.19	21.184
327.56	23.254
327.92	22.005
328.29	22.078
328.65	20.727
329.01	22.261
329.38	21.142
329.74	22.436
330.11	21.034
330.47	21.889
330.84	24.015
331.20	21.570
331.56	20.784
331.93	21.048
332.29	21.644
332.66	21.949
333.02	20.452
333.38	20.699
333.75	21.193
334.11	20.711
334.48	20.477
334.84	21.697
335.20	20.035
335.57	21.119
335.93	22.381
336.29	20.195
336.66	19.648
337.02	21.532
337.38	20.677
337.75	20.369
338.11	21.288
338.47	20.374
338.84	21.597
339.20	21.090
339.56	20.499
339.93	20.635
340.29	19.752
340.65	20.455
341.02	20.826
341.38	20.303
341.74	21.084
342.11	21.331
342.47	20.000
342.83	20.151
343.20	19.641
343.56	19.755
343.92	21.870
344.28	22.035
344.65	20.297
345.01	20.504
345.37	20.930
345.73	18.985
346.10	19.706
346.46	20.634
346.82	20.369
347.19	20.296
347.55	19.823
347.91	20.000
348.27	20.366
348.63	21.244
349.00	21.082
349.36	18.345
349.72	20.541
350.08	19.808
350.45	20.016
350.81	19.506
351.17	19.775
351.53	18.138
351.89	19.563
352.26	20.310
352.62	19.816
352.98	18.987
353.34	19.025
353.70	18.301
354.07	19.276
354.43	19.842
354.79	20.681
355.15	18.610
355.51	19.609
355.87	19.447
356.24	19.222
356.60	20.790
356.96	19.477
357.32	19.873
357.68	19.234
358.04	19.246
358.40	18.794
358.77	18.624
359.13	18.669
359.49	18.594
359.85	19.360
360.21	19.178
360.57	19.804
360.93	19.704
361.29	20.404
361.66	17.912
362.02	18.639
362.38	19.663
362.74	18.681
363.10	19.154
363.46	19.943
363.82	18.950
364.18	18.958
364.54	20.515
364.90	18.868
365.26	17.903
365.62	19.672
365.98	19.417
366.35	19.577
366.71	18.605
367.07	19.195
367.43	19.012
367.79	19.519
368.15	18.208
368.51	20.210
368.87	19.780
369.23	19.719
369.59	18.819
369.95	18.887
370.31	19.902
370.67	18.583
371.03	19.023
371.39	18.741
371.75	19.170
372.11	19.584
372.47	19.017
372.83	19.402
373.19	19.929
373.55	19.212
373.91	18.706
374.27	18.549
374.63	19.186
374.99	19.332
375.35	18.977
375.71	19.716
376.07	18.480
376.42	17.947
376.78	19.542
377.14	19.119
377.50	19.536
377.86	18.726
378.22	18.970
378.58	19.456
378.94	19.174
379.30	19.561
379.66	19.186
380.02	19.014
380.38	19.517
380.74	18.288
381.09	20.094
381.45	19.988
381.81	18.572
382.17	19.298
382.53	19.331
382.89	18.301
383.25	19.506
383.61	18.396
383.97	19.473
384.32	18.899
384.68	19.649
385.04	18.599
385.40	19.355
385.76	18.720
386.12	19.363
386.48	18.812
386.83	19.202
387.19	19.665
387.55	19.503
387.91	19.206
388.27	18.034
388.62	18.570
388.98	19.382
389.34	19.767
389.70	19.488
390.06	18.459
390.42	19.872
390.77	19.243
391.13	18.447
391.49	18.653
391.85	18.953
392.20	19.782
392.56	18.815
392.92	19.452
393.28	18.657
393.64	19.002
393.99	19.262
394.35	19.647
394.71	19.209
395.07	20.339
395.42	18.892
395.78	18.668
396.14	19.190
396.50	19.266
396.85	19.556
397.21	18.773
397.57	19.027
397.92	19.731
398.28	19.333
398.64	18.679
399.00	19.888
399.35	18.940
399.71	19.686
400.07	19.164
400.42	19.404
400.78	19.678
401.14	19.281
401.49	19.222
401.85	19.219
402.21	19.905
402.57	19.539
402.92	20.453
403.28	19.853
403.63	18.514
403.99	19.453
404.35	18.720
404.70	18.958
405.06	20.012
405.42	19.557
405.77	19.683
406.13	19.250
406.49	19.892
406.84	19.976
407.20	20.200
407.55	18.999
407.91	18.912
408.27	19.792
408.62	19.423
408.98	19.951
409.34	19.439
409.69	19.408
410.05	20.315
410.40	19.252
410.76	19.680
411.11	19.140
411.47	19.309
411.83	19.377
412.18	19.493
412.54	19.280
412.89	18.712
413.25	19.008
413.60	18.773
413.96	19.039
414.31	19.144
414.67	19.048
415.03	19.470
415.38	19.779
415.74	18.943
416.09	19.118
416.45	18.519
416.80	18.921
417.16	18.738
417.51	20.486
417.87	18.900
418.22	20.164
418.58	19.127
418.93	20.110
419.29	19.636
419.64	18.153
420.00	19.563
420.35	19.338
420.71	18.908
421.06	20.118
421.42	19.262
421.77	19.095
422.12	20.201
422.48	18.974
422.83	19.191
423.19	19.766
423.54	19.769
423.90	19.202
424.25	18.948
424.61	19.903
424.96	19.485
425.31	19.285
425.67	19.140
426.02	19.220
426.38	19.964
426.73	19.871
427.09	19.424
427.44	19.659
427.79	19.186
428.15	20.407
428.50	19.707
428.85	19.245
429.21	17.986
429.56	19.323
429.92	19.289
430.27	19.342
430.62	19.958
430.98	19.185
431.33	19.477
431.68	20.054
432.04	19.810
432.39	20.513
432.74	19.964
433.10	19.415
433.45	18.941
433.80	19.653
434.16	20.043
434.51	19.507
434.86	20.972
435.22	19.209
435.57	20.012
435.92	20.164
436.28	19.822
436.63	19.672
436.98	19.187
437.34	20.437
437.69	20.012
438.04	20.533
438.39	20.036
438.75	20.023
439.10	20.155
439.45	19.493
439.81	20.602
440.16	19.875
440.51	20.353
440.86	20.301
441.22	18.905
441.57	19.842
441.92	20.153
442.27	20.022
442.63	19.903
442.98	19.187
443.33	19.660
443.68	19.489
444.03	19.695
444.39	19.677
444.74	19.879
445.09	19.901
445.44	19.809
445.79	19.582
446.15	20.427
446.50	19.434
446.85	19.497
447.20	19.765
447.55	19.834
447.91	20.382
448.26	20.279
448.61	19.411
448.96	20.560
449.31	19.166
449.66	20.435
450.02	19.557
450.37	19.188
450.72	20.113
451.07	19.862
451.42	19.641
451.77	19.808
452.12	19.249
452.47	19.962
452.83	19.569
453.18	19.671
453.53	20.585
453.88	20.215
454.23	19.468
454.58	21.007
454.93	19.710
455.28	20.013
455.63	20.455
455.98	20.602
456.34	19.060
456.69	20.388
457.04	20.836
457.39	19.438
457.74	20.024
458.09	20.940
458.44	19.861
458.79	20.067
459.14	20.422
459.49	19.834
459.84	20.405
460.19	19.630
460.54	19.782
460.89	19.283
461.24	20.461
461.59	20.281
461.94	20.496
462.29	20.012
462.64	20.158
462.99	20.884
463.34	19.919
463.69	19.847
464.04	19.215
464.39	19.295
464.74	20.626
465.09	20.024
465.44	19.966
465.79	20.869
466.14	20.771
466.49	19.919
466.84	20.948
467.19	20.948
467.54	19.241
467.89	20.715
468.24	19.893
468.59	20.175
468.94	20.514
469.29	20.273
469.64	20.553
469.99	20.999
470.34	20.040
470.68	21.294
471.03	21.335
471.38	20.625
471.73	21.049
472.08	19.946
472.43	20.399
472.78	20.667
473.13	20.080
473.48	21.123
473.83	20.223
474.17	21.019
474.52	21.164
474.87	21.096
475.22	19.882
475.57	20.167
475.92	20.302
476.27	19.829
476.61	20.225
476.96	20.011
477.31	20.344
477.66	20.974
478.01	20.205
478.36	20.377
478.70	20.715
479.05	21.850
479.40	20.881
479.75	21.356
480.10	19.940
480.45	19.971
480.79	20.928
481.14	20.973
481.49	20.378
481.84	20.804
482.19	20.740
482.53	21.117
482.88	20.171
483.23	20.704
483.58	20.814
483.92	20.736
484.27	20.204
484.62	20.734
484.97	20.070
485.31	19.616
485.66	19.074
486.01	19.283
486.36	19.892
486.70	20.193
487.05	19.825
487.40	19.551
487.75	20.550
488.09	19.889
488.44	20.162
488.79	20.410
489.13	20.426
489.48	20.636
489.83	21.135
490.17	20.853
490.52	20.426
490.87	20.739
491.22	21.579
491.56	21.389
491.91	21.279
492.26	20.849
492.60	20.266
492.95	20.800
493.30	21.296
493.64	20.686
493.99	20.985
494.34	20.810
494.68	22.378
495.03	21.033
495.37	20.895
495.72	20.825
496.07	21.680
496.41	21.399
496.76	21.005
497.11	21.762
497.45	21.504
497.80	21.161
498.14	21.562
498.49	20.442
498.84	21.165
499.18	21.053
499.53	21.627
499.87	21.139
500.22	21.863
500.56	21.461
500.91	21.330
501.26	22.368
501.60	21.329
501.95	22.174
502.29	21.162
502.64	21.405
502.98	21.322
503.33	21.100
503.67	20.738
504.02	21.246
504.36	21.275
504.71	21.479
505.06	21.618
505.40	21.756
505.75	21.697
506.09	21.436
506.44	21.855
506.78	21.576
507.13	20.855
507.47	21.805
507.82	21.631
508.16	22.176
508.51	21.381
508.85	21.273
509.19	21.350
509.54	22.727
509.88	21.702
510.23	21.908
510.57	23.228
510.92	22.019
511.26	22.010
511.61	21.652
511.95	22.144
512.30	22.265
512.64	21.814
512.98	22.277
513.33	22.350
513.67	22.446
514.02	21.868
514.36	21.440
514.70	22.354
515.05	22.699
515.39	21.742
515.74	23.444
516.08	22.536
516.42	21.586
516.77	21.664
517.11	22.483
517.46	22.428
517.80	23.827
518.14	21.437
518.49	22.176
518.83	23.086
519.17	23.564
519.52	21.631
519.86	23.059
520.20	22.616
520.55	22.523
520.89	22.480
521.23	23.260
521.58	23.197
521.92	22.736
522.26	23.048
522.61	22.433
522.95	23.357
523.29	22.759
523.64	22.923
523.98	23.106
524.32	23.067
524.66	22.236
525.01	22.672
525.35	23.325
525.69	22.576
526.04	22.911
526.38	23.425
526.72	22.861
527.06	23.307
527.41	23.102
527.75	22.442
528.09	23.428
528.43	23.344
528.78	23.116
529.12	23.431
529.46	23.131
529.80	23.112
530.15	23.310
530.49	23.221
530.83	24.558
531.17	22.424
531.51	22.840
531.86	22.712
532.20	22.537
532.54	23.061
532.88	22.859
533.22	22.594
533.57	23.238
533.91	22.909
534.25	22.376
534.59	23.173
534.93	22.340
535.27	22.467
535.62	23.082
535.96	22.366
536.30	22.382
536.64	22.776
536.98	24.011
537.32	23.082
537.66	22.200
538.01	23.093
538.35	24.459
538.69	23.730
539.03	22.952
539.37	22.954
539.71	23.215
540.05	23.441
540.39	23.476
540.73	23.220
541.07	23.770
541.42	22.147
541.76	21.661
542.10	22.755
542.44	23.651
542.78	23.134
543.12	23.286
543.46	22.123
543.80	22.876
544.14	22.498
544.48	23.031
544.82	22.598
545.16	24.346
545.50	21.669
545.84	22.949
546.18	23.232
546.52	22.546
546.86	22.934
547.20	22.855
547.54	22.521
547.88	22.561
548.22	21.953
548.56	22.712
548.90	23.181
549.24	22.565
549.58	21.948
549.92	22.120
550.26	23.338
550.60	22.760
550.94	22.920
551.28	23.928
551.62	22.600
551.96	22.793
552.30	23.136
552.64	22.379
552.98	23.125
553.32	23.593
553.66	23.504
554.00	23.241
554.34	22.310
554.68	23.465
555.02	23.661
555.36	23.077
555.69	23.138
556.03	22.947
556.37	24.111
556.71	23.049
557.05	22.986
557.39	23.756
557.73	23.924
558.07	23.888
558.41	23.261
558.75	22.662
559.08	23.268
559.42	22.818
559.76	23.850
560.10	22.446
560.44	23.410
560.78	22.756
561.12	22.429
561.45	23.219
561.79	23.833
562.13	23.773
562.47	22.549
562.81	23.267
563.15	22.183
563.48	23.082
563.82	21.839
564.16	22.312
564.50	22.043
564.84	23.479
565.17	23.143
565.51	22.360
565.85	23.327
566.19	22.727
566.52	22.440
566.86	22.314
567.20	23.063
567.54	22.977
567.88	22.166
568.21	22.036
568.55	22.163
568.89	21.620
569.23	21.703
569.56	21.396
569.90	22.345
570.24	21.608
570.57	21.195
570.91	21.183
571.25	21.725
571.59	20.980
571.92	21.071
572.26	20.791
572.60	20.509
572.93	20.471
573.27	20.549
573.61	20.161
573.95	20.809
574.28	19.938
574.62	20.742
574.96	20.414
575.29	20.859
575.63	20.467
575.97	19.930
576.30	20.170
576.64	20.261
576.98	19.682
577.31	20.286
577.65	20.443
577.98	20.262
578.32	19.764
578.66	20.053
578.99	20.396
579.33	20.196
579.67	20.264
580.00	19.420
580.34	20.572
580.67	20.127
581.01	19.196
581.35	20.156
581.68	19.828
582.02	20.433
582.35	19.754
582.69	20.105
583.02	20.601
583.36	20.686
583.70	20.379
584.03	20.501
584.37	20.081
584.70	20.063
585.04	20.177
585.37	19.881
585.71	20.851
586.04	20.035
586.38	19.834
586.72	20.237
587.05	20.504
587.39	20.131
587.72	20.228
588.06	19.835
588.39	20.165
588.73	21.002
589.06	20.812
589.40	21.127
589.73	20.963
590.07	20.539
590.40	21.292
590.73	20.712
591.07	20.861
591.40	22.140
591.74	21.373
592.07	20.991
592.41	20.467
592.74	20.792
593.08	21.490
593.41	20.428
593.75	19.749
594.08	21.028
594.41	21.479
594.75	20.083
595.08	20.865
595.42	21.387
595.75	20.728
596.09	20.567
596.42	21.440
596.75	21.130
597.09	21.594
597.42	21.082
597.75	20.948
598.09	21.554
598.42	20.990
598.76	20.723
599.09	20.363
599.42	20.646
599.76	20.687
600.09	21.298
600.42	20.889
600.76	20.791
601.09	20.167
601.42	20.617
601.76	21.262
602.09	21.063
602.42	20.453
602.76	20.399
603.09	20.806
603.42	20.991
603.76	20.941
604.09	21.266
604.42	20.525
604.76	20.323
605.09	21.067
605.42	20.966
605.75	19.922
606.09	20.672
606.42	19.690
606.75	20.824
607.09	21.614
607.42	20.775
607.75	20.486
608.08	21.103
608.42	20.435
608.75	20.794
609.08	20.312
609.41	21.126
609.75	20.624
610.08	21.225
610.41	20.771
610.74	21.518
611.07	21.957
611.41	20.424
611.74	21.748
612.07	21.805
612.40	21.269
612.73	21.109
613.07	20.859
613.40	21.894
613.73	21.253
614.06	21.362
614.39	21.984
614.72	20.447
615.06	21.576
615.39	21.324
615.72	21.673
616.05	20.872
616.38	21.764
616.71	21.441
617.05	22.376
617.38	22.415
617.71	20.577
618.04	21.739
618.37	21.447
618.70	22.034
619.03	22.207
619.36	22.481
619.69	22.469
620.03	21.901
620.36	22.011
620.69	22.398
621.02	21.537
621.35	22.581
621.68	22.213
622.01	23.625
622.34	21.894
622.67	21.797
623.00	22.800
623.33	22.313
623.66	21.787
623.99	22.331
624.32	21.726
624.65	22.369
624.99	22.181
625.32	21.781
625.65	22.067
625.98	22.535
626.31	23.246
626.64	22.845
626.97	23.116
627.30	23.660
627.63	21.675
627.96	22.715
628.29	22.243
628.62	23.018
628.95	23.425
629.28	22.932
629.61	22.375
629.94	23.819
630.26	23.857
630.59	23.015
630.92	23.323
631.25	23.992
631.58	25.079
631.91	22.553
632.24	24.111
632.57	23.222
632.90	24.138
633.23	23.832
633.56	23.158
633.89	24.882
634.22	23.613
634.55	23.918
634.88	22.612
635.20	22.722
635.53	23.410
635.86	22.670
636.19	24.176
636.52	22.939
636.85	22.623
637.18	21.875
637.51	24.411
637.83	23.569
638.16	24.211
638.49	23.310
638.82	23.810
639.15	24.125
639.48	22.827
639.81	24.481
640.13	23.919
640.46	25.499
640.79	25.070
641.12	24.683
641.45	24.677
641.77	22.455
642.10	22.054
642.43	24.431
642.76	24.409
643.09	24.286
643.41	25.079
643.74	25.119
644.07	24.493
644.40	24.959
644.73	22.937
645.05	22.037
645.38	26.656
645.71	27.320
646.04	25.546
646.36	23.386
646.69	24.394
647.02	25.812
647.35	24.188
647.67	23.905
648.00	27.417
648.33	26.307
648.66	25.000
648.98	25.955
649.31	24.769
649.64	25.156
649.96	22.920
650.29	24.262
650.62	24.785
650.94	23.777
651.27	25.823
651.60	23.356
651.92	26.541
652.25	22.705
652.58	22.998
652.90	22.632
653.23	23.226
653.56	23.244
653.88	23.279
654.21	26.342
654.54	24.751
654.86	23.756
655.19	22.063
655.52	20.786
655.84	19.247
656.17	21.222
656.49	29.144
656.82	30.200
657.15	22.274
657.47	16.446
657.80	12.587
658.13	14.343
658.45	19.842
658.78	19.332
659.10	19.029
659.43	18.892
659.75	18.961
660.08	19.479
660.41	19.430
660.73	21.342
661.06	23.043
661.38	24.821
661.71	24.857
662.03	23.387
662.36	24.733
662.68	24.473
663.01	23.992
663.33	24.943
663.66	23.820
663.98	23.214
664.31	21.924
664.63	25.664
664.96	24.946
665.28	23.861
665.61	22.833
665.93	24.486
666.26	25.304
666.58	25.156
666.91	24.053
667.23	24.561
667.56	24.036
667.88	26.471
668.21	22.581
668.53	22.430
668.86	25.866
669.18	25.799
669.50	23.832
669.83	23.844
670.15	23.543
670.48	26.869
670.80	22.323
671.13	23.251
671.45	22.523
671.77	22.056
672.10	23.471
672.42	23.801
672.75	22.545
673.07	20.180
673.39	21.129
673.72	24.409
674.04	23.992
674.37	20.206
674.69	26.025
675.01	22.553
675.34	25.380
675.66	24.406
675.98	21.145
676.31	23.756
676.63	25.057
676.95	25.664
677.28	22.506
677.60	27.828
677.92	22.687
678.25	23.632
678.57	25.720
678.89	23.690
679.22	22.432
679.54	24.458
679.86	23.200
680.18	21.863
680.51	21.601
680.83	22.286
681.15	24.663
681.48	24.949
681.80	23.185
682.12	20.121
682.44	24.361
682.77	21.645
683.09	23.270
683.41	24.336
683.73	20.548
684.06	19.785
684.38	24.477
684.70	23.868
685.02	22.441
685.34	22.027
685.67	21.212
685.99	20.983
686.31	20.826
686.63	22.695
686.96	22.366
687.28	22.543
687.60	22.266
687.92	21.012
688.24	24.213
688.56	21.844
688.89	19.017
689.21	22.757
689.53	22.989
689.85	19.822
690.17	17.937
690.49	20.785
690.82	23.614
691.14	21.934
691.46	24.612
691.78	21.806
692.10	20.763
692.42	19.111
692.74	22.532
693.06	21.348
693.39	23.266
693.71	23.702
694.03	21.814
694.35	22.122
694.67	18.913
694.99	18.414
695.31	21.173
695.63	19.643
695.95	22.333
696.27	21.696
696.59	26.471
696.91	20.506
697.23	20.833
697.56	21.394
697.88	21.171
698.20	18.630
698.52	19.058
698.84	24.029
699.16	20.952
699.48	19.750
699.80	20.301
700.12	21.662
700.44	20.391
700.76	20.117
701.08	19.767
701.40	19.940
701.72	20.370
702.04	23.397
702.36	23.795
702.68	22.156
703.00	22.899
703.32	18.911
703.64	23.235
703.96	24.709
704.28	19.822
704.60	21.519
704.91	18.730
705.23	23.301
705.55	23.649
705.87	24.232
706.19	21.181
706.51	19.444
706.83	23.934
707.15	22.611
707.47	22.314
707.79	20.361
708.11	19.593
708.43	20.948
708.74	20.260
709.06	20.334
709.38	16.379
709.70	19.062
710.02	23.313
710.34	19.472
710.66	19.683
710.98	19.243
711.29	15.484
711.61	20.128
711.93	20.984
712.25	22.924
712.57	18.118
712.89	24.820
713.20	19.588
713.52	19.776
713.84	22.420
714.16	21.639
714.48	20.635
714.80	20.308
715.11	19.885
715.43	24.398
715.75	21.495
716.07	16.066
716.39	22.074
716.70	23.345
717.02	16.296
717.34	19.847
717.66	23.651
717.97	18.852
718.29	18.067
718.61	26.587
718.93	18.638
719.24	15.809
719.56	19.623
719.88	21.818
720.20	20.974
720.51	20.301
720.83	21.285
721.15	18.033
721.46	23.529
721.78	20.307
722.10	19.200
722.42	19.421
722.73	23.904
723.05	20.884
723.37	24.314
723.68	17.004
724.00	23.984
724.32	20.988
724.63	14.523
724.95	22.727
725.27	15.789
725.58	18.966
725.90	19.048
726.22	21.771
726.53	18.251
726.85	12.941
727.16	17.293
727.48	18.077
727.80	11.066
728.11	15.546
728.43	18.182
728.74	22.266
729.06	22.348
729.38	22.179
729.69	17.717
730.01	20.866
730.32	17.131
730.64	18.315
730.96	20.896
731.27	16.786
731.59	19.614
731.90	16.564
732.22	18.712
732.53	22.517
732.85	14.765
733.16	17.754
733.48	13.937
733.80	19.217
734.11	21.724
734.43	19.388
734.74	19.585
735.06	21.317
735.37	20.183
735.69	13.226
736.00	16.162
736.32	16.887
736.63	18.966
736.95	17.029
737.26	18.543
737.58	21.942
737.89	22.222
738.21	16.165
738.52	18.846
738.83	19.141
739.15	16.667
739.46	19.758
739.78	16.783
740.09	18.182
740.41	15.734
740.72	18.613
741.04	15.476
741.35	14.286
741.66	17.593
741.98	18.095
742.29	19.718
742.61	18.717
742.92	22.430
743.23	14.912
743.55	14.865
743.86	22.667
744.18	17.143
744.49	24.631
744.80	17.766
745.12	18.557
745.43	19.095
745.74	23.301
746.06	22.439
746.37	19.824
746.68	20.398
747.00	17.801
747.31	15.865
747.62	16.590
747.94	17.904
748.25	21.395
748.56	20.476
748.88	14.130
749.19	19.718
749.50	24.510
749.82	21.333
750.13	22.907
750.44	17.886
750.75	18.000
751.07	19.286
751.38	17.343
751.69	18.702
752.01	19.231
752.32	15.953
752.63	15.769
752.94	15.079
753.26	19.565
753.57	22.768
753.88	20.690
754.19	18.257
754.51	17.578
754.82	20.949
755.13	13.169
755.44	19.835
755.75	21.399
756.07	14.859
756.38	16.406
756.69	18.412
757.00	18.467
757.31	18.792
757.63	22.430
757.94	17.341
758.25	16.279
758.56	21.024
758.87	19.886
759.18	16.333
759.50	17.794
759.81	16.788
760.12	15.203
760.43	20.388
760.74	17.188
761.05	17.416
761.36	18.563
761.67	18.343
761.99	14.839
762.30	19.203
762.61	14.340
762.92	16.592
763.23	13.744
763.54	11.111
763.85	16.878
764.16	16.327
764.47	17.373
764.78	15.730
765.10	15.827
765.41	15.161
765.72	18.239
766.03	12.367
766.34	18.045
766.65	17.409
766.96	18.500
767.27	15.625
767.58	23.837
767.89	16.129
768.20	17.791
768.51	12.568
768.82	19.459
769.13	12.500
769.44	15.789
769.75	18.615
770.06	23.853
770.37	14.085
770.68	17.708
770.99	17.822
771.30	17.476
771.61	12.963
771.92	19.481
772.23	17.290
772.54	15.957
772.85	11.243
773.16	23.171
773.47	13.253
773.78	14.835
774.09	16.667
774.39	17.284
774.70	14.094
775.01	10.145
775.32	12.687
775.63	9.917
775.94	13.534
776.25	13.571
776.56	13.934
776.87	25.664
777.18	23.894
777.48	2.727
777.79	8.696
778.10	3.670
778.41	16.949
778.72	10.744
779.03	16.418
779.34	10.526
779.65	15.033
779.95	18.116
780.26	8.163
780.57	12.931
780.88	13.889
781.19	6.061
781.50	8.000
781.80	15.686
782.11	19.872
782.42	16.265
782.73	7.299
783.04	13.514
783.34	14.394
783.65	10.853
783.96	13.008
784.27	2.564
784.57	14.634
784.88	15.447
785.19	21.053
785.50	-2.062
785.81	12.381
786.11	16.667
786.42	7.273
786.73	21.622
787.04	19.802
787.34	10.476
787.65	9.524
787.96	6.863
788.26	12.613
788.57	24.194
788.88	9.375
789.19	18.803
789.49	19.328
789.80	14.530
790.11	15.929
790.41	14.141
790.72	20.755
791.03	-12.500
791.33	9.211
791.64	10.753
791.95	10.667
792.25	15.714
792.56	8.537
792.87	12.245
793.17	7.895
793.48	8.108
793.79	-5.634
794.09	8.861
794.40	12.766
794.70	9.346
795.01	-3.509
795.32	3.636
795.62	11.607
795.93	-2.062
796.23	-3.297
796.54	20.000
796.85	10.959
797.15	-1.389
797.46	17.808
797.76	21.127
798.07	10.000
798.37	10.294
798.68	10.000
798.99	7.143
799.29	13.158
799.60	1.667
799.90	-18.056
800.21	-18.750
800.51	1.587
800.82	-3.279
801.12	-26.316
801.43	4.225
801.73	-6.780
802.04	16.393
802.34	9.091
802.65	-7.692
802.95	-5.556
803.26	-27.500
803.56	13.462
803.87	-26.316
804.17	17.742
804.48	0.000
804.78	5.128
805.09	-37.209
805.39	-75.000
805.70	1.887
806.00	24.561
806.30	25.676
806.61	4.412
806.91	3.704
807.22	6.667
807.52	7.463
807.83	1.613
808.13	3.175
808.43	-21.818
808.74	9.091
809.04	-7.547
809.35	8.219
809.65	3.509
809.95	4.412
810.26	-1.961
810.56	-8.000
810.86	-6.122
811.17	-42.857
811.47	-1.923
811.77	-3.226
812.08	-42.105
812.38	-11.905
812.69	-21.739
812.99	-25.806
813.29	-11.905
813.59	-62.963
813.90	-25.532
814.20	4.651
814.50	0.000
814.81	1.667
815.11	4.878
815.41	3.333
815.72	8.571
816.02	-52.778
816.32	7.692
816.62	-45.946
816.93	-29.412
817.23	13.043
817.53	0.000
817.84	23.529
818.14	-40.625
818.44	-58.621
818.74	-41.935
819.04	-33.333
819.35	3.333
819.65	-76.000
819.95	3.333
820.25	-36.000
820.56	-21.053
820.86	-5.000
821.16	23.404
821.46	12.069
821.76	-25.641
822.07	-40.000
822.37	-11.628
822.67	-26.667
822.97	-21.622
823.27	13.514
823.57	0.000
823.88	-29.730
824.18	-52.381
824.48	0.000
824.78	-176.923
825.08	-39.130
825.38	-29.167
825.69	-8.333
825.99	-45.000
826.29	-2.703
826.59	-14.706
826.89	-24.000
827.19	-20.000
827.49	-7.895
827.79	-25.000
828.09	-63.333
828.39	-8.696
828.70	-24.138
829.00	0.000
829.30	-2.778
829.60	15.625
829.90	-22.222
830.20	-26.923
830.50	-42.857
830.80	-7.143
831.10	-5.128
831.40	-19.048
831.70	-5.882
832.00	0.000
832.30	-36.842
832.60	-12.500
832.90	-166.667
833.20	-105.882
833.50	-60.000
833.80	-46.667
834.10	-115.000
834.40	-33.333
834.70	0.000
835.00	11.538
835.30	-41.667
835.60	-31.034
835.90	-77.778
836.20	-54.545
836.50	-183.333
836.80	5.714
837.10	20.000
837.40	-29.412
837.70	-154.545
838.00	-16.667
838.30	-93.750
838.60	-52.381
838.90	0.000
839.19	-30.435
839.49	-43.478
839.79	-66.667
840.09	-47.826
840.39	-63.636
840.69	-56.250
840.99	-57.895
841.29	-25.000
841.59	-92.857
841.88	-50.000
842.18	-37.500
842.48	-123.529
842.78	-17.241
843.08	-57.143
843.38	-30.769
843.68	-77.778
843.97	-100.000
844.27	-109.091
844.57	-240.000
844.87	-4.000
845.17	-240.000
845.47	-28.571
845.76	-122.222
846.06	0.000
846.36	-550.000
846.66	-90.000
846.96	0.000
847.25	-16.667
847.55	-66.667
847.85	-26.667
848.15	-230.000
848.44	11.538
848.74	0.000
849.04	366.667
849.34	-88.889
849.63	-31.579
849.93	0.000
850.23	-35.000
850.53	23.810
850.82	4.000
851.12	-47.368
851.42	-1000.000
851.71	-28.571
852.01	-108.333
852.31	-29.412
852.61	-26.667
852.90	-80.952
853.20	-216.667
853.50	-77.778
853.79	-68.421
854.09	-120.000
854.39	-3.571
854.68	-17.391
854.98	-250.000
855.28	3.448
855.57	-18.750
855.87	-45.000
856.17	-133.333
856.46	0.000
856.76	20.000
857.05	-47.059
857.35	-107.692
857.65	-9.091
857.94	-44.444
858.24	-57.143
858.53	-135.714
858.83	-33.333
859.13	-233.333
859.42	-28.571
859.72	-37.500
860.01	-600.000
860.31	-187.500
860.60	-460.000
860.90	-122.222
861.20	-250.000
861.49	-85.714
861.79	-35.294
862.08	-750.000
862.38	-133.333
862.67	-138.462
862.97	-35.294
863.26	20.000
863.56	-5.882
863.85	633.333
864.15	-170.000
864.44	-107.692
864.74	-25.000
865.03	-300.000
865.33	-216.667
865.62	-23.529
865.92	-575.000
866.21	-64.286
866.51	-58.333
866.80	-1600.000
867.10	-133.333
867.39	-70.588
867.69	8.696
867.98	-71.429
868.27	-260.000
868.57	-37.500
868.86	-172.727
869.16	-41.176
869.45	-233.333
869.75	-114.286
870.04	1200.000
870.33	-108.333
870.63	-200.000
870.92	-188.889
871.22	-75.000
871.51	-109.091
871.80	-58.333
872.10	-10.000
>>>>>End Processed Spectral Data<<<<<
