SpectraSuite Data File
++++++++++++++++++++++++++++++++++++
Date: Sat May 16 11:30:51 PDT 2015
User: schluterlab
Dark Spectrum Present: Yes
Reference Spectrum Present: Yes
Number of Sampled Component Spectra: 1
Spectrometers: USB2E3373
Integration Time (usec): 3000 (USB2E3373)
Spectra Averaged: 3 (USB2E3373)
Boxcar Smoothing: 0 (USB2E3373)
Correct for Electrical Dark: No (USB2E3373)
Strobe/Lamp Enabled: No (USB2E3373)
Correct for Detector Non-linearity: No (USB2E3373)
Correct for Stray Light: No (USB2E3373)
Number of Pixels in Processed Spectrum: 2048
>>>>>Begin Processed Spectral Data<<<<<
178.53	0.000
178.91	120.000
179.29	633.333
179.67	-900.000
180.04	-107.692
180.42	900.000
180.80	375.000
181.18	325.000
181.56	-150.000
181.94	1400.000
182.31	475.000
182.69	-107.692
183.07	-400.000
183.45	1200.000
183.83	500.000
184.20	-157.143
184.58	-112.500
184.96	-450.000
185.34	93.750
185.72	-675.000
186.09	183.333
186.47	-125.000
186.85	-225.000
187.23	-187.500
187.61	-75.000
187.98	-200.000
188.36	-100.000
188.74	-200.000
189.12	1400.000
189.49	314.286
189.87	-108.333
190.25	425.000
190.63	-35.714
191.00	-166.667
191.38	500.000
191.76	-6.667
192.14	600.000
192.51	-180.000
192.89	-566.667
193.27	0.000
193.65	-133.333
194.02	-114.286
194.40	700.000
194.78	-80.000
195.15	-800.000
195.53	-100.000
195.91	-350.000
196.29	100.000
196.66	-533.333
197.04	2400.000
197.42	-250.000
197.79	-13.333
198.17	-233.333
198.55	-650.000
198.92	-1100.000
199.30	225.000
199.68	-700.000
200.05	-122.222
200.43	-66.667
200.81	-2400.000
201.18	-66.667
201.56	357.143
201.94	-33.333
202.31	0.000
202.69	10.000
203.07	-50.000
203.44	600.000
203.82	-433.333
204.19	-625.000
204.57	-325.000
204.95	-1400.000
205.32	-81.250
205.70	900.000
206.08	-1900.000
206.45	-27.778
206.83	-800.000
207.20	-350.000
207.58	-833.333
207.96	-200.000
208.33	-137.500
208.71	-111.111
209.08	210.000
209.46	-271.429
209.84	1050.000
210.21	0.000
210.59	20.000
210.96	900.000
211.34	-216.667
211.71	-333.333
212.09	475.000
212.46	600.000
212.84	-2600.000
213.22	1000.000
213.59	150.000
213.97	-111.111
214.34	170.000
214.72	-100.000
215.09	-66.667
215.47	-316.667
215.84	0.000
216.22	-160.000
216.59	-46.667
216.97	-450.000
217.34	1200.000
217.72	-171.429
218.09	-183.333
218.47	-214.286
218.84	157.143
219.22	-85.714
219.59	0.000
219.97	142.857
220.34	525.000
220.72	162.500
221.09	-115.385
221.47	0.000
221.84	166.667
222.22	-550.000
222.59	2100.000
222.97	-137.500
223.34	-850.000
223.72	-766.667
224.09	-114.286
224.46	-450.000
224.84	-114.286
225.21	-142.857
225.59	-81.818
225.96	-150.000
226.34	-171.429
226.71	-166.667
227.08	-35.000
227.46	1600.000
227.83	-257.143
228.21	-287.500
228.58	350.000
228.95	-12.500
229.33	-1200.000
229.70	-420.000
230.08	-1050.000
230.45	-8.333
230.82	-83.333
231.20	-2400.000
231.57	-300.000
231.95	2600.000
232.32	0.000
232.69	-88.889
233.07	-314.286
233.44	-1150.000
233.81	-113.333
234.19	-77.778
234.56	-12.500
234.93	-9.375
235.31	-414.286
235.68	-135.714
236.05	-64.706
236.43	-50.000
236.80	-32.258
237.17	-12.500
237.55	-85.714
237.92	-100.000
238.29	-31.429
238.67	-29.412
239.04	0.000
239.41	-38.710
239.79	-58.974
240.16	-50.000
240.53	-9.091
240.91	-17.949
241.28	-9.091
241.65	3.077
242.02	-14.754
242.40	-24.590
242.77	-18.182
243.14	-13.559
243.51	-27.143
243.89	-6.329
244.26	-24.719
244.63	-4.211
245.00	-11.579
245.38	-7.627
245.75	-8.850
246.12	-11.200
246.49	-1.575
246.87	-12.195
247.24	-19.492
247.61	-12.712
247.98	-8.451
248.36	-3.497
248.73	-3.797
249.10	-8.917
249.47	-8.187
249.84	-4.545
250.22	-13.095
250.59	-0.565
250.96	-6.283
251.33	-0.948
251.70	-1.442
252.08	-3.318
252.45	-6.161
252.82	-4.762
253.19	-1.277
253.56	-4.435
253.94	-3.797
254.31	-0.858
254.68	-2.439
255.05	-3.629
255.42	-3.571
255.79	-4.659
256.16	-1.961
256.54	-3.309
256.91	-5.682
257.28	-1.832
257.65	-2.837
258.02	1.258
258.39	-3.344
258.76	-2.365
259.14	-5.247
259.51	-1.311
259.88	0.000
260.25	-0.621
260.62	-3.859
260.99	0.000
261.36	-1.829
261.73	-0.578
262.10	-0.833
262.47	-0.570
262.85	1.714
263.22	-3.152
263.59	-2.769
263.96	-1.159
264.33	-0.813
264.70	-1.381
265.07	-2.473
265.44	-1.034
265.81	-3.101
266.18	-0.759
266.55	-0.980
266.92	0.756
267.29	-0.726
267.66	-0.494
268.03	0.483
268.40	-0.235
268.77	2.169
269.14	-2.320
269.51	1.149
269.88	-2.752
270.25	-2.564
270.62	-0.915
270.99	-1.351
271.36	0.699
271.73	0.000
272.10	-2.059
272.47	-1.556
272.84	1.556
273.21	-2.523
273.58	1.978
273.95	0.219
274.32	-1.357
274.69	0.875
275.06	-2.045
275.43	-1.562
275.80	1.833
276.17	-1.674
276.54	2.240
276.91	-2.058
277.28	-0.609
277.65	0.413
278.02	-1.253
278.39	-0.393
278.76	-0.598
279.13	-1.186
279.50	0.596
279.87	-1.268
280.23	-1.215
280.60	0.199
280.97	-2.524
281.34	-0.193
281.71	1.346
282.08	0.000
282.45	-2.851
282.82	-0.194
283.19	0.727
283.56	2.930
283.92	1.413
284.29	-2.045
284.66	1.079
285.03	0.000
285.40	-0.554
285.77	1.404
286.14	-0.181
286.51	0.000
286.87	3.448
287.24	1.877
287.61	2.314
287.98	-1.213
288.35	-0.496
288.72	-1.698
289.08	-1.525
289.45	0.000
289.82	-2.768
290.19	-0.328
290.56	-2.149
290.93	0.954
291.29	-1.459
291.66	1.127
292.03	-0.471
292.40	1.205
292.77	-0.776
293.13	-0.488
293.50	-0.149
293.87	0.920
294.24	0.452
294.60	-2.121
294.97	1.669
295.34	0.148
295.71	0.298
296.08	-2.304
296.44	-1.431
296.81	0.855
297.18	-0.704
297.55	1.271
297.91	2.510
298.28	-0.822
298.65	-0.558
299.02	2.674
299.38	0.535
299.75	-0.543
300.12	-0.897
300.48	1.790
300.85	0.262
301.22	0.647
301.59	0.650
301.95	1.889
302.32	-1.043
302.69	0.734
303.05	0.855
303.42	-0.375
303.79	1.316
304.15	1.303
304.52	1.167
304.89	0.354
305.25	0.855
305.62	0.118
305.99	2.002
306.35	0.888
306.72	0.456
307.09	2.270
307.45	0.908
307.82	0.670
308.19	1.790
308.55	0.980
308.92	0.537
309.29	1.730
309.65	0.636
310.02	1.836
310.38	1.514
310.75	2.357
311.12	3.306
311.48	1.879
311.85	2.472
312.22	2.575
312.58	3.866
312.95	3.160
313.31	2.298
313.68	4.020
314.05	4.946
314.41	2.616
314.78	1.798
315.14	4.442
315.51	3.647
315.87	4.647
316.24	5.053
316.61	5.758
316.97	4.876
317.34	5.010
317.70	5.102
318.07	6.157
318.43	4.869
318.80	5.915
319.16	5.066
319.53	5.545
319.89	6.303
320.26	6.765
320.62	5.769
320.99	6.866
321.35	6.108
321.72	7.472
322.08	7.023
322.45	8.317
322.81	9.318
323.18	9.990
323.54	10.536
323.91	10.936
324.27	10.741
324.64	11.060
325.00	11.867
325.37	12.489
325.73	14.523
326.10	12.666
326.46	14.886
326.83	14.043
327.19	15.513
327.56	17.632
327.92	16.907
328.29	16.970
328.65	16.636
329.01	17.756
329.38	18.287
329.74	19.872
330.11	19.130
330.47	18.892
330.84	19.890
331.20	19.314
331.56	20.328
331.93	20.604
332.29	21.096
332.66	21.510
333.02	21.176
333.38	21.595
333.75	22.618
334.11	22.311
334.48	22.860
334.84	23.185
335.20	22.518
335.57	22.924
335.93	24.799
336.29	22.764
336.66	23.700
337.02	23.784
337.38	21.925
337.75	23.178
338.11	24.061
338.47	24.199
338.84	23.956
339.20	23.726
339.56	24.688
339.93	23.369
340.29	23.826
340.65	23.951
341.02	24.452
341.38	24.684
341.74	24.640
342.11	24.147
342.47	24.635
342.83	23.258
343.20	23.484
343.56	23.510
343.92	24.040
344.28	24.811
344.65	23.267
345.01	25.378
345.37	25.748
345.73	24.714
346.10	23.140
346.46	23.721
346.82	23.657
347.19	22.843
347.55	23.034
347.91	24.094
348.27	24.025
348.63	24.960
349.00	24.025
349.36	22.482
349.72	24.124
350.08	24.699
350.45	23.483
350.81	24.283
351.17	24.035
351.53	22.991
351.89	23.201
352.26	24.031
352.62	25.115
352.98	24.367
353.34	24.620
353.70	23.938
354.07	23.446
354.43	25.534
354.79	24.723
355.15	23.403
355.51	24.453
355.87	22.925
356.24	24.067
356.60	25.222
356.96	24.249
357.32	23.595
357.68	24.291
358.04	24.788
358.40	23.589
358.77	24.189
359.13	24.943
359.49	24.943
359.85	24.085
360.21	25.419
360.57	25.151
360.93	24.741
361.29	24.888
361.66	24.085
362.02	25.518
362.38	25.752
362.74	25.714
363.10	25.179
363.46	26.709
363.82	25.583
364.18	24.313
364.54	25.876
364.90	26.066
365.26	25.606
365.62	26.301
365.98	25.960
366.35	25.070
366.71	24.665
367.07	26.253
367.43	26.973
367.79	25.842
368.15	25.605
368.51	26.923
368.87	27.473
369.23	26.316
369.59	26.319
369.95	26.779
370.31	28.200
370.67	26.464
371.03	26.385
371.39	26.521
371.75	28.469
372.11	27.547
372.47	27.983
372.83	28.025
373.19	27.929
373.55	28.431
373.91	28.450
374.27	28.337
374.63	27.605
374.99	28.095
375.35	26.716
375.71	28.292
376.07	28.884
376.42	27.219
376.78	28.366
377.14	29.220
377.50	28.820
377.86	28.999
378.22	28.392
378.58	28.598
378.94	28.175
379.30	28.763
379.66	28.780
380.02	28.877
380.38	28.701
380.74	28.722
381.09	29.408
381.45	29.535
381.81	29.583
382.17	30.263
382.53	30.152
382.89	29.486
383.25	31.306
383.61	29.304
383.97	30.067
384.32	30.288
384.68	31.016
385.04	29.529
385.40	30.615
385.76	30.427
386.12	31.230
386.48	31.807
386.83	31.534
387.19	31.441
387.55	31.314
387.91	30.587
388.27	30.519
388.62	31.130
388.98	31.193
389.34	30.845
389.70	31.486
390.06	31.200
390.42	31.538
390.77	30.662
391.13	31.863
391.49	31.566
391.85	31.608
392.20	31.007
392.56	30.666
392.92	32.288
393.28	32.262
393.64	31.690
393.99	32.369
394.35	30.474
394.71	30.883
395.07	32.392
395.42	30.930
395.78	31.364
396.14	32.399
396.50	31.376
396.85	31.462
397.21	30.863
397.57	31.611
397.92	31.499
398.28	32.000
398.64	32.243
399.00	31.854
399.35	31.285
399.71	31.533
400.07	31.821
400.42	32.238
400.78	31.843
401.14	30.898
401.49	31.250
401.85	31.483
402.21	30.751
402.57	32.100
402.92	31.844
403.28	31.250
403.63	30.977
403.99	31.821
404.35	30.918
404.70	31.305
405.06	30.623
405.42	31.119
405.77	29.977
406.13	31.346
406.49	32.295
406.84	30.714
407.20	31.979
407.55	30.652
407.91	30.505
408.27	30.882
408.62	30.968
408.98	30.625
409.34	29.799
409.69	30.372
410.05	30.018
410.40	30.963
410.76	30.587
411.11	31.297
411.47	30.627
411.83	31.296
412.18	30.941
412.54	30.201
412.89	31.349
413.25	30.401
413.60	30.194
413.96	31.177
414.31	31.437
414.67	30.857
415.03	31.177
415.38	31.230
415.74	32.088
416.09	31.138
416.45	30.754
416.80	31.664
417.16	31.296
417.51	31.845
417.87	30.809
418.22	31.669
418.58	31.964
418.93	32.311
419.29	32.371
419.64	32.349
420.00	32.807
420.35	32.052
420.71	31.933
421.06	32.012
421.42	31.792
421.77	33.110
422.12	32.065
422.48	32.175
422.83	32.688
423.19	32.795
423.54	33.602
423.90	32.851
424.25	32.240
424.61	34.861
424.96	34.523
425.31	33.426
425.67	34.212
426.02	32.530
426.38	34.483
426.73	33.840
427.09	33.946
427.44	33.295
427.79	33.837
428.15	34.650
428.50	34.663
428.85	35.012
429.21	34.588
429.56	35.000
429.92	34.770
430.27	34.497
430.62	35.580
430.98	35.128
431.33	35.539
431.68	35.871
432.04	36.374
432.39	36.125
432.74	35.671
433.10	35.847
433.45	35.406
433.80	37.178
434.16	35.787
434.51	37.096
434.86	36.380
435.22	36.303
435.57	36.659
435.92	36.928
436.28	36.439
436.63	36.292
436.98	35.739
437.34	37.921
437.69	37.631
438.04	36.245
438.39	38.267
438.75	37.194
439.10	37.812
439.45	36.814
439.81	37.108
440.16	37.081
440.51	38.706
440.86	37.883
441.22	37.203
441.57	37.684
441.92	38.568
442.27	37.392
442.63	38.036
442.98	38.544
443.33	37.836
443.68	38.562
444.03	38.703
444.39	38.864
444.74	39.317
445.09	39.145
445.44	38.098
445.79	39.878
446.15	38.226
446.50	39.085
446.85	38.276
447.20	39.275
447.55	38.729
447.91	39.304
448.26	38.380
448.61	38.653
448.96	39.328
449.31	39.233
449.66	39.038
450.02	38.947
450.37	39.362
450.72	39.492
451.07	39.912
451.42	39.281
451.77	40.215
452.12	40.167
452.47	39.798
452.83	39.953
453.18	40.670
453.53	38.930
453.88	41.268
454.23	39.238
454.58	40.211
454.93	41.184
455.28	41.109
455.63	40.356
455.98	41.506
456.34	40.152
456.69	41.213
457.04	41.364
457.39	39.833
457.74	40.284
458.09	39.559
458.44	41.224
458.79	40.191
459.14	41.529
459.49	40.853
459.84	40.697
460.19	40.692
460.54	40.956
460.89	41.200
461.24	40.376
461.59	41.208
461.94	40.993
462.29	41.513
462.64	41.173
462.99	41.633
463.34	40.986
463.69	41.158
464.04	39.836
464.39	41.458
464.74	40.544
465.09	39.567
465.44	41.060
465.79	40.666
466.14	40.564
466.49	40.990
466.84	40.696
467.19	42.394
467.54	40.000
467.89	42.047
468.24	41.449
468.59	42.099
468.94	41.801
469.29	40.676
469.64	41.644
469.99	42.134
470.34	42.285
470.68	42.805
471.03	42.051
471.38	42.708
471.73	42.517
472.08	43.307
472.43	42.214
472.78	42.667
473.13	41.882
473.48	42.055
473.83	41.935
474.17	42.484
474.52	43.095
474.87	41.667
475.22	41.770
475.57	40.833
475.92	41.955
476.27	40.971
476.61	42.761
476.96	41.140
477.31	42.519
477.66	41.229
478.01	42.680
478.36	41.802
478.70	43.139
479.05	42.888
479.40	42.487
479.75	41.845
480.10	42.262
480.45	40.909
480.79	41.905
481.14	42.398
481.49	42.207
481.84	41.655
482.19	41.389
482.53	42.898
482.88	42.383
483.23	42.629
483.58	42.784
483.92	43.239
484.27	41.914
484.62	41.901
484.97	41.154
485.31	39.680
485.66	38.927
486.01	39.044
486.36	40.028
486.70	41.352
487.05	40.477
487.40	40.785
487.75	40.764
488.09	40.642
488.44	41.576
488.79	41.634
489.13	41.955
489.48	41.925
489.83	42.926
490.17	42.577
490.52	42.844
490.87	41.894
491.22	43.578
491.56	42.176
491.91	42.700
492.26	43.255
492.60	42.626
492.95	42.313
493.30	42.925
493.64	43.065
493.99	42.973
494.34	42.238
494.68	44.007
495.03	43.738
495.37	42.625
495.72	43.369
496.07	42.562
496.41	42.844
496.76	42.694
497.11	43.288
497.45	43.630
497.80	42.221
498.14	43.173
498.49	43.747
498.84	42.718
499.18	44.152
499.53	42.767
499.87	42.133
500.22	43.235
500.56	44.272
500.91	43.744
501.26	43.134
501.60	42.995
501.95	43.623
502.29	42.844
502.64	44.036
502.98	43.603
503.33	43.374
503.67	42.241
504.02	42.733
504.36	44.363
504.71	43.668
505.06	43.635
505.40	44.212
505.75	43.598
506.09	44.135
506.44	43.509
506.78	43.803
507.13	42.842
507.47	44.131
507.82	42.850
508.16	44.404
508.51	44.101
508.85	44.048
509.19	43.119
509.54	44.133
509.88	44.255
510.23	44.340
510.57	44.550
510.92	45.328
511.26	43.169
511.61	44.816
511.95	44.235
512.30	44.475
512.64	43.684
512.98	44.939
513.33	45.360
513.67	44.556
514.02	44.128
514.36	45.319
514.70	44.369
515.05	45.455
515.39	44.694
515.74	45.550
516.08	45.072
516.42	44.306
516.77	45.061
517.11	44.908
517.46	46.411
517.80	47.052
518.14	44.626
518.49	45.487
518.83	45.519
519.17	45.056
519.52	44.997
519.86	46.953
520.20	45.966
520.55	45.354
520.89	46.212
521.23	45.238
521.58	45.329
521.92	46.105
522.26	45.841
522.61	45.120
522.95	45.373
523.29	44.702
523.64	45.222
523.98	44.940
524.32	44.877
524.66	44.224
525.01	45.215
525.35	45.425
525.69	45.478
526.04	45.170
526.38	45.576
526.72	45.530
527.06	46.419
527.41	46.337
527.75	45.479
528.09	46.459
528.43	44.590
528.78	45.791
529.12	46.031
529.46	44.652
529.80	44.028
530.15	45.396
530.49	45.278
530.83	45.056
531.17	45.993
531.51	44.742
531.86	44.832
532.20	45.614
532.54	45.187
532.88	45.455
533.22	45.922
533.57	45.431
533.91	43.883
534.25	43.683
534.59	43.660
534.93	42.875
535.27	44.682
535.62	45.013
535.96	42.728
536.30	43.914
536.64	44.157
536.98	45.551
537.32	45.197
537.66	43.720
538.01	43.918
538.35	44.865
538.69	44.652
539.03	43.737
539.37	44.245
539.71	43.763
540.05	44.962
540.39	45.983
540.73	43.815
541.07	45.628
541.42	42.606
541.76	44.120
542.10	45.307
542.44	44.570
542.78	44.233
543.12	43.381
543.46	43.288
543.80	44.883
544.14	43.653
544.48	44.357
544.82	44.249
545.16	44.131
545.50	43.001
545.84	44.924
546.18	44.799
546.52	44.595
546.86	44.943
547.20	44.937
547.54	42.837
547.88	43.597
548.22	43.316
548.56	43.353
548.90	43.733
549.24	43.868
549.58	44.178
549.92	44.170
550.26	44.942
550.60	44.239
550.94	45.036
551.28	43.868
551.62	44.682
551.96	45.152
552.30	42.718
552.64	45.531
552.98	44.008
553.32	44.084
553.66	44.701
554.00	44.776
554.34	45.054
554.68	46.199
555.02	44.284
555.36	44.213
555.69	44.413
556.03	44.211
556.37	44.452
556.71	45.168
557.05	46.046
557.39	43.727
557.73	45.150
558.07	45.516
558.41	44.802
558.75	45.399
559.08	44.202
559.42	45.482
559.76	45.859
560.10	45.414
560.44	45.448
560.78	44.120
561.12	44.720
561.45	43.767
561.79	43.763
562.13	44.600
562.47	42.997
562.81	44.696
563.15	44.997
563.48	43.815
563.82	44.557
564.16	44.287
564.50	44.019
564.84	43.717
565.17	45.225
565.51	44.133
565.85	45.098
566.19	44.335
566.52	42.857
566.86	43.995
567.20	43.644
567.54	44.359
567.88	42.099
568.21	43.121
568.55	42.948
568.89	41.004
569.23	41.138
569.56	40.479
569.90	40.165
570.24	41.075
570.57	39.156
570.91	39.884
571.25	39.624
571.59	38.870
571.92	38.452
572.26	38.586
572.60	39.125
572.93	37.783
573.27	38.567
573.61	38.142
573.95	38.212
574.28	37.416
574.62	38.129
574.96	37.787
575.29	38.084
575.63	38.174
575.97	37.729
576.30	37.325
576.64	37.990
576.98	37.522
577.31	37.354
577.65	37.866
577.98	37.388
578.32	37.676
578.66	37.365
578.99	37.688
579.33	37.503
579.67	37.586
580.00	37.128
580.34	38.087
580.67	38.122
581.01	36.517
581.35	37.282
581.68	36.508
582.02	37.782
582.35	37.545
582.69	38.197
583.02	37.931
583.36	37.774
583.70	37.532
584.03	38.308
584.37	38.512
584.70	38.224
585.04	38.253
585.37	37.375
585.71	37.954
586.04	37.969
586.38	38.626
586.72	38.754
587.05	38.516
587.39	38.186
587.72	38.705
588.06	38.459
588.39	38.280
588.73	38.624
589.06	39.994
589.40	39.196
589.73	39.129
590.07	39.621
590.40	40.000
590.73	40.184
591.07	40.615
591.40	41.508
591.74	40.660
592.07	41.081
592.41	39.915
592.74	39.431
593.08	39.204
593.41	39.342
593.75	39.004
594.08	40.474
594.41	40.739
594.75	40.808
595.08	40.150
595.42	40.210
595.75	39.802
596.09	40.357
596.42	40.630
596.75	40.060
597.09	41.407
597.42	39.459
597.75	41.408
598.09	41.934
598.42	40.345
598.76	39.327
599.09	39.661
599.42	39.369
599.76	39.638
600.09	40.534
600.42	39.537
600.76	40.113
601.09	39.954
601.42	38.662
601.76	39.914
602.09	40.491
602.42	40.905
602.76	39.344
603.09	40.161
603.42	40.451
603.76	40.447
604.09	40.168
604.42	41.007
604.76	40.253
605.09	40.371
605.42	40.603
605.75	39.327
606.09	39.560
606.42	39.841
606.75	40.661
607.09	40.670
607.42	40.405
607.75	39.647
608.08	40.262
608.42	40.870
608.75	39.907
609.08	40.623
609.41	41.804
609.75	40.712
610.08	41.569
610.41	41.831
610.74	40.522
611.07	40.923
611.41	40.948
611.74	41.748
612.07	41.622
612.40	40.672
612.73	41.195
613.07	41.277
613.40	42.255
613.73	41.199
614.06	41.296
614.39	41.657
614.72	42.123
615.06	41.141
615.39	40.206
615.72	40.739
616.05	40.420
616.38	41.555
616.71	41.441
617.05	42.461
617.38	42.415
617.71	41.892
618.04	42.795
618.37	43.019
618.70	43.286
619.03	41.300
619.36	42.636
619.69	43.216
620.03	41.804
620.36	42.616
620.69	43.216
621.02	43.075
621.35	42.823
621.68	43.852
622.01	43.528
622.34	44.255
622.67	42.969
623.00	44.300
623.33	43.955
623.66	41.876
623.99	43.609
624.32	41.369
624.65	42.973
624.99	41.673
625.32	42.216
625.65	43.901
625.98	42.801
626.31	44.372
626.64	44.351
626.97	44.606
627.30	45.362
627.63	42.487
627.96	44.299
628.29	45.129
628.62	44.317
628.95	45.571
629.28	46.241
629.61	46.124
629.94	43.573
630.26	47.316
630.59	46.533
630.92	46.947
631.25	46.069
631.58	46.772
631.91	46.064
632.24	45.778
632.57	47.333
632.90	47.931
633.23	47.547
633.56	47.018
633.89	47.170
634.22	45.927
634.55	46.995
634.88	47.642
635.20	48.065
635.53	46.310
635.86	48.111
636.19	45.299
636.52	44.922
636.85	45.728
637.18	46.875
637.51	47.088
637.83	48.602
638.16	47.895
638.49	47.586
638.82	45.817
639.15	47.730
639.48	45.655
639.81	50.069
640.13	45.541
640.46	49.145
640.79	47.479
641.12	49.224
641.45	47.202
641.77	50.150
642.10	49.094
642.43	49.469
642.76	48.504
643.09	49.365
643.41	50.476
643.74	49.285
644.07	51.170
644.40	48.784
644.73	49.175
645.05	48.748
645.38	49.503
645.71	51.890
646.04	50.420
646.36	48.866
646.69	50.346
647.02	51.264
647.35	48.736
647.67	50.000
648.00	49.912
648.33	51.939
648.66	49.194
648.98	48.248
649.31	48.000
649.64	48.437
649.96	47.881
650.29	46.393
650.62	49.053
650.94	46.543
651.27	50.433
651.60	49.827
651.92	48.801
652.25	49.249
652.58	47.700
652.90	46.549
653.23	46.613
653.56	47.492
653.88	47.049
654.21	51.174
654.54	49.668
654.86	47.352
655.19	47.421
655.52	41.345
655.84	36.475
656.17	38.374
656.49	52.140
656.82	54.117
657.15	41.245
657.47	30.494
657.80	23.504
658.13	27.057
658.45	36.420
658.78	36.038
659.10	36.712
659.43	36.650
659.75	37.884
660.08	38.438
660.41	37.327
660.73	40.704
661.06	44.638
661.38	50.000
661.71	49.713
662.03	51.210
662.36	50.533
662.68	47.890
663.01	49.894
663.33	51.701
663.66	49.785
663.98	49.777
664.31	49.888
664.63	52.434
664.96	47.289
665.28	49.892
665.61	48.626
665.93	50.823
666.26	49.190
666.58	46.778
666.91	50.780
667.23	50.877
667.56	46.712
667.88	49.774
668.21	49.539
668.53	48.364
668.86	49.423
669.18	50.228
669.50	47.897
669.83	51.825
670.15	52.691
670.48	50.701
670.80	49.431
671.13	49.661
671.45	49.324
671.77	47.966
672.10	47.337
672.42	45.756
672.75	45.455
673.07	43.063
673.39	47.177
673.72	49.409
674.04	47.346
674.37	45.155
674.69	47.746
675.01	48.511
675.34	45.770
675.66	49.244
675.98	47.357
676.31	52.036
676.63	49.195
676.95	49.115
677.28	45.476
677.60	49.321
677.92	50.881
678.25	47.702
678.57	48.148
678.89	45.702
679.22	47.799
679.54	47.732
679.86	44.800
680.18	44.677
680.51	43.203
680.83	46.667
681.15	44.509
681.48	48.073
681.80	44.556
682.12	47.284
682.44	44.597
682.77	44.805
683.09	48.847
683.41	47.345
683.73	45.890
684.06	46.237
684.38	47.071
684.70	45.679
685.02	45.472
685.34	45.224
685.67	44.697
685.99	43.856
686.31	44.704
686.63	43.972
686.96	44.362
687.28	41.618
687.60	44.727
687.92	45.136
688.24	44.685
688.56	44.088
688.89	45.085
689.21	46.827
689.53	51.264
689.85	46.325
690.17	45.067
690.49	46.420
690.82	45.783
691.14	47.170
691.46	46.120
691.78	44.053
692.10	43.856
692.42	46.667
692.74	44.206
693.06	42.472
693.39	46.085
693.71	45.824
694.03	45.572
694.35	41.309
694.67	44.208
694.99	45.013
695.31	45.153
695.63	45.918
695.95	41.191
696.27	48.130
696.59	48.128
696.91	51.966
697.23	47.917
697.56	44.471
697.88	42.568
698.20	43.897
698.52	42.152
698.84	46.845
699.16	43.571
699.48	44.500
699.80	43.108
700.12	48.363
700.44	45.251
700.76	41.399
701.08	46.221
701.40	45.317
701.72	46.605
702.04	50.321
702.36	47.289
702.68	46.407
703.00	46.957
703.32	40.401
703.64	47.647
703.96	44.477
704.28	44.675
704.60	41.772
704.91	46.667
705.23	46.278
705.55	44.595
705.87	49.488
706.19	44.444
706.51	45.486
706.83	51.475
707.15	45.860
707.47	42.975
707.79	39.948
708.11	39.949
708.43	43.392
708.74	41.558
709.06	42.340
709.38	41.954
709.70	40.937
710.02	47.546
710.34	41.254
710.66	42.540
710.98	39.432
711.29	41.613
711.61	42.173
711.93	46.885
712.25	47.841
712.57	43.554
712.89	47.482
713.20	49.485
713.52	42.537
713.84	45.196
714.16	40.000
714.48	45.079
714.80	42.154
715.11	41.210
715.43	43.072
715.75	44.237
716.07	41.967
716.39	40.468
716.70	43.206
717.02	41.852
717.34	45.802
717.66	48.963
717.97	42.213
718.29	46.218
718.61	50.000
718.93	45.878
719.24	37.500
719.56	40.377
719.88	43.273
720.20	46.442
720.51	45.113
720.83	41.365
721.15	50.820
721.46	47.059
721.78	42.146
722.10	45.200
722.42	45.041
722.73	44.223
723.05	47.390
723.37	43.137
723.68	36.842
724.00	47.154
724.32	43.210
724.63	37.344
724.95	45.041
725.27	39.035
725.58	42.672
725.90	44.841
726.22	45.387
726.53	44.487
726.85	36.471
727.16	44.737
727.48	40.000
727.80	43.033
728.11	41.597
728.43	42.149
728.74	40.234
729.06	42.424
729.38	38.132
729.69	38.583
730.01	44.488
730.32	39.442
730.64	44.322
730.96	42.164
731.27	41.071
731.59	36.013
731.90	38.344
732.22	38.650
732.53	43.709
732.85	38.255
733.16	38.406
733.48	38.328
733.80	37.722
734.11	41.034
734.43	40.136
734.74	42.730
735.06	39.812
735.37	38.226
735.69	35.161
736.00	37.374
736.32	41.722
736.63	31.724
736.95	36.232
737.26	30.795
737.58	36.691
737.89	41.219
738.21	35.714
738.52	39.231
738.83	40.625
739.15	35.470
739.46	44.758
739.78	38.112
740.09	36.713
740.41	37.413
740.72	42.701
741.04	41.270
741.35	41.991
741.66	39.815
741.98	40.952
742.29	40.845
742.61	45.989
742.92	54.206
743.23	41.667
743.55	36.937
743.86	45.333
744.18	38.095
744.49	46.798
744.80	43.655
745.12	43.814
745.43	44.724
745.74	42.718
746.06	34.146
746.37	44.053
746.68	39.801
747.00	41.885
747.31	37.019
747.62	36.406
747.94	40.175
748.25	33.953
748.56	38.571
748.88	38.587
749.19	38.967
749.50	45.588
749.82	36.889
750.13	40.969
750.44	39.431
750.75	41.600
751.07	41.071
751.38	32.472
751.69	40.076
752.01	43.846
752.32	40.467
752.63	36.923
752.94	40.079
753.26	41.304
753.57	39.732
753.88	37.931
754.19	36.100
754.51	36.328
754.82	37.945
755.13	41.152
755.44	40.496
755.75	42.387
756.07	34.137
756.38	36.328
756.69	41.877
757.00	36.934
757.31	36.242
757.63	42.056
757.94	30.636
758.25	33.721
758.56	35.849
758.87	33.523
759.18	33.333
759.50	41.281
759.81	34.307
760.12	33.108
760.43	38.511
760.74	35.625
761.05	37.360
761.36	38.922
761.67	34.024
761.99	35.806
762.30	37.319
762.61	36.981
762.92	34.081
763.23	34.123
763.54	37.778
763.85	36.287
764.16	34.286
764.47	37.288
764.78	35.581
765.10	36.691
765.41	31.935
765.72	35.535
766.03	31.095
766.34	38.722
766.65	34.818
766.96	31.000
767.27	39.583
767.58	31.395
767.89	36.774
768.20	38.037
768.51	35.519
768.82	36.757
769.13	31.000
769.44	35.965
769.75	34.632
770.06	38.991
770.37	33.803
770.68	31.771
770.99	36.634
771.30	35.922
771.61	34.722
771.92	27.273
772.23	36.449
772.54	31.383
772.85	31.953
773.16	39.024
773.47	36.145
773.78	37.363
774.09	30.000
774.39	40.123
774.70	34.228
775.01	36.232
775.32	35.075
775.63	33.884
775.94	32.331
776.25	36.429
776.56	39.344
776.87	35.398
777.18	42.478
777.48	25.455
777.79	28.696
778.10	29.358
778.41	33.898
778.72	37.190
779.03	38.060
779.34	30.827
779.65	33.987
779.95	31.159
780.26	29.932
780.57	24.138
780.88	26.852
781.19	22.222
781.50	32.000
781.80	34.641
782.11	32.051
782.42	35.542
782.73	23.358
783.04	27.027
783.34	40.909
783.65	27.907
783.96	29.268
784.27	26.496
784.57	30.081
784.88	29.268
785.19	36.842
785.50	19.588
785.81	13.333
786.11	20.588
786.42	27.273
786.73	26.126
787.04	26.733
787.34	26.667
787.65	27.619
787.96	27.451
788.26	29.730
788.57	38.710
788.88	30.469
789.19	29.915
789.49	29.412
789.80	30.769
790.11	32.743
790.41	28.283
790.72	33.962
791.03	27.778
791.33	30.263
791.64	26.882
791.95	32.000
792.25	28.571
792.56	18.293
792.87	30.612
793.17	26.316
793.48	8.108
793.79	25.352
794.09	18.987
794.40	26.596
794.70	20.561
795.01	17.544
795.32	24.545
795.62	33.929
795.93	19.588
796.23	24.176
796.54	41.053
796.85	26.027
797.15	19.444
797.46	23.288
797.76	40.845
798.07	22.500
798.37	26.471
798.68	37.143
798.99	8.571
799.29	19.737
799.60	25.000
799.90	22.222
800.21	14.063
800.51	19.048
800.82	19.672
801.12	21.053
801.43	18.310
801.73	15.254
802.04	37.705
802.34	21.818
802.65	17.308
802.95	25.926
803.26	15.000
803.56	34.615
803.87	-13.158
804.17	30.645
804.48	21.538
804.78	12.821
805.09	37.209
805.39	-15.625
805.70	9.434
806.00	40.351
806.30	24.324
806.61	16.176
806.91	18.519
807.22	29.333
807.52	19.403
807.83	35.484
808.13	15.873
808.43	14.545
808.74	22.727
809.04	18.868
809.35	20.548
809.65	31.579
809.95	22.059
810.26	33.333
810.56	8.000
810.86	34.694
811.17	37.143
811.47	21.154
811.77	16.129
812.08	-26.316
812.38	40.476
812.69	4.348
812.99	16.129
813.29	2.381
813.59	-33.333
813.90	8.511
814.20	6.977
814.50	6.250
814.81	10.000
815.11	26.829
815.41	-30.000
815.72	14.286
816.02	13.889
816.32	30.769
816.62	0.000
816.93	-2.941
817.23	13.043
817.53	14.706
817.84	-8.824
818.14	-40.625
818.44	24.138
818.74	-9.677
819.04	-22.222
819.35	-33.333
819.65	-32.000
819.95	-6.667
820.25	-40.000
820.56	18.421
820.86	-25.000
821.16	34.043
821.46	25.862
821.76	-12.821
822.07	-20.000
822.37	6.977
822.67	-6.667
822.97	-24.324
823.27	-2.703
823.57	0.000
823.88	10.811
824.18	0.000
824.48	3.846
824.78	-130.769
825.08	-4.348
825.38	-29.167
825.69	-41.667
825.99	-55.000
826.29	-10.811
826.59	-11.765
826.89	24.000
827.19	-14.286
827.49	31.579
827.79	-6.250
828.09	0.000
828.39	0.000
828.70	-31.034
829.00	3.448
829.30	-5.556
829.60	21.875
829.90	-22.222
830.20	-15.385
830.50	-14.286
830.80	-21.429
831.10	5.128
831.40	-38.095
831.70	-14.706
832.00	-8.333
832.30	-57.895
832.60	-50.000
832.90	-16.667
833.20	-94.118
833.50	-126.667
833.80	-13.333
834.10	-30.000
834.40	-37.500
834.70	-22.222
835.00	23.077
835.30	-50.000
835.60	-24.138
835.90	-33.333
836.20	-136.364
836.50	-116.667
836.80	-25.714
837.10	45.714
837.40	-88.235
837.70	-100.000
838.00	-62.500
838.30	12.500
838.60	-28.571
838.90	15.000
839.19	-21.739
839.49	-8.696
839.79	-44.444
840.09	-47.826
840.39	-36.364
840.69	-50.000
840.99	-15.789
841.29	-68.750
841.59	-21.429
841.88	-33.333
842.18	-33.333
842.48	-100.000
842.78	13.793
843.08	-71.429
843.38	-53.846
843.68	-55.556
843.97	-107.692
844.27	-54.545
844.57	-320.000
844.87	-12.000
845.17	-220.000
845.47	-92.857
845.76	-44.444
846.06	0.000
846.36	-525.000
846.66	-30.000
846.96	-36.842
847.25	-20.833
847.55	-133.333
847.85	73.333
848.15	-90.000
848.44	7.692
848.74	-21.053
849.04	300.000
849.34	-44.444
849.63	-57.895
849.93	0.000
850.23	-55.000
850.53	-23.810
850.82	-32.000
851.12	-21.053
851.42	-550.000
851.71	7.143
852.01	-108.333
852.31	-29.412
852.61	-33.333
852.90	-19.048
853.20	16.667
853.50	-38.889
853.79	-57.895
854.09	-60.000
854.39	39.286
854.68	-13.043
854.98	-133.333
855.28	27.586
855.57	-31.250
855.87	0.000
856.17	-53.333
856.46	0.000
856.76	-46.667
857.05	-52.941
857.35	-92.308
857.65	-100.000
857.94	7.407
858.24	-57.143
858.53	-128.571
858.83	-41.667
859.13	-188.889
859.42	-4.762
859.72	-212.500
860.01	-600.000
860.31	62.500
860.60	-160.000
860.90	-33.333
861.20	-175.000
861.49	-114.286
861.79	-17.647
862.08	-1050.000
862.38	-116.667
862.67	-61.538
862.97	-5.882
863.26	-5.000
863.56	-105.882
863.85	333.333
864.15	-210.000
864.44	-30.769
864.74	-20.000
865.03	-250.000
865.33	-150.000
865.62	-82.353
865.92	-675.000
866.21	-121.429
866.51	-33.333
866.80	-900.000
867.10	-333.333
867.39	-76.471
867.69	-4.348
867.98	-142.857
868.27	-160.000
868.57	-68.750
868.86	-209.091
869.16	-17.647
869.45	-116.667
869.75	-142.857
870.04	1200.000
870.33	-75.000
870.63	-300.000
870.92	-166.667
871.22	-116.667
871.51	-136.364
871.80	-50.000
872.10	0.000
>>>>>End Processed Spectral Data<<<<<
