SpectraSuite Data File
++++++++++++++++++++++++++++++++++++
Date: Sat May 16 11:15:49 PDT 2015
User: schluterlab
Dark Spectrum Present: Yes
Reference Spectrum Present: Yes
Number of Sampled Component Spectra: 1
Spectrometers: USB2E3373
Integration Time (usec): 3000 (USB2E3373)
Spectra Averaged: 3 (USB2E3373)
Boxcar Smoothing: 0 (USB2E3373)
Correct for Electrical Dark: No (USB2E3373)
Strobe/Lamp Enabled: No (USB2E3373)
Correct for Detector Non-linearity: No (USB2E3373)
Correct for Stray Light: No (USB2E3373)
Number of Pixels in Processed Spectrum: 2048
>>>>>Begin Processed Spectral Data<<<<<
178.53	0.000
178.91	73.333
179.29	500.000
179.67	200.000
180.04	-7.692
180.42	100.000
180.80	250.000
181.18	300.000
181.56	-62.500
181.94	-300.000
182.31	550.000
182.69	30.769
183.07	-200.000
183.45	850.000
183.83	366.667
184.20	-100.000
184.58	-87.500
184.96	-100.000
185.34	93.750
185.72	-200.000
186.09	150.000
186.47	-87.500
186.85	-162.500
187.23	-12.500
187.61	150.000
187.98	-275.000
188.36	37.500
188.74	-100.000
189.12	900.000
189.49	257.143
189.87	-25.000
190.25	100.000
190.63	0.000
191.00	-122.222
191.38	400.000
191.76	20.000
192.14	480.000
192.51	-140.000
192.89	-100.000
193.27	0.000
193.65	44.444
194.02	-257.143
194.40	266.667
194.78	-60.000
195.15	-1000.000
195.53	-118.182
195.91	-350.000
196.29	140.000
196.66	-66.667
197.04	1900.000
197.42	-200.000
197.79	33.333
198.17	66.667
198.55	-300.000
198.92	-300.000
199.30	137.500
199.68	300.000
200.05	-133.333
200.43	-66.667
200.81	-1200.000
201.18	-75.000
201.56	71.429
201.94	-46.667
202.31	45.455
202.69	40.000
203.07	-70.000
203.44	566.667
203.82	-166.667
204.19	-250.000
204.57	0.000
204.95	300.000
205.32	12.500
205.70	1200.000
206.08	-1000.000
206.45	38.889
206.83	-750.000
207.20	150.000
207.58	-466.667
207.96	-300.000
208.33	-75.000
208.71	-111.111
209.08	170.000
209.46	-57.143
209.84	750.000
210.21	0.000
210.59	45.000
210.96	100.000
211.34	-116.667
211.71	-233.333
212.09	50.000
212.46	1200.000
212.84	-2000.000
213.22	433.333
213.59	150.000
213.97	-11.111
214.34	20.000
214.72	-190.000
215.09	-66.667
215.47	-116.667
215.84	-90.000
216.22	-20.000
216.59	0.000
216.97	-400.000
217.34	500.000
217.72	85.714
218.09	-200.000
218.47	-157.143
218.84	85.714
219.22	-100.000
219.59	0.000
219.97	128.571
220.34	350.000
220.72	162.500
221.09	-23.077
221.47	0.000
221.84	300.000
222.22	-500.000
222.59	600.000
222.97	0.000
223.34	-400.000
223.72	-266.667
224.09	21.429
224.46	-300.000
224.84	7.143
225.21	-314.286
225.59	-9.091
225.96	-112.500
226.34	-14.286
226.71	-22.222
227.08	40.000
227.46	1600.000
227.83	-14.286
228.21	-137.500
228.58	250.000
228.95	-6.250
229.33	-1800.000
229.70	-320.000
230.08	-900.000
230.45	-8.333
230.82	-133.333
231.20	-500.000
231.57	-400.000
231.95	700.000
232.32	19.048
232.69	-55.556
233.07	-242.857
233.44	-550.000
233.81	-20.000
234.19	-33.333
234.56	-18.750
234.93	25.000
235.31	-57.143
235.68	-64.286
236.05	35.294
236.43	-4.545
236.80	29.032
237.17	16.667
237.55	0.000
237.92	-36.364
238.29	0.000
238.67	41.176
239.04	-2.778
239.41	19.355
239.79	-23.077
240.16	30.952
240.53	3.636
240.91	48.718
241.28	45.455
241.65	58.462
242.02	57.377
242.40	32.787
242.77	42.424
243.14	40.678
243.51	30.000
243.89	41.772
244.26	16.854
244.63	36.842
245.00	54.737
245.38	33.051
245.75	35.398
246.12	39.200
246.49	42.520
246.87	33.333
247.24	35.593
247.61	37.288
247.98	35.211
248.36	34.965
248.73	37.342
249.10	40.127
249.47	40.351
249.84	42.045
250.22	35.714
250.59	48.023
250.96	42.932
251.33	42.654
251.70	39.904
252.08	41.706
252.45	36.493
252.82	42.857
253.19	39.574
253.56	39.516
253.94	36.287
254.31	43.777
254.68	41.463
255.05	41.532
255.42	42.857
255.79	41.577
256.16	41.961
256.54	46.324
256.91	43.182
257.28	41.026
257.65	43.262
258.02	43.082
258.39	39.799
258.76	41.216
259.14	41.975
259.51	44.262
259.88	41.159
260.25	42.857
260.62	46.302
260.99	38.576
261.36	42.988
261.73	45.376
262.10	41.111
262.47	43.020
262.85	44.000
263.22	41.547
263.59	39.385
263.96	41.739
264.33	43.089
264.70	43.094
265.07	43.407
265.44	41.602
265.81	41.860
266.18	41.013
266.55	41.422
266.92	43.073
267.29	43.341
267.66	43.210
268.03	43.237
268.40	43.192
268.77	45.060
269.14	42.227
269.51	42.299
269.88	39.679
270.25	38.462
270.62	42.563
270.99	42.342
271.36	43.590
271.73	41.704
272.10	42.563
272.47	38.667
272.84	41.556
273.21	41.972
273.58	40.220
273.95	42.982
274.32	42.081
274.69	45.077
275.06	42.536
275.43	41.964
275.80	41.752
276.17	42.887
276.54	45.214
276.91	40.329
277.28	41.582
277.65	39.050
278.02	44.259
278.39	41.454
278.76	41.434
279.13	43.478
279.50	42.346
279.87	42.283
280.23	44.130
280.60	42.942
280.97	40.583
281.34	43.133
281.71	41.538
282.08	45.363
282.45	41.548
282.82	39.535
283.19	40.364
283.56	43.407
283.92	40.106
284.29	40.892
284.66	40.288
285.03	41.355
285.40	41.144
285.77	41.053
286.14	39.350
286.51	40.320
286.87	42.468
287.24	40.785
287.61	38.347
287.98	40.381
288.35	38.512
288.72	39.389
289.08	40.339
289.45	38.552
289.82	38.927
290.19	38.916
290.56	36.198
290.93	37.520
291.29	37.925
291.66	37.037
292.03	37.677
292.40	37.048
292.77	39.130
293.13	38.699
293.50	34.473
293.87	34.663
294.24	34.842
294.60	32.273
294.97	35.508
295.34	31.407
295.71	33.780
296.08	32.873
296.44	32.904
296.81	34.046
297.18	32.254
297.55	35.734
297.91	32.357
298.28	33.014
298.65	31.939
299.02	34.091
299.38	33.556
299.75	32.745
300.12	31.538
300.48	31.586
300.85	30.668
301.22	30.918
301.59	30.559
301.95	32.872
302.32	29.465
302.69	29.376
303.05	29.670
303.42	29.625
303.79	30.383
304.15	32.346
304.52	29.055
304.89	29.870
305.25	28.694
305.62	28.790
305.99	30.035
306.35	29.967
306.72	28.360
307.09	30.306
307.45	28.263
307.82	28.268
308.19	28.300
308.55	28.431
308.92	28.249
309.29	26.486
309.65	26.935
310.02	26.674
310.38	27.459
310.75	28.484
311.12	27.789
311.48	27.453
311.85	26.880
312.22	28.733
312.58	28.891
312.95	27.931
313.31	28.272
313.68	28.241
314.05	28.289
314.41	26.459
314.78	26.074
315.14	27.739
315.51	25.735
315.87	26.718
316.24	27.211
316.61	27.543
316.97	27.164
317.34	25.915
317.70	26.716
318.07	27.052
318.43	27.715
318.80	29.108
319.16	25.328
319.53	27.632
319.89	25.964
320.26	25.980
320.62	25.192
320.99	25.672
321.35	25.911
321.72	26.510
322.08	25.717
322.45	25.248
322.81	26.033
323.18	26.129
323.54	25.878
323.91	25.487
324.27	26.806
324.64	25.229
325.00	24.520
325.37	26.606
325.73	27.472
326.10	24.712
326.46	25.219
326.83	25.702
327.19	24.687
327.56	26.405
327.92	25.828
328.29	25.455
328.65	23.727
329.01	26.060
329.38	24.264
329.74	25.458
330.11	24.841
330.47	25.159
330.84	25.023
331.20	24.188
331.56	24.157
331.93	25.044
332.29	26.027
332.66	25.461
333.02	24.796
333.38	26.254
333.75	25.111
334.11	24.533
334.48	24.713
334.84	25.022
335.20	25.443
335.57	24.278
335.93	25.783
336.29	23.915
336.66	24.405
337.02	23.874
337.38	24.332
337.75	23.617
338.11	23.703
338.47	24.644
338.84	24.864
339.20	24.780
339.56	24.777
339.93	24.515
340.29	23.472
340.65	23.077
341.02	23.019
341.38	23.336
341.74	24.640
342.11	23.720
342.47	22.747
342.83	22.166
343.20	23.228
343.56	23.102
343.92	23.122
344.28	24.558
344.65	22.937
345.01	23.193
345.37	24.003
345.73	22.831
346.10	22.322
346.46	22.908
346.82	23.817
347.19	23.665
347.55	23.435
347.91	23.780
348.27	22.753
348.63	24.556
349.00	24.185
349.36	22.717
349.72	23.965
350.08	22.454
350.45	22.065
350.81	23.089
351.17	23.473
351.53	21.639
351.89	23.363
352.26	22.713
352.62	23.272
352.98	22.864
353.34	22.302
353.70	22.085
354.07	22.895
354.43	22.292
354.79	22.900
355.15	22.364
355.51	22.969
355.87	22.530
356.24	22.002
356.60	22.804
356.96	22.094
357.32	21.853
357.68	22.299
358.04	22.248
358.40	22.042
358.77	22.025
359.13	22.188
359.49	22.298
359.85	21.341
360.21	21.385
360.57	21.837
360.93	22.667
361.29	21.824
361.66	21.418
362.02	22.041
362.38	21.717
362.74	21.685
363.10	20.516
363.46	22.222
363.82	22.449
364.18	22.576
364.54	22.516
364.90	21.803
365.26	21.612
365.62	22.096
365.98	22.191
366.35	21.690
366.71	21.283
367.07	21.736
367.43	22.649
367.79	21.649
368.15	21.408
368.51	21.329
368.87	22.459
369.23	21.544
369.59	22.153
369.95	21.424
370.31	22.714
370.67	20.969
371.03	21.429
371.39	21.924
371.75	22.031
372.11	20.803
372.47	21.981
372.83	22.323
373.19	21.143
373.55	22.449
373.91	22.191
374.27	21.150
374.63	21.187
374.99	22.253
375.35	21.467
375.71	23.295
376.07	21.766
376.42	20.397
376.78	21.895
377.14	22.237
377.50	21.341
377.86	21.912
378.22	21.106
378.58	21.495
378.94	21.825
379.30	21.572
379.66	22.101
380.02	21.509
380.38	20.906
380.74	21.395
381.09	22.027
381.45	21.241
381.81	20.750
382.17	20.614
382.53	20.182
382.89	21.471
383.25	21.674
383.61	20.991
383.97	21.066
384.32	21.589
384.68	21.221
385.04	21.316
385.40	20.572
385.76	21.341
386.12	21.112
386.48	20.668
386.83	21.779
387.19	21.219
387.55	21.926
387.91	20.332
388.27	20.627
388.62	20.613
388.98	20.896
389.34	20.257
389.70	20.950
390.06	20.696
390.42	21.346
390.77	20.000
391.13	21.304
391.49	21.397
391.85	21.197
392.20	20.934
392.56	20.098
392.92	20.764
393.28	21.412
393.64	20.866
393.99	21.908
394.35	20.681
394.71	20.383
395.07	20.841
395.42	19.726
395.78	20.679
396.14	21.121
396.50	21.223
396.85	20.728
397.21	21.021
397.57	21.033
397.92	20.960
398.28	20.611
398.64	20.880
399.00	21.685
399.35	20.519
399.71	19.628
400.07	21.493
400.42	20.620
400.78	20.513
401.14	20.299
401.49	19.281
401.85	20.378
402.21	20.918
402.57	20.995
402.92	21.145
403.28	20.527
403.63	20.012
403.99	20.261
404.35	19.263
404.70	19.836
405.06	19.839
405.42	19.311
405.77	19.796
406.13	20.500
406.49	20.731
406.84	20.396
407.20	20.377
407.55	20.203
407.91	19.171
408.27	20.833
408.62	20.385
408.98	20.194
409.34	19.744
409.69	19.912
410.05	19.951
410.40	20.846
410.76	21.043
411.11	20.200
411.47	20.013
411.83	20.782
412.18	19.864
412.54	19.402
412.89	21.324
413.25	18.418
413.60	19.441
413.96	19.470
414.31	20.550
414.67	20.190
415.03	19.082
415.38	19.323
415.74	20.361
416.09	19.821
416.45	18.981
416.80	20.416
417.16	19.734
417.51	21.536
417.87	19.935
418.22	20.291
418.58	19.833
418.93	19.865
419.29	20.326
419.64	20.226
420.00	20.656
420.35	19.515
420.71	20.348
421.06	20.178
421.42	19.496
421.77	19.486
422.12	20.649
422.48	20.310
422.83	19.590
423.19	19.766
423.54	19.827
423.90	19.665
424.25	19.796
424.61	20.084
424.96	20.655
425.31	20.291
425.67	20.630
426.02	19.277
426.38	20.206
426.73	20.047
427.09	19.914
427.44	19.205
427.79	19.244
428.15	20.227
428.50	19.824
428.85	19.305
429.21	20.199
429.56	19.792
429.92	20.441
430.27	19.990
430.62	20.272
430.98	20.544
431.33	20.384
431.68	20.161
432.04	20.257
432.39	19.829
432.74	19.904
433.10	19.977
433.45	19.862
433.80	19.485
434.16	19.989
434.51	20.110
434.86	21.090
435.22	20.156
435.57	20.379
435.92	19.812
436.28	20.178
436.63	19.616
436.98	19.416
437.34	19.846
437.69	18.961
438.04	19.455
438.39	20.337
438.75	20.081
439.10	20.544
439.45	19.614
439.81	20.120
440.16	20.102
440.51	20.118
440.86	19.780
441.22	19.292
441.57	19.842
441.92	20.153
442.27	19.481
442.63	19.796
442.98	19.695
443.33	20.264
443.68	20.167
444.03	20.629
444.39	20.558
444.74	20.595
445.09	20.450
445.44	20.315
445.79	20.143
446.15	20.482
446.50	19.379
446.85	20.215
447.20	19.765
447.55	20.276
447.91	19.540
448.26	19.832
448.61	20.430
448.96	19.664
449.31	20.519
449.66	19.462
450.02	19.723
450.37	19.942
450.72	18.757
451.07	19.987
451.42	19.517
451.77	19.868
452.12	20.322
452.47	20.277
452.83	19.627
453.18	19.545
453.53	19.030
453.88	19.976
454.23	19.045
454.58	20.012
454.93	19.332
455.28	19.630
455.63	19.963
455.98	19.458
456.34	18.996
456.69	19.762
457.04	20.221
457.39	19.258
457.74	19.965
458.09	20.360
458.44	20.554
458.79	19.339
459.14	20.080
459.49	20.663
459.84	20.349
460.19	19.511
460.54	18.391
460.89	19.787
461.24	19.976
461.59	20.047
461.94	19.223
462.29	19.833
462.64	19.170
462.99	19.746
463.34	18.839
463.69	19.529
464.04	18.981
464.39	19.474
464.74	19.858
465.09	19.302
465.44	19.233
465.79	19.797
466.14	19.793
466.49	19.286
466.84	19.748
467.19	18.392
467.54	18.354
467.89	19.420
468.24	19.359
468.59	19.051
468.94	19.421
469.29	18.843
469.64	19.811
469.99	20.392
470.34	19.439
470.68	19.259
471.03	18.307
471.38	18.194
471.73	18.951
472.08	18.942
472.43	18.533
472.78	18.133
473.13	17.959
473.48	19.081
473.83	19.045
474.17	19.682
474.52	19.757
474.87	18.823
475.22	18.525
475.57	18.667
475.92	19.492
476.27	18.000
476.61	18.761
476.96	18.614
477.31	19.322
477.66	19.314
478.01	19.179
478.36	18.753
478.70	19.541
479.05	18.821
479.40	19.223
479.75	19.011
480.10	19.097
480.45	18.230
480.79	19.348
481.14	18.966
481.49	19.409
481.84	19.325
482.19	19.963
482.53	19.508
482.88	18.889
483.23	19.061
483.58	19.519
483.92	18.920
484.27	18.387
484.62	19.050
484.97	18.550
485.31	19.328
485.66	19.762
486.01	20.570
486.36	20.778
486.70	20.994
487.05	19.922
487.40	20.353
487.75	19.876
488.09	18.993
488.44	19.723
488.79	19.491
489.13	18.752
489.48	19.494
489.83	18.646
490.17	18.589
490.52	18.478
490.87	18.476
491.22	18.076
491.56	18.380
491.91	18.464
492.26	17.972
492.60	17.840
492.95	18.658
493.30	18.056
493.64	17.866
493.99	18.260
494.34	17.429
494.68	18.633
495.03	18.642
495.37	18.191
495.72	18.173
496.07	18.630
496.41	18.620
496.76	19.041
497.11	18.464
497.45	18.966
497.80	18.159
498.14	18.468
498.49	17.629
498.84	18.010
499.18	18.421
499.53	18.412
499.87	18.292
500.22	18.284
500.56	18.059
500.91	17.931
501.26	18.292
501.60	17.910
501.95	18.261
502.29	18.044
502.64	19.142
502.98	18.352
503.33	18.280
503.67	18.056
504.02	18.349
504.36	18.627
504.71	18.034
505.06	18.323
505.40	18.214
505.75	18.547
506.09	18.150
506.44	17.945
506.78	17.612
507.13	17.353
507.47	18.049
507.82	18.121
508.16	18.083
508.51	17.929
508.85	18.012
509.19	17.792
509.54	18.182
509.88	17.926
510.23	18.396
510.57	17.619
510.92	17.669
511.26	17.597
511.61	16.631
511.95	16.864
512.30	17.262
512.64	16.861
512.98	17.602
513.33	16.969
513.67	17.476
514.02	17.170
514.36	17.729
514.70	17.374
515.05	17.324
515.39	17.070
515.74	18.208
516.08	17.176
516.42	17.337
516.77	17.158
517.11	17.048
517.46	17.165
517.80	17.629
518.14	16.184
518.49	16.916
518.83	16.558
519.17	17.525
519.52	16.541
519.86	17.145
520.20	16.809
520.55	16.554
520.89	16.343
521.23	17.949
521.58	16.677
521.92	17.669
522.26	16.825
522.61	15.843
522.95	16.146
523.29	16.238
523.64	16.740
523.98	17.059
524.32	16.908
524.66	16.211
525.01	16.699
525.35	16.688
525.69	16.005
526.04	16.123
526.38	16.741
526.72	15.900
527.06	16.536
527.41	16.898
527.75	15.974
528.09	15.486
528.43	16.197
528.78	16.583
529.12	17.414
529.46	16.430
529.80	16.979
530.15	16.227
530.49	16.171
530.83	18.009
531.17	16.970
531.51	16.209
531.86	16.787
532.20	15.587
532.54	16.711
532.88	16.008
533.22	16.377
533.57	17.298
533.91	16.355
534.25	15.965
534.59	16.490
534.93	16.739
535.27	17.432
535.62	16.880
535.96	16.807
536.30	16.034
536.64	16.003
536.98	16.737
537.32	15.826
537.66	16.158
538.01	16.220
538.35	16.757
538.69	17.045
539.03	16.588
539.37	17.565
539.71	16.678
540.05	16.518
540.39	16.690
540.73	17.208
541.07	17.486
541.42	16.205
541.76	16.013
542.10	17.353
542.44	17.322
542.78	16.486
543.12	16.022
543.46	16.233
543.80	16.321
544.14	16.521
544.48	17.060
544.82	16.373
545.16	17.371
545.50	15.612
545.84	17.524
546.18	15.742
546.52	16.714
546.86	16.809
547.20	16.667
547.54	15.771
547.88	16.788
548.22	15.858
548.56	16.366
548.90	16.779
549.24	16.188
549.58	16.867
549.92	16.537
550.26	16.329
550.60	16.287
550.94	16.350
551.28	16.930
551.62	15.731
551.96	16.932
552.30	16.655
552.64	17.030
552.98	17.099
553.32	15.873
553.66	15.934
554.00	16.489
554.34	15.018
554.68	16.009
555.02	17.221
555.36	16.894
555.69	15.974
556.03	16.982
556.37	16.145
556.71	16.464
557.05	16.778
557.39	16.407
557.73	16.193
558.07	16.051
558.41	15.856
558.75	17.871
559.08	14.708
559.42	15.544
559.76	15.337
560.10	16.480
560.44	17.630
560.78	16.701
561.12	16.218
561.45	16.233
561.79	16.864
562.13	16.971
562.47	17.017
562.81	15.064
563.15	16.305
563.48	16.793
563.82	16.700
564.16	16.295
564.50	17.540
564.84	16.931
565.17	16.777
565.51	17.601
565.85	16.971
566.19	17.325
566.52	16.438
566.86	17.004
567.20	18.160
567.54	18.783
567.88	17.532
568.21	18.568
568.55	17.603
568.89	17.346
569.23	18.510
569.56	17.907
569.90	19.197
570.24	19.504
570.57	18.875
570.91	18.871
571.25	19.228
571.59	19.138
571.92	19.732
572.26	19.772
572.60	18.895
572.93	18.798
573.27	19.207
573.61	19.128
573.95	19.771
574.28	19.498
574.62	19.675
574.96	19.591
575.29	19.588
575.63	19.671
575.97	19.067
576.30	19.403
576.64	20.183
576.98	19.756
577.31	20.000
577.65	20.219
577.98	20.282
578.32	19.954
578.66	20.031
578.99	19.537
579.33	19.869
579.67	19.655
580.00	19.097
580.34	19.325
580.67	20.226
581.01	19.790
581.35	19.924
581.68	19.905
582.02	20.580
582.35	20.302
582.69	20.306
583.02	20.402
583.36	20.091
583.70	19.816
584.03	19.612
584.37	19.513
584.70	19.878
585.04	19.468
585.37	19.547
585.71	19.811
586.04	19.985
586.38	19.727
586.72	20.011
587.05	20.164
587.39	20.104
587.72	19.857
588.06	19.532
588.39	19.567
588.73	19.614
589.06	20.396
589.40	20.131
589.73	19.511
590.07	19.155
590.40	19.299
590.73	18.992
591.07	19.467
591.40	19.801
591.74	18.766
592.07	18.018
592.41	19.151
592.74	19.716
593.08	20.391
593.41	19.868
593.75	19.552
594.08	20.273
594.41	19.704
594.75	19.517
595.08	20.038
595.42	19.545
595.75	19.441
596.09	19.713
596.42	19.763
596.75	18.931
597.09	20.080
597.42	18.900
597.75	19.531
598.09	19.657
598.42	19.753
598.76	19.477
599.09	19.574
599.42	19.185
599.76	19.479
600.09	20.420
600.42	19.673
600.76	19.510
601.09	19.711
601.42	19.153
601.76	19.704
602.09	19.387
602.42	19.835
602.76	18.986
603.09	19.395
603.42	19.339
603.76	19.625
604.09	20.144
604.42	19.151
604.76	19.232
605.09	19.439
605.42	19.504
605.75	19.750
606.09	19.178
606.42	19.187
606.75	19.665
607.09	19.497
607.42	19.542
607.75	19.117
608.08	19.024
608.42	19.111
608.75	18.879
609.08	19.143
609.41	18.934
609.75	19.649
610.08	19.755
610.41	19.518
610.74	19.391
611.07	18.560
611.41	19.314
611.74	20.103
612.07	19.495
612.40	18.230
612.73	18.148
613.07	18.712
613.40	19.321
613.73	18.910
614.06	18.561
614.39	18.940
614.72	18.492
615.06	18.641
615.39	18.557
615.72	18.523
616.05	18.664
616.38	18.514
616.71	17.718
617.05	18.094
617.38	18.142
617.71	18.612
618.04	18.447
618.37	18.679
618.70	19.166
619.03	17.332
619.36	18.323
619.69	17.803
620.03	17.080
620.36	17.651
620.69	18.234
621.02	16.743
621.35	17.339
621.68	17.213
622.01	16.586
622.34	18.323
622.67	17.578
623.00	18.057
623.33	18.582
623.66	17.208
623.99	17.820
624.32	17.039
624.65	17.366
624.99	17.700
625.32	16.018
625.65	17.094
625.98	17.449
626.31	17.863
626.64	16.569
626.97	17.979
627.30	16.596
627.63	17.185
627.96	16.362
628.29	16.085
628.62	16.332
628.95	17.028
629.28	16.165
629.61	16.879
629.94	16.541
630.26	16.302
630.59	16.181
630.92	15.716
631.25	15.726
631.58	15.450
631.91	14.043
632.24	15.444
632.57	16.778
632.90	15.632
633.23	14.603
633.56	14.035
633.89	16.509
634.22	13.932
634.55	14.183
634.88	15.236
635.20	15.231
635.53	15.649
635.86	13.224
636.19	14.530
636.52	13.740
636.85	13.839
637.18	13.000
637.51	17.968
637.83	14.780
638.16	14.079
638.49	14.345
638.82	14.028
639.15	15.045
639.48	14.008
639.81	15.491
640.13	14.459
640.46	14.815
640.79	16.387
641.12	16.502
641.45	14.491
641.77	13.473
642.10	12.991
642.43	14.719
642.76	14.173
643.09	13.492
643.41	14.286
643.74	13.990
644.07	15.445
644.40	12.156
644.73	13.201
645.05	12.688
645.38	13.245
645.71	15.808
646.04	14.118
646.36	13.089
646.69	13.495
647.02	15.523
647.35	13.538
647.67	13.686
648.00	15.817
648.33	14.671
648.66	12.581
648.98	14.809
649.31	13.692
649.64	15.781
649.96	15.699
650.29	13.770
650.62	13.769
650.94	14.840
651.27	13.692
651.60	14.533
651.92	16.267
652.25	13.856
652.58	15.162
652.90	15.409
653.23	14.839
653.56	15.552
653.88	14.262
654.21	17.450
654.54	14.618
654.86	14.607
655.19	14.756
655.52	19.803
655.84	21.758
656.17	24.649
656.49	33.801
656.82	34.540
657.15	25.199
657.47	18.586
657.80	14.154
658.13	15.949
658.45	21.124
658.78	20.438
659.10	20.374
659.43	19.718
659.75	20.142
660.08	18.958
660.41	17.385
660.73	15.952
661.06	14.928
661.38	15.000
661.71	12.620
662.03	14.113
662.36	11.301
662.68	11.181
663.01	11.465
663.33	14.059
663.66	13.305
663.98	12.500
664.31	11.186
664.63	13.938
664.96	13.449
665.28	11.931
665.61	11.628
665.93	14.403
666.26	15.182
666.58	12.890
666.91	12.695
667.23	16.667
667.56	12.925
667.88	12.217
668.21	13.594
668.53	13.551
668.86	13.395
669.18	15.525
669.50	14.486
669.83	10.706
670.15	13.453
670.48	13.084
670.80	10.934
671.13	11.964
671.45	14.865
671.77	10.278
672.10	14.004
672.42	15.314
672.75	14.182
673.07	14.054
673.39	13.297
673.72	13.583
674.04	12.102
674.37	11.340
674.69	13.730
675.01	10.000
675.34	12.798
675.66	15.119
675.98	12.115
676.31	14.480
676.63	15.402
676.95	11.726
677.28	12.297
677.60	12.670
677.92	15.198
678.25	14.442
678.57	15.226
678.89	11.950
679.22	15.304
679.54	17.357
679.86	12.800
680.18	14.259
680.51	13.594
680.83	16.190
681.15	14.258
681.48	13.793
681.80	13.911
682.12	13.883
682.44	13.949
682.77	11.039
683.09	14.465
683.41	15.487
683.73	11.872
684.06	12.473
684.38	14.644
684.70	13.992
685.02	15.551
685.34	15.984
685.67	13.258
685.99	13.422
686.31	16.697
686.63	14.894
686.96	14.972
687.28	14.066
687.60	14.062
687.92	12.257
688.24	15.551
688.56	13.828
688.89	10.256
689.21	16.193
689.53	15.172
689.85	14.254
690.17	14.350
690.49	15.242
690.82	9.398
691.14	12.264
691.46	15.965
691.78	15.419
692.10	18.432
692.42	15.111
692.74	16.309
693.06	17.528
693.39	16.555
693.71	13.318
694.03	17.711
694.35	12.415
694.67	11.820
694.99	12.020
695.31	13.776
695.63	14.286
695.95	12.655
696.27	15.711
696.59	14.171
696.91	15.449
697.23	13.542
697.56	15.865
697.88	15.090
698.20	15.846
698.52	13.453
698.84	13.592
699.16	13.810
699.48	12.750
699.80	13.784
700.12	16.625
700.44	14.246
700.76	12.828
701.08	13.953
701.40	7.553
701.72	10.802
702.04	11.859
702.36	11.145
702.68	13.174
703.00	11.884
703.32	9.742
703.64	14.706
703.96	13.953
704.28	12.722
704.60	13.291
704.91	9.524
705.23	12.945
705.55	8.784
705.87	12.969
706.19	9.375
706.51	11.458
706.83	16.066
707.15	10.828
707.47	15.702
707.79	17.010
708.11	15.776
708.43	15.960
708.74	13.766
709.06	11.142
709.38	12.931
709.70	14.375
710.02	16.871
710.34	9.241
710.66	11.429
710.98	12.618
711.29	10.000
711.61	14.058
711.93	11.803
712.25	15.282
712.57	12.544
712.89	16.187
713.20	15.808
713.52	11.194
713.84	9.609
714.16	16.721
714.48	13.651
714.80	13.538
715.11	16.138
715.43	16.265
715.75	12.773
716.07	14.426
716.39	14.381
716.70	14.634
717.02	12.963
717.34	11.450
717.66	17.842
717.97	11.066
718.29	9.664
718.61	19.048
718.93	12.186
719.24	10.294
719.56	11.321
719.88	13.091
720.20	9.363
720.51	20.301
720.83	12.048
721.15	14.754
721.46	16.863
721.78	11.494
722.10	18.000
722.42	14.876
722.73	8.367
723.05	10.843
723.37	11.765
723.68	9.312
724.00	14.634
724.32	15.226
724.63	13.693
724.95	17.355
725.27	11.842
725.58	12.500
725.90	12.302
726.22	15.867
726.53	11.407
726.85	8.627
727.16	10.526
727.48	8.846
727.80	12.705
728.11	12.185
728.43	11.157
728.74	12.891
729.06	12.500
729.38	14.786
729.69	13.780
730.01	16.142
730.32	11.155
730.64	15.018
730.96	15.672
731.27	12.500
731.59	15.113
731.90	14.417
732.22	17.178
732.53	17.550
732.85	16.107
733.16	17.029
733.48	15.331
733.80	12.456
734.11	17.931
734.43	12.925
734.74	16.914
735.06	13.793
735.37	17.431
735.69	13.871
736.00	14.141
736.32	18.543
736.63	12.069
736.95	13.406
737.26	17.881
737.58	18.705
737.89	17.563
738.21	18.045
738.52	14.231
738.83	14.844
739.15	11.538
739.46	15.323
739.78	12.238
740.09	11.888
740.41	16.084
740.72	14.599
741.04	11.111
741.35	15.152
741.66	14.352
741.98	7.619
742.29	18.310
742.61	14.973
742.92	19.159
743.23	9.211
743.55	15.766
743.86	17.333
744.18	6.667
744.49	17.241
744.80	12.690
745.12	13.402
745.43	12.563
745.74	11.650
746.06	10.732
746.37	17.181
746.68	14.428
747.00	13.089
747.31	10.577
747.62	11.060
747.94	12.227
748.25	7.442
748.56	10.476
748.88	3.804
749.19	14.554
749.50	14.216
749.82	16.444
750.13	19.383
750.44	13.415
750.75	18.000
751.07	16.071
751.38	13.284
751.69	12.977
752.01	20.000
752.32	11.284
752.63	10.769
752.94	13.095
753.26	18.261
753.57	16.071
753.88	12.931
754.19	12.033
754.51	12.109
754.82	15.415
755.13	13.580
755.44	13.223
755.75	15.638
756.07	12.450
756.38	12.500
756.69	15.523
757.00	14.634
757.31	18.456
757.63	16.511
757.94	14.451
758.25	15.988
758.56	21.833
758.87	16.761
759.18	13.000
759.50	17.438
759.81	13.869
760.12	12.162
760.43	20.712
760.74	18.437
761.05	17.697
761.36	19.461
761.67	17.456
761.99	15.806
762.30	14.493
762.61	16.604
762.92	18.834
763.23	9.479
763.54	14.222
763.85	13.924
764.16	13.061
764.47	18.220
764.78	18.352
765.10	19.065
765.41	19.032
765.72	15.409
766.03	11.661
766.34	18.045
766.65	15.385
766.96	13.000
767.27	17.187
767.58	14.535
767.89	16.774
768.20	11.656
768.51	15.301
768.82	16.216
769.13	20.000
769.44	9.211
769.75	13.420
770.06	16.055
770.37	16.901
770.68	11.458
770.99	14.356
771.30	12.621
771.61	14.815
771.92	17.316
772.23	17.757
772.54	18.617
772.85	13.018
773.16	12.195
773.47	17.470
773.78	12.637
774.09	9.333
774.39	15.432
774.70	16.107
775.01	10.145
775.32	10.448
775.63	10.744
775.94	8.271
776.25	10.000
776.56	13.934
776.87	15.044
777.18	13.274
777.48	1.818
777.79	-0.870
778.10	12.844
778.41	8.475
778.72	14.050
779.03	12.687
779.34	16.541
779.65	20.915
779.95	17.391
780.26	7.483
780.57	6.897
780.88	16.667
781.19	-5.051
781.50	14.400
781.80	17.647
782.11	8.974
782.42	13.253
782.73	2.190
783.04	16.892
783.34	8.333
783.65	24.031
783.96	7.317
784.27	11.966
784.57	16.260
784.88	7.317
785.19	18.421
785.50	-9.278
785.81	1.905
786.11	4.902
786.42	-1.818
786.73	14.414
787.04	18.812
787.34	9.524
787.65	3.810
787.96	7.843
788.26	16.216
788.57	19.355
788.88	19.531
789.19	17.949
789.49	7.563
789.80	7.692
790.11	22.124
790.41	10.101
790.72	16.981
791.03	2.778
791.33	13.158
791.64	17.204
791.95	13.333
792.25	2.857
792.56	1.220
792.87	22.449
793.17	3.947
793.48	-14.865
793.79	7.042
794.09	11.392
794.40	15.957
794.70	12.150
795.01	5.263
795.32	17.273
795.62	11.607
795.93	-1.031
796.23	9.890
796.54	8.421
796.85	-2.740
797.15	5.556
797.46	17.808
797.76	14.085
798.07	8.750
798.37	11.765
798.68	18.571
798.99	14.286
799.29	9.211
799.60	8.333
799.90	9.722
800.21	-17.188
800.51	17.460
800.82	16.393
801.12	19.298
801.43	4.225
801.73	-8.475
802.04	4.918
802.34	-5.455
802.65	1.923
802.95	5.556
803.26	-20.000
803.56	17.308
803.87	-31.579
804.17	24.194
804.48	4.615
804.78	-25.641
805.09	2.326
805.39	-75.000
805.70	-18.868
806.00	17.544
806.30	29.730
806.61	10.294
806.91	17.284
807.22	13.333
807.52	-1.493
807.83	3.226
808.13	7.937
808.43	-3.636
808.74	4.545
809.04	1.887
809.35	23.288
809.65	17.544
809.95	11.765
810.26	-17.647
810.56	0.000
810.86	2.041
811.17	0.000
811.47	-13.462
811.77	16.129
812.08	-47.368
812.38	4.762
812.69	-4.348
812.99	-58.065
813.29	-21.429
813.59	-40.741
813.90	-12.766
814.20	-13.953
814.50	-2.083
814.81	-5.000
815.11	-4.878
815.41	-6.667
815.72	-8.571
816.02	-41.667
816.32	28.205
816.62	16.216
816.93	-32.353
817.23	0.000
817.53	23.529
817.84	0.000
818.14	-18.750
818.44	-13.793
818.74	-3.226
819.04	-40.741
819.35	-16.667
819.65	-20.000
819.95	-13.333
820.25	20.000
820.56	0.000
820.86	5.000
821.16	-12.766
821.46	13.793
821.76	-7.692
822.07	-17.500
822.37	-16.279
822.67	-26.667
822.97	-10.811
823.27	13.514
823.57	-24.000
823.88	2.703
824.18	-61.905
824.48	-26.923
824.78	-153.846
825.08	13.043
825.38	-33.333
825.69	-16.667
825.99	-85.000
826.29	-24.324
826.59	-20.588
826.89	-28.000
827.19	2.857
827.49	13.158
827.79	-21.875
828.09	-23.333
828.39	43.478
828.70	-79.310
829.00	-17.241
829.30	16.667
829.60	68.750
829.90	-16.667
830.20	-7.692
830.50	-23.810
830.80	-46.429
831.10	-17.949
831.40	-66.667
831.70	0.000
832.00	-54.167
832.30	-36.842
832.60	18.750
832.90	0.000
833.20	-64.706
833.50	-60.000
833.80	-73.333
834.10	10.000
834.40	-8.333
834.70	11.111
835.00	-11.538
835.30	-8.333
835.60	-24.138
835.90	-44.444
836.20	-100.000
836.50	-100.000
836.80	20.000
837.10	25.714
837.40	23.529
837.70	-54.545
838.00	12.500
838.30	-56.250
838.60	-9.524
838.90	-40.000
839.19	-17.391
839.49	17.391
839.79	-122.222
840.09	-39.130
840.39	-50.000
840.69	-93.750
840.99	-10.526
841.29	-25.000
841.59	-114.286
841.88	-61.111
842.18	-8.333
842.48	-111.765
842.78	17.241
843.08	-35.714
843.38	-61.538
843.68	-44.444
843.97	-84.615
844.27	-100.000
844.57	-320.000
844.87	-8.000
845.17	-60.000
845.47	-28.571
845.76	-100.000
846.06	0.000
846.36	-300.000
846.66	-140.000
846.96	-15.789
847.25	-16.667
847.55	-58.333
847.85	6.667
848.15	-30.000
848.44	15.385
848.74	47.368
849.04	366.667
849.34	-166.667
849.63	-42.105
849.93	0.000
850.23	0.000
850.53	-47.619
850.82	-52.000
851.12	-21.053
851.42	-100.000
851.71	0.000
852.01	-66.667
852.31	-94.118
852.61	-6.667
852.90	-42.857
853.20	-283.333
853.50	-72.222
853.79	-100.000
854.09	-13.333
854.39	-3.571
854.68	17.391
854.98	-166.667
855.28	0.000
855.57	-25.000
855.87	-70.000
856.17	-26.667
856.46	-13.793
856.76	-60.000
857.05	-52.941
857.35	-123.077
857.65	9.091
857.94	11.111
858.24	-71.429
858.53	-64.286
858.83	-25.000
859.13	-77.778
859.42	-14.286
859.72	0.000
860.01	-300.000
860.31	-175.000
860.60	-20.000
860.90	-133.333
861.20	-175.000
861.49	-171.429
861.79	11.765
862.08	-750.000
862.38	-41.667
862.67	-7.692
862.97	5.882
863.26	15.000
863.56	-41.176
863.85	233.333
864.15	-120.000
864.44	-38.462
864.74	-40.000
865.03	-200.000
865.33	-150.000
865.62	-23.529
865.92	-475.000
866.21	-42.857
866.51	-83.333
866.80	-500.000
867.10	-333.333
867.39	-29.412
867.69	47.826
867.98	57.143
868.27	-80.000
868.57	-81.250
868.86	-81.818
869.16	35.294
869.45	-166.667
869.75	-71.429
870.04	1200.000
870.33	-41.667
870.63	-160.000
870.92	-33.333
871.22	-75.000
871.51	-36.364
871.80	-16.667
872.10	-110.000
>>>>>End Processed Spectral Data<<<<<
