SpectraSuite Data File
++++++++++++++++++++++++++++++++++++
Date: Sat May 16 11:14:41 PDT 2015
User: schluterlab
Dark Spectrum Present: Yes
Reference Spectrum Present: Yes
Number of Sampled Component Spectra: 1
Spectrometers: USB2E3373
Integration Time (usec): 3000 (USB2E3373)
Spectra Averaged: 3 (USB2E3373)
Boxcar Smoothing: 0 (USB2E3373)
Correct for Electrical Dark: No (USB2E3373)
Strobe/Lamp Enabled: No (USB2E3373)
Correct for Detector Non-linearity: No (USB2E3373)
Correct for Stray Light: No (USB2E3373)
Number of Pixels in Processed Spectrum: 2048
>>>>>Begin Processed Spectral Data<<<<<
178.53	0.000
178.91	26.667
179.29	300.000
179.67	100.000
180.04	-130.769
180.42	600.000
180.80	300.000
181.18	375.000
181.56	-87.500
181.94	1000.000
182.31	350.000
182.69	0.000
183.07	-266.667
183.45	1150.000
183.83	33.333
184.20	-71.429
184.58	-50.000
184.96	-200.000
185.34	18.750
185.72	-350.000
186.09	150.000
186.47	-237.500
186.85	-137.500
187.23	-25.000
187.61	-150.000
187.98	-237.500
188.36	-100.000
188.74	-75.000
189.12	1000.000
189.49	285.714
189.87	16.667
190.25	50.000
190.63	-57.143
191.00	-22.222
191.38	480.000
191.76	26.667
192.14	400.000
192.51	-300.000
192.89	-200.000
193.27	0.000
193.65	-166.667
194.02	-157.143
194.40	300.000
194.78	-60.000
195.15	-1200.000
195.53	-190.909
195.91	-400.000
196.29	260.000
196.66	-433.333
197.04	1600.000
197.42	50.000
197.79	13.333
198.17	33.333
198.55	-50.000
198.92	-1500.000
199.30	137.500
199.68	-750.000
200.05	-33.333
200.43	-266.667
200.81	-1300.000
201.18	-50.000
201.56	142.857
201.94	-6.667
202.31	59.091
202.69	-30.000
203.07	-20.000
203.44	100.000
203.82	-216.667
204.19	-150.000
204.57	-100.000
204.95	-1200.000
205.32	6.250
205.70	200.000
206.08	-1700.000
206.45	-16.667
206.83	-550.000
207.20	200.000
207.58	-200.000
207.96	-300.000
208.33	-50.000
208.71	-122.222
209.08	90.000
209.46	-71.429
209.84	300.000
210.21	0.000
210.59	-30.000
210.96	500.000
211.34	-116.667
211.71	-233.333
212.09	275.000
212.46	1250.000
212.84	-1700.000
213.22	533.333
213.59	83.333
213.97	66.667
214.34	60.000
214.72	10.000
215.09	66.667
215.47	-100.000
215.84	-170.000
216.22	0.000
216.59	-33.333
216.97	-350.000
217.34	650.000
217.72	0.000
218.09	-250.000
218.47	-85.714
218.84	185.714
219.22	-57.143
219.59	0.000
219.97	85.714
220.34	250.000
220.72	125.000
221.09	0.000
221.47	0.000
221.84	233.333
222.22	-50.000
222.59	600.000
222.97	-187.500
223.34	-450.000
223.72	-400.000
224.09	-14.286
224.46	-100.000
224.84	-57.143
225.21	-71.429
225.59	-18.182
225.96	-212.500
226.34	-14.286
226.71	-44.444
227.08	20.000
227.46	1300.000
227.83	-14.286
228.21	-25.000
228.58	200.000
228.95	25.000
229.33	-1400.000
229.70	-300.000
230.08	-550.000
230.45	8.333
230.82	33.333
231.20	0.000
231.57	-300.000
231.95	600.000
232.32	0.000
232.69	22.222
233.07	-85.714
233.44	-550.000
233.81	-46.667
234.19	44.444
234.56	-37.500
234.93	34.375
235.31	57.143
235.68	-57.143
236.05	-29.412
236.43	-9.091
236.80	22.581
237.17	0.000
237.55	42.857
237.92	40.909
238.29	22.857
238.67	52.941
239.04	33.333
239.41	35.484
239.79	5.128
240.16	42.857
240.53	38.182
240.91	61.538
241.28	43.636
241.65	49.231
242.02	50.820
242.40	42.623
242.77	43.939
243.14	49.153
243.51	31.429
243.89	48.101
244.26	46.067
244.63	60.000
245.00	42.105
245.38	43.220
245.75	46.018
246.12	38.400
246.49	53.543
246.87	30.081
247.24	40.678
247.61	42.373
247.98	50.000
248.36	44.755
248.73	44.304
249.10	41.401
249.47	50.292
249.84	44.886
250.22	43.452
250.59	44.633
250.96	52.356
251.33	51.185
251.70	47.596
252.08	52.133
252.45	46.919
252.82	48.095
253.19	52.766
253.56	46.774
253.94	47.679
254.31	51.502
254.68	51.626
255.05	45.968
255.42	52.778
255.79	45.161
256.16	49.804
256.54	52.574
256.91	48.864
257.28	45.788
257.65	50.709
258.02	52.830
258.39	49.833
258.76	48.649
259.14	48.148
259.51	55.082
259.88	50.000
260.25	54.658
260.62	48.875
260.99	47.774
261.36	53.354
261.73	50.000
262.10	53.889
262.47	49.573
262.85	51.143
263.22	50.143
263.59	50.154
263.96	53.913
264.33	49.051
264.70	54.144
265.07	53.022
265.44	50.129
265.81	51.680
266.18	49.114
266.55	49.265
266.92	54.408
267.29	49.153
267.66	50.123
268.03	49.517
268.40	51.174
268.77	51.807
269.14	50.348
269.51	53.103
269.88	48.853
270.25	50.117
270.62	50.343
270.99	49.324
271.36	50.583
271.73	49.103
272.10	51.030
272.47	49.556
272.84	51.111
273.21	51.376
273.58	49.231
273.95	49.123
274.32	52.941
274.69	52.079
275.06	52.352
275.43	51.116
275.80	49.695
276.17	52.720
276.54	51.731
276.91	53.292
277.28	52.130
277.65	52.273
278.02	53.862
278.39	50.098
278.76	50.797
279.13	50.198
279.50	50.099
279.87	50.740
280.23	50.202
280.60	54.871
280.97	50.874
281.34	49.516
281.71	49.808
282.08	50.202
282.45	51.527
282.82	52.713
283.19	50.545
283.56	50.000
283.92	49.470
284.29	51.301
284.66	46.763
285.03	48.841
285.40	47.786
285.77	48.421
286.14	50.361
286.51	48.135
286.87	50.272
287.24	48.976
287.61	47.603
287.98	47.487
288.35	45.455
288.72	48.048
289.08	46.949
289.45	46.465
289.82	44.118
290.19	49.261
290.56	43.967
290.93	43.720
291.29	45.219
291.66	44.767
292.03	43.642
292.40	43.373
292.77	43.944
293.13	43.902
293.50	42.051
293.87	41.564
294.24	42.232
294.60	38.788
294.97	41.123
295.34	39.556
295.71	40.923
296.08	38.402
296.44	40.200
296.81	40.741
297.18	38.873
297.55	40.537
297.91	41.144
298.28	37.671
298.65	38.075
299.02	39.305
299.38	37.834
299.75	38.451
300.12	39.231
300.48	38.875
300.85	36.435
301.22	38.034
301.59	37.191
301.95	37.280
302.32	36.767
302.69	38.311
303.05	36.386
303.42	35.500
303.79	37.081
304.15	37.559
304.52	37.106
304.89	34.475
305.25	35.653
305.62	35.135
305.99	35.100
306.35	33.074
306.72	34.169
307.09	35.982
307.45	35.755
307.82	35.754
308.19	36.801
308.55	34.532
308.92	33.512
309.29	33.838
309.65	34.571
310.02	33.909
310.38	33.405
310.75	33.402
311.12	34.401
311.48	32.881
311.85	33.574
312.22	34.089
312.58	34.893
312.95	32.722
313.31	33.866
313.68	33.166
314.05	32.740
314.41	31.992
314.78	32.368
315.14	32.182
315.51	33.333
315.87	33.204
316.24	32.556
316.61	33.493
316.97	33.532
317.34	32.659
317.70	31.076
318.07	32.836
318.43	33.427
318.80	34.178
319.16	32.645
319.53	32.707
319.89	30.574
320.26	31.373
320.62	32.308
320.99	30.746
321.35	31.034
321.72	30.911
322.08	33.630
322.45	33.069
322.81	31.412
323.18	31.796
323.54	30.591
323.91	31.789
324.27	30.323
324.64	31.353
325.00	31.850
325.37	32.579
325.73	32.721
326.10	30.647
326.46	32.574
326.83	30.809
327.19	30.442
327.56	31.005
327.92	30.756
328.29	31.169
328.65	29.273
329.01	31.007
329.38	31.936
329.74	31.868
330.11	31.641
330.47	30.245
330.84	32.447
331.20	30.235
331.56	29.626
331.93	30.551
332.29	31.324
332.66	30.290
333.02	30.679
333.38	29.928
333.75	31.167
334.11	31.289
334.48	30.803
334.84	31.234
335.20	29.610
335.57	29.964
335.93	31.065
336.29	29.584
336.66	28.370
337.02	30.090
337.38	29.679
337.75	29.412
338.11	29.070
338.47	29.626
338.84	29.492
339.20	28.998
339.56	29.412
339.93	29.453
340.29	30.027
340.65	29.983
341.02	29.933
341.38	30.918
341.74	30.313
342.11	29.693
342.47	29.442
342.83	28.631
343.20	29.804
343.56	27.510
343.92	29.800
344.28	30.109
344.65	28.713
345.01	28.908
345.37	30.233
345.73	27.414
346.10	26.738
346.46	28.838
346.82	27.506
347.19	27.855
347.55	28.652
347.91	28.346
348.27	27.844
348.63	29.321
349.00	28.003
349.36	27.088
349.72	29.777
350.08	27.586
350.45	27.660
350.81	28.583
351.17	27.733
351.53	26.492
351.89	27.648
352.26	28.217
352.62	29.724
352.98	29.509
353.34	26.938
353.70	26.409
354.07	28.482
354.43	28.933
354.79	28.843
355.15	26.597
355.51	26.797
355.87	27.984
356.24	26.132
356.60	27.478
356.96	27.945
357.32	28.029
357.68	27.280
358.04	27.560
358.40	28.152
358.77	26.662
359.13	27.621
359.49	27.060
359.85	27.591
360.21	27.778
360.57	27.937
360.93	28.000
361.29	28.176
361.66	26.829
362.02	26.331
362.38	27.806
362.74	27.546
363.10	27.618
363.46	28.704
363.82	26.968
364.18	27.496
364.54	28.592
364.90	25.996
365.26	26.320
365.62	27.370
365.98	27.312
366.35	27.042
366.71	26.709
367.07	27.946
367.43	27.179
367.79	26.735
368.15	26.458
368.51	27.063
368.87	28.297
369.23	26.526
369.59	27.222
369.95	26.638
370.31	27.567
370.67	26.392
371.03	26.749
371.39	26.450
371.75	28.183
372.11	26.542
372.47	27.838
372.83	27.191
373.19	27.214
373.55	27.305
373.91	26.387
374.27	26.352
374.63	26.432
374.99	26.634
375.35	26.918
375.71	26.334
376.07	27.173
376.42	26.093
376.78	27.778
377.14	27.119
377.50	26.950
377.86	26.983
378.22	25.942
378.58	25.757
378.94	26.634
379.30	25.960
379.66	26.412
380.02	25.966
380.38	27.311
380.74	26.143
381.09	25.190
381.45	27.088
381.81	25.771
382.17	26.629
382.53	25.653
382.89	26.615
383.25	26.490
383.61	26.356
383.97	26.516
384.32	25.907
384.68	26.300
385.04	26.510
385.40	25.989
385.76	26.159
386.12	25.234
386.48	26.361
386.83	26.442
387.19	25.941
387.55	26.287
387.91	26.023
388.27	25.332
388.62	26.142
388.98	25.500
389.34	26.438
389.70	25.396
390.06	25.979
390.42	26.282
390.77	24.543
391.13	26.460
391.49	25.265
391.85	26.372
392.20	25.303
392.56	26.145
392.92	25.956
393.28	26.119
393.64	26.037
393.99	26.708
394.35	25.912
394.71	26.127
395.07	25.926
395.42	24.434
395.78	26.650
396.14	25.794
396.50	25.627
396.85	25.355
397.21	25.577
397.57	25.957
397.92	26.288
398.28	25.889
398.64	25.283
399.00	25.787
399.35	25.254
399.71	26.597
400.07	26.448
400.42	26.886
400.78	25.403
401.14	25.749
401.49	25.884
401.85	25.381
402.21	25.685
402.57	25.546
402.92	27.124
403.28	25.613
403.63	25.165
403.99	26.103
404.35	25.121
404.70	26.097
405.06	26.240
405.42	25.154
405.77	24.943
406.13	26.235
406.49	25.944
406.84	26.395
407.20	25.206
407.55	25.712
407.91	25.712
408.27	25.613
408.62	25.015
408.98	26.440
409.34	25.168
409.69	25.142
410.05	25.591
410.40	26.916
410.76	24.837
411.11	25.873
411.47	25.448
411.83	25.183
412.18	24.814
412.54	24.466
412.89	25.213
413.25	26.446
413.60	25.091
413.96	25.139
414.31	25.382
414.67	25.079
415.03	24.903
415.38	25.309
415.74	26.289
416.09	24.552
416.45	25.331
416.80	26.463
417.16	24.850
417.51	26.789
417.87	25.372
418.22	25.095
418.58	25.481
418.93	25.261
419.29	24.529
419.64	25.817
420.00	26.063
420.35	25.015
420.71	25.930
421.06	26.331
421.42	25.293
421.77	25.181
422.12	25.686
422.48	24.960
422.83	26.025
423.19	24.944
423.54	25.764
423.90	25.448
424.25	25.566
424.61	25.392
424.96	26.565
425.31	25.601
425.67	24.642
426.02	24.957
426.38	25.529
426.73	26.067
427.09	25.613
427.44	25.284
427.79	25.116
428.15	26.451
428.50	25.748
428.85	25.180
429.21	24.848
429.56	25.729
429.92	25.100
430.27	26.072
430.62	25.653
430.98	25.301
431.33	25.934
431.68	25.898
432.04	25.294
432.39	25.755
432.74	24.880
433.10	25.886
433.45	24.986
433.80	25.476
434.16	26.491
434.51	26.192
434.86	26.303
435.22	25.947
435.57	25.643
435.92	25.088
436.28	25.638
436.63	25.212
436.98	25.315
437.34	25.694
437.69	25.204
438.04	25.184
438.39	25.632
438.75	24.913
439.10	24.597
439.45	24.864
439.81	26.325
440.16	25.667
440.51	25.824
440.86	25.795
441.22	25.594
441.57	24.737
441.92	26.496
442.27	25.758
442.63	25.215
442.98	24.718
443.33	25.920
443.68	25.326
444.03	25.540
444.39	25.502
444.74	25.881
445.09	24.836
445.44	25.661
445.79	25.650
446.15	25.301
446.50	24.878
446.85	25.295
447.20	24.974
447.55	26.077
447.91	25.940
448.26	25.531
448.61	24.618
448.96	25.602
449.31	25.197
449.66	25.072
450.02	25.263
450.37	25.971
450.72	24.576
451.07	25.644
451.42	24.845
451.77	25.793
452.12	25.983
452.47	25.945
452.83	26.383
453.18	25.933
453.53	26.679
453.88	25.598
454.23	24.849
454.58	26.352
454.93	27.015
455.28	26.259
455.63	25.553
455.98	25.843
456.34	25.222
456.69	26.642
457.04	25.569
457.39	25.478
457.74	25.281
458.09	26.102
458.44	25.924
458.79	25.561
459.14	25.784
459.49	25.400
459.84	25.408
460.19	25.358
460.54	25.227
460.89	25.112
461.24	25.683
461.59	25.381
461.94	26.671
462.29	26.325
462.64	25.692
462.99	25.569
463.34	24.848
463.69	25.318
464.04	24.897
464.39	25.508
464.74	25.591
465.09	25.135
465.44	25.268
465.79	26.452
466.14	26.467
466.49	24.813
466.84	25.750
467.19	26.434
467.54	24.810
467.89	25.709
468.24	25.297
468.59	24.984
468.94	25.723
469.29	25.601
469.64	24.730
469.99	24.848
470.34	24.315
470.68	25.945
471.03	25.189
471.38	25.139
471.73	26.643
472.08	24.766
472.43	25.290
472.78	25.600
473.13	25.182
473.48	25.973
473.83	25.682
474.17	25.096
474.52	26.471
474.87	26.107
475.22	24.602
475.57	25.667
475.92	25.324
476.27	25.143
476.61	24.394
476.96	25.713
477.31	24.381
477.66	25.844
478.01	25.500
478.36	24.358
478.70	25.574
479.05	25.041
479.40	25.803
479.75	25.637
480.10	25.198
480.45	24.371
480.79	25.123
481.14	25.941
481.49	25.702
481.84	25.104
482.19	25.720
482.53	25.852
482.88	24.727
483.23	25.915
483.58	26.226
483.92	25.609
484.27	24.900
484.62	24.752
484.97	25.175
485.31	25.088
485.66	24.713
486.01	25.184
486.36	25.586
486.70	25.904
487.05	25.712
487.40	25.775
487.75	25.463
488.09	25.232
488.44	25.474
488.79	25.186
489.13	25.067
489.48	25.734
489.83	25.371
490.17	25.642
490.52	25.861
490.87	25.358
491.22	25.362
491.56	25.370
491.91	25.286
492.26	25.566
492.60	24.976
492.95	25.369
493.30	25.679
493.64	25.576
493.99	25.813
494.34	26.000
494.68	26.170
495.03	26.147
495.37	25.910
495.72	26.326
496.07	26.044
496.41	26.170
496.76	25.479
497.11	25.765
497.45	25.862
497.80	24.962
498.14	25.393
498.49	26.017
498.84	25.243
499.18	25.536
499.53	26.352
499.87	25.241
500.22	25.098
500.56	25.563
500.91	25.517
501.26	26.541
501.60	25.325
501.95	26.425
502.29	25.366
502.64	25.695
502.98	25.060
503.33	25.094
503.67	24.665
504.02	25.254
504.36	25.686
504.71	25.887
505.06	25.212
505.40	25.150
505.75	24.695
506.09	25.531
506.44	26.115
506.78	25.038
507.13	26.159
507.47	26.448
507.82	24.987
508.16	25.907
508.51	26.275
508.85	25.259
509.19	24.856
509.54	25.106
509.88	25.585
510.23	26.625
510.57	26.243
510.92	26.208
511.26	25.625
511.61	24.028
511.95	25.216
512.30	26.333
512.64	24.652
512.98	25.853
513.33	26.085
513.67	25.628
514.02	25.391
514.36	25.817
514.70	25.071
515.05	26.701
515.39	25.606
515.74	27.109
516.08	25.303
516.42	26.402
516.77	26.054
517.11	26.316
517.46	26.974
517.80	26.294
518.14	25.725
518.49	26.838
518.83	26.172
519.17	26.702
519.52	25.911
519.86	26.045
520.20	26.650
520.55	25.600
520.89	25.673
521.23	25.946
521.58	25.455
521.92	26.852
522.26	25.778
522.61	25.412
522.95	25.973
523.29	25.893
523.64	25.609
523.98	25.907
524.32	25.141
524.66	25.031
525.01	25.626
525.35	27.126
525.69	26.155
526.04	25.718
526.38	26.416
526.72	25.351
527.06	26.367
527.41	25.281
527.75	24.818
528.09	25.877
528.43	25.180
528.78	25.188
529.12	27.145
529.46	26.031
529.80	25.952
530.15	26.207
530.49	26.067
530.83	26.523
531.17	25.926
531.51	26.055
531.86	26.333
532.20	26.518
532.54	26.003
532.88	25.692
533.22	25.869
533.57	25.196
533.91	25.218
534.25	25.959
534.59	25.484
534.93	24.953
535.27	25.362
535.62	26.151
535.96	25.792
536.30	25.982
536.64	25.764
536.98	25.565
537.32	25.570
537.66	25.458
538.01	25.430
538.35	26.284
538.69	25.468
539.03	27.082
539.37	25.749
539.71	27.352
540.05	26.319
540.39	26.939
540.73	25.639
541.07	26.298
541.42	25.861
541.76	25.050
542.10	26.469
542.44	26.782
542.78	26.798
543.12	26.069
543.46	24.726
543.80	25.485
544.14	25.050
544.48	26.115
544.82	26.793
545.16	25.620
545.50	25.505
545.84	26.773
546.18	26.768
546.52	26.600
546.86	25.926
547.20	26.442
547.54	25.689
547.88	25.547
548.22	25.164
548.56	25.117
548.90	25.876
549.24	25.368
549.58	26.112
549.92	25.936
550.26	26.951
550.60	26.031
550.94	25.912
551.28	25.884
551.62	25.332
551.96	25.760
552.30	25.505
552.64	26.108
552.98	26.279
553.32	24.098
553.66	26.099
554.00	25.515
554.34	24.910
554.68	25.877
555.02	26.339
555.36	25.665
555.69	26.218
556.03	25.193
556.37	26.600
556.71	26.915
557.05	26.238
557.39	25.538
557.73	26.623
558.07	25.998
558.41	26.328
558.75	25.627
559.08	25.837
559.42	25.957
559.76	26.074
560.10	25.876
560.44	26.734
560.78	25.609
561.12	25.397
561.45	26.027
561.79	26.411
562.13	25.245
562.47	26.050
562.81	26.238
563.15	25.752
563.48	26.538
563.82	26.031
564.16	26.099
564.50	27.083
564.84	26.257
565.17	25.796
565.51	26.010
565.85	27.586
566.19	27.075
566.52	25.440
566.86	25.980
567.20	26.755
567.54	27.643
567.88	25.572
568.21	25.895
568.55	25.822
568.89	26.093
569.23	25.914
569.56	26.019
569.90	26.593
570.24	26.757
570.57	25.413
570.91	25.978
571.25	25.875
571.59	25.601
571.92	25.744
572.26	25.315
572.60	25.783
572.93	25.054
573.27	25.305
573.61	25.007
573.95	26.264
574.28	25.686
574.62	25.750
574.96	25.399
575.29	25.762
575.63	25.644
575.97	25.539
576.30	25.925
576.64	25.692
576.98	25.156
577.31	26.079
577.65	25.833
577.98	25.535
578.32	25.405
578.66	25.713
578.99	25.985
579.33	25.571
579.67	26.198
580.00	25.471
580.34	25.489
580.67	25.791
581.01	25.320
581.35	25.668
581.68	25.363
582.02	25.978
582.35	25.647
582.69	25.820
583.02	26.039
583.36	25.500
583.70	25.550
584.03	25.377
584.37	25.413
584.70	25.139
585.04	25.241
585.37	25.561
585.71	25.375
586.04	25.937
586.38	25.448
586.72	25.085
587.05	26.140
587.39	25.895
587.72	25.564
588.06	25.557
588.39	25.377
588.73	25.951
589.06	25.959
589.40	26.486
589.73	25.637
590.07	25.492
590.40	25.793
590.73	25.750
591.07	25.328
591.40	26.127
591.74	25.586
592.07	25.766
592.41	25.775
592.74	26.095
593.08	26.399
593.41	25.296
593.75	25.552
594.08	26.276
594.41	25.878
594.75	26.048
595.08	26.165
595.42	25.759
595.75	26.240
596.09	25.650
596.42	26.187
596.75	25.485
597.09	26.269
597.42	24.924
597.75	26.174
598.09	25.576
598.42	25.762
598.76	25.706
599.09	25.967
599.42	25.529
599.76	25.557
600.09	26.145
600.42	26.054
600.76	25.725
601.09	25.636
601.42	25.603
601.76	26.012
602.09	25.603
602.42	25.885
602.76	26.132
603.09	26.008
603.42	26.108
603.76	26.566
604.09	25.751
604.42	25.562
604.76	25.949
605.09	26.130
605.42	26.241
605.75	25.744
606.09	26.193
606.42	25.220
606.75	25.762
607.09	25.893
607.42	24.604
607.75	26.093
608.08	26.164
608.42	25.591
608.75	25.140
609.08	25.085
609.41	26.208
609.75	25.646
610.08	25.196
610.41	26.024
610.74	25.435
611.07	26.065
611.41	25.366
611.74	26.530
612.07	25.994
612.40	25.160
612.73	25.633
613.07	25.371
613.40	26.163
613.73	25.940
614.06	26.139
614.39	25.648
614.72	25.642
615.06	24.946
615.39	25.285
615.72	25.530
616.05	24.351
616.38	26.349
616.71	24.685
617.05	26.176
617.38	26.687
617.71	25.307
618.04	25.839
618.37	26.101
618.70	25.815
619.03	25.796
619.36	25.370
619.69	26.633
620.03	25.207
620.36	24.965
620.69	25.772
621.02	26.256
621.35	26.129
621.68	24.754
622.01	25.809
622.34	26.165
622.67	25.313
623.00	26.396
623.33	25.896
623.66	25.258
623.99	25.414
624.32	25.372
624.65	25.313
624.99	24.795
625.32	25.898
625.65	24.942
625.98	25.509
626.31	26.346
626.64	26.862
626.97	24.401
627.30	25.702
627.63	25.130
627.96	25.849
628.29	25.551
628.62	25.979
628.95	25.591
629.28	24.812
629.61	24.043
629.94	25.425
630.26	26.541
630.59	26.633
630.92	25.025
631.25	26.109
631.58	25.926
631.91	24.043
632.24	24.889
632.57	25.000
632.90	26.322
633.23	25.584
633.56	25.614
633.89	25.472
634.22	26.564
634.55	25.841
634.88	25.272
635.20	24.345
635.53	24.809
635.86	24.307
636.19	26.374
636.52	24.134
636.85	23.947
637.18	24.125
637.51	26.890
637.83	26.764
638.16	26.974
638.49	25.517
638.82	24.324
639.15	25.681
639.48	24.254
639.81	25.450
640.13	25.270
640.46	26.923
640.79	25.350
641.12	25.952
641.45	25.681
641.77	25.150
642.10	25.982
642.43	24.734
642.76	24.409
643.09	23.175
643.41	24.921
643.74	26.232
644.07	25.897
644.40	25.122
644.73	23.927
645.05	23.873
645.38	26.325
645.71	26.289
646.04	25.210
646.36	23.909
646.69	25.952
647.02	24.549
647.35	25.090
647.67	25.182
648.00	24.780
648.33	29.005
648.66	25.000
648.98	25.478
649.31	24.462
649.64	25.469
649.96	24.804
650.29	21.639
650.62	24.269
650.94	24.115
651.27	27.036
651.60	23.875
651.92	27.397
652.25	24.875
652.58	24.361
652.90	24.719
653.23	23.065
653.56	24.080
653.88	22.295
654.21	25.671
654.54	26.910
654.86	26.645
655.19	25.215
655.52	25.548
655.84	26.001
656.17	28.410
656.49	38.493
656.82	39.514
657.15	29.347
657.47	21.591
657.80	16.688
658.13	18.959
658.45	25.424
658.78	25.103
659.10	24.907
659.43	24.709
659.75	25.374
660.08	24.896
660.41	24.324
660.73	24.862
661.06	27.391
661.38	26.964
661.71	24.665
662.03	25.000
662.36	26.226
662.68	23.629
663.01	25.265
663.33	24.490
663.66	25.322
663.98	23.214
664.31	25.503
664.63	27.212
664.96	23.210
665.28	23.861
665.61	24.947
665.93	23.251
666.26	25.304
666.58	25.780
666.91	25.167
667.23	25.000
667.56	24.490
667.88	24.208
668.21	25.576
668.53	21.262
668.86	27.021
669.18	26.712
669.50	24.299
669.83	24.574
670.15	23.318
670.48	25.000
670.80	22.779
671.13	23.476
671.45	23.423
671.77	27.409
672.10	23.669
672.42	25.646
672.75	25.455
673.07	24.505
673.39	25.137
673.72	26.181
674.04	24.416
674.37	24.124
674.69	25.205
675.01	25.319
675.34	24.295
675.66	25.270
675.98	24.670
676.31	28.281
676.63	25.747
676.95	23.673
677.28	25.290
677.60	28.054
677.92	26.432
678.25	26.258
678.57	22.634
678.89	25.157
679.22	23.480
679.54	27.219
679.86	21.200
680.18	24.715
680.51	24.395
680.83	24.762
681.15	25.048
681.48	27.789
681.80	23.992
682.12	25.755
682.44	24.754
682.77	24.459
683.09	24.528
683.41	24.336
683.73	20.776
684.06	21.935
684.38	24.895
684.70	25.514
685.02	24.016
685.34	24.561
685.67	27.462
685.99	22.684
686.31	25.314
686.63	24.291
686.96	22.551
687.28	23.699
687.60	25.000
687.92	23.152
688.24	24.803
688.56	23.447
688.89	25.641
689.21	23.632
689.53	26.437
689.85	24.944
690.17	23.767
690.49	27.714
690.82	23.133
691.14	24.292
691.46	25.055
691.78	25.991
692.10	24.788
692.42	22.000
692.74	24.249
693.06	27.416
693.39	25.951
693.71	24.379
694.03	25.702
694.35	23.476
694.67	23.877
694.99	23.529
695.31	22.704
695.63	23.469
695.95	22.829
696.27	25.935
696.59	23.262
696.91	26.404
697.23	24.479
697.56	24.760
697.88	23.198
698.20	25.482
698.52	22.870
698.84	27.427
699.16	20.714
699.48	23.000
699.80	23.810
700.12	25.693
700.44	18.156
700.76	25.364
701.08	21.221
701.40	22.659
701.72	27.469
702.04	22.756
702.36	24.699
702.68	22.754
703.00	22.899
703.32	23.209
703.64	28.529
703.96	25.291
704.28	23.669
704.60	21.203
704.91	22.540
705.23	24.919
705.55	19.932
705.87	23.549
706.19	25.000
706.51	22.917
706.83	26.557
707.15	23.885
707.47	25.620
707.79	25.258
708.11	23.155
708.43	26.185
708.74	20.519
709.06	21.170
709.38	20.690
709.70	24.062
710.02	28.834
710.34	21.452
710.66	23.810
710.98	20.189
711.29	19.677
711.61	24.281
711.93	22.623
712.25	22.924
712.57	19.861
712.89	22.662
713.20	26.804
713.52	22.015
713.84	22.064
714.16	26.557
714.48	21.587
714.80	24.000
715.11	20.173
715.43	28.916
715.75	23.364
716.07	22.295
716.39	20.067
716.70	26.132
717.02	25.185
717.34	25.573
717.66	27.386
717.97	20.902
718.29	26.891
718.61	25.794
718.93	23.656
719.24	19.853
719.56	23.396
719.88	21.818
720.20	21.348
720.51	28.571
720.83	22.088
721.15	24.180
721.46	24.314
721.78	23.372
722.10	23.200
722.42	21.901
722.73	24.701
723.05	26.104
723.37	28.627
723.68	20.243
724.00	29.675
724.32	20.576
724.63	21.992
724.95	28.512
725.27	17.544
725.58	20.690
725.90	25.397
726.22	24.354
726.53	22.053
726.85	19.216
727.16	21.053
727.48	22.308
727.80	19.262
728.11	26.050
728.43	22.727
728.74	26.563
729.06	22.348
729.38	20.623
729.69	22.441
730.01	21.654
730.32	20.717
730.64	24.908
730.96	28.731
731.27	25.000
731.59	24.116
731.90	19.632
732.22	21.472
732.53	24.172
732.85	20.805
733.16	22.464
733.48	21.603
733.80	25.267
734.11	23.103
734.43	23.810
734.74	26.706
735.06	20.063
735.37	24.159
735.69	20.968
736.00	24.579
736.32	21.523
736.63	20.345
736.95	21.739
737.26	24.172
737.58	20.863
737.89	25.090
738.21	22.180
738.52	24.231
738.83	24.609
739.15	24.359
739.46	23.790
739.78	21.678
740.09	22.727
740.41	25.524
740.72	25.547
741.04	25.397
741.35	20.779
741.66	17.130
741.98	22.857
742.29	22.535
742.61	24.599
742.92	26.168
743.23	19.298
743.55	22.973
743.86	29.333
744.18	20.476
744.49	24.631
744.80	24.873
745.12	24.227
745.43	28.643
745.74	21.845
746.06	23.415
746.37	25.551
746.68	25.373
747.00	17.277
747.31	20.192
747.62	20.737
747.94	20.087
748.25	28.837
748.56	21.429
748.88	21.196
749.19	25.822
749.50	26.471
749.82	28.889
750.13	31.718
750.44	27.642
750.75	22.800
751.07	23.571
751.38	22.878
751.69	25.573
752.01	24.231
752.32	24.125
752.63	23.462
752.94	21.032
753.26	19.565
753.57	22.321
753.88	25.862
754.19	19.502
754.51	24.219
754.82	18.972
755.13	23.045
755.44	25.207
755.75	27.160
756.07	20.482
756.38	17.969
756.69	21.661
757.00	24.739
757.31	22.148
757.63	26.168
757.94	21.098
758.25	23.837
758.56	26.685
758.87	23.011
759.18	23.000
759.50	22.776
759.81	16.423
760.12	19.595
760.43	22.330
760.74	25.625
761.05	24.719
761.36	24.850
761.67	26.036
761.99	20.000
762.30	24.275
762.61	22.642
762.92	27.803
763.23	23.697
763.54	20.000
763.85	27.848
764.16	22.857
764.47	20.763
764.78	25.094
765.10	29.856
765.41	19.032
765.72	21.069
766.03	22.968
766.34	22.932
766.65	21.053
766.96	20.000
767.27	25.000
767.58	19.767
767.89	23.226
768.20	22.699
768.51	21.858
768.82	27.568
769.13	21.000
769.44	25.439
769.75	23.810
770.06	24.771
770.37	22.535
770.68	10.417
770.99	25.248
771.30	23.301
771.61	22.685
771.92	28.139
772.23	21.963
772.54	20.213
772.85	14.793
773.16	25.610
773.47	29.518
773.78	25.275
774.09	22.000
774.39	19.753
774.70	20.805
775.01	20.290
775.32	14.179
775.63	13.223
775.94	22.556
776.25	13.571
776.56	30.328
776.87	32.743
777.18	27.434
777.48	10.909
777.79	7.826
778.10	31.193
778.41	22.034
778.72	19.835
779.03	25.373
779.34	27.068
779.65	22.876
779.95	26.087
780.26	13.605
780.57	7.759
780.88	23.148
781.19	4.040
781.50	14.400
781.80	25.490
782.11	23.718
782.42	17.470
782.73	10.949
783.04	16.216
783.34	19.697
783.65	24.806
783.96	21.138
784.27	26.496
784.57	17.886
784.88	19.512
785.19	23.684
785.50	3.093
785.81	18.095
786.11	11.765
786.42	17.273
786.73	18.919
787.04	14.851
787.34	10.476
787.65	10.476
787.96	17.647
788.26	19.820
788.57	20.968
788.88	22.656
789.19	21.368
789.49	26.050
789.80	18.803
790.11	23.894
790.41	13.131
790.72	19.811
791.03	-1.389
791.33	11.842
791.64	18.280
791.95	22.667
792.25	12.857
792.56	13.415
792.87	26.531
793.17	19.737
793.48	6.757
793.79	7.042
794.09	20.253
794.40	19.149
794.70	14.019
795.01	11.404
795.32	16.364
795.62	23.214
795.93	10.309
796.23	6.593
796.54	32.632
796.85	17.808
797.15	11.111
797.46	9.589
797.76	32.394
798.07	12.500
798.37	17.647
798.68	30.000
798.99	14.286
799.29	21.053
799.60	20.000
799.90	2.778
800.21	26.562
800.51	0.000
800.82	9.836
801.12	26.316
801.43	1.408
801.73	-13.559
802.04	19.672
802.34	-12.727
802.65	11.538
802.95	12.963
803.26	-2.500
803.56	7.692
803.87	-2.632
804.17	29.032
804.48	26.154
804.78	-12.821
805.09	27.907
805.39	-21.875
805.70	5.660
806.00	31.579
806.30	29.730
806.61	20.588
806.91	12.346
807.22	9.333
807.52	4.478
807.83	12.903
808.13	9.524
808.43	23.636
808.74	27.273
809.04	20.755
809.35	6.849
809.65	35.088
809.95	11.765
810.26	7.843
810.56	6.000
810.86	4.082
811.17	17.143
811.47	7.692
811.77	-6.452
812.08	-23.684
812.38	33.333
812.69	21.739
812.99	9.677
813.29	14.286
813.59	-22.222
813.90	4.255
814.20	-23.256
814.50	-2.083
814.81	26.667
815.11	17.073
815.41	-23.333
815.72	48.571
816.02	-30.556
816.32	30.769
816.62	-5.405
816.93	-14.706
817.23	19.565
817.53	-11.765
817.84	14.706
818.14	-18.750
818.44	-10.345
818.74	-9.677
819.04	7.407
819.35	16.667
819.65	-36.000
819.95	26.667
820.25	-24.000
820.56	-7.895
820.86	-12.500
821.16	27.660
821.46	17.241
821.76	-5.128
822.07	-12.500
822.37	16.279
822.67	16.667
822.97	-29.730
823.27	16.216
823.57	28.000
823.88	37.838
824.18	-76.190
824.48	0.000
824.78	-115.385
825.08	-30.435
825.38	-12.500
825.69	33.333
825.99	-35.000
826.29	13.514
826.59	-2.941
826.89	28.000
827.19	2.857
827.49	23.684
827.79	0.000
828.09	23.333
828.39	0.000
828.70	-10.345
829.00	-6.897
829.30	27.778
829.60	25.000
829.90	55.556
830.20	-46.154
830.50	-19.048
830.80	-14.286
831.10	28.205
831.40	-57.143
831.70	-23.529
832.00	8.333
832.30	21.053
832.60	-62.500
832.90	-100.000
833.20	-70.588
833.50	-113.333
833.80	26.667
834.10	25.000
834.40	-16.667
834.70	11.111
835.00	3.846
835.30	-29.167
835.60	20.690
835.90	-44.444
836.20	-90.909
836.50	-66.667
836.80	5.714
837.10	37.143
837.40	-94.118
837.70	-109.091
838.00	-4.167
838.30	-106.250
838.60	52.381
838.90	35.000
839.19	-8.696
839.49	4.348
839.79	-50.000
840.09	-43.478
840.39	-27.273
840.69	-37.500
840.99	36.842
841.29	-75.000
841.59	-14.286
841.88	-27.778
842.18	-4.167
842.48	-64.706
842.78	31.034
843.08	-14.286
843.38	7.692
843.68	-122.222
843.97	-84.615
844.27	-190.909
844.57	-160.000
844.87	-4.000
845.17	-240.000
845.47	-57.143
845.76	77.778
846.06	0.000
846.36	-350.000
846.66	-90.000
846.96	42.105
847.25	-4.167
847.55	-108.333
847.85	-20.000
848.15	-90.000
848.44	76.923
848.74	10.526
849.04	333.333
849.34	-88.889
849.63	15.789
849.93	0.000
850.23	-10.000
850.53	9.524
850.82	-12.000
851.12	-10.526
851.42	-950.000
851.71	14.286
852.01	-58.333
852.31	-29.412
852.61	6.667
852.90	-4.762
853.20	16.667
853.50	27.778
853.79	-52.632
854.09	-73.333
854.39	-3.571
854.68	30.435
854.98	-150.000
855.28	10.345
855.57	6.250
855.87	0.000
856.17	-86.667
856.46	-17.241
856.76	-66.667
857.05	0.000
857.35	-130.769
857.65	-36.364
857.94	3.704
858.24	-57.143
858.53	-42.857
858.83	-125.000
859.13	-155.556
859.42	23.810
859.72	-150.000
860.01	-200.000
860.31	-50.000
860.60	-200.000
860.90	-244.444
861.20	-87.500
861.49	-57.143
861.79	47.059
862.08	-250.000
862.38	-108.333
862.67	0.000
862.97	-11.765
863.26	65.000
863.56	-17.647
863.85	400.000
864.15	-60.000
864.44	-38.462
864.74	35.000
865.03	-125.000
865.33	-50.000
865.62	11.765
865.92	-450.000
866.21	-42.857
866.51	-41.667
866.80	200.000
867.10	-366.667
867.39	0.000
867.69	21.739
867.98	-128.571
868.27	-120.000
868.57	-68.750
868.86	-190.909
869.16	-11.765
869.45	-83.333
869.75	-114.286
870.04	900.000
870.33	-50.000
870.63	20.000
870.92	-100.000
871.22	-8.333
871.51	-18.182
871.80	-25.000
872.10	-10.000
>>>>>End Processed Spectral Data<<<<<
