SpectraSuite Data File
++++++++++++++++++++++++++++++++++++
Date: Sat May 16 11:32:04 PDT 2015
User: schluterlab
Dark Spectrum Present: Yes
Reference Spectrum Present: Yes
Number of Sampled Component Spectra: 1
Spectrometers: USB2E3373
Integration Time (usec): 3000 (USB2E3373)
Spectra Averaged: 3 (USB2E3373)
Boxcar Smoothing: 0 (USB2E3373)
Correct for Electrical Dark: No (USB2E3373)
Strobe/Lamp Enabled: No (USB2E3373)
Correct for Detector Non-linearity: No (USB2E3373)
Correct for Stray Light: No (USB2E3373)
Number of Pixels in Processed Spectrum: 2048
>>>>>Begin Processed Spectral Data<<<<<
178.53	0.000
178.91	126.667
179.29	500.000
179.67	-1400.000
180.04	-69.231
180.42	700.000
180.80	325.000
181.18	450.000
181.56	-212.500
181.94	1000.000
182.31	750.000
182.69	-38.462
183.07	-766.667
183.45	1200.000
183.83	666.667
184.20	-300.000
184.58	-162.500
184.96	-275.000
185.34	131.250
185.72	-475.000
186.09	283.333
186.47	-137.500
186.85	-150.000
187.23	-37.500
187.61	-25.000
187.98	-300.000
188.36	-87.500
188.74	-187.500
189.12	1200.000
189.49	257.143
189.87	-58.333
190.25	125.000
190.63	-107.143
191.00	22.222
191.38	500.000
191.76	13.333
192.14	560.000
192.51	-300.000
192.89	-200.000
193.27	0.000
193.65	-133.333
194.02	-242.857
194.40	600.000
194.78	-40.000
195.15	-1200.000
195.53	-90.909
195.91	-483.333
196.29	160.000
196.66	-333.333
197.04	1700.000
197.42	-250.000
197.79	-20.000
198.17	-266.667
198.55	-900.000
198.92	-300.000
199.30	237.500
199.68	-600.000
200.05	-66.667
200.43	-166.667
200.81	-1900.000
201.18	0.000
201.56	157.143
201.94	-80.000
202.31	18.182
202.69	-20.000
203.07	-60.000
203.44	800.000
203.82	-283.333
204.19	-600.000
204.57	-75.000
204.95	-1000.000
205.32	-25.000
205.70	2000.000
206.08	-2300.000
206.45	-77.778
206.83	-1000.000
207.20	-550.000
207.58	-333.333
207.96	-366.667
208.33	-150.000
208.71	-22.222
209.08	190.000
209.46	-14.286
209.84	700.000
210.21	0.000
210.59	40.000
210.96	700.000
211.34	-216.667
211.71	-133.333
212.09	300.000
212.46	1150.000
212.84	-2700.000
213.22	800.000
213.59	91.667
213.97	-22.222
214.34	150.000
214.72	-120.000
215.09	-333.333
215.47	-33.333
215.84	-20.000
216.22	-100.000
216.59	-73.333
216.97	-350.000
217.34	950.000
217.72	-157.143
218.09	-200.000
218.47	-114.286
218.84	171.429
219.22	-28.571
219.59	0.000
219.97	85.714
220.34	650.000
220.72	350.000
221.09	-53.846
221.47	0.000
221.84	366.667
222.22	-700.000
222.59	1200.000
222.97	-150.000
223.34	-500.000
223.72	-600.000
224.09	-92.857
224.46	-375.000
224.84	0.000
225.21	-242.857
225.59	-145.455
225.96	-200.000
226.34	-200.000
226.71	-88.889
227.08	65.000
227.46	1900.000
227.83	-100.000
228.21	-112.500
228.58	400.000
228.95	-56.250
229.33	-1900.000
229.70	-260.000
230.08	-1100.000
230.45	-50.000
230.82	-66.667
231.20	-1200.000
231.57	-500.000
231.95	1700.000
232.32	61.905
232.69	-144.444
233.07	-128.571
233.44	-1000.000
233.81	-26.667
234.19	-111.111
234.56	-50.000
234.93	9.375
235.31	-214.286
235.68	-142.857
236.05	-17.647
236.43	-63.636
236.80	-35.484
237.17	-12.500
237.55	-42.857
237.92	-104.545
238.29	20.000
238.67	-23.529
239.04	11.111
239.41	-22.581
239.79	-33.333
240.16	-4.762
240.53	-12.727
240.91	33.333
241.28	16.364
241.65	18.462
242.02	6.557
242.40	3.279
242.77	10.606
243.14	6.780
243.51	-5.714
243.89	24.051
244.26	10.112
244.63	17.895
245.00	11.579
245.38	16.949
245.75	19.469
246.12	10.400
246.49	25.984
246.87	13.008
247.24	11.017
247.61	11.017
247.98	15.493
248.36	10.490
248.73	25.316
249.10	18.471
249.47	23.392
249.84	26.136
250.22	16.071
250.59	18.644
250.96	17.801
251.33	26.540
251.70	25.481
252.08	23.223
252.45	19.431
252.82	24.762
253.19	20.851
253.56	20.968
253.94	21.097
254.31	21.030
254.68	25.203
255.05	22.581
255.42	23.810
255.79	18.638
256.16	23.529
256.54	24.265
256.91	21.970
257.28	17.949
257.65	24.468
258.02	19.811
258.39	20.067
258.76	18.581
259.14	22.531
259.51	23.934
259.88	23.476
260.25	23.913
260.62	23.794
260.99	21.365
261.36	22.256
261.73	26.301
262.10	25.278
262.47	23.647
262.85	28.571
263.22	23.782
263.59	24.000
263.96	22.319
264.33	23.577
264.70	24.033
265.07	22.527
265.44	24.289
265.81	23.514
266.18	23.291
266.55	25.490
266.92	26.700
267.29	25.424
267.66	22.963
268.03	26.087
268.40	25.117
268.77	21.687
269.14	21.810
269.51	25.517
269.88	20.872
270.25	22.844
270.62	24.943
270.99	22.072
271.36	23.310
271.73	23.094
272.10	24.714
272.47	22.889
272.84	22.444
273.21	23.165
273.58	21.538
273.95	20.833
274.32	23.303
274.69	23.632
275.06	23.926
275.43	26.339
275.80	23.218
276.17	22.385
276.54	26.477
276.91	23.045
277.28	25.355
277.65	25.826
278.02	25.261
278.39	24.951
278.76	23.307
279.13	24.111
279.50	23.062
279.87	25.159
280.23	23.077
280.60	22.266
280.97	22.330
281.34	25.145
281.71	21.731
282.08	24.798
282.45	23.014
282.82	24.225
283.19	22.364
283.56	21.429
283.92	23.498
284.29	22.862
284.66	22.482
285.03	22.638
285.40	23.985
285.77	22.982
286.14	23.646
286.51	23.091
286.87	23.775
287.24	26.109
287.61	22.314
287.98	20.971
288.35	20.661
288.72	19.864
289.08	21.525
289.45	21.380
289.82	21.280
290.19	23.810
290.56	19.339
290.93	20.827
291.29	22.204
291.66	20.129
292.03	21.821
292.40	20.783
292.77	20.807
293.13	22.114
293.50	18.871
293.87	19.479
294.24	20.060
294.60	17.879
294.97	19.423
295.34	18.815
295.71	19.494
296.08	17.204
296.44	18.312
296.81	18.946
297.18	18.873
297.55	19.350
297.91	20.642
298.28	17.945
298.65	18.550
299.02	20.455
299.38	18.182
299.75	18.071
300.12	17.564
300.48	18.031
300.85	16.645
301.22	18.887
301.59	18.205
301.95	18.010
302.32	16.297
302.69	18.360
303.05	17.705
303.42	17.125
303.79	17.584
304.15	17.773
304.52	16.453
304.89	18.064
305.25	17.949
305.62	16.451
305.99	19.552
306.35	18.424
306.72	17.995
307.09	18.275
307.45	16.686
307.82	16.425
308.19	17.226
308.55	16.776
308.92	18.690
309.29	16.649
309.65	16.543
310.02	16.631
310.38	16.649
310.75	17.520
311.12	17.355
311.48	17.432
311.85	17.611
312.22	16.993
312.58	18.413
312.95	17.329
313.31	18.082
313.68	19.497
314.05	19.585
314.41	18.813
314.78	17.582
315.14	19.645
315.51	18.136
315.87	19.361
316.24	18.659
316.61	19.866
316.97	20.995
317.34	20.713
317.70	21.336
318.07	22.481
318.43	20.787
318.80	22.723
319.16	21.670
319.53	21.898
319.89	20.978
320.26	22.941
320.62	20.962
320.99	22.488
321.35	21.773
321.72	22.620
322.08	25.124
322.45	25.050
322.81	26.225
323.18	26.033
323.54	26.895
323.91	26.877
324.27	27.281
324.64	28.062
325.00	27.138
325.37	28.869
325.73	30.009
326.10	30.647
326.46	29.597
326.83	31.489
327.19	33.445
327.56	34.072
327.92	34.410
328.29	35.584
328.65	34.909
329.01	36.926
329.38	36.218
329.74	38.004
330.11	37.806
330.47	37.148
330.84	40.055
331.20	40.794
331.56	40.747
331.93	41.829
332.29	42.831
332.66	42.230
333.02	42.896
333.38	44.892
333.75	44.346
334.11	42.933
334.48	44.131
334.84	44.269
335.20	44.858
335.57	47.112
335.93	47.807
336.29	46.413
336.66	45.463
337.02	47.027
337.38	45.633
337.75	46.620
338.11	47.853
338.47	47.865
338.84	47.459
339.20	47.803
339.56	48.930
339.93	46.914
340.29	47.210
340.65	47.815
341.02	47.555
341.38	48.694
341.74	49.450
342.11	48.464
342.47	49.700
342.83	49.454
343.20	47.737
343.56	46.939
343.92	49.416
344.28	50.378
344.65	45.792
345.01	49.076
345.37	48.007
345.73	48.036
346.10	47.915
346.46	47.685
346.82	48.196
347.19	47.905
347.55	48.234
347.91	49.134
348.27	47.892
348.63	49.758
349.00	47.892
349.36	46.604
349.72	49.443
350.08	48.516
350.45	49.961
350.81	48.248
351.17	48.151
351.53	46.539
351.89	48.019
352.26	49.767
352.62	48.003
352.98	48.497
353.34	50.120
353.70	47.876
354.07	48.702
354.43	48.538
354.79	48.257
355.15	49.681
355.51	48.984
355.87	48.063
356.24	49.245
356.60	51.168
356.96	48.191
357.32	48.614
357.68	48.352
358.04	48.807
358.40	48.337
358.77	50.077
359.13	48.661
359.49	48.677
359.85	48.552
360.21	48.554
360.57	50.452
360.93	50.519
361.29	50.149
361.66	49.543
362.02	49.186
362.38	50.110
362.74	50.842
363.10	49.857
363.46	50.570
363.82	49.708
364.18	50.217
364.54	50.965
364.90	50.384
365.26	50.285
365.62	50.891
365.98	51.422
366.35	50.634
366.71	49.190
367.07	51.164
367.43	50.309
367.79	49.759
368.15	51.138
368.51	50.070
368.87	50.481
369.23	50.667
369.59	50.278
369.95	52.079
370.31	50.985
370.67	51.193
371.03	51.603
371.39	51.061
371.75	51.788
372.11	52.080
372.47	51.627
372.83	52.086
373.19	51.786
373.55	51.443
373.91	52.205
374.27	51.882
374.63	52.174
374.99	53.408
375.35	50.538
375.71	53.005
376.07	52.909
376.42	52.185
376.78	52.222
377.14	53.356
377.50	52.869
377.86	53.251
378.22	53.392
378.58	52.687
378.94	52.836
379.30	53.748
379.66	53.248
380.02	53.179
380.38	54.562
380.74	53.107
381.09	52.958
381.45	54.117
381.81	53.902
382.17	52.506
382.53	53.617
382.89	53.589
383.25	54.485
383.61	53.420
383.97	53.889
384.32	55.319
384.68	55.018
385.04	54.106
385.40	53.865
385.76	54.756
386.12	54.154
386.48	55.941
386.83	54.417
387.19	55.469
387.55	53.907
387.91	53.646
388.27	53.559
388.62	54.087
388.98	54.573
389.34	54.223
389.70	54.446
390.06	54.692
390.42	55.833
390.77	54.322
391.13	54.907
391.49	55.646
391.85	54.177
392.20	54.005
392.56	55.223
392.92	54.820
393.28	55.109
393.64	55.803
393.99	55.262
394.35	54.501
394.71	53.984
395.07	54.991
395.42	53.635
395.78	51.917
396.14	54.704
396.50	53.517
396.85	54.658
397.21	54.496
397.57	55.015
397.92	53.923
398.28	53.722
398.64	53.421
399.00	55.000
399.35	54.848
399.71	55.807
400.07	54.567
400.42	55.353
400.78	53.488
401.14	54.311
401.49	53.007
401.85	55.156
402.21	53.278
402.57	54.915
402.92	55.129
403.28	53.125
403.63	52.187
403.99	54.444
404.35	52.717
404.70	53.365
405.06	52.999
405.42	52.706
405.77	53.507
406.13	53.265
406.49	53.146
406.84	53.689
407.20	53.828
407.55	53.578
407.91	52.137
408.27	53.431
408.62	53.217
408.98	52.699
409.34	52.224
409.69	53.056
410.05	53.669
410.40	53.035
410.76	53.527
411.11	53.741
411.47	52.941
411.83	52.934
412.18	52.661
412.54	52.105
412.89	52.795
413.25	52.420
413.60	52.552
413.96	53.050
414.31	52.966
414.67	53.587
415.03	51.811
415.38	53.351
415.74	52.642
416.09	53.900
416.45	52.579
416.80	52.926
417.16	53.355
417.51	53.381
417.87	53.528
418.22	52.655
418.58	52.824
418.93	53.219
419.29	53.513
419.64	53.078
420.00	54.678
420.35	53.578
420.71	54.682
421.06	54.024
421.42	53.162
421.77	53.210
422.12	54.729
422.48	53.661
422.83	53.645
423.19	54.120
423.54	55.735
423.90	53.268
424.25	54.468
424.61	55.308
424.96	55.003
425.31	54.444
425.67	54.785
426.02	55.651
426.38	55.596
426.73	55.991
427.09	56.801
427.44	55.966
427.79	55.756
428.15	57.331
428.50	57.654
428.85	56.715
429.21	56.669
429.56	56.354
429.92	56.413
430.27	57.129
430.62	56.270
430.98	56.613
431.33	56.350
431.68	57.373
432.04	58.702
432.39	58.462
432.74	57.314
433.10	58.920
433.45	58.089
433.80	58.119
434.16	58.571
434.51	58.904
434.86	59.578
435.22	58.686
435.57	59.119
435.92	58.792
436.28	58.694
436.63	58.564
436.98	58.477
437.34	59.894
437.69	59.568
438.04	58.877
438.39	59.868
438.75	59.313
439.10	59.411
439.45	59.686
439.81	60.181
440.16	59.171
440.51	61.059
440.86	60.613
441.22	59.093
441.57	60.526
441.92	60.870
442.27	61.310
442.63	61.052
442.98	60.892
443.33	61.285
443.68	60.240
444.03	61.739
444.39	61.821
444.74	62.775
445.09	61.020
445.44	61.621
445.79	62.468
446.15	61.446
446.50	61.296
446.85	61.416
447.20	61.083
447.55	60.829
447.91	62.549
448.26	61.788
448.61	61.630
448.96	63.025
449.31	62.345
449.66	62.679
450.02	61.385
450.37	63.710
450.72	62.712
451.07	64.991
451.42	62.020
451.77	63.674
452.12	64.064
452.47	63.476
452.83	63.658
453.18	64.200
453.53	65.299
453.88	64.294
454.23	63.362
454.58	63.331
454.93	64.421
455.28	64.882
455.63	64.742
455.98	63.976
456.34	63.659
456.69	65.541
457.04	64.720
457.39	63.337
457.74	64.619
458.09	64.211
458.44	64.030
458.79	62.892
459.14	64.689
459.49	64.831
459.84	65.037
460.19	63.902
460.54	63.884
460.89	64.742
461.24	64.177
461.59	64.537
461.94	64.736
462.29	64.264
462.64	66.996
462.99	65.797
463.34	64.348
463.69	65.649
464.04	63.855
464.39	65.054
464.74	64.716
465.09	63.620
465.44	66.103
465.79	64.975
466.14	65.075
466.49	65.285
466.84	65.786
467.19	65.835
467.54	64.684
467.89	65.906
468.24	65.618
468.59	65.584
468.94	67.395
469.29	67.057
469.64	66.442
469.99	66.644
470.34	66.667
470.68	67.805
471.03	67.653
471.38	67.431
471.73	67.133
472.08	66.867
472.43	66.731
472.78	67.933
473.13	67.263
473.48	67.390
473.83	67.432
474.17	67.962
474.52	68.095
474.87	67.191
475.22	66.431
475.57	66.222
475.92	67.495
476.27	66.343
476.61	66.761
476.96	68.083
477.31	68.084
477.66	67.405
478.01	67.747
478.36	67.260
478.70	67.485
479.05	68.091
479.40	68.549
479.75	67.890
480.10	68.006
480.45	66.248
480.79	68.312
481.14	68.440
481.49	68.054
481.84	66.898
482.19	68.159
482.53	68.229
482.88	67.679
483.23	67.840
483.58	67.068
483.92	69.326
484.27	67.479
484.62	66.609
484.97	66.368
485.31	65.408
485.66	62.976
486.01	63.640
486.36	65.006
486.70	67.030
487.05	66.042
487.40	66.186
487.75	66.002
488.09	65.750
488.44	67.659
488.79	66.643
489.13	67.478
489.48	67.863
489.83	68.603
490.17	67.871
490.52	69.384
490.87	68.961
491.22	70.014
491.56	68.426
491.91	69.323
492.26	69.104
492.60	69.077
492.95	68.491
493.30	68.556
493.64	68.782
493.99	69.598
494.34	70.524
494.68	69.850
495.03	70.459
495.37	71.042
495.72	69.646
496.07	69.733
496.41	70.774
496.76	69.406
497.11	70.702
497.45	70.546
497.80	71.386
498.14	70.629
498.49	70.618
498.84	69.272
499.18	71.637
499.53	71.408
499.87	71.622
500.22	71.373
500.56	71.936
500.91	70.985
501.26	70.936
501.60	70.920
501.95	71.208
502.29	70.808
502.64	70.486
502.98	70.436
503.33	70.959
503.67	69.875
504.02	71.753
504.36	69.951
504.71	70.669
505.06	71.593
505.40	71.008
505.75	71.138
506.09	72.750
506.44	70.677
506.78	71.902
507.13	72.194
507.47	71.727
507.82	71.038
508.16	73.057
508.51	71.716
508.85	72.723
509.19	72.423
509.54	72.093
509.88	72.979
510.23	72.170
510.57	72.646
510.92	73.201
511.26	73.259
511.61	72.462
511.95	71.983
512.30	73.722
512.64	73.456
512.98	73.707
513.33	73.421
513.67	71.971
514.02	74.161
514.36	72.964
514.70	71.986
515.05	73.528
515.39	73.818
515.74	74.869
516.08	75.504
516.42	74.618
516.77	75.101
517.11	74.256
517.46	75.837
517.80	75.511
518.14	74.698
518.49	75.971
518.83	74.777
519.17	74.719
519.52	74.263
519.86	75.149
520.20	77.934
520.55	76.062
520.89	74.890
521.23	74.908
521.58	75.987
521.92	76.187
522.26	75.492
522.61	75.792
522.95	76.197
523.29	75.298
523.64	76.015
523.98	76.894
524.32	75.487
524.66	75.155
525.01	75.658
525.35	76.095
525.69	76.578
526.04	76.436
526.38	76.384
526.72	75.415
527.06	77.865
527.41	76.106
527.75	73.795
528.09	76.307
528.43	78.295
528.78	76.005
529.12	77.145
529.46	76.611
529.80	77.082
530.15	75.338
530.49	75.291
530.83	76.817
531.17	76.162
531.51	75.687
531.86	75.313
532.20	77.193
532.54	76.337
532.88	75.165
533.22	76.537
533.57	76.632
533.91	73.346
534.25	74.419
534.59	74.391
534.93	75.482
535.27	74.386
535.62	75.831
535.96	75.307
536.30	75.131
536.64	74.967
536.98	77.331
537.32	76.158
537.66	75.085
538.01	78.076
538.35	76.284
538.69	75.201
539.03	75.829
539.37	76.580
539.71	76.985
540.05	76.011
540.39	77.909
540.73	78.369
541.07	76.776
541.42	74.949
541.76	73.621
542.10	75.827
542.44	75.483
542.78	75.712
543.12	75.628
543.46	74.932
543.80	75.184
544.14	75.756
544.48	76.181
544.82	76.590
545.16	76.123
545.50	75.976
545.84	76.773
546.18	75.243
546.52	77.809
546.86	77.422
547.20	75.668
547.54	73.898
547.88	75.116
548.22	75.098
548.56	76.152
548.90	76.213
549.24	76.664
549.58	76.429
549.92	76.749
550.26	76.951
550.60	75.178
550.94	77.591
551.28	77.427
551.62	76.145
551.96	77.569
552.30	74.983
552.64	76.003
552.98	77.786
553.32	78.066
553.66	78.226
554.00	76.830
554.34	77.040
554.68	76.389
555.02	77.135
555.36	76.636
555.69	75.860
556.03	77.404
556.37	77.738
556.71	76.807
557.05	77.975
557.39	78.916
557.73	77.899
558.07	80.256
558.41	78.684
558.75	77.567
559.08	78.521
559.42	78.714
559.76	79.371
560.10	78.822
560.44	79.118
560.78	78.219
561.12	77.088
561.45	77.945
561.79	78.188
562.13	79.032
562.47	76.120
562.81	78.430
563.15	77.117
563.48	77.402
563.82	77.823
564.16	77.485
564.50	76.613
564.84	76.786
565.17	76.592
565.51	78.096
565.85	80.122
566.19	77.734
566.52	77.365
566.86	76.169
567.20	76.877
567.54	77.023
567.88	74.874
568.21	75.112
568.55	76.034
568.89	74.205
569.23	72.281
569.56	71.375
569.90	72.777
570.24	72.304
570.57	70.264
570.91	70.656
571.25	70.947
571.59	70.309
571.92	68.810
572.26	69.802
572.60	69.811
572.93	68.411
573.27	68.262
573.61	68.311
573.95	67.882
574.28	67.452
574.62	67.921
574.96	68.470
575.29	67.835
575.63	69.392
575.97	66.613
576.30	67.388
576.64	68.042
576.98	68.126
577.31	67.890
577.65	67.748
577.98	67.843
578.32	67.544
578.66	67.875
578.99	68.307
579.33	68.174
579.67	67.487
580.00	67.411
580.34	67.784
580.67	68.840
581.01	66.316
581.35	67.705
581.68	66.412
582.02	66.605
582.35	67.894
582.69	68.444
583.02	68.214
583.36	68.398
583.70	68.433
584.03	69.801
584.37	69.905
584.70	68.173
585.04	67.747
585.37	68.115
585.71	68.505
586.04	69.225
586.38	68.217
586.72	68.912
587.05	69.640
587.39	68.506
587.72	69.259
588.06	70.646
588.39	69.695
588.73	69.463
589.06	71.132
589.40	70.629
589.73	71.601
590.07	70.393
590.40	71.255
590.73	73.011
591.07	72.254
591.40	73.614
591.74	72.676
592.07	71.847
592.41	72.824
592.74	71.253
593.08	70.546
593.41	70.888
593.75	70.821
594.08	72.933
594.41	73.013
594.75	71.801
595.08	73.008
595.42	72.507
595.75	72.290
596.09	73.108
596.42	74.304
596.75	73.178
597.09	73.464
597.42	72.501
597.75	72.985
598.09	73.430
598.42	71.631
598.76	71.387
599.09	72.573
599.42	73.203
599.76	71.725
600.09	72.443
600.42	71.401
600.76	72.618
601.09	70.984
601.42	71.587
601.76	72.313
602.09	71.616
602.42	73.169
602.76	72.497
603.09	71.815
603.42	72.482
603.76	73.714
604.09	72.887
604.42	71.857
604.76	73.266
605.09	73.508
605.42	73.493
605.75	73.609
606.09	71.980
606.42	72.015
606.75	71.103
607.09	73.048
607.42	72.579
607.75	72.715
608.08	72.571
608.42	75.497
608.75	72.150
609.08	74.623
609.41	74.589
609.75	72.647
610.08	73.873
610.41	75.373
610.74	74.662
611.07	74.189
611.41	73.626
611.74	74.602
612.07	75.295
612.40	74.627
612.73	75.283
613.07	75.784
613.40	77.011
613.73	76.022
614.06	74.300
614.39	77.114
614.72	74.525
615.06	73.804
615.39	73.793
615.72	75.720
616.05	75.041
616.38	76.785
616.71	74.895
617.05	77.925
617.38	76.780
617.71	77.457
618.04	77.329
618.37	76.981
618.70	78.488
619.03	76.642
619.36	79.422
619.69	77.459
620.03	77.066
620.36	77.567
620.69	79.110
621.02	78.767
621.35	80.484
621.68	80.164
622.01	80.987
622.34	80.668
622.67	80.078
623.00	78.577
623.33	79.925
623.66	79.099
623.99	79.850
624.32	79.167
624.65	77.999
624.99	79.238
625.32	78.518
625.65	80.808
625.98	79.812
626.31	80.179
626.64	81.339
626.97	82.021
627.30	81.021
627.63	81.347
627.96	80.766
628.29	82.813
628.62	83.763
628.95	84.941
629.28	82.801
629.61	85.378
629.94	81.474
630.26	85.785
630.59	85.729
630.92	84.484
631.25	81.855
631.58	85.397
631.91	84.787
632.24	88.000
632.57	84.667
632.90	87.241
633.23	86.215
633.56	85.614
633.89	85.967
634.22	85.360
634.55	89.663
634.88	85.732
635.20	86.642
635.53	89.440
635.86	85.894
636.19	86.081
636.52	85.424
636.85	84.838
637.18	84.625
637.51	86.989
637.83	86.551
638.16	88.947
638.49	88.138
638.82	87.259
639.15	87.030
639.48	86.641
639.81	90.456
640.13	89.730
640.46	88.889
640.79	89.216
641.12	88.999
641.45	89.527
641.77	92.665
642.10	89.879
642.43	90.440
642.76	89.449
643.09	92.381
643.41	90.159
643.74	94.436
644.07	87.832
644.40	89.627
644.73	92.244
645.05	90.317
645.38	93.377
645.71	94.158
646.04	88.908
646.36	92.147
646.69	90.311
647.02	96.390
647.35	94.946
647.67	91.971
648.00	93.497
648.33	91.231
648.66	86.452
648.98	91.561
649.31	86.769
649.64	91.875
649.96	87.127
650.29	88.525
650.62	93.460
650.94	89.545
651.27	92.028
651.60	92.561
651.92	91.781
652.25	86.644
652.58	90.801
652.90	87.480
653.23	85.968
653.56	86.455
653.88	86.230
654.21	92.450
654.54	89.867
654.86	83.788
655.19	83.238
655.52	77.627
655.84	67.912
656.17	72.447
656.49	96.096
656.82	98.819
657.15	75.665
657.47	56.921
657.80	43.617
658.13	50.006
658.45	67.673
658.78	67.563
659.10	66.750
659.43	66.442
659.75	67.663
660.08	68.229
660.41	69.540
660.73	76.238
661.06	80.435
661.38	92.679
661.71	88.337
662.03	91.331
662.36	95.736
662.68	88.819
663.01	94.480
663.33	98.413
663.66	93.991
663.98	95.089
664.31	94.855
664.63	93.363
664.96	91.323
665.28	95.445
665.61	91.543
665.93	92.593
666.26	90.486
666.58	88.358
666.91	95.991
667.23	91.228
667.56	94.558
667.88	91.176
668.21	92.166
668.53	93.692
668.86	95.612
669.18	91.324
669.50	94.159
669.83	93.917
670.15	90.135
670.48	90.888
670.80	92.027
671.13	93.228
671.45	89.414
671.77	90.364
672.10	86.391
672.42	86.162
672.75	85.273
673.07	83.423
673.39	86.521
673.72	89.370
674.04	90.658
674.37	91.134
674.69	89.754
675.01	86.809
675.34	88.286
675.66	89.849
675.98	88.767
676.31	93.665
676.63	90.805
676.95	90.708
677.28	92.111
677.60	91.629
677.92	91.850
678.25	86.214
678.57	88.477
678.89	84.486
679.22	87.631
679.54	87.377
679.86	85.200
680.18	86.312
680.51	82.123
680.83	85.333
681.15	84.008
681.48	89.452
681.80	84.274
682.12	85.513
682.44	82.711
682.77	86.797
683.09	88.470
683.41	86.283
683.73	88.584
684.06	86.667
684.38	85.983
684.70	86.626
685.02	83.661
685.34	82.846
685.67	86.174
685.99	85.444
686.31	82.944
686.63	77.128
686.96	81.885
687.28	81.888
687.60	85.156
687.92	81.712
688.24	83.858
688.56	81.162
688.89	82.051
689.21	84.902
689.53	90.345
689.85	86.414
690.17	85.426
690.49	89.607
690.82	88.675
691.14	86.792
691.46	86.031
691.78	85.242
692.10	85.381
692.42	84.889
692.74	82.618
693.06	84.494
693.39	83.893
693.71	84.199
694.03	83.585
694.35	79.684
694.67	84.161
694.99	86.957
695.31	85.969
695.63	85.204
695.95	88.586
696.27	85.037
696.59	87.166
696.91	94.663
697.23	86.719
697.56	85.096
697.88	80.405
698.20	81.370
698.52	80.717
698.84	86.650
699.16	80.238
699.48	83.750
699.80	81.704
700.12	80.353
700.44	86.592
700.76	85.714
701.08	87.500
701.40	86.405
701.72	87.654
702.04	91.026
702.36	87.952
702.68	88.323
703.00	84.348
703.32	83.954
703.64	87.059
703.96	85.465
704.28	81.657
704.60	89.241
704.91	83.810
705.23	86.731
705.55	88.514
705.87	89.420
706.19	89.931
706.51	89.236
706.83	91.475
707.15	86.624
707.47	82.645
707.79	81.186
708.11	76.845
708.43	80.549
708.74	78.182
709.06	79.666
709.38	81.897
709.70	82.813
710.02	86.503
710.34	86.469
710.66	80.000
710.98	82.334
711.29	80.323
711.61	79.553
711.93	85.574
712.25	85.382
712.57	83.624
712.89	87.050
713.20	85.567
713.52	91.418
713.84	83.274
714.16	85.902
714.48	80.952
714.80	79.077
715.11	81.844
715.43	79.217
715.75	81.931
716.07	84.918
716.39	86.288
716.70	83.624
717.02	84.444
717.34	85.878
717.66	86.307
717.97	84.836
718.29	86.975
718.61	84.524
718.93	76.344
719.24	79.412
719.56	76.604
719.88	82.545
720.20	79.401
720.51	86.090
720.83	82.731
721.15	81.967
721.46	83.529
721.78	77.778
722.10	82.400
722.42	87.603
722.73	80.876
723.05	82.329
723.37	82.353
723.68	77.328
724.00	79.675
724.32	81.070
724.63	80.083
724.95	83.058
725.27	77.193
725.58	87.069
725.90	81.349
726.22	85.240
726.53	79.087
726.85	74.510
727.16	80.827
727.48	78.077
727.80	79.508
728.11	82.353
728.43	82.231
728.74	78.125
729.06	79.167
729.38	77.043
729.69	78.740
730.01	76.772
730.32	85.657
730.64	81.319
730.96	81.716
731.27	76.071
731.59	73.633
731.90	69.939
732.22	66.871
732.53	79.470
732.85	72.819
733.16	79.710
733.48	69.686
733.80	74.021
734.11	74.828
734.43	72.789
734.74	71.513
735.06	76.176
735.37	73.089
735.69	73.226
736.00	73.064
736.32	71.854
736.63	71.034
736.95	75.725
737.26	68.212
737.58	73.381
737.89	78.136
738.21	73.308
738.52	79.231
738.83	78.516
739.15	75.641
739.46	79.032
739.78	74.126
740.09	74.825
740.41	75.524
740.72	74.818
741.04	71.825
741.35	76.190
741.66	81.944
741.98	70.476
742.29	73.709
742.61	79.679
742.92	82.710
743.23	73.246
743.55	73.423
743.86	72.000
744.18	74.762
744.49	77.340
744.80	83.249
745.12	77.835
745.43	75.377
745.74	78.641
746.06	76.585
746.37	75.330
746.68	82.090
747.00	74.869
747.31	75.962
747.62	68.664
747.94	70.742
748.25	76.279
748.56	74.762
748.88	73.370
749.19	75.117
749.50	81.373
749.82	75.556
750.13	76.652
750.44	73.577
750.75	78.000
751.07	71.786
751.38	74.539
751.69	74.046
752.01	71.923
752.32	73.152
752.63	70.769
752.94	69.048
753.26	71.739
753.57	79.018
753.88	74.138
754.19	67.635
754.51	66.797
754.82	70.751
755.13	72.016
755.44	72.314
755.75	75.720
756.07	72.691
756.38	67.578
756.69	74.368
757.00	68.641
757.31	73.154
757.63	67.601
757.94	66.474
758.25	67.151
758.56	69.811
758.87	66.761
759.18	68.667
759.50	71.886
759.81	66.423
760.12	64.189
760.43	72.168
760.74	73.437
761.05	66.011
761.36	68.563
761.67	69.231
761.99	62.258
762.30	71.377
762.61	63.019
762.92	80.269
763.23	69.668
763.54	67.556
763.85	73.840
764.16	75.918
764.47	71.610
764.78	71.536
765.10	67.986
765.41	69.677
765.72	64.151
766.03	64.664
766.34	67.669
766.65	65.182
766.96	71.500
767.27	71.875
767.58	70.349
767.89	70.323
768.20	80.982
768.51	73.224
768.82	74.054
769.13	64.000
769.44	63.158
769.75	69.697
770.06	72.018
770.37	66.667
770.68	64.583
770.99	67.822
771.30	64.563
771.61	71.296
771.92	63.203
772.23	68.224
772.54	66.489
772.85	58.580
773.16	75.000
773.47	70.482
773.78	69.780
774.09	68.667
774.39	72.222
774.70	61.745
775.01	72.464
775.32	68.657
775.63	61.157
775.94	75.188
776.25	67.857
776.56	77.049
776.87	73.451
777.18	69.027
777.48	72.727
777.79	73.913
778.10	66.055
778.41	75.424
778.72	61.157
779.03	66.418
779.34	71.429
779.65	65.359
779.95	70.290
780.26	59.184
780.57	63.793
780.88	72.222
781.19	65.657
781.50	62.400
781.80	56.209
782.11	61.538
782.42	56.024
782.73	56.204
783.04	63.514
783.34	59.848
783.65	55.814
783.96	74.797
784.27	76.923
784.57	59.350
784.88	56.911
785.19	65.789
785.50	47.423
785.81	60.952
786.11	65.686
786.42	62.727
786.73	69.369
787.04	68.317
787.34	62.857
787.65	60.952
787.96	57.843
788.26	65.766
788.57	66.129
788.88	53.125
789.19	69.231
789.49	50.420
789.80	59.829
790.11	66.372
790.41	57.576
790.72	57.547
791.03	72.222
791.33	81.579
791.64	66.667
791.95	52.000
792.25	71.429
792.56	68.293
792.87	65.306
793.17	60.526
793.48	50.000
793.79	46.479
794.09	63.291
794.40	72.340
794.70	53.271
795.01	50.000
795.32	40.000
795.62	58.929
795.93	62.887
796.23	56.044
796.54	67.368
796.85	47.945
797.15	50.000
797.46	64.384
797.76	53.521
798.07	62.500
798.37	58.824
798.68	75.714
798.99	67.143
799.29	69.737
799.60	75.000
799.90	47.222
800.21	31.250
800.51	57.143
800.82	54.098
801.12	50.877
801.43	36.620
801.73	44.068
802.04	59.016
802.34	56.364
802.65	48.077
802.95	51.852
803.26	50.000
803.56	63.462
803.87	47.368
804.17	46.774
804.48	52.308
804.78	58.974
805.09	60.465
805.39	68.750
805.70	32.075
806.00	66.667
806.30	64.865
806.61	55.882
806.91	45.679
807.22	44.000
807.52	65.672
807.83	53.226
808.13	36.508
808.43	49.091
808.74	48.485
809.04	43.396
809.35	64.384
809.65	73.684
809.95	48.529
810.26	54.902
810.56	34.000
810.86	44.898
811.17	57.143
811.47	30.769
811.77	61.290
812.08	15.789
812.38	38.095
812.69	23.913
812.99	100.000
813.29	50.000
813.59	29.630
813.90	68.085
814.20	41.860
814.50	47.917
814.81	40.000
815.11	46.341
815.41	60.000
815.72	62.857
816.02	33.333
816.32	61.538
816.62	51.351
816.93	0.000
817.23	41.304
817.53	55.882
817.84	38.235
818.14	9.375
818.44	37.931
818.74	35.484
819.04	48.148
819.35	60.000
819.65	0.000
819.95	20.000
820.25	36.000
820.56	39.474
820.86	12.500
821.16	51.064
821.46	37.931
821.76	20.513
822.07	7.500
822.37	25.581
822.67	40.000
822.97	51.351
823.27	45.946
823.57	68.000
823.88	24.324
824.18	-4.762
824.48	46.154
824.78	-7.692
825.08	65.217
825.38	16.667
825.69	37.500
825.99	25.000
826.29	8.108
826.59	35.294
826.89	84.000
827.19	42.857
827.49	23.684
827.79	9.375
828.09	43.333
828.39	60.870
828.70	10.345
829.00	24.138
829.30	41.667
829.60	50.000
829.90	22.222
830.20	46.154
830.50	-28.571
830.80	0.000
831.10	28.205
831.40	23.810
831.70	26.471
832.00	33.333
832.30	26.316
832.60	-6.250
832.90	-66.667
833.20	-64.706
833.50	-20.000
833.80	26.667
834.10	-30.000
834.40	58.333
834.70	100.000
835.00	38.462
835.30	4.167
835.60	27.586
835.90	5.556
836.20	-45.455
836.50	0.000
836.80	40.000
837.10	60.000
837.40	17.647
837.70	-36.364
838.00	45.833
838.30	-18.750
838.60	4.762
838.90	75.000
839.19	13.043
839.49	43.478
839.79	-27.778
840.09	-34.783
840.39	-81.818
840.69	0.000
840.99	-5.263
841.29	-75.000
841.59	28.571
841.88	16.667
842.18	16.667
842.48	-17.647
842.78	0.000
843.08	-64.286
843.38	-53.846
843.68	55.556
843.97	-7.692
844.27	-81.818
844.57	-140.000
844.87	36.000
845.17	-100.000
845.47	14.286
845.76	-22.222
846.06	0.000
846.36	-225.000
846.66	-110.000
846.96	-42.105
847.25	-25.000
847.55	-100.000
847.85	-6.667
848.15	-50.000
848.44	57.692
848.74	-36.842
849.04	300.000
849.34	33.333
849.63	-63.158
849.93	0.000
850.23	-15.000
850.53	28.571
850.82	-4.000
851.12	-21.053
851.42	-750.000
851.71	-64.286
852.01	-50.000
852.31	-23.529
852.61	46.667
852.90	-19.048
853.20	16.667
853.50	-27.778
853.79	-31.579
854.09	-40.000
854.39	17.857
854.68	17.391
854.98	-125.000
855.28	-6.897
855.57	-50.000
855.87	0.000
856.17	-46.667
856.46	-3.448
856.76	60.000
857.05	-23.529
857.35	-107.692
857.65	-9.091
857.94	-11.111
858.24	-78.571
858.53	-78.571
858.83	-58.333
859.13	-177.778
859.42	-4.762
859.72	-25.000
860.01	-466.667
860.31	-100.000
860.60	-280.000
860.90	-100.000
861.20	-250.000
861.49	-228.571
861.79	-35.294
862.08	-150.000
862.38	-108.333
862.67	-15.385
862.97	5.882
863.26	45.000
863.56	-82.353
863.85	466.667
864.15	-30.000
864.44	-84.615
864.74	-5.000
865.03	-137.500
865.33	-166.667
865.62	-5.882
865.92	-500.000
866.21	-107.143
866.51	-66.667
866.80	-800.000
867.10	-166.667
867.39	-5.882
867.69	-26.087
867.98	-142.857
868.27	-380.000
868.57	-31.250
868.86	-190.909
869.16	35.294
869.45	-83.333
869.75	-171.429
870.04	1400.000
870.33	-25.000
870.63	20.000
870.92	-66.667
871.22	-16.667
871.51	-54.545
871.80	8.333
872.10	-50.000
>>>>>End Processed Spectral Data<<<<<
