SpectraSuite Data File
++++++++++++++++++++++++++++++++++++
Date: Sat May 16 11:31:56 PDT 2015
User: schluterlab
Dark Spectrum Present: Yes
Reference Spectrum Present: Yes
Number of Sampled Component Spectra: 1
Spectrometers: USB2E3373
Integration Time (usec): 3000 (USB2E3373)
Spectra Averaged: 3 (USB2E3373)
Boxcar Smoothing: 0 (USB2E3373)
Correct for Electrical Dark: No (USB2E3373)
Strobe/Lamp Enabled: No (USB2E3373)
Correct for Detector Non-linearity: No (USB2E3373)
Correct for Stray Light: No (USB2E3373)
Number of Pixels in Processed Spectrum: 2048
>>>>>Begin Processed Spectral Data<<<<<
178.53	0.000
178.91	166.667
179.29	600.000
179.67	-900.000
180.04	-76.923
180.42	700.000
180.80	100.000
181.18	600.000
181.56	-25.000
181.94	800.000
182.31	325.000
182.69	30.769
183.07	-100.000
183.45	950.000
183.83	433.333
184.20	-242.857
184.58	-200.000
184.96	-350.000
185.34	125.000
185.72	-475.000
186.09	333.333
186.47	-125.000
186.85	-225.000
187.23	-62.500
187.61	50.000
187.98	-175.000
188.36	-62.500
188.74	-287.500
189.12	1500.000
189.49	328.571
189.87	-100.000
190.25	350.000
190.63	-78.571
191.00	-211.111
191.38	280.000
191.76	73.333
192.14	580.000
192.51	-180.000
192.89	-100.000
193.27	0.000
193.65	-22.222
194.02	-314.286
194.40	500.000
194.78	-90.000
195.15	-2000.000
195.53	-54.545
195.91	-400.000
196.29	240.000
196.66	-600.000
197.04	2800.000
197.42	-150.000
197.79	-20.000
198.17	-233.333
198.55	-800.000
198.92	-3000.000
199.30	200.000
199.68	-300.000
200.05	-133.333
200.43	-288.889
200.81	-800.000
201.18	-50.000
201.56	285.714
201.94	-126.667
202.31	31.818
202.69	10.000
203.07	-90.000
203.44	466.667
203.82	-350.000
204.19	-300.000
204.57	-350.000
204.95	-1200.000
205.32	-12.500
205.70	1900.000
206.08	-1200.000
206.45	-44.444
206.83	-1350.000
207.20	-150.000
207.58	-400.000
207.96	-366.667
208.33	-212.500
208.71	-211.111
209.08	180.000
209.46	-228.571
209.84	800.000
210.21	0.000
210.59	45.000
210.96	1100.000
211.34	-200.000
211.71	-266.667
212.09	500.000
212.46	1050.000
212.84	-3100.000
213.22	466.667
213.59	166.667
213.97	-88.889
214.34	250.000
214.72	-90.000
215.09	-500.000
215.47	-150.000
215.84	-110.000
216.22	-100.000
216.59	-73.333
216.97	-450.000
217.34	950.000
217.72	-171.429
218.09	-133.333
218.47	-185.714
218.84	157.143
219.22	-42.857
219.59	0.000
219.97	357.143
220.34	450.000
220.72	250.000
221.09	-46.154
221.47	0.000
221.84	233.333
222.22	-1000.000
222.59	1900.000
222.97	-225.000
223.34	-600.000
223.72	-400.000
224.09	-7.143
224.46	-575.000
224.84	-57.143
225.21	-228.571
225.59	-118.182
225.96	-50.000
226.34	-114.286
226.71	-211.111
227.08	-35.000
227.46	2200.000
227.83	-314.286
228.21	-150.000
228.58	400.000
228.95	-50.000
229.33	-1400.000
229.70	-240.000
230.08	-1150.000
230.45	-8.333
230.82	-150.000
231.20	-1700.000
231.57	-250.000
231.95	1100.000
232.32	-23.810
232.69	-88.889
233.07	-257.143
233.44	-700.000
233.81	-86.667
234.19	-200.000
234.56	-100.000
234.93	21.875
235.31	-300.000
235.68	-100.000
236.05	11.765
236.43	-59.091
236.80	-41.935
237.17	-54.167
237.55	-52.381
237.92	-59.091
238.29	-20.000
238.67	2.941
239.04	11.111
239.41	-48.387
239.79	-33.333
240.16	-30.952
240.53	-18.182
240.91	5.128
241.28	5.455
241.65	18.462
242.02	-1.639
242.40	-8.197
242.77	-18.182
243.14	15.254
243.51	-11.429
243.89	1.266
244.26	8.989
244.63	14.737
245.00	13.684
245.38	3.390
245.75	0.000
246.12	20.800
246.49	9.449
246.87	5.691
247.24	9.322
247.61	-4.237
247.98	12.676
248.36	11.189
248.73	14.557
249.10	7.643
249.47	19.298
249.84	11.932
250.22	4.762
250.59	7.910
250.96	10.995
251.33	11.374
251.70	3.846
252.08	15.166
252.45	14.692
252.82	9.524
253.19	12.766
253.56	16.129
253.94	10.549
254.31	14.163
254.68	16.260
255.05	13.710
255.42	15.476
255.79	8.961
256.16	12.941
256.54	11.765
256.91	11.364
257.28	7.692
257.65	13.475
258.02	16.981
258.39	13.378
258.76	12.500
259.14	12.654
259.51	17.705
259.88	11.890
260.25	18.634
260.62	18.006
260.99	14.243
261.36	15.854
261.73	14.162
262.10	19.167
262.47	16.239
262.85	18.286
263.22	11.461
263.59	12.923
263.96	13.913
264.33	17.073
264.70	16.575
265.07	13.187
265.44	14.729
265.81	16.279
266.18	10.886
266.55	14.706
266.92	17.884
267.29	15.738
267.66	16.296
268.03	16.425
268.40	14.085
268.77	14.940
269.14	13.921
269.51	14.253
269.88	12.615
270.25	14.918
270.62	15.789
270.99	14.414
271.36	13.287
271.73	15.022
272.10	15.561
272.47	15.778
272.84	19.111
273.21	16.055
273.58	16.703
273.95	15.351
274.32	16.516
274.69	18.381
275.06	15.133
275.43	15.402
275.80	18.941
276.17	14.226
276.54	18.737
276.91	15.638
277.28	15.010
277.65	15.496
278.02	13.570
278.39	14.342
278.76	15.737
279.13	15.415
279.50	18.091
279.87	15.433
280.23	13.968
280.60	15.905
280.97	14.175
281.34	14.120
281.71	16.154
282.08	17.137
282.45	14.053
282.82	15.698
283.19	15.091
283.56	17.399
283.92	16.961
284.29	15.428
284.66	15.647
285.03	17.825
285.40	15.867
285.77	17.544
286.14	17.329
286.51	15.275
286.87	15.245
287.24	15.529
287.61	16.198
287.98	13.518
288.35	12.727
288.72	16.129
289.08	14.576
289.45	15.488
289.82	13.668
290.19	16.420
290.56	14.050
290.93	14.149
291.29	13.776
291.66	14.654
292.03	14.286
292.40	13.404
292.77	13.354
293.13	15.285
293.50	13.670
293.87	15.031
294.24	14.178
294.60	12.424
294.97	15.781
295.34	13.185
295.71	13.542
296.08	8.909
296.44	11.302
296.81	13.533
297.18	13.521
297.55	14.124
297.91	14.226
298.28	12.466
298.65	11.715
299.02	14.572
299.38	12.433
299.75	12.364
300.12	11.667
300.48	12.916
300.85	12.975
301.22	12.678
301.59	12.874
301.95	13.728
302.32	10.821
302.69	12.362
303.05	11.600
303.42	11.000
303.79	13.038
304.15	13.270
304.52	13.302
304.89	12.633
305.25	13.065
305.62	12.808
305.99	14.488
306.35	11.765
306.72	11.048
307.09	12.486
307.45	11.805
307.82	10.503
308.19	11.745
308.55	11.765
308.92	10.741
309.29	12.973
309.65	12.513
310.02	11.663
310.38	11.135
310.75	13.012
311.12	12.500
311.48	12.317
311.85	12.770
312.22	11.535
312.58	12.920
312.95	11.621
313.31	11.788
313.68	11.457
314.05	13.155
314.41	11.066
314.78	11.189
315.14	12.142
315.51	12.259
315.87	12.972
316.24	12.148
316.61	12.188
316.97	12.537
317.34	11.561
317.70	11.688
318.07	10.634
318.43	11.704
318.80	13.146
319.16	12.008
319.53	12.970
319.89	11.759
320.26	11.176
320.62	11.827
320.99	11.343
321.35	11.034
321.72	11.771
322.08	11.968
322.45	12.772
322.81	12.968
323.18	12.968
323.54	11.645
323.91	11.956
324.27	11.977
324.64	12.980
325.00	12.129
325.37	13.213
325.73	13.998
326.10	11.869
326.46	12.522
326.83	12.085
327.19	13.261
327.56	13.203
327.92	13.169
328.29	13.160
328.65	12.818
329.01	13.251
329.38	14.630
329.74	13.645
330.11	12.874
330.47	12.352
330.84	14.115
331.20	14.170
331.56	13.218
331.93	13.410
332.29	13.699
332.66	13.433
333.02	13.213
333.38	13.441
333.75	14.515
334.11	14.044
334.48	12.621
334.84	13.648
335.20	13.652
335.57	13.267
335.93	14.056
336.29	12.843
336.66	13.040
337.02	13.694
337.38	12.478
337.75	12.994
338.11	13.148
338.47	13.078
338.84	13.158
339.20	13.533
339.56	13.369
339.93	13.668
340.29	13.020
340.65	13.462
341.02	13.322
341.38	13.058
341.74	13.548
342.11	13.396
342.47	13.648
342.83	13.098
343.20	14.347
343.56	12.735
343.92	13.189
344.28	14.214
344.65	12.954
345.01	13.950
345.37	13.538
345.73	13.339
346.10	12.510
346.46	14.054
346.82	12.991
347.19	13.476
347.55	13.323
347.91	13.071
348.27	13.604
348.63	14.216
349.00	13.683
349.36	12.412
349.72	14.092
350.08	12.029
350.45	11.978
350.81	13.854
351.17	12.781
351.53	12.411
351.89	13.581
352.26	13.411
352.62	14.516
352.98	13.687
353.34	14.069
353.70	13.282
354.07	13.690
354.43	13.123
354.79	13.629
355.15	13.179
355.51	12.891
355.87	13.518
356.24	13.662
356.60	14.182
356.96	14.088
357.32	13.143
357.68	13.793
358.04	14.242
358.40	13.380
358.77	13.447
359.13	13.007
359.49	13.983
359.85	13.110
360.21	13.851
360.57	14.157
360.93	14.074
361.29	14.499
361.66	13.034
362.02	13.018
362.38	14.527
362.74	14.725
363.10	13.128
363.46	13.746
363.82	13.994
364.18	14.255
364.54	15.583
364.90	13.697
365.26	13.552
365.62	13.828
365.98	13.158
366.35	13.592
366.71	14.447
367.07	14.326
367.43	14.688
367.79	14.777
368.15	13.229
368.51	14.545
368.87	15.247
369.23	15.158
369.59	13.681
369.95	14.588
370.31	14.768
370.67	14.389
371.03	14.942
371.39	14.215
371.75	15.165
372.11	16.212
372.47	15.040
372.83	14.673
373.19	14.500
373.55	14.778
373.91	14.367
374.27	14.716
374.63	14.631
374.99	15.160
375.35	14.603
375.71	15.463
376.07	14.990
376.42	14.238
376.78	15.752
377.14	14.847
377.50	15.152
377.86	14.954
378.22	15.013
378.58	15.442
378.94	15.660
379.30	15.356
379.66	15.786
380.02	15.152
380.38	15.952
380.74	15.182
381.09	16.110
381.45	15.215
381.81	14.822
382.17	15.038
382.53	15.198
382.89	15.730
383.25	16.075
383.61	16.097
383.97	15.677
384.32	16.333
384.68	16.505
385.04	15.700
385.40	15.825
385.76	15.732
386.12	16.490
386.48	17.265
386.83	16.564
387.19	16.796
387.55	15.930
387.91	16.301
388.27	15.682
388.62	15.745
388.98	15.506
389.34	16.707
389.70	16.017
390.06	15.786
390.42	17.115
390.77	15.836
391.13	17.143
391.49	17.031
391.85	16.334
392.20	16.262
392.56	15.761
392.92	16.600
393.28	16.648
393.64	16.897
393.99	17.477
394.35	17.518
394.71	16.368
395.07	17.137
395.42	16.329
395.78	16.405
396.14	17.508
396.50	17.370
396.85	16.780
397.21	17.072
397.57	17.143
397.92	17.447
398.28	16.833
398.64	16.776
399.00	17.472
399.35	16.629
399.71	17.654
400.07	17.851
400.42	17.275
400.78	16.458
401.14	17.665
401.49	17.453
401.85	17.572
402.21	17.521
402.57	17.476
402.92	17.684
403.28	16.973
403.63	17.076
403.99	17.091
404.35	17.271
404.70	17.730
405.06	18.108
405.42	17.712
405.77	17.081
406.13	16.979
406.49	17.256
406.84	17.397
407.20	17.727
407.55	18.683
407.91	17.228
408.27	17.953
408.62	17.679
408.98	17.768
409.34	18.038
409.69	17.580
410.05	16.495
410.40	17.842
410.76	17.427
411.11	17.706
411.47	17.455
411.83	17.054
412.18	17.389
412.54	16.656
412.89	17.922
413.25	16.942
413.60	17.558
413.96	17.067
414.31	17.615
414.67	17.905
415.03	17.788
415.38	18.087
415.74	17.848
416.09	17.967
416.45	17.196
416.80	18.661
417.16	17.940
417.51	19.435
417.87	17.799
418.22	16.877
418.58	17.715
418.93	17.903
419.29	17.880
419.64	16.394
420.00	17.740
420.35	17.918
420.71	18.007
421.06	18.166
421.42	18.267
421.77	17.197
422.12	18.299
422.48	17.905
422.83	18.565
423.19	17.873
423.54	18.098
423.90	17.409
424.25	17.873
424.61	18.758
424.96	17.847
425.31	18.502
425.67	18.453
426.02	16.810
426.38	18.754
426.73	18.410
427.09	18.873
427.44	18.523
427.79	17.965
428.15	18.731
428.50	19.120
428.85	18.285
429.21	18.262
429.56	18.438
429.92	18.337
430.27	18.096
430.62	18.757
430.98	18.610
431.33	18.410
431.68	19.088
432.04	19.026
432.39	18.803
432.74	17.986
433.10	18.177
433.45	17.386
433.80	18.645
434.16	18.915
434.51	17.863
434.86	18.746
435.22	18.374
435.57	18.543
435.92	18.464
436.28	19.110
436.63	18.542
436.98	18.099
437.34	19.551
437.69	18.028
438.04	19.285
438.39	19.555
438.75	18.393
439.10	19.489
439.45	18.829
439.81	19.096
440.16	18.739
440.51	19.353
440.86	18.681
441.22	19.403
441.57	18.526
441.92	18.465
442.27	18.777
442.63	18.938
442.98	18.397
443.33	18.836
443.68	18.187
444.03	18.418
444.39	18.649
444.74	19.604
445.09	19.079
445.44	19.358
445.79	18.766
446.15	19.715
446.50	18.400
446.85	19.189
447.20	18.335
447.55	18.950
447.91	18.978
448.26	18.827
448.61	18.789
448.96	19.664
449.31	18.828
449.66	18.947
450.02	18.393
450.37	18.725
450.72	18.362
451.07	19.359
451.42	19.021
451.77	19.210
452.12	19.666
452.47	20.151
452.83	19.802
453.18	19.608
453.53	20.025
453.88	20.455
454.23	19.287
454.58	19.391
454.93	20.466
455.28	19.120
455.63	19.287
455.98	20.120
456.34	18.424
456.69	19.762
457.04	19.238
457.39	19.498
457.74	19.787
458.09	20.418
458.44	20.208
458.79	19.170
459.14	19.852
459.49	20.071
459.84	19.843
460.19	19.511
460.54	19.298
460.89	19.002
461.24	19.551
461.59	20.399
461.94	20.242
462.29	19.774
462.64	19.763
462.99	20.348
463.34	19.446
463.69	19.975
464.04	19.742
464.39	19.235
464.74	19.563
465.09	19.122
465.44	19.628
465.79	20.079
466.14	19.563
466.49	18.883
466.84	19.628
467.19	19.888
467.54	19.367
467.89	20.037
468.24	19.834
468.59	19.863
468.94	20.064
469.29	20.273
469.64	20.081
469.99	20.324
470.34	20.842
470.68	21.294
471.03	21.060
471.38	20.000
471.73	20.420
472.08	20.683
472.43	20.721
472.78	21.800
473.13	20.146
473.48	20.868
473.83	19.913
474.17	20.446
474.52	21.547
474.87	20.629
475.22	20.000
475.57	19.556
475.92	20.302
476.27	20.629
476.61	20.169
476.96	20.682
477.31	20.452
477.66	20.089
478.01	20.854
478.36	19.906
478.70	20.876
479.05	21.741
479.40	21.192
479.75	20.948
480.10	20.933
480.45	19.874
480.79	20.286
481.14	21.525
481.49	20.958
481.84	20.897
482.19	21.106
482.53	20.928
482.88	20.978
483.23	20.563
483.58	21.092
483.92	21.118
484.27	20.071
484.62	20.950
484.97	19.797
485.31	19.520
485.66	19.234
486.01	18.750
486.36	19.563
486.70	19.864
487.05	19.606
487.40	19.578
487.75	20.017
488.09	20.012
488.44	20.704
488.79	21.365
489.13	20.122
489.48	21.493
489.83	21.135
490.17	21.506
490.52	21.558
490.87	20.785
491.22	20.831
491.56	21.204
491.91	21.947
492.26	21.462
492.60	21.123
492.95	21.561
493.30	20.867
493.64	21.768
493.99	22.132
494.34	21.810
494.68	22.378
495.03	21.463
495.37	22.222
495.72	21.365
496.07	21.445
496.41	22.001
496.76	21.233
497.11	21.196
497.45	22.079
497.80	21.561
498.14	22.053
498.49	21.949
498.84	21.359
499.18	22.027
499.53	22.211
499.87	21.622
500.22	23.088
500.56	22.211
500.91	21.773
501.26	22.222
501.60	22.099
501.95	22.464
502.29	21.020
502.64	22.254
502.98	21.418
503.33	21.476
503.67	21.600
504.02	22.356
504.36	22.549
504.71	22.087
505.06	22.466
505.40	22.754
505.75	22.459
506.09	22.447
506.44	22.506
506.78	22.880
507.13	22.194
507.47	22.587
507.82	22.974
508.16	23.005
508.51	22.308
508.85	23.292
509.19	22.606
509.54	22.780
509.88	23.830
510.23	22.694
510.57	23.968
510.92	23.631
511.26	23.339
511.61	23.002
511.95	22.899
512.30	23.364
512.64	23.651
512.98	23.982
513.33	24.108
513.67	23.618
514.02	23.378
514.36	24.100
514.70	23.543
515.05	24.929
515.39	23.991
515.74	25.887
516.08	24.496
516.42	24.533
516.77	24.090
517.11	24.542
517.46	25.299
517.80	24.970
518.14	25.000
518.49	25.583
518.83	24.451
519.17	24.334
519.52	24.291
519.86	25.627
520.20	25.428
520.55	25.600
520.89	24.984
521.23	26.007
521.58	24.953
521.92	26.029
522.26	25.587
522.61	26.553
522.95	25.590
523.29	26.207
523.64	26.359
523.98	26.034
524.32	25.330
524.66	25.093
525.01	26.204
525.35	26.418
525.69	25.699
526.04	26.567
526.38	27.307
526.72	25.607
527.06	26.042
527.41	26.667
527.75	25.809
528.09	26.009
528.43	26.820
528.78	26.759
529.12	27.337
529.46	26.611
529.80	25.823
530.15	26.465
530.49	26.779
530.83	26.588
531.17	25.320
531.51	25.519
531.86	26.333
532.20	27.126
532.54	27.473
532.88	26.482
533.22	26.003
533.57	26.240
533.91	26.217
534.25	26.776
534.59	25.359
534.93	24.953
535.27	26.872
535.62	27.046
535.96	26.050
536.30	26.309
536.64	27.158
536.98	27.189
537.32	26.952
537.66	26.612
538.01	26.873
538.35	26.486
538.69	26.337
539.03	27.488
539.37	26.946
539.71	26.951
540.05	25.634
540.39	26.316
540.73	26.123
541.07	28.005
541.42	25.793
541.76	25.714
542.10	26.401
542.44	27.315
542.78	27.544
543.12	26.680
543.46	25.822
543.80	26.355
544.14	25.789
544.48	26.247
544.82	26.996
545.16	27.163
545.50	25.976
545.84	26.912
546.18	28.086
546.52	26.956
546.86	26.140
547.20	28.059
547.54	26.722
547.88	26.277
548.22	25.623
548.56	25.317
548.90	26.752
549.24	26.489
549.58	26.676
549.92	27.562
550.26	27.818
550.60	26.600
550.94	26.861
551.28	26.637
551.62	26.809
551.96	26.990
552.30	26.481
552.64	27.445
552.98	26.840
553.32	26.118
553.66	26.748
554.00	26.937
554.34	26.282
554.68	26.681
555.02	28.509
555.36	26.887
555.69	26.289
556.03	26.246
556.37	26.458
556.71	26.700
557.05	27.716
557.39	26.800
557.73	27.498
558.07	28.561
558.41	27.823
558.75	27.909
559.08	27.704
559.42	27.259
559.76	27.684
560.10	27.218
560.44	28.324
560.78	27.001
561.12	25.673
561.45	27.534
561.79	26.899
562.13	26.578
562.47	26.961
562.81	27.511
563.15	25.892
563.48	27.229
563.82	27.113
564.16	26.234
564.50	27.823
564.84	26.653
565.17	25.995
565.51	26.010
565.85	27.586
566.19	27.339
566.52	26.484
566.86	27.181
567.20	26.755
567.54	25.871
567.88	25.628
568.21	25.951
568.55	24.814
568.89	24.503
569.23	25.636
569.56	23.834
569.90	24.351
570.24	24.427
570.57	23.480
570.91	23.189
571.25	23.476
571.59	23.291
571.92	23.185
572.26	23.128
572.60	23.270
572.93	22.701
573.27	22.744
573.61	22.885
573.95	22.725
574.28	22.967
574.62	22.725
574.96	22.483
575.29	22.561
575.63	22.830
575.97	22.006
576.30	22.335
576.64	22.611
576.98	21.747
577.31	22.193
577.65	22.724
577.98	21.902
578.32	21.953
578.66	22.286
578.99	22.212
579.33	22.859
579.67	22.698
580.00	22.396
580.34	22.138
580.67	22.285
581.01	22.098
581.35	22.260
581.68	22.042
582.02	22.232
582.35	21.794
582.69	21.996
583.02	22.546
583.36	22.355
583.70	21.966
584.03	22.656
584.37	22.760
584.70	22.548
585.04	22.456
585.37	21.885
585.71	22.424
586.04	22.670
586.38	22.534
586.72	23.253
587.05	22.656
587.39	22.671
587.72	22.936
588.06	22.889
588.39	22.615
588.73	23.597
589.06	23.465
589.40	22.982
589.73	23.654
590.07	23.343
590.40	23.653
590.73	23.990
591.07	23.730
591.40	23.224
591.74	23.588
592.07	23.874
592.41	24.586
592.74	24.020
593.08	23.721
593.41	23.191
593.75	22.948
594.08	23.472
594.41	23.845
594.75	23.518
595.08	23.797
595.42	23.627
595.75	23.117
596.09	23.749
596.42	24.059
596.75	23.976
597.09	24.399
597.42	24.356
597.75	24.491
598.09	24.221
598.42	24.171
598.76	23.754
599.09	23.560
599.42	23.645
599.76	23.669
600.09	24.313
600.42	23.509
600.76	24.520
601.09	23.205
601.42	22.754
601.76	24.338
602.09	23.804
602.42	22.963
602.76	23.972
603.09	23.750
603.42	23.973
603.76	24.132
604.09	23.508
604.42	23.564
604.76	24.727
605.09	24.774
605.42	24.956
605.75	23.717
606.09	23.454
606.42	22.958
606.75	23.486
607.09	23.952
607.42	24.032
607.75	24.150
608.08	23.949
608.42	24.551
608.75	24.112
609.08	24.939
609.41	24.614
609.75	23.940
610.08	24.069
610.41	24.241
610.74	24.613
611.07	24.544
611.41	23.248
611.74	25.553
612.07	25.081
612.40	24.574
612.73	24.663
613.07	24.216
613.40	25.123
613.73	25.232
614.06	24.876
614.39	25.197
614.72	24.022
615.06	24.728
615.39	24.851
615.72	24.823
616.05	24.627
616.38	25.305
616.71	25.345
617.05	25.754
617.38	26.192
617.71	24.754
618.04	26.087
618.37	25.786
618.70	26.271
619.03	25.118
619.36	27.625
619.69	27.351
620.03	24.518
620.36	25.457
620.69	26.633
621.02	25.190
621.35	26.774
621.68	27.049
622.01	27.589
622.34	27.562
622.67	27.188
623.00	26.014
623.33	26.866
623.66	25.702
623.99	27.368
624.32	26.190
624.65	26.858
624.99	25.616
625.32	26.347
625.65	27.506
625.98	25.587
626.31	27.732
626.64	26.025
626.97	27.055
627.30	26.723
627.63	26.079
627.96	26.719
628.29	27.757
628.62	27.985
628.95	28.248
629.28	27.914
629.61	28.067
629.94	28.072
630.26	29.125
630.59	28.744
630.92	28.228
631.25	29.940
631.58	27.090
631.91	28.298
632.24	29.333
632.57	28.000
632.90	29.310
633.23	28.972
633.56	29.123
633.89	28.892
634.22	28.808
634.55	29.567
634.88	30.351
635.20	29.588
635.53	29.644
635.86	29.093
636.19	28.694
636.52	29.391
636.85	28.400
637.18	28.125
637.51	29.740
637.83	31.558
638.16	28.947
638.49	29.793
638.82	27.671
639.15	31.518
639.48	29.442
639.81	32.503
640.13	28.514
640.46	31.766
640.79	31.793
641.12	31.876
641.45	30.703
641.77	30.689
642.10	31.873
642.43	31.259
642.76	31.024
643.09	30.476
643.41	32.222
643.74	32.273
644.07	30.577
644.40	31.118
644.73	30.198
645.05	30.384
645.38	32.450
645.71	32.818
646.04	34.454
646.36	30.366
646.69	30.450
647.02	33.394
647.35	30.325
647.67	32.482
648.00	32.865
648.33	33.390
648.66	27.903
648.98	30.414
649.31	28.308
649.64	30.781
649.96	29.513
650.29	28.525
650.62	31.670
650.94	32.884
651.27	32.062
651.60	30.796
651.92	31.336
652.25	30.885
652.58	31.687
652.90	31.621
653.23	30.968
653.56	30.602
653.88	30.656
654.21	29.698
654.54	30.897
654.86	29.374
655.19	28.940
655.52	25.170
655.84	21.631
656.17	23.518
656.49	31.567
656.82	32.931
657.15	24.788
657.47	18.004
657.80	13.880
658.13	15.842
658.45	21.652
658.78	21.697
659.10	21.594
659.43	21.310
659.75	22.305
660.08	23.021
660.41	22.644
660.73	25.193
661.06	29.855
661.38	31.964
661.71	30.975
662.03	29.637
662.36	33.475
662.68	31.013
663.01	33.121
663.33	32.426
663.66	30.258
663.98	30.580
664.31	31.544
664.63	31.416
664.96	31.020
665.28	31.887
665.61	32.981
665.93	32.099
666.26	33.806
666.58	31.185
666.91	29.176
667.23	33.114
667.56	30.159
667.88	33.258
668.21	32.028
668.53	34.112
668.86	31.409
669.18	36.530
669.50	31.542
669.83	33.090
670.15	32.960
670.48	29.206
670.80	32.802
671.13	28.668
671.45	29.505
671.77	30.193
672.10	31.558
672.42	32.657
672.75	28.182
673.07	27.748
673.39	28.597
673.72	28.937
674.04	30.573
674.37	32.371
674.69	32.787
675.01	31.489
675.34	30.152
675.66	29.806
675.98	31.278
676.31	32.353
676.63	33.333
676.95	30.531
677.28	29.002
677.60	33.484
677.92	33.480
678.25	30.853
678.57	29.630
678.89	29.350
679.22	30.189
679.54	30.375
679.86	29.800
680.18	30.418
680.51	29.609
680.83	31.048
681.15	30.636
681.48	28.803
681.80	31.250
682.12	27.565
682.44	30.452
682.77	28.139
683.09	31.237
683.41	32.080
683.73	28.767
684.06	30.323
684.38	30.544
684.70	27.572
685.02	27.756
685.34	30.994
685.67	27.083
685.99	25.520
686.31	29.443
686.63	27.305
686.96	26.802
687.28	28.324
687.60	30.469
687.92	25.486
688.24	31.299
688.56	29.860
688.89	27.778
689.21	28.884
689.53	32.874
689.85	29.621
690.17	28.027
690.49	30.485
690.82	31.566
691.14	29.009
691.46	27.273
691.78	28.634
692.10	30.508
692.42	29.778
692.74	27.897
693.06	29.213
693.39	30.649
693.71	29.120
694.03	28.942
694.35	26.185
694.67	31.442
694.99	28.645
695.31	31.378
695.63	28.827
695.95	28.536
696.27	31.421
696.59	31.551
696.91	32.303
697.23	32.552
697.56	33.173
697.88	28.153
698.20	29.122
698.52	28.027
698.84	30.097
699.16	27.857
699.48	28.750
699.80	31.078
700.12	31.990
700.44	29.888
700.76	30.029
701.08	29.360
701.40	25.982
701.72	35.185
702.04	32.372
702.36	29.518
702.68	28.144
703.00	31.014
703.32	28.367
703.64	32.941
703.96	31.395
704.28	28.698
704.60	24.367
704.91	29.841
705.23	27.508
705.55	28.041
705.87	31.058
706.19	28.472
706.51	29.167
706.83	34.426
707.15	29.299
707.47	31.956
707.79	31.701
708.11	25.700
708.43	27.431
708.74	27.013
709.06	28.412
709.38	25.862
709.70	28.750
710.02	33.436
710.34	30.693
710.66	30.159
710.98	29.338
711.29	24.516
711.61	25.240
711.93	26.885
712.25	30.565
712.57	29.268
712.89	35.612
713.20	34.364
713.52	24.627
713.84	32.384
714.16	28.525
714.48	27.937
714.80	26.154
715.11	28.242
715.43	31.024
715.75	30.218
716.07	28.197
716.39	27.090
716.70	30.662
717.02	34.815
717.34	32.061
717.66	31.950
717.97	30.328
718.29	28.571
718.61	35.714
718.93	28.674
719.24	27.574
719.56	27.925
719.88	29.091
720.20	26.217
720.51	31.203
720.83	29.317
721.15	30.738
721.46	29.020
721.78	29.502
722.10	32.800
722.42	34.298
722.73	32.271
723.05	31.325
723.37	29.412
723.68	30.769
724.00	33.740
724.32	24.691
724.63	26.141
724.95	32.231
725.27	24.561
725.58	27.155
725.90	31.746
726.22	33.210
726.53	23.954
726.85	27.843
727.16	32.707
727.48	29.615
727.80	26.230
728.11	26.471
728.43	26.033
728.74	29.688
729.06	33.712
729.38	34.241
729.69	25.591
730.01	28.740
730.32	33.068
730.64	31.136
730.96	29.851
731.27	27.500
731.59	27.331
731.90	24.847
732.22	26.074
732.53	30.795
732.85	24.497
733.16	30.072
733.48	26.829
733.80	27.402
734.11	27.241
734.43	29.252
734.74	24.332
735.06	25.705
735.37	26.300
735.69	24.516
736.00	28.283
736.32	28.808
736.63	22.414
736.95	28.986
737.26	26.490
737.58	29.137
737.89	31.900
738.21	23.684
738.52	31.538
738.83	28.906
739.15	25.641
739.46	32.661
739.78	26.923
740.09	26.923
740.41	25.874
740.72	28.832
741.04	23.413
741.35	23.810
741.66	30.093
741.98	23.333
742.29	30.047
742.61	28.877
742.92	28.972
743.23	24.561
743.55	29.730
743.86	33.333
744.18	30.952
744.49	31.034
744.80	31.472
745.12	32.474
745.43	32.161
745.74	26.699
746.06	28.780
746.37	32.159
746.68	32.338
747.00	24.607
747.31	30.769
747.62	27.189
747.94	27.511
748.25	31.163
748.56	28.571
748.88	25.543
749.19	29.108
749.50	35.784
749.82	31.111
750.13	26.872
750.44	27.236
750.75	27.200
751.07	31.429
751.38	26.199
751.69	25.954
752.01	28.846
752.32	20.233
752.63	21.154
752.94	27.381
753.26	31.304
753.57	27.679
753.88	22.845
754.19	21.992
754.51	27.734
754.82	26.087
755.13	29.218
755.44	30.579
755.75	30.864
756.07	22.892
756.38	25.781
756.69	29.603
757.00	26.132
757.31	31.208
757.63	27.103
757.94	21.676
758.25	27.035
758.56	29.111
758.87	23.864
759.18	28.667
759.50	29.181
759.81	24.818
760.12	22.297
760.43	28.155
760.74	26.875
761.05	26.124
761.36	28.443
761.67	23.964
761.99	25.161
762.30	28.261
762.61	30.189
762.92	25.561
763.23	27.014
763.54	28.444
763.85	29.958
764.16	31.837
764.47	27.966
764.78	21.723
765.10	25.540
765.41	24.194
765.72	25.786
766.03	21.908
766.34	26.692
766.65	23.887
766.96	24.500
767.27	29.167
767.58	33.140
767.89	25.806
768.20	25.153
768.51	22.404
768.82	23.243
769.13	24.500
769.44	21.491
769.75	23.377
770.06	27.982
770.37	21.127
770.68	28.646
770.99	29.703
771.30	22.330
771.61	23.611
771.92	22.944
772.23	27.103
772.54	21.277
772.85	20.710
773.16	25.610
773.47	33.735
773.78	28.022
774.09	25.333
774.39	22.222
774.70	24.832
775.01	18.116
775.32	21.642
775.63	21.488
775.94	28.571
776.25	22.857
776.56	31.967
776.87	39.823
777.18	25.664
777.48	25.455
777.79	21.739
778.10	22.018
778.41	25.424
778.72	26.446
779.03	23.881
779.34	26.316
779.65	26.144
779.95	23.188
780.26	21.088
780.57	13.793
780.88	30.556
781.19	5.051
781.50	20.800
781.80	19.608
782.11	25.641
782.42	23.494
782.73	13.139
783.04	32.432
783.34	24.242
783.65	24.031
783.96	22.764
784.27	24.786
784.57	17.073
784.88	19.512
785.19	20.175
785.50	6.186
785.81	17.143
786.11	21.569
786.42	21.818
786.73	34.234
787.04	28.713
787.34	23.810
787.65	20.952
787.96	19.608
788.26	27.027
788.57	31.452
788.88	16.406
789.19	23.932
789.49	22.689
789.80	27.350
790.11	29.204
790.41	23.232
790.72	35.849
791.03	11.111
791.33	19.737
791.64	30.108
791.95	16.000
792.25	14.286
792.56	15.854
792.87	30.612
793.17	25.000
793.48	9.459
793.79	19.718
794.09	11.392
794.40	12.766
794.70	23.364
795.01	13.158
795.32	17.273
795.62	23.214
795.93	12.371
796.23	10.989
796.54	18.947
796.85	13.699
797.15	9.722
797.46	28.767
797.76	21.127
798.07	21.250
798.37	20.588
798.68	40.000
798.99	21.429
799.29	23.684
799.60	18.333
799.90	6.944
800.21	3.125
800.51	23.810
800.82	26.230
801.12	7.018
801.43	8.451
801.73	3.390
802.04	21.311
802.34	16.364
802.65	13.462
802.95	11.111
803.26	10.000
803.56	17.308
803.87	5.263
804.17	27.419
804.48	18.462
804.78	0.000
805.09	9.302
805.39	-15.625
805.70	-1.887
806.00	17.544
806.30	29.730
806.61	22.059
806.91	13.580
807.22	26.667
807.52	23.881
807.83	19.355
808.13	3.175
808.43	16.364
808.74	16.667
809.04	30.189
809.35	10.959
809.65	33.333
809.95	22.059
810.26	-1.961
810.56	-20.000
810.86	-2.041
811.17	31.429
811.47	19.231
811.77	29.032
812.08	-55.263
812.38	-11.905
812.69	6.522
812.99	6.452
813.29	-2.381
813.59	-48.148
813.90	-12.766
814.20	-18.605
814.50	12.500
814.81	15.000
815.11	0.000
815.41	-3.333
815.72	20.000
816.02	0.000
816.32	30.769
816.62	-10.811
816.93	-32.353
817.23	-8.696
817.53	-5.882
817.84	-35.294
818.14	-15.625
818.44	31.034
818.74	0.000
819.04	-11.111
819.35	16.667
819.65	-44.000
819.95	16.667
820.25	-4.000
820.56	7.895
820.86	-17.500
821.16	10.638
821.46	24.138
821.76	0.000
822.07	-17.500
822.37	2.326
822.67	3.333
822.97	-21.622
823.27	-5.405
823.57	16.000
823.88	-8.108
824.18	-9.524
824.48	7.692
824.78	-123.077
825.08	-34.783
825.38	29.167
825.69	-29.167
825.99	-45.000
826.29	-27.027
826.59	-35.294
826.89	-8.000
827.19	-5.714
827.49	2.632
827.79	-9.375
828.09	-13.333
828.39	-26.087
828.70	17.241
829.00	3.448
829.30	-11.111
829.60	46.875
829.90	-33.333
830.20	-19.231
830.50	-66.667
830.80	-50.000
831.10	10.256
831.40	-4.762
831.70	-2.941
832.00	8.333
832.30	10.526
832.60	-31.250
832.90	-83.333
833.20	-82.353
833.50	-86.667
833.80	-46.667
834.10	-50.000
834.40	-8.333
834.70	-38.889
835.00	-3.846
835.30	-29.167
835.60	-13.793
835.90	-105.556
836.20	-63.636
836.50	-100.000
836.80	-2.857
837.10	57.143
837.40	-29.412
837.70	-72.727
838.00	-37.500
838.30	-62.500
838.60	23.810
838.90	-35.000
839.19	-69.565
839.49	30.435
839.79	-94.444
840.09	-65.217
840.39	-50.000
840.69	-87.500
840.99	-31.579
841.29	-75.000
841.59	-92.857
841.88	-77.778
842.18	-33.333
842.48	-94.118
842.78	-10.345
843.08	-57.143
843.38	-15.385
843.68	-111.111
843.97	-76.923
844.27	-63.636
844.57	-120.000
844.87	20.000
845.17	-120.000
845.47	-50.000
845.76	-66.667
846.06	0.000
846.36	-275.000
846.66	-80.000
846.96	-36.842
847.25	8.333
847.55	-83.333
847.85	0.000
848.15	-90.000
848.44	30.769
848.74	-36.842
849.04	366.667
849.34	77.778
849.63	-105.263
849.93	0.000
850.23	35.000
850.53	-4.762
850.82	-4.000
851.12	10.526
851.42	-400.000
851.71	-64.286
852.01	-25.000
852.31	-52.941
852.61	-33.333
852.90	-61.905
853.20	-200.000
853.50	-38.889
853.79	-57.895
854.09	-120.000
854.39	-32.143
854.68	-26.087
854.98	-241.667
855.28	-13.793
855.57	-37.500
855.87	-25.000
856.17	-66.667
856.46	-17.241
856.76	-20.000
857.05	-64.706
857.35	-115.385
857.65	-81.818
857.94	-48.148
858.24	-78.571
858.53	-92.857
858.83	-116.667
859.13	-133.333
859.42	4.762
859.72	-125.000
860.01	-366.667
860.31	-187.500
860.60	-420.000
860.90	-144.444
861.20	-212.500
861.49	-257.143
861.79	-52.941
862.08	-750.000
862.38	-116.667
862.67	-100.000
862.97	0.000
863.26	-5.000
863.56	-35.294
863.85	233.333
864.15	-210.000
864.44	-107.692
864.74	-55.000
865.03	-262.500
865.33	-350.000
865.62	-70.588
865.92	-700.000
866.21	-14.286
866.51	-200.000
866.80	-1300.000
867.10	0.000
867.39	-52.941
867.69	17.391
867.98	-42.857
868.27	-440.000
868.57	-93.750
868.86	-72.727
869.16	-11.765
869.45	-283.333
869.75	-257.143
870.04	400.000
870.33	-33.333
870.63	-280.000
870.92	-122.222
871.22	-66.667
871.51	-163.636
871.80	25.000
872.10	-100.000
>>>>>End Processed Spectral Data<<<<<
