SpectraSuite Data File
++++++++++++++++++++++++++++++++++++
Date: Sat May 16 11:43:42 PDT 2015
User: schluterlab
Dark Spectrum Present: Yes
Reference Spectrum Present: Yes
Number of Sampled Component Spectra: 1
Spectrometers: USB2E3373
Integration Time (usec): 3000 (USB2E3373)
Spectra Averaged: 3 (USB2E3373)
Boxcar Smoothing: 0 (USB2E3373)
Correct for Electrical Dark: No (USB2E3373)
Strobe/Lamp Enabled: No (USB2E3373)
Correct for Detector Non-linearity: No (USB2E3373)
Correct for Stray Light: No (USB2E3373)
Number of Pixels in Processed Spectrum: 2048
>>>>>Begin Processed Spectral Data<<<<<
178.53	0.000
178.91	153.333
179.29	633.333
179.67	-1100.000
180.04	-30.769
180.42	1100.000
180.80	400.000
181.18	450.000
181.56	-37.500
181.94	200.000
182.31	625.000
182.69	-53.846
183.07	-466.667
183.45	1000.000
183.83	500.000
184.20	-285.714
184.58	12.500
184.96	-350.000
185.34	131.250
185.72	-300.000
186.09	416.667
186.47	-187.500
186.85	-337.500
187.23	-75.000
187.61	-325.000
187.98	-300.000
188.36	-125.000
188.74	-150.000
189.12	1500.000
189.49	228.571
189.87	-33.333
190.25	275.000
190.63	0.000
191.00	-166.667
191.38	340.000
191.76	6.667
192.14	480.000
192.51	-380.000
192.89	-466.667
193.27	0.000
193.65	-100.000
194.02	-257.143
194.40	866.667
194.78	-120.000
195.15	-1300.000
195.53	-109.091
195.91	-516.667
196.29	300.000
196.66	-766.667
197.04	1900.000
197.42	-125.000
197.79	53.333
198.17	-533.333
198.55	-600.000
198.92	-700.000
199.30	212.500
199.68	-1000.000
200.05	-188.889
200.43	-266.667
200.81	-900.000
201.18	-183.333
201.56	214.286
201.94	-20.000
202.31	-22.727
202.69	10.000
203.07	-40.000
203.44	766.667
203.82	-383.333
204.19	-625.000
204.57	-350.000
204.95	-700.000
205.32	-62.500
205.70	1000.000
206.08	-1400.000
206.45	-33.333
206.83	-900.000
207.20	-50.000
207.58	-433.333
207.96	-266.667
208.33	-212.500
208.71	-133.333
209.08	250.000
209.46	-171.429
209.84	700.000
210.21	0.000
210.59	10.000
210.96	500.000
211.34	-116.667
211.71	-466.667
212.09	450.000
212.46	1250.000
212.84	-2600.000
213.22	600.000
213.59	175.000
213.97	-77.778
214.34	190.000
214.72	-80.000
215.09	-433.333
215.47	-150.000
215.84	-60.000
216.22	-90.000
216.59	-13.333
216.97	-400.000
217.34	800.000
217.72	-285.714
218.09	-166.667
218.47	-228.571
218.84	285.714
219.22	-114.286
219.59	0.000
219.97	285.714
220.34	350.000
220.72	200.000
221.09	-46.154
221.47	0.000
221.84	666.667
222.22	-150.000
222.59	2300.000
222.97	-162.500
223.34	-600.000
223.72	-400.000
224.09	-64.286
224.46	-300.000
224.84	-21.429
225.21	-214.286
225.59	-81.818
225.96	-175.000
226.34	-128.571
226.71	-233.333
227.08	-30.000
227.46	2000.000
227.83	-257.143
228.21	-187.500
228.58	500.000
228.95	-62.500
229.33	-1000.000
229.70	-260.000
230.08	-900.000
230.45	-66.667
230.82	-83.333
231.20	-2000.000
231.57	-1150.000
231.95	1600.000
232.32	-28.571
232.69	-144.444
233.07	-171.429
233.44	-1400.000
233.81	-133.333
234.19	-11.111
234.56	-56.250
234.93	9.375
235.31	-185.714
235.68	-157.143
236.05	-47.059
236.43	-95.455
236.80	-29.032
237.17	-8.333
237.55	-38.095
237.92	-68.182
238.29	-34.286
238.67	-2.941
239.04	-33.333
239.41	-41.935
239.79	-46.154
240.16	-47.619
240.53	-21.818
240.91	-15.385
241.28	-25.455
241.65	1.538
242.02	0.000
242.40	-18.033
242.77	-21.212
243.14	-30.508
243.51	-25.714
243.89	-16.456
244.26	-22.472
244.63	-5.263
245.00	-13.684
245.38	-2.542
245.75	-1.770
246.12	-8.000
246.49	-7.874
246.87	-6.504
247.24	-11.864
247.61	-16.102
247.98	-2.113
248.36	-11.888
248.73	-3.797
249.10	-10.191
249.47	-4.094
249.84	-1.136
250.22	-10.119
250.59	-3.390
250.96	-4.712
251.33	0.948
251.70	-6.731
252.08	-4.739
252.45	-1.896
252.82	-6.190
253.19	-2.128
253.56	-2.016
253.94	-8.861
254.31	-6.009
254.68	-2.033
255.05	-1.210
255.42	-3.968
255.79	-5.735
256.16	-3.137
256.54	-2.574
256.91	-3.788
257.28	-4.762
257.65	-5.674
258.02	4.088
258.39	-6.020
258.76	-4.054
259.14	-6.481
259.51	-1.311
259.88	0.305
260.25	-0.932
260.62	-3.537
260.99	-1.187
261.36	-3.354
261.73	0.000
262.10	1.111
262.47	-1.425
262.85	1.714
263.22	-3.725
263.59	-4.308
263.96	-4.928
264.33	0.271
264.70	-0.276
265.07	-1.648
265.44	-4.393
265.81	-1.809
266.18	-3.544
266.55	-3.186
266.92	-1.763
267.29	-1.937
267.66	0.247
268.03	1.449
268.40	-1.878
268.77	-0.482
269.14	-2.552
269.51	-0.920
269.88	-4.358
270.25	-2.564
270.62	-1.602
270.99	0.000
271.36	-0.233
271.73	-1.570
272.10	-1.144
272.47	-1.556
272.84	1.111
273.21	-0.688
273.58	-2.418
273.95	-1.754
274.32	-0.679
274.69	1.532
275.06	-1.022
275.43	-1.786
275.80	1.629
276.17	1.464
276.54	0.815
276.91	-0.617
277.28	-2.840
277.65	1.033
278.02	-0.418
278.39	1.375
278.76	-2.789
279.13	-0.198
279.50	-1.590
279.87	-1.480
280.23	0.202
280.60	-2.187
280.97	-1.942
281.34	-1.161
281.71	0.769
282.08	-2.016
282.45	-5.703
282.82	-1.163
283.19	1.091
283.56	1.832
283.92	0.177
284.29	-0.372
284.66	1.619
285.03	1.070
285.40	1.476
285.77	0.702
286.14	-1.083
286.51	-1.243
286.87	0.363
287.24	0.683
287.61	0.992
287.98	0.867
288.35	-0.661
288.72	-0.849
289.08	-1.186
289.45	0.842
289.82	-1.730
290.19	1.806
290.56	-1.653
290.93	-0.636
291.29	-0.486
291.66	0.000
292.03	0.942
292.40	0.904
292.77	0.932
293.13	0.813
293.50	1.783
293.87	-0.307
294.24	0.000
294.60	-1.061
294.97	1.214
295.34	-0.148
295.71	-0.298
296.08	-2.611
296.44	0.143
296.81	0.285
297.18	0.000
297.55	0.847
297.91	2.650
298.28	-0.685
298.65	0.697
299.02	2.674
299.38	1.070
299.75	0.272
300.12	-0.385
300.48	1.151
300.85	1.442
301.22	0.906
301.59	0.000
301.95	2.141
302.32	0.000
302.69	1.714
303.05	2.076
303.42	0.000
303.79	1.196
304.15	1.659
304.52	3.034
304.89	1.299
305.25	0.977
305.62	1.410
305.99	4.240
306.35	3.552
306.72	0.114
307.09	2.157
307.45	1.930
307.82	1.006
308.19	1.119
308.55	2.723
308.92	1.504
309.29	1.838
309.65	2.651
310.02	1.836
310.38	1.081
310.75	1.434
311.12	2.376
311.48	1.983
311.85	3.399
312.22	3.399
312.58	4.374
312.95	2.345
313.31	3.497
313.68	4.020
314.05	4.847
314.41	2.616
314.78	2.997
315.14	3.949
315.51	2.837
315.87	4.066
316.24	3.499
316.61	4.127
316.97	4.478
317.34	4.721
317.70	3.711
318.07	4.198
318.43	3.558
318.80	5.728
319.16	4.597
319.53	4.605
319.89	3.763
320.26	5.000
320.62	4.904
320.99	5.572
321.35	4.236
321.72	5.425
322.08	5.143
322.45	5.248
322.81	6.532
323.18	5.668
323.54	5.638
323.91	6.951
324.27	6.179
324.64	6.033
325.00	6.108
325.37	8.416
325.73	8.136
326.10	6.466
326.46	8.056
326.83	7.830
327.19	8.841
327.56	10.136
327.92	9.176
328.29	9.524
328.65	9.273
329.01	10.777
329.38	10.794
329.74	11.447
330.11	10.970
330.47	11.353
330.84	11.182
331.20	11.191
331.56	12.033
331.93	12.700
332.29	11.689
332.66	12.818
333.02	12.941
333.38	12.455
333.75	12.823
334.11	12.356
334.48	11.121
334.84	13.911
335.20	12.943
335.57	12.635
335.93	15.130
336.29	13.818
336.66	13.392
337.02	13.874
337.38	12.834
337.75	14.223
338.11	14.132
338.47	13.790
338.84	13.339
339.20	12.830
339.56	13.815
339.93	13.228
340.29	13.818
340.65	13.811
341.02	14.587
341.38	14.238
341.74	13.802
342.11	13.481
342.47	12.618
342.83	13.014
343.20	14.176
343.56	12.571
343.92	14.023
344.28	14.130
344.65	12.871
345.01	14.370
345.37	14.867
345.73	12.766
346.10	12.428
346.46	14.135
346.82	13.071
347.19	12.983
347.55	13.162
347.91	14.567
348.27	14.240
348.63	14.297
349.00	13.922
349.36	11.944
349.72	13.217
350.08	14.515
350.45	12.845
350.81	14.490
351.17	12.781
351.53	13.365
351.89	12.692
352.26	13.023
352.62	13.978
352.98	13.212
353.34	12.950
353.70	12.046
354.07	13.375
354.43	13.043
354.79	12.441
355.15	13.019
355.51	13.516
355.87	13.676
356.24	12.232
356.60	14.504
356.96	14.704
357.32	12.668
357.68	13.180
358.04	12.933
358.40	13.998
358.77	13.910
359.13	12.395
359.49	13.908
359.85	12.500
360.21	13.166
360.57	13.404
360.93	14.519
361.29	13.453
361.66	11.966
362.02	13.609
362.38	13.793
362.74	13.480
363.10	12.912
363.46	14.316
363.82	14.067
364.18	13.025
364.54	13.796
364.90	13.487
365.26	12.910
365.62	14.326
365.98	14.011
366.35	13.521
366.71	13.460
367.07	14.397
367.43	13.590
367.79	14.227
368.15	13.940
368.51	14.615
368.87	15.179
369.23	14.246
369.59	13.403
369.95	15.152
370.31	14.205
370.67	13.811
371.03	14.213
371.39	13.225
371.75	13.948
372.11	13.702
372.47	14.244
372.83	14.186
373.19	13.643
373.55	14.004
373.91	14.083
374.27	13.210
374.63	14.355
374.99	13.908
375.35	13.055
375.71	14.922
376.07	14.305
376.42	14.437
376.78	15.229
377.14	14.712
377.50	14.571
377.86	14.369
378.22	14.259
378.58	14.083
378.94	14.427
379.30	14.991
379.66	14.268
380.02	13.725
380.38	14.320
380.74	14.771
381.09	14.587
381.45	15.274
381.81	13.672
382.17	14.599
382.53	13.982
382.89	14.474
383.25	15.051
383.61	14.387
383.97	15.187
384.32	14.643
384.68	15.115
385.04	14.674
385.40	14.790
385.76	14.878
386.12	15.365
386.48	15.161
386.83	14.110
387.19	14.824
387.55	14.113
387.91	14.345
388.27	14.475
388.62	15.204
388.98	14.597
389.34	14.994
389.70	16.017
390.06	14.543
390.42	15.256
390.77	14.637
391.13	14.410
391.49	14.598
391.85	15.337
392.20	15.655
392.56	14.356
392.92	14.261
393.28	15.442
393.64	14.973
393.99	15.262
394.35	14.964
394.71	14.021
395.07	15.066
395.42	13.886
395.78	14.393
396.14	14.642
396.50	15.046
396.85	14.867
397.21	14.399
397.57	14.407
397.92	15.222
398.28	14.722
398.64	14.277
399.00	14.888
399.35	14.205
399.71	14.866
400.07	14.209
400.42	15.633
400.78	14.132
401.14	14.551
401.49	14.800
401.85	13.606
402.21	14.958
402.57	14.078
402.92	14.223
403.28	14.706
403.63	13.541
403.99	14.605
404.35	14.010
404.70	15.155
405.06	14.591
405.42	13.653
405.77	13.348
406.13	14.140
406.49	13.960
406.84	12.837
407.20	14.311
407.55	13.236
407.91	13.472
408.27	14.154
408.62	14.251
408.98	13.887
409.34	13.589
409.69	13.485
410.05	13.887
410.40	13.918
410.76	13.693
411.11	14.339
411.47	13.299
411.83	13.998
412.18	13.800
412.54	13.423
412.89	14.277
413.25	13.459
413.60	13.305
413.96	13.124
414.31	14.067
414.67	13.778
415.03	13.713
415.38	14.379
415.74	14.240
416.09	14.322
416.45	13.492
416.80	14.759
417.16	14.684
417.51	14.905
417.87	14.369
418.22	13.843
418.58	13.736
418.93	15.021
419.29	14.555
419.64	14.008
420.00	14.642
420.35	14.075
420.71	14.406
421.06	15.799
421.42	13.759
421.77	14.852
422.12	15.109
422.48	14.431
422.83	15.604
423.19	15.256
423.54	15.677
423.90	15.847
424.25	15.554
424.61	16.164
424.96	16.091
425.31	16.322
425.67	15.530
426.02	14.745
426.38	16.213
426.73	16.306
427.09	15.993
427.44	16.250
427.79	15.988
428.15	16.697
428.50	16.891
428.85	16.667
429.21	16.491
429.56	16.823
429.92	16.834
430.27	16.500
430.62	17.555
430.98	16.832
431.33	17.129
431.68	17.802
432.04	17.851
432.39	17.037
432.74	16.787
433.10	17.276
433.45	17.214
433.80	16.853
434.16	18.055
434.51	17.863
434.86	17.926
435.22	18.541
435.57	17.748
435.92	17.995
436.28	18.576
436.63	17.863
436.98	17.526
437.34	18.252
437.69	17.970
438.04	17.924
438.39	18.953
438.75	18.510
439.10	18.767
439.45	18.346
439.81	20.060
440.16	18.569
440.51	19.294
440.86	18.508
441.22	18.353
441.57	18.947
441.92	19.540
442.27	18.452
442.63	19.152
442.98	18.849
443.33	19.714
443.68	18.499
444.03	18.811
444.39	18.747
444.74	20.485
445.09	19.572
445.44	20.428
445.79	19.786
446.15	20.099
446.50	18.726
446.85	19.651
447.20	19.459
447.55	19.392
447.91	20.326
448.26	19.832
448.61	19.411
448.96	20.448
449.31	19.842
449.66	20.836
450.02	19.391
450.37	20.058
450.72	20.226
451.07	21.245
451.42	20.012
451.77	21.005
452.12	21.097
452.47	20.970
452.83	20.559
453.18	20.240
453.53	20.274
453.88	20.694
454.23	19.952
454.58	21.318
454.93	20.970
455.28	21.096
455.63	21.130
455.98	21.506
456.34	19.949
456.69	21.263
457.04	21.389
457.39	21.232
457.74	21.559
458.09	21.056
458.44	21.709
458.79	20.516
459.14	20.194
459.49	21.966
459.84	21.135
460.19	20.943
460.54	21.900
460.89	21.637
461.24	20.826
461.59	20.985
461.94	21.897
462.29	21.441
462.64	21.937
462.99	21.553
463.34	22.215
463.69	21.438
464.04	20.094
464.39	20.789
464.74	21.336
465.09	20.385
465.44	20.643
465.79	21.433
466.14	21.979
466.49	21.589
466.84	21.248
467.19	22.195
467.54	20.696
467.89	22.072
468.24	21.675
468.59	21.299
468.94	21.093
469.29	22.287
469.64	21.159
469.99	21.675
470.34	21.910
470.68	22.456
471.03	22.712
471.38	20.972
471.73	22.937
472.08	21.553
472.43	22.329
472.78	21.667
473.13	20.742
473.48	20.996
473.83	21.464
474.17	22.484
474.52	22.315
474.87	20.979
475.22	21.298
475.57	21.167
475.92	21.436
476.27	22.400
476.61	21.915
476.96	21.465
477.31	21.690
477.66	21.859
478.01	21.934
478.36	21.949
478.70	22.104
479.05	21.201
479.40	21.969
479.75	21.916
480.10	21.577
480.45	21.035
480.79	22.458
481.14	23.081
481.49	21.588
481.84	21.498
482.19	22.202
482.53	22.254
482.88	21.785
483.23	21.690
483.58	21.647
483.92	21.882
484.27	21.090
484.62	21.901
484.97	21.746
485.31	20.992
485.66	20.724
486.01	20.313
486.36	21.229
486.70	22.062
487.05	21.503
487.40	21.875
487.75	21.392
488.09	21.279
488.44	21.346
488.79	21.047
489.13	22.024
489.48	21.982
489.83	21.485
490.17	22.203
490.52	22.283
490.87	21.247
491.22	21.906
491.56	22.037
491.91	22.233
492.26	21.698
492.60	21.551
492.95	21.799
493.30	21.010
493.64	20.921
493.99	21.511
494.34	22.143
494.68	23.034
495.03	21.654
495.37	20.944
495.72	22.053
496.07	22.196
496.41	22.001
496.76	22.237
497.11	22.186
497.45	22.079
497.80	22.611
498.14	21.807
498.49	22.803
498.84	21.699
499.18	21.930
499.53	21.773
499.87	21.139
500.22	21.324
500.56	22.511
500.91	21.576
501.26	22.804
501.60	21.136
501.95	22.367
502.29	21.162
502.64	22.112
502.98	22.137
503.33	21.758
503.67	21.360
504.02	21.004
504.36	21.814
504.71	21.530
505.06	20.469
505.40	22.206
505.75	21.240
506.09	21.638
506.44	21.754
506.78	21.576
507.13	21.524
507.47	22.014
507.82	21.735
508.16	22.021
508.51	20.453
508.85	21.014
509.19	21.298
509.54	21.564
509.88	21.809
510.23	21.436
510.57	22.487
510.92	22.019
511.26	21.106
511.61	20.464
511.95	21.713
512.30	21.825
512.64	21.146
512.98	22.167
513.33	21.417
513.67	21.273
514.02	21.309
514.36	21.773
514.70	21.505
515.05	21.441
515.39	20.473
515.74	21.233
516.08	21.671
516.42	21.813
516.77	21.895
517.11	21.796
517.46	22.428
517.80	21.600
518.14	20.954
518.49	22.176
518.83	21.840
519.17	21.610
519.52	21.457
519.86	20.789
520.20	21.455
520.55	21.108
520.89	21.540
521.23	21.368
521.58	21.191
521.92	21.596
522.26	21.714
522.61	21.229
522.95	20.294
523.29	21.129
523.64	19.988
523.98	20.560
524.32	21.370
524.66	20.621
525.01	20.039
525.35	21.714
525.69	20.299
526.04	20.627
526.38	21.579
526.72	20.498
527.06	20.638
527.41	20.660
527.75	20.330
528.09	20.384
528.43	20.328
528.78	20.603
529.12	20.359
529.46	20.039
529.80	20.658
530.15	20.219
530.49	20.246
530.83	21.284
531.17	20.404
531.51	19.156
531.86	20.013
532.20	19.973
532.54	20.455
532.88	20.158
533.22	19.719
533.57	19.909
533.91	19.975
534.25	19.296
534.59	19.300
534.93	18.544
535.27	19.824
535.62	20.013
535.96	19.586
536.30	18.914
536.64	20.053
536.98	19.633
537.32	18.798
537.66	19.280
538.01	18.625
538.35	20.135
538.69	18.984
539.03	20.041
539.37	18.829
539.71	19.680
540.05	18.437
540.39	18.490
540.73	19.627
541.07	19.194
541.42	18.433
541.76	17.674
542.10	19.649
542.44	20.187
542.78	18.860
543.12	18.330
543.46	17.534
543.80	17.860
544.14	18.402
544.48	19.357
544.82	19.283
545.16	18.712
545.50	18.843
545.84	20.167
546.18	18.932
546.52	19.488
546.86	19.373
547.20	18.917
547.54	16.942
547.88	17.518
548.22	17.628
548.56	18.771
548.90	18.935
549.24	18.360
549.58	18.419
549.92	18.728
550.26	18.497
550.60	17.994
550.94	17.810
551.28	19.037
551.62	17.725
551.96	17.873
552.30	17.979
552.64	18.508
552.98	18.150
553.32	17.677
553.66	18.890
554.00	17.555
554.34	17.401
554.68	16.667
555.02	18.162
555.36	16.247
555.69	17.407
556.03	16.281
556.37	16.856
556.71	17.323
557.05	16.925
557.39	18.263
557.73	17.943
558.07	16.880
558.41	17.801
558.75	17.719
559.08	16.187
559.42	17.917
559.76	17.485
560.10	17.524
560.44	17.919
560.78	16.771
561.12	16.908
561.45	17.397
561.79	16.934
562.13	16.971
562.47	17.507
562.81	17.256
563.15	16.445
563.48	17.070
563.82	16.024
564.16	15.957
564.50	16.935
564.84	17.063
565.17	16.446
565.51	16.688
565.85	16.903
566.19	16.667
566.52	16.830
566.86	15.866
567.20	16.889
567.54	16.539
567.88	15.857
568.21	15.884
568.55	15.270
568.89	16.054
569.23	15.271
569.56	15.847
569.90	15.146
570.24	15.934
570.57	15.395
570.91	15.301
571.25	15.759
571.59	15.485
571.92	15.357
572.26	15.339
572.60	15.513
572.93	14.679
573.27	14.756
573.61	14.654
573.95	15.114
574.28	14.889
574.62	14.921
574.96	14.831
575.29	15.117
575.63	14.388
575.97	14.536
576.30	14.634
576.64	14.700
576.98	14.631
577.31	14.756
577.65	14.717
577.98	14.719
578.32	14.628
578.66	14.548
578.99	14.521
579.33	14.695
579.67	14.126
580.00	14.484
580.34	14.530
580.67	14.611
581.01	14.100
581.35	14.096
581.68	14.218
582.02	14.448
582.35	14.202
582.69	14.611
583.02	14.279
583.36	14.395
583.70	13.927
584.03	14.440
584.37	14.452
584.70	14.301
585.04	14.456
585.37	13.866
585.71	14.393
586.04	14.488
586.38	14.354
586.72	14.374
587.05	13.934
587.39	14.750
587.72	14.229
588.06	14.470
588.39	14.298
588.73	14.393
589.06	15.409
589.40	14.806
589.73	14.908
590.07	13.948
590.40	13.911
590.73	14.274
591.07	14.631
591.40	14.645
591.74	14.292
592.07	13.514
592.41	13.970
592.74	13.759
593.08	14.109
593.41	14.046
593.75	13.650
594.08	14.486
594.41	14.640
594.75	14.911
595.08	14.060
595.42	14.776
595.75	13.708
596.09	14.435
596.42	14.689
596.75	14.144
597.09	15.405
597.42	13.924
597.75	14.570
598.09	14.550
598.42	14.361
598.76	13.621
599.09	14.009
599.42	13.841
599.76	13.779
600.09	14.618
600.42	13.976
600.76	14.124
601.09	13.825
601.42	13.257
601.76	13.941
602.09	13.252
602.42	14.156
602.76	13.835
603.09	13.065
603.42	13.376
603.76	14.120
604.09	13.336
604.42	13.156
604.76	13.737
605.09	14.150
605.42	13.963
605.75	13.238
606.09	13.284
606.42	13.196
606.75	13.654
607.09	13.674
607.42	13.380
607.75	13.819
608.08	13.737
608.42	13.056
608.75	12.897
609.08	13.492
609.41	13.004
609.75	13.262
610.08	13.137
610.41	13.012
610.74	13.685
611.07	14.047
611.41	12.405
611.74	14.447
612.07	13.641
612.40	13.486
612.73	13.678
613.07	13.374
613.40	14.012
613.73	13.243
614.06	12.960
614.39	12.909
614.72	13.073
615.06	12.663
615.39	13.077
615.72	12.819
616.05	12.866
616.38	13.581
616.71	12.853
617.05	14.113
617.38	13.189
617.71	13.084
618.04	12.795
618.37	13.711
618.70	14.472
619.03	12.661
619.36	12.896
619.69	12.922
620.03	13.705
620.36	13.361
620.69	12.563
621.02	12.938
621.35	13.387
621.68	13.033
622.01	13.673
622.34	13.509
622.67	12.656
623.00	12.242
623.33	13.731
623.66	12.408
623.99	13.308
624.32	13.393
624.65	12.656
624.99	12.621
625.32	12.949
625.65	12.277
625.98	13.380
626.31	12.969
626.64	12.552
626.97	12.586
627.30	13.447
627.63	11.226
627.96	13.316
628.29	12.408
628.62	12.607
628.95	12.697
629.28	12.312
629.61	11.973
629.94	12.949
630.26	13.817
630.59	13.367
630.92	12.613
631.25	13.810
631.58	13.968
631.91	12.340
632.24	13.111
632.57	13.444
632.90	12.529
633.23	12.617
633.56	12.982
633.89	13.443
634.22	13.105
634.55	12.620
634.88	14.389
635.20	11.985
635.53	11.578
635.86	11.209
636.19	13.309
636.52	11.708
636.85	12.034
637.18	12.375
637.51	15.489
637.83	11.851
638.16	11.842
638.49	13.103
638.82	12.227
639.15	13.100
639.48	11.803
639.81	13.831
640.13	12.297
640.46	13.248
640.79	13.305
641.12	13.258
641.45	12.912
641.77	12.425
642.10	13.444
642.43	14.416
642.76	13.071
643.09	13.016
643.41	13.333
643.74	13.355
644.07	13.105
644.40	11.669
644.73	13.366
645.05	12.521
645.38	13.742
645.71	14.433
646.04	13.613
646.36	12.216
646.69	10.035
647.02	12.274
647.35	13.357
647.67	12.774
648.00	12.127
648.33	12.985
648.66	12.097
648.98	10.510
649.31	12.923
649.64	11.250
649.96	11.617
650.29	11.148
650.62	12.565
650.94	11.467
651.27	10.572
651.60	11.938
651.92	13.356
652.25	12.020
652.58	9.540
652.90	13.644
653.23	10.484
653.56	11.204
653.88	12.623
654.21	13.255
654.54	13.787
654.86	12.199
655.19	12.751
655.52	11.943
655.84	11.236
656.17	12.012
656.49	16.498
656.82	17.523
657.15	13.523
657.47	9.956
657.80	7.638
658.13	8.795
658.45	11.694
658.78	12.237
659.10	11.856
659.43	11.574
659.75	11.723
660.08	11.719
660.41	12.272
660.73	11.441
661.06	13.913
661.38	12.679
661.71	13.767
662.03	10.484
662.36	12.580
662.68	11.181
663.01	13.376
663.33	10.431
663.66	13.519
663.98	13.170
664.31	9.172
664.63	14.823
664.96	10.412
665.28	9.544
665.61	9.937
665.93	12.346
666.26	12.146
666.58	13.098
666.91	13.363
667.23	12.281
667.56	11.338
667.88	13.801
668.21	13.825
668.53	12.617
668.86	12.933
669.18	10.959
669.50	11.215
669.83	12.652
670.15	11.435
670.48	10.981
670.80	8.884
671.13	10.158
671.45	10.811
671.77	9.636
672.10	12.229
672.42	11.624
672.75	9.091
673.07	10.991
673.39	9.290
673.72	13.780
674.04	8.917
674.37	10.103
674.69	13.730
675.01	9.574
675.34	10.412
675.66	10.799
675.98	11.454
676.31	11.086
676.63	11.264
676.95	9.071
677.28	11.833
677.60	9.276
677.92	12.115
678.25	12.910
678.57	12.346
678.89	10.273
679.22	12.998
679.54	10.848
679.86	7.800
680.18	10.646
680.51	10.428
680.83	10.857
681.15	10.983
681.48	11.562
681.80	10.282
682.12	11.469
682.44	10.413
682.77	8.658
683.09	13.627
683.41	10.619
683.73	9.132
684.06	10.753
684.38	10.879
684.70	8.848
685.02	10.039
685.34	10.916
685.67	8.523
685.99	9.263
686.31	11.490
686.63	9.397
686.96	10.536
687.28	9.634
687.60	9.961
687.92	7.782
688.24	9.449
688.56	9.619
688.89	8.120
689.21	12.254
689.53	11.494
689.85	9.800
690.17	8.296
690.49	9.007
690.82	6.265
691.14	10.142
691.46	10.643
691.78	11.454
692.10	10.593
692.42	8.000
692.74	7.511
693.06	11.011
693.39	8.725
693.71	9.932
694.03	12.959
694.35	7.901
694.67	10.402
694.99	6.905
695.31	12.500
695.63	7.908
695.95	8.189
696.27	9.975
696.59	10.963
696.91	10.112
697.23	7.812
697.56	8.654
697.88	8.784
698.20	8.994
698.52	6.278
698.84	11.650
699.16	10.476
699.48	8.250
699.80	13.033
700.12	12.091
700.44	5.307
700.76	8.163
701.08	9.302
701.40	5.740
701.72	11.111
702.04	6.090
702.36	8.735
702.68	9.581
703.00	9.565
703.32	4.011
703.64	10.000
703.96	9.302
704.28	10.651
704.60	6.013
704.91	5.397
705.23	7.767
705.55	9.122
705.87	8.874
706.19	7.639
706.51	7.639
706.83	6.885
707.15	9.236
707.47	12.121
707.79	7.732
708.11	4.835
708.43	9.476
708.74	9.870
709.06	5.014
709.38	9.770
709.70	4.062
710.02	12.577
710.34	5.281
710.66	7.619
710.98	7.256
711.29	6.774
711.61	9.585
711.93	3.607
712.25	11.296
712.57	8.014
712.89	8.993
713.20	12.371
713.52	5.224
713.84	5.338
714.16	8.525
714.48	9.841
714.80	6.154
715.11	8.357
715.43	12.048
715.75	7.477
716.07	8.852
716.39	9.365
716.70	10.453
717.02	8.889
717.34	12.214
717.66	8.299
717.97	5.328
718.29	9.664
718.61	8.730
718.93	8.961
719.24	5.147
719.56	4.528
719.88	5.091
720.20	4.120
720.51	9.023
720.83	4.819
721.15	6.557
721.46	9.020
721.78	4.598
722.10	10.800
722.42	7.025
722.73	6.375
723.05	10.442
723.37	11.765
723.68	4.453
724.00	9.756
724.32	11.111
724.63	7.054
724.95	14.050
725.27	4.825
725.58	7.328
725.90	1.587
726.22	7.380
726.53	6.844
726.85	5.490
727.16	7.895
727.48	9.615
727.80	5.738
728.11	3.361
728.43	6.612
728.74	9.375
729.06	7.955
729.38	8.949
729.69	6.299
730.01	7.087
730.32	1.992
730.64	8.425
730.96	8.955
731.27	6.786
731.59	8.682
731.90	6.442
732.22	9.509
732.53	11.589
732.85	6.040
733.16	5.435
733.48	5.923
733.80	7.829
734.11	7.931
734.43	5.442
734.74	6.231
735.06	4.389
735.37	8.869
735.69	4.516
736.00	6.061
736.32	8.278
736.63	6.552
736.95	6.159
737.26	7.616
737.58	9.712
737.89	5.735
738.21	0.376
738.52	6.923
738.83	7.812
739.15	5.983
739.46	5.242
739.78	5.594
740.09	5.594
740.41	4.895
740.72	8.394
741.04	2.381
741.35	3.463
741.66	3.241
741.98	4.286
742.29	8.451
742.61	4.813
742.92	9.346
743.23	7.018
743.55	5.856
743.86	8.444
744.18	3.810
744.49	11.330
744.80	7.614
745.12	9.794
745.43	7.538
745.74	6.796
746.06	4.390
746.37	14.097
746.68	7.463
747.00	3.141
747.31	2.885
747.62	7.373
747.94	4.367
748.25	7.907
748.56	7.619
748.88	2.717
749.19	4.695
749.50	11.275
749.82	10.222
750.13	7.048
750.44	4.472
750.75	0.400
751.07	9.286
751.38	2.214
751.69	2.290
752.01	10.000
752.32	5.058
752.63	3.462
752.94	3.175
753.26	2.609
753.57	5.357
753.88	8.621
754.19	4.564
754.51	7.031
754.82	7.115
755.13	1.235
755.44	2.893
755.75	7.407
756.07	0.803
756.38	5.859
756.69	7.220
757.00	4.878
757.31	5.705
757.63	10.280
757.94	7.803
758.25	4.651
758.56	10.782
758.87	7.386
759.18	5.667
759.50	8.185
759.81	1.460
760.12	3.378
760.43	5.825
760.74	5.938
761.05	5.618
761.36	5.988
761.67	4.734
761.99	8.710
762.30	8.333
762.61	7.170
762.92	0.897
763.23	7.109
763.54	-0.444
763.85	5.485
764.16	7.347
764.47	2.542
764.78	5.618
765.10	9.712
765.41	5.806
765.72	7.862
766.03	3.180
766.34	6.767
766.65	7.287
766.96	2.000
767.27	4.687
767.58	5.814
767.89	0.645
768.20	2.454
768.51	6.011
768.82	1.081
769.13	-3.000
769.44	3.509
769.75	3.896
770.06	5.046
770.37	4.225
770.68	1.562
770.99	7.921
771.30	4.854
771.61	5.093
771.92	-0.433
772.23	5.140
772.54	2.128
772.85	-1.775
773.16	3.659
773.47	7.831
773.78	9.341
774.09	1.333
774.39	3.704
774.70	-1.342
775.01	-0.725
775.32	2.239
775.63	-4.132
775.94	0.000
776.25	0.714
776.56	1.639
776.87	11.504
777.18	-1.770
777.48	-10.000
777.79	-6.087
778.10	-11.927
778.41	3.390
778.72	0.000
779.03	4.478
779.34	11.278
779.65	-1.307
779.95	-0.725
780.26	-2.041
780.57	-5.172
780.88	-2.778
781.19	-13.131
781.50	-4.000
781.80	2.614
782.11	0.641
782.42	4.217
782.73	0.730
783.04	5.405
783.34	1.515
783.65	0.000
783.96	7.317
784.27	-0.855
784.57	-8.943
784.88	-0.813
785.19	6.140
785.50	-20.619
785.81	-3.810
786.11	-14.706
786.42	-1.818
786.73	4.505
787.04	-2.970
787.34	-8.571
787.65	7.619
787.96	-6.863
788.26	7.207
788.57	2.419
788.88	-2.344
789.19	-2.564
789.49	-5.882
789.80	0.855
790.11	4.425
790.41	4.040
790.72	3.774
791.03	-13.889
791.33	-13.158
791.64	-2.151
791.95	-4.000
792.25	-22.857
792.56	0.000
792.87	10.204
793.17	-18.421
793.48	-6.757
793.79	-11.268
794.09	-6.329
794.40	0.000
794.70	-4.673
795.01	-11.404
795.32	-1.818
795.62	-3.571
795.93	-3.093
796.23	-14.286
796.54	1.053
796.85	-10.959
797.15	-11.111
797.46	-4.110
797.76	11.268
798.07	3.750
798.37	-13.235
798.68	1.429
798.99	-2.857
799.29	5.263
799.60	-26.667
799.90	-16.667
800.21	-25.000
800.51	-4.762
800.82	-4.918
801.12	-21.053
801.43	-4.225
801.73	-35.593
802.04	-3.279
802.34	1.818
802.65	-17.308
802.95	1.852
803.26	-45.000
803.56	-1.923
803.87	-60.526
804.17	-4.839
804.48	-18.462
804.78	-7.692
805.09	-16.279
805.39	-40.625
805.70	-33.962
806.00	-14.035
806.30	17.568
806.61	-11.765
806.91	0.000
807.22	0.000
807.52	1.493
807.83	-14.516
808.13	-17.460
808.43	-20.000
808.74	-6.061
809.04	-5.660
809.35	1.370
809.65	7.018
809.95	14.706
810.26	-17.647
810.56	-24.000
810.86	4.082
811.17	-20.000
811.47	-5.769
811.77	-41.935
812.08	-63.158
812.38	-7.143
812.69	-13.043
812.99	-6.452
813.29	-14.286
813.59	-103.704
813.90	-17.021
814.20	-34.884
814.50	-31.250
814.81	-18.333
815.11	-36.585
815.41	-40.000
815.72	-48.571
816.02	-27.778
816.32	15.385
816.62	-13.514
816.93	-32.353
817.23	0.000
817.53	-8.824
817.84	-17.647
818.14	-71.875
818.44	-100.000
818.74	-58.065
819.04	-44.444
819.35	-13.333
819.65	-44.000
819.95	-30.000
820.25	-64.000
820.56	-44.737
820.86	-27.500
821.16	-8.511
821.46	-3.448
821.76	-23.077
822.07	-35.000
822.37	-6.977
822.67	-40.000
822.97	-40.541
823.27	-51.351
823.57	-20.000
823.88	-16.216
824.18	-100.000
824.48	-30.769
824.78	-130.769
825.08	-78.261
825.38	-29.167
825.69	0.000
825.99	-90.000
826.29	-59.459
826.59	-44.118
826.89	-8.000
827.19	-28.571
827.49	-15.789
827.79	-37.500
828.09	-60.000
828.39	-21.739
828.70	-34.483
829.00	-51.724
829.30	-27.778
829.60	0.000
829.90	-83.333
830.20	-96.154
830.50	-47.619
830.80	-42.857
831.10	5.128
831.40	-123.810
831.70	-29.412
832.00	-33.333
832.30	-36.842
832.60	-125.000
832.90	-175.000
833.20	-88.235
833.50	-133.333
833.80	-100.000
834.10	-55.000
834.40	-16.667
834.70	-33.333
835.00	-26.923
835.30	-45.833
835.60	-3.448
835.90	-88.889
836.20	-218.182
836.50	-108.333
836.80	-28.571
837.10	5.714
837.40	-94.118
837.70	-181.818
838.00	-33.333
838.30	-81.250
838.60	-47.619
838.90	-60.000
839.19	-56.522
839.49	-56.522
839.79	-111.111
840.09	-78.261
840.39	-45.455
840.69	-93.750
840.99	-57.895
841.29	-131.250
841.59	-107.143
841.88	-150.000
842.18	4.167
842.48	-158.824
842.78	-13.793
843.08	-78.571
843.38	-115.385
843.68	-266.667
843.97	-123.077
844.27	-163.636
844.57	-540.000
844.87	8.000
845.17	-340.000
845.47	-121.429
845.76	-133.333
846.06	0.000
846.36	-425.000
846.66	-130.000
846.96	-36.842
847.25	-16.667
847.55	-91.667
847.85	-146.667
848.15	-230.000
848.44	15.385
848.74	-26.316
849.04	566.667
849.34	-133.333
849.63	-131.579
849.93	0.000
850.23	-70.000
850.53	-28.571
850.82	-36.000
851.12	-10.526
851.42	-1400.000
851.71	-35.714
852.01	-183.333
852.31	-23.529
852.61	-60.000
852.90	-57.143
853.20	-233.333
853.50	-66.667
853.79	-84.211
854.09	-80.000
854.39	-25.000
854.68	-60.870
854.98	-141.667
855.28	-10.345
855.57	-50.000
855.87	-30.000
856.17	-126.667
856.46	-44.828
856.76	-73.333
857.05	-94.118
857.35	-138.462
857.65	-54.545
857.94	-37.037
858.24	-142.857
858.53	-57.143
858.83	-108.333
859.13	-222.222
859.42	33.333
859.72	-137.500
860.01	-233.333
860.31	-137.500
860.60	-260.000
860.90	-266.667
861.20	-225.000
861.49	-242.857
861.79	-17.647
862.08	-850.000
862.38	-175.000
862.67	-138.462
862.97	-41.176
863.26	-25.000
863.56	-58.824
863.85	766.667
864.15	-200.000
864.44	-107.692
864.74	-30.000
865.03	-212.500
865.33	-283.333
865.62	-94.118
865.92	-375.000
866.21	-85.714
866.51	-41.667
866.80	-400.000
867.10	-566.667
867.39	-47.059
867.69	-43.478
867.98	-214.286
868.27	-400.000
868.57	-93.750
868.86	-254.545
869.16	-29.412
869.45	-100.000
869.75	-71.429
870.04	1900.000
870.33	-183.333
870.63	-80.000
870.92	-133.333
871.22	0.000
871.51	-100.000
871.80	-83.333
872.10	0.000
>>>>>End Processed Spectral Data<<<<<
