SpectraSuite Data File
++++++++++++++++++++++++++++++++++++
Date: Sat May 16 11:36:04 PDT 2015
User: schluterlab
Dark Spectrum Present: Yes
Reference Spectrum Present: Yes
Number of Sampled Component Spectra: 1
Spectrometers: USB2E3373
Integration Time (usec): 3000 (USB2E3373)
Spectra Averaged: 3 (USB2E3373)
Boxcar Smoothing: 0 (USB2E3373)
Correct for Electrical Dark: No (USB2E3373)
Strobe/Lamp Enabled: No (USB2E3373)
Correct for Detector Non-linearity: No (USB2E3373)
Correct for Stray Light: No (USB2E3373)
Number of Pixels in Processed Spectrum: 2048
>>>>>Begin Processed Spectral Data<<<<<
178.53	0.000
178.91	106.667
179.29	666.667
179.67	-900.000
180.04	-7.692
180.42	1000.000
180.80	425.000
181.18	550.000
181.56	-162.500
181.94	1400.000
182.31	425.000
182.69	-15.385
183.07	-600.000
183.45	1400.000
183.83	300.000
184.20	-85.714
184.58	-150.000
184.96	-75.000
185.34	125.000
185.72	-400.000
186.09	233.333
186.47	-237.500
186.85	-237.500
187.23	-125.000
187.61	-325.000
187.98	-250.000
188.36	-62.500
188.74	-200.000
189.12	1300.000
189.49	314.286
189.87	-25.000
190.25	300.000
190.63	-71.429
191.00	-211.111
191.38	380.000
191.76	-40.000
192.14	560.000
192.51	-380.000
192.89	-633.333
193.27	0.000
193.65	-88.889
194.02	-328.571
194.40	433.333
194.78	-110.000
195.15	-1800.000
195.53	-145.455
195.91	-433.333
196.29	80.000
196.66	-333.333
197.04	1800.000
197.42	-75.000
197.79	26.667
198.17	-500.000
198.55	-350.000
198.92	-1800.000
199.30	312.500
199.68	-850.000
200.05	-100.000
200.43	-177.778
200.81	-200.000
201.18	-141.667
201.56	242.857
201.94	-20.000
202.31	9.091
202.69	-170.000
203.07	-70.000
203.44	900.000
203.82	-483.333
204.19	-275.000
204.57	-325.000
204.95	-1100.000
205.32	0.000
205.70	1600.000
206.08	-2200.000
206.45	-27.778
206.83	-800.000
207.20	-500.000
207.58	-833.333
207.96	-500.000
208.33	-137.500
208.71	-144.444
209.08	240.000
209.46	-271.429
209.84	900.000
210.21	0.000
210.59	5.000
210.96	2100.000
211.34	-466.667
211.71	-466.667
212.09	425.000
212.46	850.000
212.84	-2800.000
213.22	866.667
213.59	208.333
213.97	-11.111
214.34	270.000
214.72	-40.000
215.09	-500.000
215.47	-250.000
215.84	-60.000
216.22	-90.000
216.59	73.333
216.97	-250.000
217.34	1300.000
217.72	-200.000
218.09	-383.333
218.47	-314.286
218.84	214.286
219.22	-228.571
219.59	0.000
219.97	85.714
220.34	350.000
220.72	150.000
221.09	-138.462
221.47	0.000
221.84	666.667
222.22	-1150.000
222.59	1500.000
222.97	-287.500
223.34	-950.000
223.72	-733.333
224.09	-78.571
224.46	-500.000
224.84	-64.286
225.21	-128.571
225.59	-127.273
225.96	-112.500
226.34	-114.286
226.71	33.333
227.08	-55.000
227.46	3000.000
227.83	-200.000
228.21	-237.500
228.58	450.000
228.95	-56.250
229.33	-800.000
229.70	-260.000
230.08	-900.000
230.45	-41.667
230.82	-100.000
231.20	-900.000
231.57	-50.000
231.95	1600.000
232.32	-9.524
232.69	-166.667
233.07	-257.143
233.44	-1100.000
233.81	-20.000
234.19	-211.111
234.56	-68.750
234.93	-6.250
235.31	-142.857
235.68	-78.571
236.05	-76.471
236.43	-100.000
236.80	-29.032
237.17	-45.833
237.55	-52.381
237.92	-95.455
238.29	-20.000
238.67	-29.412
239.04	-22.222
239.41	-41.935
239.79	-28.205
240.16	-57.143
240.53	-9.091
240.91	0.000
241.28	0.000
241.65	-4.615
242.02	-6.557
242.40	-4.918
242.77	0.000
243.14	-22.034
243.51	-20.000
243.89	-10.127
244.26	0.000
244.63	6.316
245.00	14.737
245.38	-5.085
245.75	7.080
246.12	8.000
246.49	3.937
246.87	4.065
247.24	-0.847
247.61	-0.847
247.98	5.634
248.36	2.797
248.73	6.329
249.10	5.096
249.47	12.865
249.84	16.477
250.22	0.000
250.59	1.695
250.96	10.471
251.33	12.796
251.70	9.615
252.08	9.005
252.45	6.635
252.82	7.143
253.19	12.766
253.56	7.661
253.94	10.970
254.31	8.584
254.68	10.976
255.05	12.903
255.42	11.508
255.79	9.319
256.16	12.549
256.54	5.515
256.91	9.091
257.28	6.960
257.65	7.092
258.02	15.409
258.39	10.368
258.76	4.730
259.14	10.185
259.51	11.148
259.88	10.671
260.25	13.665
260.62	8.682
260.99	5.638
261.36	11.280
261.73	10.983
262.10	13.056
262.47	9.402
262.85	17.143
263.22	9.456
263.59	11.385
263.96	9.855
264.33	13.279
264.70	11.050
265.07	12.637
265.44	9.302
265.81	12.403
266.18	9.873
266.55	10.294
266.92	14.106
267.29	12.107
267.66	10.864
268.03	16.425
268.40	14.319
268.77	12.289
269.14	11.833
269.51	12.414
269.88	9.404
270.25	9.091
270.62	10.984
270.99	11.937
271.36	11.655
271.73	9.641
272.10	10.984
272.47	11.778
272.84	14.444
273.21	11.239
273.58	12.747
273.95	12.061
274.32	12.443
274.69	14.223
275.06	11.656
275.43	10.491
275.80	15.682
276.17	11.088
276.54	14.664
276.91	9.259
277.28	13.185
277.65	10.537
278.02	11.691
278.39	15.128
278.76	12.948
279.13	11.265
279.50	12.326
279.87	11.416
280.23	12.551
280.60	13.121
280.97	11.456
281.34	13.346
281.71	10.769
282.08	12.298
282.45	9.776
282.82	12.984
283.19	12.909
283.56	13.004
283.92	12.721
284.29	14.312
284.66	12.230
285.03	13.725
285.40	10.886
285.77	12.982
286.14	11.552
286.51	10.657
286.87	13.067
287.24	12.799
287.61	12.893
287.98	9.879
288.35	11.074
288.72	10.526
289.08	11.356
289.45	13.131
289.82	11.246
290.19	11.166
290.56	10.579
290.93	9.698
291.29	13.614
291.66	12.560
292.03	12.402
292.40	11.295
292.77	10.714
293.13	12.033
293.50	11.441
293.87	11.043
294.24	10.106
294.60	9.091
294.97	10.622
295.34	9.926
295.71	10.565
296.08	9.063
296.44	10.157
296.81	11.111
297.18	9.296
297.55	11.864
297.91	11.715
298.28	9.863
298.65	9.623
299.02	11.898
299.38	10.428
299.75	9.239
300.12	10.385
300.48	10.486
300.85	9.043
301.22	9.702
301.59	10.013
301.95	11.083
302.32	8.214
302.69	11.138
303.05	10.256
303.42	8.750
303.79	9.809
304.15	11.256
304.52	10.268
304.89	9.563
305.25	9.646
305.62	9.048
305.99	10.718
306.35	10.988
306.72	9.453
307.09	11.010
307.45	8.627
307.82	8.156
308.19	10.738
308.55	9.477
308.92	8.915
309.29	9.946
309.65	8.908
310.02	10.475
310.38	9.297
310.75	10.451
311.12	9.814
311.48	9.916
311.85	9.475
312.22	10.299
312.58	10.071
312.95	9.684
313.31	10.190
313.68	9.347
314.05	10.880
314.41	9.457
314.78	9.191
315.14	10.661
315.51	9.726
315.87	9.971
316.24	9.718
316.61	10.077
316.97	10.249
317.34	10.597
317.70	9.647
318.07	10.354
318.43	9.551
318.80	10.704
319.16	8.724
319.53	9.962
319.89	8.655
320.26	9.412
320.62	9.231
320.99	9.453
321.35	8.374
321.72	8.495
322.08	9.594
322.45	9.307
322.81	10.183
323.18	10.086
323.54	9.612
323.91	9.639
324.27	9.506
324.64	9.598
325.00	10.995
325.37	10.588
325.73	10.674
326.10	8.237
326.46	10.333
326.83	11.234
327.19	11.426
327.56	11.499
327.92	11.130
328.29	11.602
328.65	10.636
329.01	11.661
329.38	10.794
329.74	10.897
330.11	11.605
330.47	10.445
330.84	11.732
331.20	10.560
331.56	10.665
331.93	10.391
332.29	10.685
332.66	11.326
333.02	11.765
333.38	11.559
333.75	11.932
334.11	9.778
334.48	11.209
334.84	11.724
335.20	11.702
335.57	11.733
335.93	12.086
336.29	9.655
336.66	11.101
337.02	11.171
337.38	11.230
337.75	11.414
338.11	11.181
338.47	10.676
338.84	11.434
339.20	10.105
339.56	12.389
339.93	9.612
340.29	10.540
340.65	9.615
341.02	11.467
341.38	10.783
341.74	12.108
342.11	10.239
342.47	11.159
342.83	10.579
343.20	11.102
343.56	10.449
343.92	11.436
344.28	11.354
344.65	9.323
345.01	9.328
345.37	11.462
345.73	9.493
346.10	10.466
346.46	9.748
346.82	11.628
347.19	10.518
347.55	10.674
347.91	9.843
348.27	10.581
348.63	11.632
349.00	11.376
349.36	9.914
349.72	11.943
350.08	10.184
350.45	10.559
350.81	10.111
351.17	10.611
351.53	9.228
351.89	10.105
352.26	10.853
352.62	12.135
352.98	10.364
353.34	10.951
353.70	8.958
354.07	9.913
354.43	11.067
354.79	10.143
355.15	10.383
355.51	9.141
355.87	9.249
356.24	9.849
356.60	10.959
356.96	11.008
357.32	10.372
357.68	9.425
358.04	9.854
358.40	9.977
358.77	10.124
359.13	9.946
359.49	10.355
359.85	9.375
360.21	10.046
360.57	11.145
360.93	9.778
361.29	10.762
361.66	8.918
362.02	9.911
362.38	10.492
362.74	9.158
363.10	10.043
363.46	9.758
363.82	9.257
364.18	10.564
364.54	10.793
364.90	9.853
365.26	9.986
365.62	11.048
365.98	10.811
366.35	9.930
366.71	10.500
367.07	10.374
367.43	10.364
367.79	11.065
368.15	9.815
368.51	10.559
368.87	11.332
369.23	10.456
369.59	10.069
369.95	10.571
370.31	10.549
370.67	9.978
371.03	10.714
371.39	9.689
371.75	10.730
372.11	10.330
372.47	9.689
372.83	10.431
373.19	10.500
373.55	10.767
373.91	10.455
374.27	9.651
374.63	9.662
374.99	10.570
375.35	10.027
375.71	9.926
376.07	9.925
376.42	9.536
376.78	9.869
377.14	10.441
377.50	10.123
377.86	10.013
378.22	10.427
378.58	10.377
378.94	10.111
379.30	10.238
379.66	10.747
380.02	10.636
380.38	9.789
380.74	10.785
381.09	11.072
381.45	10.621
381.81	9.558
382.17	10.401
382.53	9.787
382.89	10.227
383.25	10.295
383.61	9.965
383.97	10.043
384.32	9.887
384.68	11.366
385.04	10.145
385.40	10.895
385.76	9.756
386.12	10.556
386.48	10.829
386.83	11.043
387.19	10.400
387.55	10.963
387.91	10.255
388.27	9.530
388.62	9.976
388.98	9.994
389.34	9.976
389.70	9.988
390.06	10.503
390.42	9.936
390.77	9.590
391.13	10.621
391.49	10.917
391.85	9.850
392.20	10.012
392.56	9.346
392.92	10.211
393.28	10.964
393.64	10.403
393.99	10.708
394.35	10.341
394.71	9.759
395.07	10.483
395.42	9.654
395.78	9.931
396.14	11.402
396.50	9.541
396.85	10.672
397.21	10.146
397.57	11.185
397.92	10.304
398.28	10.722
398.64	10.113
399.00	10.337
399.35	10.090
399.71	10.569
400.07	11.045
400.42	11.375
400.78	9.958
401.14	10.419
401.49	10.790
401.85	10.311
402.21	10.310
402.57	10.316
402.92	11.265
403.28	9.620
403.63	9.467
403.99	10.503
404.35	10.326
404.70	10.357
405.06	11.188
405.42	9.164
405.77	10.011
406.13	10.562
406.49	10.186
406.84	10.138
407.20	10.483
407.55	10.766
407.91	10.039
408.27	10.110
408.62	10.944
408.98	10.370
409.34	9.933
409.69	10.334
410.05	10.370
410.40	10.423
410.76	10.077
411.11	10.100
411.47	9.910
411.83	10.330
412.18	9.406
412.54	9.640
412.89	10.693
413.25	9.445
413.60	9.721
413.96	9.365
414.31	9.908
414.67	9.905
415.03	10.155
415.38	9.629
415.74	10.631
416.09	10.358
416.45	10.119
416.80	10.013
417.16	9.435
417.51	9.980
417.87	9.838
418.22	9.608
418.58	9.949
418.93	10.668
419.29	10.414
419.64	9.862
420.00	10.389
420.35	9.344
420.71	10.144
421.06	10.000
421.42	9.778
421.77	9.827
422.12	10.520
422.48	9.567
422.83	10.592
423.19	9.688
423.54	10.605
423.90	9.427
424.25	9.785
424.61	10.917
424.96	10.298
425.31	11.068
425.67	10.029
426.02	10.270
426.38	10.042
426.73	10.695
427.09	9.926
427.44	9.659
427.79	10.116
428.15	9.874
428.50	10.381
428.85	9.832
429.21	9.408
429.56	10.208
429.92	9.820
430.27	10.768
430.62	10.397
430.98	9.357
431.33	10.139
431.68	10.134
432.04	10.856
432.39	10.313
432.74	10.851
433.10	9.904
433.45	10.190
433.80	9.574
434.16	10.425
434.51	10.027
434.86	10.662
435.22	9.855
435.57	10.037
435.92	10.610
436.28	9.555
436.63	9.271
436.98	9.164
437.34	9.864
437.69	10.152
438.04	9.246
438.39	9.928
438.75	10.536
439.10	10.050
439.45	9.475
439.81	10.422
440.16	9.767
440.51	9.529
440.86	10.121
441.22	9.895
441.57	9.737
441.92	10.384
442.27	9.903
442.63	9.979
442.98	9.086
443.33	9.775
443.68	9.588
444.03	10.216
444.39	10.328
444.74	10.077
445.09	9.923
445.44	9.567
445.79	9.485
446.15	10.953
446.50	9.799
446.85	10.313
447.20	10.317
447.55	10.110
447.91	10.275
448.26	10.279
448.61	9.508
448.96	10.420
449.31	9.865
449.66	10.189
450.02	9.806
450.37	9.739
450.72	9.831
451.07	10.119
451.42	9.975
451.77	10.233
452.12	9.297
452.47	9.761
452.83	9.202
453.18	9.235
453.53	9.950
453.88	10.467
454.23	9.311
454.58	10.193
454.93	10.831
455.28	9.242
455.63	10.258
455.98	10.843
456.34	8.895
456.69	10.381
457.04	9.650
457.39	9.809
457.74	9.392
458.09	9.629
458.44	11.259
458.79	9.809
459.14	9.812
459.49	10.006
459.84	10.568
460.19	10.621
460.54	9.437
460.89	10.146
461.24	9.350
461.59	10.610
461.94	9.866
462.29	9.887
462.64	9.091
462.99	10.107
463.34	10.668
463.69	9.733
464.04	10.018
464.39	10.036
464.74	10.402
465.09	9.862
465.44	9.419
465.79	9.983
466.14	9.666
466.49	9.845
466.84	10.204
467.19	10.723
467.54	9.747
467.89	10.974
468.24	10.036
468.59	10.681
468.94	10.032
469.29	9.097
469.64	10.782
469.99	10.601
470.34	10.488
470.68	10.538
471.03	10.599
471.38	8.750
471.73	9.580
472.08	9.170
472.43	9.717
472.78	10.333
473.13	9.675
473.48	10.147
473.83	9.491
474.17	9.936
474.52	10.614
474.87	10.315
475.22	9.971
475.57	10.611
475.92	10.529
476.27	10.057
476.61	10.085
476.96	10.229
477.31	10.603
477.66	9.851
478.01	10.481
478.36	10.267
478.70	10.731
479.05	9.356
479.40	10.622
479.75	10.652
480.10	10.962
480.45	9.526
480.79	10.711
481.14	9.834
481.49	10.165
481.84	10.079
482.19	10.827
482.53	10.938
482.88	10.204
483.23	10.469
483.58	10.777
483.92	10.511
484.27	10.013
484.62	10.238
484.97	10.249
485.31	9.408
485.66	10.018
486.01	10.074
486.36	10.016
486.70	10.682
487.05	10.508
487.40	10.417
487.75	9.966
488.09	9.852
488.44	10.284
488.79	10.294
489.13	9.852
489.48	10.644
489.83	10.306
490.17	10.187
490.52	11.096
490.87	10.439
491.22	10.696
491.56	10.972
491.91	10.592
492.26	10.802
492.60	10.704
492.95	11.090
493.30	10.529
493.64	10.108
493.99	10.516
494.34	10.810
494.68	10.206
495.03	10.468
495.37	9.636
495.72	10.609
496.07	10.511
496.41	10.977
496.76	10.502
497.11	10.457
497.45	11.303
497.80	10.005
498.14	10.265
498.49	9.995
498.84	10.583
499.18	11.404
499.53	10.326
499.87	10.280
500.22	10.931
500.56	11.106
500.91	10.394
501.26	10.820
501.60	9.870
501.95	10.193
502.29	10.109
502.64	11.127
502.98	9.631
503.33	10.479
503.67	10.728
504.02	10.864
504.36	11.324
504.71	10.385
505.06	10.334
505.40	11.377
505.75	10.772
506.09	10.364
506.44	10.777
506.78	10.487
507.13	11.020
507.47	11.268
507.82	10.738
508.16	10.984
508.51	10.768
508.85	10.870
509.19	10.466
509.54	10.941
509.88	11.117
510.23	10.954
510.57	11.005
510.92	11.171
511.26	10.473
511.61	10.313
511.95	11.207
512.30	11.105
512.64	9.905
512.98	11.551
513.33	11.093
513.67	11.111
514.02	10.738
514.36	10.803
514.70	10.866
515.05	10.978
515.39	11.246
515.74	11.344
516.08	11.643
516.42	10.878
516.77	11.496
517.11	11.384
517.46	11.663
517.80	11.492
518.14	10.930
518.49	10.640
518.83	11.276
519.17	11.664
519.52	11.220
519.86	11.708
520.20	11.430
520.55	11.692
520.89	10.520
521.23	11.783
521.58	10.658
521.92	11.146
522.26	11.683
522.61	10.837
522.95	10.785
523.29	10.972
523.64	11.555
523.98	11.840
524.32	11.188
524.66	10.497
525.01	10.405
525.35	11.340
525.69	11.711
526.04	10.836
526.38	11.776
526.72	10.983
527.06	11.784
527.41	10.693
527.75	10.495
528.09	10.854
528.43	11.475
528.78	11.683
529.12	12.164
529.46	11.727
529.80	11.298
530.15	11.977
530.49	11.514
530.83	12.443
531.17	10.774
531.51	11.587
531.86	11.455
532.20	10.864
532.54	11.698
532.88	11.462
533.22	10.227
533.57	11.488
533.91	9.800
534.25	11.816
534.59	11.305
534.93	10.454
535.27	11.517
535.62	11.701
535.96	11.700
536.30	11.257
536.64	11.753
536.98	11.088
537.32	11.472
537.66	11.609
538.01	9.897
538.35	11.216
538.69	11.430
539.03	12.187
539.37	10.778
539.71	11.808
540.05	11.515
540.39	11.842
540.73	11.679
541.07	12.363
541.42	11.006
541.76	10.432
542.10	12.019
542.44	11.259
542.78	11.805
543.12	10.455
543.46	10.411
543.80	10.970
544.14	10.275
544.48	10.827
544.82	10.758
545.16	11.603
545.50	10.633
545.84	11.266
546.18	10.749
546.52	12.020
546.86	10.969
547.20	11.533
547.54	10.606
547.88	12.077
548.22	10.223
548.56	11.089
548.90	10.916
549.24	10.301
549.58	11.150
549.92	11.519
550.26	11.488
550.60	11.309
550.94	10.949
551.28	10.835
551.62	11.078
551.96	11.288
552.30	10.801
552.64	11.049
552.98	12.123
553.32	10.462
553.66	11.536
554.00	11.798
554.34	10.181
554.68	10.892
555.02	12.373
555.36	10.424
555.69	11.103
556.03	10.807
556.37	11.024
556.71	11.167
557.05	11.752
557.39	10.987
557.73	11.379
558.07	10.625
558.41	11.070
558.75	11.331
559.08	9.961
559.42	10.796
559.76	11.196
560.10	11.037
560.44	11.199
560.78	11.413
561.12	11.042
561.45	11.781
561.79	10.453
562.13	11.360
562.47	10.504
562.81	10.679
563.15	10.637
563.48	11.265
563.82	11.156
564.16	11.089
564.50	11.156
564.84	11.640
565.17	11.008
565.51	11.473
565.85	11.021
566.19	10.013
566.52	10.633
566.86	10.051
567.20	11.562
567.54	11.636
567.88	10.999
568.21	11.130
568.55	11.188
568.89	10.686
569.23	11.245
569.56	10.929
569.90	11.054
570.24	10.447
570.57	10.404
570.91	10.711
571.25	10.506
571.59	9.991
571.92	10.774
572.26	10.365
572.60	10.859
572.93	10.406
573.27	10.152
573.61	10.037
573.95	10.538
574.28	10.098
574.62	10.219
574.96	10.419
575.29	10.569
575.63	10.539
575.97	10.275
576.30	10.195
576.64	10.131
576.98	10.376
577.31	10.155
577.65	9.998
577.98	10.131
578.32	10.208
578.66	10.369
578.99	10.485
579.33	10.073
579.67	10.221
580.00	9.896
580.34	10.152
580.67	10.272
581.01	10.078
581.35	10.414
581.68	10.019
582.02	10.244
582.35	10.179
582.69	10.022
583.02	10.279
583.36	10.367
583.70	10.241
584.03	10.587
584.37	10.203
584.70	9.992
585.04	10.025
585.37	9.809
585.71	10.377
586.04	10.132
586.38	9.997
586.72	10.259
587.05	10.139
587.39	9.970
587.72	10.459
588.06	10.481
588.39	10.339
588.73	10.048
589.06	10.262
589.40	10.100
589.73	10.517
590.07	10.306
590.40	10.148
590.73	10.236
591.07	10.000
591.40	10.615
591.74	10.426
592.07	10.405
592.41	10.149
592.74	10.492
593.08	10.402
593.41	10.296
593.75	10.089
594.08	9.921
594.41	11.091
594.75	10.646
595.08	10.263
595.42	10.441
595.75	10.548
596.09	10.128
596.42	10.597
596.75	10.004
597.09	10.240
597.42	10.039
597.75	10.142
598.09	10.438
598.42	10.163
598.76	9.925
599.09	9.787
599.42	9.573
599.76	10.570
600.09	10.496
600.42	10.672
600.76	10.433
601.09	9.951
601.42	9.656
601.76	11.137
602.09	9.734
602.42	10.082
602.76	9.182
603.09	9.960
603.42	10.032
603.76	10.052
604.09	10.613
604.42	10.408
604.76	10.031
605.09	10.398
605.42	10.505
605.75	10.047
606.09	10.295
606.42	9.803
606.75	10.305
607.09	10.587
607.42	10.343
607.75	9.713
608.08	10.619
608.42	10.076
608.75	10.467
609.08	9.791
609.41	10.214
609.75	10.336
610.08	10.637
610.41	10.651
610.74	10.928
611.07	10.243
611.41	10.035
611.74	10.797
612.07	10.311
612.40	10.341
612.73	10.178
613.07	10.512
613.40	11.221
613.73	10.518
614.06	10.104
614.39	10.316
614.72	10.000
615.06	9.783
615.39	9.929
615.72	10.049
616.05	9.884
616.38	10.621
616.71	11.051
617.05	11.158
617.38	10.712
617.71	10.442
618.04	10.311
618.37	9.560
618.70	10.561
619.03	10.088
619.36	10.782
619.69	10.768
620.03	10.882
620.36	9.705
620.69	10.337
621.02	10.731
621.35	9.677
621.68	10.000
622.01	10.761
622.34	10.714
622.67	10.078
623.00	11.400
623.33	11.493
623.66	10.044
623.99	10.977
624.32	9.152
624.65	10.155
624.99	10.082
625.32	8.757
625.65	10.334
625.98	10.485
626.31	10.604
626.64	10.042
626.97	10.445
627.30	10.723
627.63	8.808
627.96	10.270
628.29	10.294
628.62	9.647
628.95	9.646
629.28	9.680
629.61	8.342
629.94	9.546
630.26	11.829
630.59	13.065
630.92	10.210
631.25	11.694
631.58	10.370
631.91	8.936
632.24	11.222
632.57	9.778
632.90	11.034
633.23	10.748
633.56	9.825
633.89	10.142
634.22	10.153
634.55	11.418
634.88	10.883
635.20	10.487
635.53	10.941
635.86	10.453
636.19	10.134
636.52	12.067
636.85	10.349
637.18	9.750
637.51	11.152
637.83	10.519
638.16	8.816
638.49	10.759
638.82	10.553
639.15	10.506
639.48	9.209
639.81	11.618
640.13	9.459
640.46	11.396
640.79	11.485
641.12	13.963
641.45	11.334
641.77	10.329
642.10	11.027
642.43	10.774
642.76	10.866
643.09	9.841
643.41	10.476
643.74	10.811
644.07	10.920
644.40	11.831
644.73	11.221
645.05	8.848
645.38	11.093
645.71	11.684
646.04	12.101
646.36	9.424
646.69	10.554
647.02	11.552
647.35	9.928
647.67	11.314
648.00	12.127
648.33	11.467
648.66	9.516
648.98	12.580
649.31	10.308
649.64	12.031
649.96	8.477
650.29	8.852
650.62	10.499
650.94	11.804
651.27	9.185
651.60	9.862
651.92	9.760
652.25	10.017
652.58	10.221
652.90	9.791
653.23	9.516
653.56	8.027
653.88	10.328
654.21	11.577
654.54	9.967
654.86	10.594
655.19	11.175
655.52	9.524
655.84	9.758
656.17	10.452
656.49	14.512
656.82	15.015
657.15	11.419
657.47	8.313
657.80	6.456
658.13	7.107
658.45	9.940
658.78	9.091
659.10	9.589
659.43	9.186
659.75	9.481
660.08	8.698
660.41	8.473
660.73	8.471
661.06	10.145
661.38	10.714
661.71	8.604
662.03	11.492
662.36	11.301
662.68	9.072
663.01	9.979
663.33	9.297
663.66	11.373
663.98	10.045
664.31	9.620
664.63	12.832
664.96	9.544
665.28	8.894
665.61	8.245
665.93	10.288
666.26	12.955
666.58	9.356
666.91	12.027
667.23	10.965
667.56	10.204
667.88	12.217
668.21	8.986
668.53	10.748
668.86	7.852
669.18	8.676
669.50	10.748
669.83	7.786
670.15	9.641
670.48	9.112
670.80	7.517
671.13	6.772
671.45	8.559
671.77	7.495
672.10	12.426
672.42	10.148
672.75	9.273
673.07	9.550
673.39	11.111
673.72	12.795
674.04	9.554
674.37	8.660
674.69	12.090
675.01	8.298
675.34	8.677
675.66	12.311
675.98	9.471
676.31	11.312
676.63	9.425
676.95	10.841
677.28	7.425
677.60	12.217
677.92	7.930
678.25	10.284
678.57	9.053
678.89	9.015
679.22	9.853
679.54	9.467
679.86	8.200
680.18	8.555
680.51	7.821
680.83	10.095
681.15	10.405
681.48	10.548
681.80	7.258
682.12	9.054
682.44	6.483
682.77	5.844
683.09	10.273
683.41	8.850
683.73	8.676
684.06	7.742
684.38	10.879
684.70	7.819
685.02	9.252
685.34	9.942
685.67	9.280
685.99	8.129
686.31	10.233
686.63	9.574
686.96	8.872
687.28	8.285
687.60	11.523
687.92	8.366
688.24	9.843
688.56	9.018
688.89	8.333
689.21	10.503
689.53	8.736
689.85	8.241
690.17	8.296
690.49	10.162
690.82	6.747
691.14	8.491
691.46	9.313
691.78	10.573
692.10	9.110
692.42	7.778
692.74	8.584
693.06	10.112
693.39	10.738
693.71	7.449
694.03	9.935
694.35	7.675
694.67	9.456
694.99	5.627
695.31	10.969
695.63	8.163
695.95	11.166
696.27	10.224
696.59	7.219
696.91	11.236
697.23	10.677
697.56	10.096
697.88	9.009
698.20	7.281
698.52	6.278
698.84	5.825
699.16	9.524
699.48	8.000
699.80	8.521
700.12	9.068
700.44	6.425
700.76	6.414
701.08	9.884
701.40	7.855
701.72	8.951
702.04	6.090
702.36	11.446
702.68	4.192
703.00	8.986
703.32	5.444
703.64	9.118
703.96	11.919
704.28	10.651
704.60	9.494
704.91	4.127
705.23	7.120
705.55	4.392
705.87	10.580
706.19	3.472
706.51	9.375
706.83	11.475
707.15	8.917
707.47	10.468
707.79	8.247
708.11	3.817
708.43	9.975
708.74	7.532
709.06	7.242
709.38	4.598
709.70	2.500
710.02	10.429
710.34	4.620
710.66	8.571
710.98	7.886
711.29	3.871
711.61	4.153
711.93	8.525
712.25	7.973
712.57	6.272
712.89	10.072
713.20	10.309
713.52	4.104
713.84	7.117
714.16	7.869
714.48	7.937
714.80	5.231
715.11	7.205
715.43	10.241
715.75	9.657
716.07	3.934
716.39	6.020
716.70	7.666
717.02	10.000
717.34	8.397
717.66	8.299
717.97	4.508
718.29	8.403
718.61	6.349
718.93	9.677
719.24	3.309
719.56	3.774
719.88	9.091
720.20	3.371
720.51	9.774
720.83	2.811
721.15	6.557
721.46	10.980
721.78	10.728
722.10	8.800
722.42	1.653
722.73	8.765
723.05	5.622
723.37	6.275
723.68	5.263
724.00	13.415
724.32	9.877
724.63	4.149
724.95	9.091
725.27	2.193
725.58	2.586
725.90	5.556
726.22	10.701
726.53	4.943
726.85	2.353
727.16	4.135
727.48	6.923
727.80	6.148
728.11	6.303
728.43	6.612
728.74	9.766
729.06	11.364
729.38	3.502
729.69	5.512
730.01	10.236
730.32	4.382
730.64	7.692
730.96	6.343
731.27	7.857
731.59	8.682
731.90	8.282
732.22	5.521
732.53	5.629
732.85	5.369
733.16	3.986
733.48	7.317
733.80	3.915
734.11	4.828
734.43	5.102
734.74	7.715
735.06	8.464
735.37	8.563
735.69	2.903
736.00	4.377
736.32	8.940
736.63	2.069
736.95	3.986
737.26	7.616
737.58	1.079
737.89	10.036
738.21	5.639
738.52	2.692
738.83	6.641
739.15	8.547
739.46	7.661
739.78	6.993
740.09	4.545
740.41	6.643
740.72	10.584
741.04	3.968
741.35	5.628
741.66	4.167
741.98	6.667
742.29	10.329
742.61	6.952
742.92	10.280
743.23	5.263
743.55	4.505
743.86	10.222
744.18	3.810
744.49	5.911
744.80	10.152
745.12	10.309
745.43	2.513
745.74	8.738
746.06	6.341
746.37	7.489
746.68	10.945
747.00	8.901
747.31	5.288
747.62	6.452
747.94	6.114
748.25	6.512
748.56	5.238
748.88	1.087
749.19	10.329
749.50	4.902
749.82	7.556
750.13	4.405
750.44	8.943
750.75	1.600
751.07	11.071
751.38	7.380
751.69	2.672
752.01	7.308
752.32	4.280
752.63	5.769
752.94	3.571
753.26	3.913
753.57	9.821
753.88	6.466
754.19	4.979
754.51	4.297
754.82	4.743
755.13	6.584
755.44	7.851
755.75	6.584
756.07	3.614
756.38	5.859
756.69	6.498
757.00	7.666
757.31	9.732
757.63	9.657
757.94	4.046
758.25	10.465
758.56	11.590
758.87	5.966
759.18	7.333
759.50	6.050
759.81	1.460
760.12	2.027
760.43	7.443
760.74	8.438
761.05	11.517
761.36	7.186
761.67	7.988
761.99	8.387
762.30	6.884
762.61	5.660
762.92	8.072
763.23	3.791
763.54	6.667
763.85	5.907
764.16	8.163
764.47	8.051
764.78	3.745
765.10	11.151
765.41	7.097
765.72	6.289
766.03	3.180
766.34	4.511
766.65	5.263
766.96	1.000
767.27	5.208
767.58	4.651
767.89	4.516
768.20	3.067
768.51	8.743
768.82	4.865
769.13	2.000
769.44	7.018
769.75	6.494
770.06	7.339
770.37	1.408
770.68	-0.521
770.99	8.416
771.30	3.883
771.61	5.093
771.92	4.762
772.23	9.346
772.54	3.191
772.85	-4.734
773.16	2.439
773.47	7.831
773.78	13.736
774.09	0.000
774.39	14.815
774.70	0.671
775.01	-2.174
775.32	-8.209
775.63	-7.438
775.94	7.519
776.25	5.000
776.56	2.459
776.87	9.735
777.18	7.080
777.48	-16.364
777.79	5.217
778.10	-10.092
778.41	-3.390
778.72	0.826
779.03	9.701
779.34	3.759
779.65	7.190
779.95	11.594
780.26	0.000
780.57	0.000
780.88	0.926
781.19	-13.131
781.50	-2.400
781.80	7.190
782.11	8.333
782.42	3.012
782.73	-1.460
783.04	7.432
783.34	3.788
783.65	-2.326
783.96	3.252
784.27	3.419
784.57	-2.439
784.88	-4.878
785.19	11.404
785.50	-8.247
785.81	4.762
786.11	-1.961
786.42	1.818
786.73	0.901
787.04	-2.970
787.34	2.857
787.65	-1.905
787.96	-2.941
788.26	-0.901
788.57	2.419
788.88	-6.250
789.19	-6.838
789.49	-0.840
789.80	-1.709
790.11	4.425
790.41	7.071
790.72	3.774
791.03	-18.056
791.33	1.316
791.64	2.151
791.95	-2.667
792.25	-24.286
792.56	-7.317
792.87	-2.041
793.17	1.316
793.48	-20.270
793.79	-4.225
794.09	-10.127
794.40	0.000
794.70	-9.346
795.01	-7.895
795.32	-5.455
795.62	0.893
795.93	-13.402
796.23	-9.890
796.54	-2.105
796.85	-8.219
797.15	-16.667
797.46	-8.219
797.76	-11.268
798.07	-1.250
798.37	-16.176
798.68	1.429
798.99	0.000
799.29	-1.316
799.60	-3.333
799.90	-13.889
800.21	-4.688
800.51	-14.286
800.82	0.000
801.12	-15.789
801.43	0.000
801.73	-11.864
802.04	-6.557
802.34	-5.455
802.65	-15.385
802.95	-7.407
803.26	-25.000
803.56	-7.692
803.87	-15.789
804.17	-14.516
804.48	3.077
804.78	-20.513
805.09	-25.581
805.39	-59.375
805.70	-30.189
806.00	12.281
806.30	5.405
806.61	5.882
806.91	-7.407
807.22	2.667
807.52	-7.463
807.83	-16.129
808.13	-17.460
808.43	-29.091
808.74	-15.152
809.04	-24.528
809.35	1.370
809.65	-7.018
809.95	7.353
810.26	1.961
810.56	-24.000
810.86	-12.245
811.17	-28.571
811.47	-23.077
811.77	-54.839
812.08	-44.737
812.38	0.000
812.69	-19.565
812.99	-35.484
813.29	-11.905
813.59	-88.889
813.90	-19.149
814.20	-25.581
814.50	-10.417
814.81	-15.000
815.11	-36.585
815.41	-20.000
815.72	-8.571
816.02	-77.778
816.32	-20.513
816.62	-16.216
816.93	-23.529
817.23	-23.913
817.53	-35.294
817.84	11.765
818.14	-75.000
818.44	-41.379
818.74	-32.258
819.04	-51.852
819.35	-16.667
819.65	-76.000
819.95	-33.333
820.25	-60.000
820.56	-39.474
820.86	-35.000
821.16	-34.043
821.46	0.000
821.76	-43.590
822.07	-15.000
822.37	-9.302
822.67	-76.667
822.97	-35.135
823.27	-27.027
823.57	-8.000
823.88	-16.216
824.18	-100.000
824.48	-50.000
824.78	-230.769
825.08	-60.870
825.38	-25.000
825.69	-62.500
825.99	-90.000
826.29	-51.351
826.59	-41.176
826.89	-4.000
827.19	-45.714
827.49	7.895
827.79	-37.500
828.09	-66.667
828.39	-52.174
828.70	-24.138
829.00	-44.828
829.30	-11.111
829.60	31.250
829.90	-122.222
830.20	-73.077
830.50	-85.714
830.80	-28.571
831.10	-12.821
831.40	-57.143
831.70	5.882
832.00	-45.833
832.30	-36.842
832.60	-106.250
832.90	-150.000
833.20	-64.706
833.50	-100.000
833.80	-106.667
834.10	-30.000
834.40	-41.667
834.70	-100.000
835.00	-46.154
835.30	-70.833
835.60	-13.793
835.90	-150.000
836.20	-172.727
836.50	-83.333
836.80	-14.286
837.10	28.571
837.40	-23.529
837.70	-181.818
838.00	-16.667
838.30	-56.250
838.60	-28.571
838.90	-40.000
839.19	-60.870
839.49	-30.435
839.79	-100.000
840.09	-47.826
840.39	-54.545
840.69	-118.750
840.99	-15.789
841.29	-137.500
841.59	-78.571
841.88	-55.556
842.18	-70.833
842.48	-52.941
842.78	-34.483
843.08	-92.857
843.38	-84.615
843.68	-233.333
843.97	-84.615
844.27	-100.000
844.57	-240.000
844.87	-16.000
845.17	-480.000
845.47	-100.000
845.76	-133.333
846.06	0.000
846.36	-425.000
846.66	-260.000
846.96	-89.474
847.25	-62.500
847.55	-100.000
847.85	-60.000
848.15	-200.000
848.44	3.846
848.74	-52.632
849.04	666.667
849.34	-122.222
849.63	-100.000
849.93	0.000
850.23	-70.000
850.53	-66.667
850.82	-20.000
851.12	-78.947
851.42	-1200.000
851.71	-85.714
852.01	-66.667
852.31	47.059
852.61	-13.333
852.90	-47.619
853.20	-66.667
853.50	-44.444
853.79	-100.000
854.09	-133.333
854.39	-53.571
854.68	-34.783
854.98	-258.333
855.28	-3.448
855.57	-106.250
855.87	-50.000
856.17	-126.667
856.46	-20.690
856.76	-66.667
857.05	-82.353
857.35	-100.000
857.65	-9.091
857.94	-44.444
858.24	-178.571
858.53	-107.143
858.83	-83.333
859.13	-233.333
859.42	-28.571
859.72	-137.500
860.01	-766.667
860.31	-225.000
860.60	-320.000
860.90	-288.889
861.20	-162.500
861.49	-228.571
861.79	-23.529
862.08	-850.000
862.38	-208.333
862.67	-92.308
862.97	-88.235
863.26	20.000
863.56	-70.588
863.85	400.000
864.15	-90.000
864.44	-146.154
864.74	-15.000
865.03	-187.500
865.33	-433.333
865.62	-82.353
865.92	-600.000
866.21	-128.571
866.51	-83.333
866.80	-600.000
867.10	-400.000
867.39	-29.412
867.69	-17.391
867.98	-214.286
868.27	-420.000
868.57	-81.250
868.86	-136.364
869.16	-23.529
869.45	-300.000
869.75	-142.857
870.04	1300.000
870.33	-8.333
870.63	-80.000
870.92	-177.778
871.22	-83.333
871.51	-36.364
871.80	-58.333
872.10	-10.000
>>>>>End Processed Spectral Data<<<<<
