SpectraSuite Data File
++++++++++++++++++++++++++++++++++++
Date: Sat May 16 11:08:43 PDT 2015
User: schluterlab
Dark Spectrum Present: Yes
Reference Spectrum Present: Yes
Number of Sampled Component Spectra: 1
Spectrometers: USB2E3373
Integration Time (usec): 3000 (USB2E3373)
Spectra Averaged: 3 (USB2E3373)
Boxcar Smoothing: 0 (USB2E3373)
Correct for Electrical Dark: No (USB2E3373)
Strobe/Lamp Enabled: No (USB2E3373)
Correct for Detector Non-linearity: No (USB2E3373)
Correct for Stray Light: No (USB2E3373)
Number of Pixels in Processed Spectrum: 2048
>>>>>Begin Processed Spectral Data<<<<<
178.53	0.000
178.91	13.333
179.29	-0.000
179.67	1300.000
180.04	-30.769
180.42	100.000
180.80	325.000
181.18	475.000
181.56	-25.000
181.94	900.000
182.31	250.000
182.69	53.846
183.07	-66.667
183.45	150.000
183.83	66.667
184.20	-14.286
184.58	-62.500
184.96	-75.000
185.34	112.500
185.72	-275.000
186.09	-33.333
186.47	-75.000
186.85	-100.000
187.23	237.500
187.61	150.000
187.98	-162.500
188.36	50.000
188.74	-37.500
189.12	300.000
189.49	114.286
189.87	-33.333
190.25	50.000
190.63	0.000
191.00	-77.778
191.38	140.000
191.76	126.667
192.14	480.000
192.51	80.000
192.89	0.000
193.27	0.000
193.65	11.111
194.02	-214.286
194.40	-0.000
194.78	50.000
195.15	0.000
195.53	-90.909
195.91	-250.000
196.29	20.000
196.66	-500.000
197.04	900.000
197.42	100.000
197.79	93.333
198.17	-33.333
198.55	-500.000
198.92	-600.000
199.30	162.500
199.68	-200.000
200.05	-44.444
200.43	-122.222
200.81	-700.000
201.18	25.000
201.56	-28.571
201.94	13.333
202.31	81.818
202.69	210.000
203.07	-20.000
203.44	166.667
203.82	-250.000
204.19	-100.000
204.57	0.000
204.95	-100.000
205.32	18.750
205.70	200.000
206.08	-200.000
206.45	27.778
206.83	200.000
207.20	350.000
207.58	-100.000
207.96	0.000
208.33	-50.000
208.71	0.000
209.08	140.000
209.46	28.571
209.84	250.000
210.21	0.000
210.59	80.000
210.96	-200.000
211.34	-116.667
211.71	100.000
212.09	-25.000
212.46	500.000
212.84	-800.000
213.22	100.000
213.59	16.667
213.97	-22.222
214.34	130.000
214.72	-30.000
215.09	400.000
215.47	100.000
215.84	10.000
216.22	-50.000
216.59	66.667
216.97	50.000
217.34	150.000
217.72	185.714
218.09	-83.333
218.47	-100.000
218.84	114.286
219.22	85.714
219.59	0.000
219.97	57.143
220.34	275.000
220.72	-25.000
221.09	15.385
221.47	0.000
221.84	200.000
222.22	-400.000
222.59	-100.000
222.97	-25.000
223.34	-50.000
223.72	-400.000
224.09	28.571
224.46	-100.000
224.84	7.143
225.21	-85.714
225.59	-63.636
225.96	150.000
226.34	-85.714
226.71	-11.111
227.08	55.000
227.46	1200.000
227.83	-100.000
228.21	-75.000
228.58	-100.000
228.95	6.250
229.33	-700.000
229.70	-20.000
230.08	100.000
230.45	-33.333
230.82	-50.000
231.20	-500.000
231.57	-300.000
231.95	1200.000
232.32	42.857
232.69	-144.444
233.07	57.143
233.44	-500.000
233.81	-113.333
234.19	-22.222
234.56	-18.750
234.93	34.375
235.31	-114.286
235.68	-71.429
236.05	35.294
236.43	22.727
236.80	9.677
237.17	8.333
237.55	28.571
237.92	-18.182
238.29	-2.857
238.67	29.412
239.04	11.111
239.41	6.452
239.79	-30.769
240.16	9.524
240.53	-7.273
240.91	-7.692
241.28	-3.636
241.65	26.154
242.02	-11.475
242.40	3.279
242.77	3.030
243.14	-8.475
243.51	-5.714
243.89	7.595
244.26	19.101
244.63	1.053
245.00	18.947
245.38	11.864
245.75	11.504
246.12	8.800
246.49	7.087
246.87	4.065
247.24	-7.627
247.61	2.542
247.98	9.155
248.36	4.196
248.73	8.861
249.10	8.280
249.47	10.526
249.84	6.250
250.22	-3.571
250.59	10.169
250.96	5.236
251.33	5.687
251.70	9.135
252.08	8.531
252.45	1.422
252.82	1.429
253.19	8.936
253.56	6.855
253.94	2.110
254.31	9.013
254.68	8.943
255.05	3.629
255.42	7.937
255.79	1.792
256.16	1.569
256.54	9.559
256.91	3.788
257.28	1.832
257.65	6.028
258.02	8.805
258.39	3.010
258.76	4.730
259.14	4.630
259.51	6.885
259.88	5.183
260.25	6.211
260.62	4.823
260.99	4.748
261.36	6.707
261.73	9.249
262.10	7.500
262.47	4.558
262.85	8.286
263.22	6.590
263.59	2.462
263.96	7.536
264.33	7.046
264.70	5.249
265.07	7.692
265.44	4.651
265.81	5.168
266.18	2.785
266.55	6.373
266.92	5.793
267.29	3.874
267.66	5.679
268.03	8.454
268.40	7.746
268.77	8.434
269.14	5.568
269.51	5.747
269.88	2.752
270.25	3.963
270.62	6.178
270.99	6.306
271.36	6.993
271.73	4.260
272.10	5.950
272.47	4.000
272.84	8.222
273.21	4.128
273.58	6.374
273.95	5.044
274.32	4.299
274.69	6.127
275.06	5.521
275.43	4.911
275.80	7.536
276.17	2.929
276.54	8.554
276.91	4.938
277.28	4.462
277.65	3.512
278.02	5.010
278.39	4.322
278.76	7.171
279.13	5.929
279.50	4.175
279.87	4.017
280.23	4.251
280.60	5.368
280.97	3.495
281.34	3.868
281.71	5.577
282.08	5.242
282.45	1.833
282.82	6.008
283.19	5.636
283.56	6.960
283.92	5.124
284.29	4.833
284.66	3.058
285.03	5.704
285.40	6.273
285.77	7.193
286.14	3.971
286.51	4.440
286.87	5.445
287.24	5.802
287.61	6.116
287.98	4.853
288.35	5.455
288.72	7.980
289.08	3.559
289.45	4.209
289.82	4.152
290.19	7.225
290.56	6.281
290.93	5.246
291.29	8.104
291.66	5.475
292.03	6.279
292.40	6.024
292.77	5.435
293.13	6.667
293.50	7.281
293.87	7.362
294.24	7.692
294.60	4.697
294.97	7.587
295.34	5.333
295.71	6.994
296.08	6.144
296.44	7.868
296.81	6.125
297.18	8.451
297.55	8.333
297.91	7.950
298.28	6.301
298.65	6.974
299.02	8.556
299.38	6.283
299.75	7.880
300.12	7.949
300.48	8.568
300.85	8.257
301.22	7.762
301.59	7.022
301.95	9.950
302.32	6.910
302.69	8.078
303.05	6.471
303.42	7.500
303.79	7.775
304.15	8.768
304.52	8.285
304.89	7.320
305.25	9.158
305.62	9.166
305.99	8.834
306.35	8.879
306.72	8.428
307.09	8.059
307.45	8.286
307.82	7.933
308.19	7.718
308.55	7.407
308.92	9.130
309.29	8.757
309.65	10.392
310.02	8.855
310.38	8.865
310.75	8.607
311.12	9.401
311.48	8.768
311.85	10.196
312.22	8.754
312.58	8.545
312.95	8.461
313.31	9.790
313.68	8.945
314.05	8.506
314.41	7.948
314.78	7.792
315.14	9.279
315.51	9.422
315.87	10.261
316.24	9.621
316.61	11.228
316.97	9.950
317.34	8.671
317.70	9.555
318.07	9.515
318.43	8.427
318.80	10.704
319.16	8.818
319.53	9.117
319.89	8.655
320.26	10.686
320.62	9.712
320.99	10.249
321.35	8.079
321.72	8.495
322.08	9.891
322.45	9.208
322.81	9.798
323.18	9.222
323.54	10.444
323.91	9.453
324.27	9.791
324.64	9.141
325.00	11.518
325.37	10.226
325.73	11.024
326.10	8.857
326.46	9.457
326.83	10.894
327.19	10.926
327.56	10.988
327.92	10.110
328.29	11.602
328.65	9.091
329.01	10.866
329.38	11.864
329.74	12.088
330.11	10.879
330.47	11.172
330.84	10.999
331.20	10.921
331.56	12.124
331.93	10.480
332.29	11.050
332.66	12.204
333.02	10.860
333.38	10.305
333.75	11.220
334.11	10.578
334.48	10.591
334.84	12.248
335.20	11.702
335.57	10.650
335.93	12.265
336.29	11.072
336.66	10.749
337.02	12.523
337.38	10.784
337.75	11.238
338.11	11.181
338.47	12.189
338.84	10.889
339.20	10.545
339.56	11.408
339.93	11.376
340.29	10.275
340.65	10.227
341.02	11.298
341.38	12.047
341.74	11.770
342.11	10.495
342.47	11.416
342.83	10.915
343.20	11.443
343.56	10.449
343.92	11.519
344.28	12.027
344.65	10.479
345.01	9.748
345.37	11.047
345.73	10.475
346.10	10.139
346.46	11.210
346.82	10.425
347.19	11.175
347.55	11.236
347.91	11.024
348.27	11.058
348.63	11.147
349.00	11.217
349.36	9.680
349.72	11.226
350.08	10.906
350.45	10.165
350.81	11.067
351.17	10.370
351.53	10.501
351.89	11.318
352.26	11.318
352.62	11.751
352.98	10.443
353.34	10.232
353.70	9.961
354.07	11.566
354.43	11.067
354.79	11.014
355.15	10.304
355.51	10.703
355.87	11.304
356.24	10.723
356.60	11.281
356.96	11.085
357.32	10.768
357.68	10.805
358.04	11.085
358.40	10.441
358.77	11.051
359.13	10.635
359.49	10.431
359.85	10.290
360.21	10.959
360.57	11.220
360.93	11.259
361.29	10.463
361.66	10.442
362.02	10.947
362.38	10.858
362.74	10.549
363.10	10.402
363.46	11.538
363.82	10.714
364.18	11.288
364.54	11.222
364.90	10.971
365.26	10.200
365.62	11.404
365.98	11.593
366.35	9.859
366.71	10.994
367.07	10.727
367.43	11.805
367.79	11.478
368.15	10.028
368.51	11.608
368.87	13.187
369.23	11.018
369.59	11.250
369.95	11.910
370.31	12.025
370.67	10.557
371.03	10.350
371.39	10.891
371.75	11.302
372.11	10.043
372.47	10.918
372.83	11.961
373.19	10.429
373.55	11.189
373.91	11.309
374.27	11.088
374.63	12.077
374.99	11.961
375.35	11.238
375.71	12.762
376.07	11.294
376.42	10.397
376.78	11.895
377.14	11.729
377.50	11.992
377.86	10.858
378.22	11.746
378.58	10.747
378.94	11.652
379.30	11.822
379.66	12.022
380.02	10.755
380.38	11.480
380.74	11.020
381.09	11.599
381.45	12.649
381.81	11.494
382.17	11.591
382.53	11.003
382.89	11.663
383.25	11.680
383.61	11.557
383.97	11.941
384.32	11.702
384.68	11.548
385.04	11.413
385.40	11.016
385.76	11.890
386.12	11.056
386.48	12.252
386.83	11.104
387.19	12.194
387.55	11.932
387.91	11.559
388.27	10.977
388.62	11.298
388.98	11.084
389.34	11.261
389.70	11.510
390.06	11.374
390.42	11.603
390.77	11.293
391.13	12.050
391.49	12.165
391.85	11.970
392.20	11.165
392.56	11.362
392.92	11.979
393.28	12.055
393.64	11.906
393.99	12.062
394.35	11.496
394.71	11.489
395.07	12.241
395.42	11.561
395.78	11.188
396.14	12.586
396.50	11.560
396.85	12.400
397.21	11.239
397.57	12.340
397.92	11.593
398.28	11.722
398.64	11.541
399.00	12.472
399.35	11.781
399.71	12.427
400.07	11.761
400.42	12.835
400.78	11.330
401.14	11.317
401.49	11.321
401.85	11.836
402.21	12.038
402.57	11.650
402.92	11.894
403.28	12.194
403.63	10.725
403.99	11.622
404.35	11.957
404.70	11.586
405.06	11.880
405.42	11.685
405.77	10.577
406.13	11.811
406.49	11.324
406.84	11.338
407.20	11.720
407.55	12.033
407.91	10.946
408.27	11.887
408.62	11.726
408.98	10.976
409.34	11.883
409.69	11.720
410.05	11.522
410.40	11.711
410.76	11.915
411.11	11.845
411.47	11.317
411.83	11.980
412.18	11.386
412.54	11.226
412.89	11.968
413.25	11.039
413.60	10.450
413.96	10.598
414.31	11.743
414.67	11.111
415.03	11.708
415.38	11.581
415.74	12.307
416.09	11.829
416.45	11.111
416.80	11.573
417.16	10.565
417.51	12.147
417.87	11.456
418.22	11.504
418.58	11.489
418.93	11.956
419.29	11.731
419.64	11.432
420.00	12.333
420.35	10.704
420.71	10.804
421.06	11.953
421.42	10.831
421.77	11.558
422.12	11.136
422.48	11.491
422.83	12.130
423.19	12.305
423.54	12.334
423.90	11.336
424.25	12.217
424.61	11.882
424.96	12.873
425.31	12.186
425.67	12.665
426.02	11.704
426.38	12.281
426.73	11.631
427.09	11.765
427.44	12.273
427.79	11.047
428.15	12.747
428.50	11.965
428.85	12.770
429.21	11.621
429.56	12.031
429.92	12.425
430.27	11.815
430.62	12.069
430.98	12.180
431.33	11.793
431.68	12.386
432.04	12.479
432.39	11.624
432.74	12.290
433.10	11.593
433.45	11.687
433.80	12.822
434.16	12.198
434.51	12.493
434.86	12.830
435.22	12.138
435.57	12.056
435.92	12.075
436.28	12.938
436.63	12.663
436.98	12.085
437.34	12.758
437.69	12.427
438.04	12.195
438.39	12.996
438.75	11.874
439.10	12.660
439.45	11.708
439.81	12.410
440.16	12.323
440.51	12.882
440.86	12.955
441.22	12.548
441.57	12.105
441.92	12.583
442.27	12.771
442.63	12.607
442.98	12.020
443.33	13.234
443.68	13.028
444.03	12.377
444.39	12.580
444.74	13.161
445.09	12.061
445.44	12.831
445.79	12.494
446.15	12.705
446.50	12.139
446.85	13.186
447.20	12.411
447.55	12.652
447.91	12.690
448.26	12.905
448.61	12.450
448.96	12.661
449.31	12.909
449.66	12.364
450.02	12.355
450.37	13.101
450.72	13.107
451.07	13.576
451.42	12.825
451.77	12.926
452.12	12.336
452.47	12.657
452.83	12.405
453.18	12.840
453.53	12.624
453.88	13.457
454.23	11.850
454.58	12.741
454.93	13.224
455.28	12.237
455.63	13.759
455.98	13.313
456.34	13.469
456.69	13.383
457.04	12.723
457.39	12.440
457.74	12.640
458.09	12.703
458.44	13.915
458.79	12.220
459.14	13.120
459.49	13.381
459.84	13.153
460.19	12.470
460.54	13.854
460.89	13.061
461.24	13.175
461.59	13.540
461.94	12.922
462.29	13.520
462.64	12.648
462.99	13.989
463.34	12.762
463.69	13.359
464.04	13.064
464.39	11.529
464.74	13.416
465.09	13.169
465.44	13.254
465.79	12.916
466.14	13.349
466.49	13.414
466.84	13.325
467.19	13.217
467.54	12.405
467.89	13.070
468.24	12.886
468.59	13.554
468.94	12.990
469.29	12.411
469.64	12.871
469.99	14.382
470.34	13.026
470.68	14.172
471.03	14.935
471.38	13.264
471.73	13.986
472.08	13.521
472.43	12.741
472.78	12.667
473.13	11.928
473.48	13.529
473.83	12.531
474.17	12.866
474.52	13.939
474.87	13.636
475.22	12.448
475.57	12.722
475.92	13.337
476.27	13.657
476.61	12.958
476.96	12.577
477.31	12.756
477.66	13.060
478.01	13.830
478.36	13.358
478.70	13.988
479.05	14.332
479.40	13.264
479.75	12.997
480.10	12.351
480.45	12.669
480.79	13.228
481.14	13.497
481.49	13.553
481.84	13.269
482.19	14.025
482.53	13.778
482.88	13.052
483.23	13.897
483.58	13.645
483.92	13.569
484.27	13.336
484.62	13.218
484.97	12.938
485.31	12.896
485.66	13.090
486.01	12.904
486.36	13.001
486.70	12.962
487.05	13.111
487.40	13.488
487.75	12.886
488.09	12.817
488.44	13.329
488.79	13.866
489.13	13.655
489.48	13.948
489.83	14.323
490.17	14.062
490.52	13.632
490.87	13.441
491.22	13.498
491.56	13.009
491.91	13.454
492.26	13.443
492.60	12.512
492.95	13.993
493.30	13.864
493.64	12.318
493.99	13.193
494.34	13.571
494.68	13.436
495.03	13.384
495.37	12.832
495.72	13.703
496.07	13.609
496.41	13.803
496.76	13.744
497.11	13.660
497.45	13.506
497.80	13.907
498.14	13.752
498.49	13.159
498.84	13.204
499.18	14.327
499.53	13.687
499.87	13.658
500.22	13.922
500.56	13.807
500.91	13.842
501.26	13.828
501.60	13.192
501.95	13.720
502.29	13.604
502.64	14.427
502.98	13.416
503.33	13.816
503.67	13.793
504.02	13.375
504.36	13.873
504.71	13.526
505.06	13.330
505.40	14.072
505.75	13.821
506.09	14.004
506.44	13.985
506.78	13.748
507.13	13.388
507.47	14.502
507.82	14.300
508.16	14.301
508.51	14.013
508.85	12.992
509.19	13.553
509.54	13.372
509.88	14.681
510.23	14.203
510.57	13.862
510.92	14.232
511.26	13.238
511.61	13.553
511.95	14.332
512.30	14.239
512.64	13.022
512.98	14.246
513.33	14.552
513.67	14.573
514.02	13.870
514.36	14.515
514.70	14.261
515.05	13.951
515.39	14.014
515.74	14.892
516.08	15.101
516.42	13.768
516.77	14.674
517.11	14.645
517.46	15.012
517.80	14.741
518.14	14.312
518.49	14.166
518.83	13.947
519.17	15.275
519.52	14.691
519.86	15.054
520.20	14.487
520.55	15.508
520.89	14.402
521.23	15.018
521.58	14.107
521.92	15.136
522.26	14.857
522.61	14.639
522.95	13.720
523.29	14.796
523.64	14.428
523.98	15.786
524.32	15.211
524.66	14.845
525.01	15.157
525.35	15.657
525.69	15.680
526.04	15.013
526.38	14.959
526.72	13.346
527.06	15.690
527.41	14.653
527.75	14.983
528.09	16.082
528.43	15.541
528.78	15.389
529.12	15.685
529.46	15.528
529.80	15.042
530.15	15.647
530.49	14.942
530.83	16.176
531.17	15.084
531.51	14.735
531.86	16.129
532.20	14.845
532.54	16.176
532.88	15.942
533.22	15.775
533.57	15.992
533.91	14.732
534.25	15.211
534.59	15.553
534.93	16.055
535.27	15.544
535.62	15.601
535.96	16.613
536.30	14.921
536.64	16.202
536.98	15.749
537.32	15.135
537.66	15.682
538.01	15.670
538.35	16.351
538.69	15.040
539.03	15.911
539.37	16.035
539.71	15.277
540.05	16.175
540.39	14.889
540.73	15.688
541.07	16.189
541.42	14.517
541.76	15.548
542.10	16.273
542.44	16.922
542.78	16.011
543.12	16.158
543.46	15.205
543.80	14.916
544.14	14.976
544.48	15.551
544.82	15.900
545.16	15.761
545.50	16.285
545.84	15.577
546.18	16.990
546.52	15.789
546.86	15.812
547.20	16.456
547.54	15.083
547.88	15.262
548.22	15.924
548.56	15.765
548.90	16.240
549.24	15.767
549.58	16.725
549.92	16.113
550.26	15.968
550.60	16.216
550.94	16.277
551.28	16.027
551.62	16.027
551.96	16.643
552.30	16.307
552.64	15.623
552.98	16.748
553.32	15.729
553.66	16.006
554.00	16.063
554.34	15.740
554.68	15.716
555.02	16.715
555.36	15.816
555.69	15.473
556.03	16.140
556.37	15.647
556.71	15.533
557.05	15.225
557.39	15.739
557.73	16.776
558.07	15.524
558.41	16.230
558.75	15.741
559.08	14.397
559.42	15.773
559.76	16.564
560.10	17.823
560.44	16.257
560.78	15.658
561.12	15.321
561.45	15.959
561.79	15.540
562.13	16.550
562.47	16.246
562.81	16.054
563.15	16.305
563.48	16.240
563.82	16.971
564.16	15.686
564.50	15.726
564.84	16.601
565.17	15.849
565.51	16.884
565.85	16.160
566.19	16.140
566.52	15.721
566.86	16.308
567.20	16.525
567.54	16.657
567.88	15.355
568.21	15.436
568.55	15.589
568.89	15.209
569.23	15.595
569.56	14.922
569.90	15.342
570.24	15.934
570.57	14.938
570.91	14.485
571.25	15.078
571.59	15.236
571.92	14.940
572.26	15.069
572.60	14.893
572.93	14.896
573.27	14.848
573.61	14.253
573.95	15.141
574.28	14.889
574.62	14.870
574.96	14.905
575.29	14.812
575.63	14.892
575.97	14.725
576.30	14.826
576.64	15.222
576.98	14.929
577.31	14.803
577.65	15.164
577.98	14.677
578.32	14.818
578.66	15.012
578.99	14.927
579.33	15.373
579.67	15.191
580.00	15.005
580.34	14.604
580.67	14.979
581.01	14.465
581.35	14.833
581.68	14.485
582.02	14.797
582.35	14.202
582.69	14.812
583.02	14.920
583.36	15.348
583.70	14.670
584.03	15.652
584.37	15.074
584.70	15.094
585.04	15.013
585.37	14.773
585.71	15.070
586.04	14.843
586.38	15.076
586.72	15.163
587.05	15.350
587.39	15.160
587.72	15.530
588.06	15.048
588.39	14.697
588.73	15.148
589.06	15.793
589.40	16.043
589.73	15.475
590.07	15.040
590.40	15.941
590.73	14.954
591.07	15.369
591.40	15.815
591.74	15.943
592.07	14.820
592.41	15.202
592.74	15.796
593.08	15.276
593.41	14.836
593.75	14.606
594.08	15.313
594.41	15.860
594.75	16.006
595.08	15.263
595.42	15.390
595.75	14.994
596.09	15.056
596.42	15.180
596.75	15.395
597.09	16.474
597.42	15.277
597.75	15.190
598.09	15.319
598.42	15.113
598.76	14.992
599.09	15.154
599.42	15.417
599.76	15.515
600.09	15.878
600.42	16.141
600.76	15.405
601.09	15.761
601.42	14.563
601.76	16.121
602.09	15.501
602.42	15.597
602.76	15.247
603.09	15.887
603.42	15.230
603.76	15.716
604.09	15.378
604.42	14.821
604.76	15.133
605.09	15.597
605.42	16.090
605.75	15.438
606.09	16.272
606.42	15.375
606.75	16.144
607.09	15.439
607.42	15.889
607.75	15.453
608.08	16.087
608.42	16.036
608.75	15.607
609.08	16.220
609.41	16.094
609.75	15.651
610.08	15.343
610.41	15.133
610.74	16.054
611.07	15.923
611.41	15.179
611.74	15.887
612.07	17.025
612.40	15.725
612.73	16.047
613.07	15.740
613.40	16.366
613.73	16.240
614.06	15.761
614.39	15.840
614.72	15.475
615.06	15.761
615.39	15.518
615.72	16.133
616.05	15.792
616.38	15.786
616.71	15.736
617.05	16.948
617.38	16.099
617.71	15.418
618.04	16.211
618.37	15.912
618.70	16.558
619.03	16.114
619.36	16.843
619.69	17.014
620.03	15.978
620.36	16.807
620.69	16.655
621.02	17.428
621.35	16.613
621.68	15.984
622.01	16.828
622.34	16.693
622.67	16.484
623.00	16.832
623.33	17.761
623.66	15.805
623.99	16.692
624.32	15.476
624.65	16.777
624.99	17.028
625.32	15.719
625.65	17.949
625.98	16.041
626.31	16.966
626.64	17.573
626.97	16.353
627.30	16.596
627.63	16.408
627.96	16.884
628.29	16.268
628.62	15.950
628.95	16.929
629.28	16.917
629.61	16.683
629.94	17.675
630.26	18.787
630.59	17.789
630.92	18.719
631.25	17.540
631.58	19.153
631.91	16.915
632.24	18.000
632.57	18.444
632.90	18.736
633.23	17.056
633.56	16.842
633.89	16.863
634.22	19.953
634.55	18.269
634.88	17.291
635.20	15.980
635.53	17.430
635.86	16.877
636.19	18.803
636.52	15.890
636.85	16.486
637.18	15.875
637.51	17.720
637.83	16.511
638.16	17.895
638.49	16.552
638.82	17.246
639.15	18.288
639.48	16.602
639.81	19.087
640.13	17.027
640.46	18.519
640.79	19.048
641.12	19.182
641.45	17.217
641.77	17.216
642.10	17.221
642.43	20.182
642.76	18.898
643.09	17.937
643.41	20.159
643.74	18.442
644.07	20.593
644.40	17.180
644.73	18.977
645.05	17.195
645.38	18.377
645.71	20.103
646.04	19.664
646.36	16.230
646.69	18.166
647.02	20.397
647.35	18.773
647.67	18.978
648.00	19.859
648.33	18.381
648.66	17.903
648.98	18.312
649.31	18.923
649.64	17.812
649.96	19.309
650.29	16.885
650.62	20.826
650.94	17.875
651.27	19.757
651.60	19.550
651.92	19.007
652.25	20.033
652.58	17.717
652.90	18.459
653.23	17.581
653.56	17.726
653.88	18.852
654.21	18.792
654.54	19.435
654.86	20.225
655.19	17.335
655.52	17.158
655.84	15.178
656.17	16.141
656.49	22.551
656.82	23.592
657.15	17.945
657.47	13.030
657.80	10.455
658.13	12.029
658.45	16.032
658.78	16.207
659.10	16.737
659.43	16.228
659.75	17.073
660.08	17.135
660.41	17.020
660.73	17.272
661.06	20.000
661.38	19.286
661.71	19.503
662.03	19.758
662.36	20.256
662.68	17.089
663.01	20.382
663.33	18.594
663.66	21.674
663.98	18.527
664.31	19.911
664.63	22.124
664.96	18.438
665.28	16.703
665.61	15.856
665.93	22.016
666.26	19.838
666.58	17.672
666.91	20.267
667.23	20.395
667.56	19.048
667.88	21.946
668.21	17.051
668.53	16.822
668.86	21.247
669.18	18.037
669.50	20.093
669.83	20.438
670.15	17.040
670.48	21.729
670.80	16.173
671.13	18.510
671.45	19.595
671.77	18.844
672.10	19.724
672.42	18.819
672.75	18.545
673.07	17.658
673.39	18.397
673.72	19.291
674.04	21.444
674.37	16.495
674.69	20.697
675.01	19.574
675.34	19.957
675.66	21.598
675.98	17.841
676.31	21.493
676.63	20.000
676.95	19.912
677.28	19.490
677.60	20.136
677.92	19.604
678.25	19.912
678.57	18.107
678.89	19.916
679.22	17.191
679.54	20.118
679.86	17.800
680.18	19.582
680.51	17.132
680.83	18.286
681.15	18.882
681.48	20.487
681.80	20.565
682.12	21.328
682.44	18.468
682.77	15.801
683.09	23.061
683.41	19.690
683.73	18.721
684.06	19.140
684.38	19.038
684.70	20.370
685.02	19.094
685.34	18.908
685.67	17.614
685.99	16.446
686.31	20.467
686.63	18.794
686.96	17.930
687.28	16.763
687.60	19.727
687.92	16.732
688.24	21.063
688.56	19.639
688.89	21.154
689.21	19.037
689.53	18.621
689.85	19.599
690.17	18.386
690.49	18.014
690.82	20.000
691.14	20.283
691.46	19.512
691.78	19.163
692.10	19.492
692.42	18.889
692.74	20.386
693.06	18.202
693.39	18.568
693.71	18.962
694.03	19.438
694.35	18.059
694.67	19.149
694.99	16.880
695.31	20.153
695.63	16.837
695.95	20.347
696.27	22.444
696.59	21.390
696.91	21.629
697.23	21.354
697.56	18.269
697.88	16.892
698.20	17.345
698.52	17.040
698.84	21.845
699.16	19.048
699.48	20.500
699.80	16.040
700.12	21.662
700.44	19.274
700.76	17.493
701.08	21.512
701.40	18.127
701.72	20.062
702.04	19.231
702.36	22.289
702.68	17.365
703.00	19.420
703.32	19.198
703.64	24.706
703.96	17.733
704.28	21.893
704.60	18.671
704.91	19.365
705.23	18.123
705.55	14.527
705.87	16.041
706.19	15.625
706.51	18.056
706.83	21.311
707.15	21.656
707.47	20.110
707.79	18.557
708.11	17.557
708.43	20.948
708.74	19.221
709.06	15.320
709.38	16.667
709.70	18.437
710.02	23.620
710.34	16.502
710.66	17.778
710.98	17.666
711.29	20.000
711.61	15.974
711.93	18.033
712.25	23.256
712.57	16.028
712.89	24.460
713.20	24.055
713.52	20.149
713.84	18.149
714.16	18.033
714.48	19.365
714.80	19.077
715.11	19.597
715.43	22.892
715.75	21.495
716.07	14.754
716.39	22.408
716.70	19.512
717.02	22.963
717.34	23.282
717.66	24.896
717.97	15.164
718.29	20.168
718.61	24.603
718.93	19.355
719.24	19.485
719.56	21.132
719.88	20.000
720.20	20.599
720.51	22.932
720.83	23.695
721.15	20.902
721.46	20.392
721.78	22.989
722.10	23.600
722.42	18.182
722.73	21.514
723.05	23.695
723.37	20.000
723.68	20.243
724.00	22.764
724.32	20.576
724.63	18.257
724.95	23.140
725.27	13.158
725.58	20.259
725.90	18.651
726.22	22.878
726.53	19.392
726.85	16.863
727.16	22.180
727.48	20.000
727.80	18.443
728.11	22.269
728.43	17.355
728.74	21.484
729.06	22.727
729.38	17.899
729.69	20.866
730.01	21.260
730.32	20.717
730.64	19.414
730.96	19.030
731.27	16.429
731.59	17.685
731.90	22.086
732.22	16.871
732.53	24.172
732.85	20.134
733.16	21.739
733.48	19.164
733.80	14.591
734.11	20.345
734.43	17.347
734.74	22.849
735.06	16.614
735.37	16.820
735.69	19.355
736.00	19.192
736.32	19.205
736.63	16.207
736.95	18.478
737.26	19.536
737.58	16.547
737.89	18.638
738.21	19.925
738.52	22.308
738.83	16.406
739.15	20.940
739.46	22.581
739.78	18.881
740.09	16.434
740.41	18.881
740.72	14.964
741.04	22.222
741.35	19.913
741.66	25.000
741.98	16.667
742.29	22.066
742.61	24.599
742.92	25.701
743.23	21.491
743.55	22.072
743.86	24.889
744.18	18.571
744.49	20.690
744.80	23.858
745.12	29.897
745.43	22.111
745.74	20.388
746.06	17.561
746.37	25.110
746.68	23.383
747.00	20.419
747.31	24.519
747.62	20.276
747.94	19.214
748.25	19.535
748.56	16.190
748.88	13.587
749.19	24.413
749.50	22.549
749.82	25.333
750.13	23.348
750.44	18.293
750.75	22.400
751.07	23.214
751.38	19.188
751.69	16.412
752.01	22.308
752.32	22.179
752.63	20.000
752.94	19.444
753.26	20.435
753.57	23.661
753.88	21.552
754.19	13.278
754.51	22.656
754.82	21.344
755.13	20.576
755.44	17.769
755.75	20.165
756.07	16.867
756.38	17.187
756.69	22.744
757.00	17.073
757.31	19.799
757.63	19.938
757.94	18.208
758.25	18.314
758.56	22.642
758.87	17.614
759.18	19.000
759.50	21.708
759.81	20.073
760.12	18.919
760.43	22.654
760.74	24.688
761.05	19.382
761.36	22.156
761.67	22.485
761.99	20.645
762.30	22.826
762.61	21.132
762.92	19.731
763.23	18.483
763.54	16.000
763.85	26.582
764.16	20.408
764.47	22.034
764.78	22.097
765.10	22.662
765.41	16.774
765.72	21.384
766.03	17.314
766.34	22.180
766.65	16.194
766.96	15.500
767.27	21.875
767.58	17.442
767.89	16.774
768.20	28.834
768.51	22.404
768.82	27.027
769.13	18.000
769.44	21.930
769.75	22.944
770.06	22.018
770.37	17.371
770.68	21.354
770.99	20.792
771.30	26.214
771.61	16.204
771.92	15.584
772.23	24.766
772.54	17.553
772.85	14.201
773.16	21.341
773.47	25.301
773.78	26.374
774.09	21.333
774.39	20.988
774.70	22.819
775.01	10.870
775.32	24.627
775.63	14.876
775.94	27.068
776.25	19.286
776.56	22.131
776.87	27.434
777.18	23.894
777.48	12.727
777.79	15.652
778.10	24.771
778.41	21.186
778.72	28.926
779.03	26.119
779.34	20.301
779.65	22.222
779.95	22.464
780.26	14.286
780.57	23.276
780.88	23.148
781.19	12.121
781.50	14.400
781.80	18.954
782.11	19.872
782.42	20.482
782.73	16.058
783.04	24.324
783.34	21.212
783.65	25.581
783.96	26.829
784.27	24.786
784.57	22.764
784.88	16.260
785.19	23.684
785.50	13.402
785.81	16.190
786.11	23.529
786.42	10.000
786.73	27.928
787.04	29.703
787.34	20.952
787.65	18.095
787.96	21.569
788.26	24.324
788.57	28.226
788.88	21.875
789.19	15.385
789.49	20.168
789.80	21.368
790.11	32.743
790.41	21.212
790.72	28.302
791.03	18.056
791.33	22.368
791.64	21.505
791.95	28.000
792.25	20.000
792.56	17.073
792.87	25.510
793.17	18.421
793.48	2.703
793.79	11.268
794.09	10.127
794.40	17.021
794.70	26.168
795.01	15.789
795.32	17.273
795.62	23.214
795.93	17.526
796.23	18.681
796.54	29.474
796.85	9.589
797.15	18.056
797.46	31.507
797.76	26.761
798.07	27.500
798.37	25.000
798.68	25.714
798.99	25.714
799.29	28.947
799.60	0.000
799.90	12.500
800.21	23.438
800.51	17.460
800.82	22.951
801.12	28.070
801.43	9.859
801.73	15.254
802.04	37.705
802.34	25.455
802.65	11.538
802.95	18.519
803.26	22.500
803.56	32.692
803.87	18.421
804.17	43.548
804.48	7.692
804.78	10.256
805.09	2.326
805.39	3.125
805.70	26.415
806.00	38.596
806.30	41.892
806.61	25.000
806.91	32.099
807.22	26.667
807.52	19.403
807.83	24.194
808.13	3.175
808.43	9.091
808.74	33.333
809.04	15.094
809.35	31.507
809.65	29.825
809.95	42.647
810.26	25.490
810.56	14.000
810.86	30.612
811.17	34.286
811.47	0.000
811.77	29.032
812.08	-23.684
812.38	14.286
812.69	4.348
812.99	54.839
813.29	14.286
813.59	-18.519
813.90	14.894
814.20	4.651
814.50	16.667
814.81	1.667
815.11	34.146
815.41	23.333
815.72	68.571
816.02	22.222
816.32	33.333
816.62	37.838
816.93	5.882
817.23	32.609
817.53	20.588
817.84	32.353
818.14	3.125
818.44	-3.448
818.74	9.677
819.04	-25.926
819.35	-16.667
819.65	12.000
819.95	16.667
820.25	36.000
820.56	7.895
820.86	5.000
821.16	19.149
821.46	27.586
821.76	-10.256
822.07	17.500
822.37	2.326
822.67	6.667
822.97	29.730
823.27	40.541
823.57	52.000
823.88	43.243
824.18	38.095
824.48	34.615
824.78	-38.462
825.08	69.565
825.38	33.333
825.69	45.833
825.99	35.000
826.29	-21.622
826.59	-26.471
826.89	32.000
827.19	2.857
827.49	18.421
827.79	6.250
828.09	16.667
828.39	13.043
828.70	-6.897
829.00	17.241
829.30	41.667
829.60	71.875
829.90	72.222
830.20	-11.538
830.50	0.000
830.80	32.143
831.10	35.897
831.40	-4.762
831.70	2.941
832.00	29.167
832.30	10.526
832.60	25.000
832.90	16.667
833.20	-23.529
833.50	-20.000
833.80	6.667
834.10	10.000
834.40	4.167
834.70	33.333
835.00	7.692
835.30	-29.167
835.60	27.586
835.90	0.000
836.20	-90.909
836.50	-50.000
836.80	28.571
837.10	31.429
837.40	5.882
837.70	18.182
838.00	45.833
838.30	-6.250
838.60	0.000
838.90	55.000
839.19	34.783
839.49	78.261
839.79	-22.222
840.09	17.391
840.39	22.727
840.69	31.250
840.99	26.316
841.29	0.000
841.59	7.143
841.88	16.667
842.18	25.000
842.48	11.765
842.78	17.241
843.08	71.429
843.38	23.077
843.68	-88.889
843.97	0.000
844.27	18.182
844.57	-100.000
844.87	12.000
845.17	-60.000
845.47	28.571
845.76	-166.667
846.06	0.000
846.36	-50.000
846.66	40.000
846.96	36.842
847.25	58.333
847.55	16.667
847.85	93.333
848.15	20.000
848.44	50.000
848.74	10.526
849.04	100.000
849.34	33.333
849.63	10.526
849.93	0.000
850.23	35.000
850.53	-33.333
850.82	8.000
851.12	10.526
851.42	-150.000
851.71	21.429
852.01	66.667
852.31	35.294
852.61	33.333
852.90	4.762
853.20	83.333
853.50	38.889
853.79	36.842
854.09	13.333
854.39	0.000
854.68	30.435
854.98	-200.000
855.28	58.621
855.57	18.750
855.87	-10.000
856.17	-26.667
856.46	34.483
856.76	33.333
857.05	-41.176
857.35	7.692
857.65	81.818
857.94	22.222
858.24	-42.857
858.53	35.714
858.83	41.667
859.13	-22.222
859.42	71.429
859.72	-25.000
860.01	0.000
860.31	-12.500
860.60	-220.000
860.90	-66.667
861.20	-25.000
861.49	-71.429
861.79	52.941
862.08	50.000
862.38	-66.667
862.67	-23.077
862.97	5.882
863.26	35.000
863.56	-35.294
863.85	66.667
864.15	-50.000
864.44	46.154
864.74	45.000
865.03	-162.500
865.33	-50.000
865.62	-17.647
865.92	-325.000
866.21	-42.857
866.51	-16.667
866.80	-500.000
867.10	200.000
867.39	58.824
867.69	73.913
867.98	128.571
868.27	-280.000
868.57	-12.500
868.86	0.000
869.16	76.471
869.45	-16.667
869.75	-128.571
870.04	800.000
870.33	66.667
870.63	100.000
870.92	0.000
871.22	8.333
871.51	-45.455
871.80	50.000
872.10	80.000
>>>>>End Processed Spectral Data<<<<<
