SpectraSuite Data File
++++++++++++++++++++++++++++++++++++
Date: Sat May 16 11:23:24 PDT 2015
User: schluterlab
Dark Spectrum Present: Yes
Reference Spectrum Present: Yes
Number of Sampled Component Spectra: 1
Spectrometers: USB2E3373
Integration Time (usec): 3000 (USB2E3373)
Spectra Averaged: 3 (USB2E3373)
Boxcar Smoothing: 0 (USB2E3373)
Correct for Electrical Dark: No (USB2E3373)
Strobe/Lamp Enabled: No (USB2E3373)
Correct for Detector Non-linearity: No (USB2E3373)
Correct for Stray Light: No (USB2E3373)
Number of Pixels in Processed Spectrum: 2048
>>>>>Begin Processed Spectral Data<<<<<
178.53	0.000
178.91	133.333
179.29	500.000
179.67	-1300.000
180.04	-76.923
180.42	900.000
180.80	250.000
181.18	225.000
181.56	-150.000
181.94	700.000
182.31	575.000
182.69	-53.846
183.07	-400.000
183.45	1400.000
183.83	366.667
184.20	-71.429
184.58	-112.500
184.96	-250.000
185.34	100.000
185.72	-350.000
186.09	200.000
186.47	-175.000
186.85	-12.500
187.23	-62.500
187.61	-425.000
187.98	-262.500
188.36	-25.000
188.74	-175.000
189.12	700.000
189.49	257.143
189.87	-91.667
190.25	500.000
190.63	-50.000
191.00	-177.778
191.38	420.000
191.76	-20.000
192.14	660.000
192.51	-340.000
192.89	-600.000
193.27	0.000
193.65	-188.889
194.02	-171.429
194.40	300.000
194.78	-10.000
195.15	-1000.000
195.53	-145.455
195.91	-366.667
196.29	120.000
196.66	-366.667
197.04	2200.000
197.42	-150.000
197.79	-46.667
198.17	-566.667
198.55	-1050.000
198.92	-2300.000
199.30	225.000
199.68	-850.000
200.05	-100.000
200.43	-211.111
200.81	-800.000
201.18	-150.000
201.56	214.286
201.94	-113.333
202.31	-13.636
202.69	-40.000
203.07	-20.000
203.44	566.667
203.82	-183.333
204.19	-300.000
204.57	-425.000
204.95	-2500.000
205.32	-37.500
205.70	1300.000
206.08	-1800.000
206.45	-61.111
206.83	-750.000
207.20	-200.000
207.58	-700.000
207.96	-466.667
208.33	-62.500
208.71	-244.444
209.08	170.000
209.46	-185.714
209.84	1000.000
210.21	0.000
210.59	15.000
210.96	400.000
211.34	-383.333
211.71	-333.333
212.09	425.000
212.46	1200.000
212.84	-1700.000
213.22	800.000
213.59	125.000
213.97	-22.222
214.34	120.000
214.72	-70.000
215.09	-733.333
215.47	-66.667
215.84	-100.000
216.22	-140.000
216.59	-73.333
216.97	-850.000
217.34	650.000
217.72	-57.143
218.09	-400.000
218.47	-185.714
218.84	85.714
219.22	-100.000
219.59	0.000
219.97	114.286
220.34	400.000
220.72	100.000
221.09	23.077
221.47	0.000
221.84	500.000
222.22	-650.000
222.59	200.000
222.97	-262.500
223.34	-800.000
223.72	-533.333
224.09	-7.143
224.46	-575.000
224.84	-42.857
225.21	-214.286
225.59	-36.364
225.96	-75.000
226.34	-214.286
226.71	-211.111
227.08	-35.000
227.46	1500.000
227.83	-185.714
228.21	-150.000
228.58	650.000
228.95	-37.500
229.33	-700.000
229.70	-220.000
230.08	-1000.000
230.45	16.667
230.82	-83.333
231.20	-1100.000
231.57	-900.000
231.95	1200.000
232.32	-4.762
232.69	-166.667
233.07	-414.286
233.44	-1300.000
233.81	-113.333
234.19	-222.222
234.56	-93.750
234.93	-3.125
235.31	-314.286
235.68	-142.857
236.05	-52.941
236.43	-95.455
236.80	-45.161
237.17	-29.167
237.55	-66.667
237.92	-100.000
238.29	-28.571
238.67	-44.118
239.04	-25.000
239.41	-25.806
239.79	-33.333
240.16	-47.619
240.53	-27.273
240.91	-28.205
241.28	-5.455
241.65	3.077
242.02	-4.918
242.40	-21.311
242.77	-13.636
243.14	-10.169
243.51	-8.571
243.89	-8.861
244.26	-10.112
244.63	4.211
245.00	-13.684
245.38	-13.559
245.75	4.425
246.12	-0.800
246.49	-6.299
246.87	-14.634
247.24	-16.949
247.61	-20.339
247.98	-2.817
248.36	-11.888
248.73	-3.165
249.10	-5.732
249.47	1.170
249.84	-3.409
250.22	-14.881
250.59	-7.910
250.96	-1.047
251.33	-1.896
251.70	0.000
252.08	4.739
252.45	-5.213
252.82	-3.333
253.19	-1.277
253.56	-0.806
253.94	1.688
254.31	-2.146
254.68	-2.846
255.05	-3.629
255.42	0.397
255.79	-2.151
256.16	0.000
256.54	-2.206
256.91	-2.652
257.28	-3.663
257.65	-4.255
258.02	-0.629
258.39	-1.338
258.76	-4.054
259.14	-1.852
259.51	-0.984
259.88	-3.354
260.25	2.174
260.62	0.643
260.99	-4.154
261.36	0.305
261.73	-0.289
262.10	1.667
262.47	-1.425
262.85	1.143
263.22	-3.438
263.59	-4.000
263.96	-4.348
264.33	1.084
264.70	0.000
265.07	-0.549
265.44	-1.809
265.81	-2.584
266.18	-3.038
266.55	-0.980
266.92	0.756
267.29	-1.453
267.66	1.728
268.03	1.691
268.40	0.704
268.77	1.928
269.14	-1.856
269.51	-2.299
269.88	-1.376
270.25	-1.166
270.62	-0.458
270.99	0.000
271.36	-3.263
271.73	-0.897
272.10	-2.288
272.47	-1.333
272.84	1.778
273.21	-0.688
273.58	-1.099
273.95	-0.658
274.32	0.679
274.69	1.751
275.06	0.818
275.43	-3.795
275.80	0.611
276.17	0.628
276.54	3.870
276.91	-0.412
277.28	-1.014
277.65	0.207
278.02	-2.505
278.39	-0.196
278.76	-1.594
279.13	-1.779
279.50	0.994
279.87	-1.480
280.23	1.012
280.60	-0.994
280.97	-0.777
281.34	0.193
281.71	-1.731
282.08	-0.202
282.45	-2.851
282.82	-0.969
283.19	0.545
283.56	1.465
283.92	-0.177
284.29	-1.487
284.66	0.540
285.03	-1.248
285.40	1.107
285.77	2.456
286.14	0.722
286.51	-0.888
286.87	0.000
287.24	1.365
287.61	1.653
287.98	0.000
288.35	-0.992
288.72	-0.170
289.08	-3.051
289.45	1.347
289.82	-2.422
290.19	0.657
290.56	-2.645
290.93	1.431
291.29	-1.783
291.66	0.805
292.03	3.297
292.40	2.108
292.77	-1.087
293.13	0.976
293.50	0.743
293.87	1.074
294.24	1.207
294.60	-0.606
294.97	1.517
295.34	-0.444
295.71	-0.298
296.08	-1.382
296.44	-0.858
296.81	1.852
297.18	1.408
297.55	0.989
297.91	1.674
298.28	0.000
298.65	-0.558
299.02	2.674
299.38	-0.401
299.75	-0.136
300.12	1.154
300.48	1.279
300.85	-0.524
301.22	0.776
301.59	0.780
301.95	3.275
302.32	-0.652
302.69	2.081
303.05	0.000
303.42	0.625
303.79	-0.120
304.15	2.014
304.52	1.984
304.89	3.188
305.25	0.977
305.62	0.705
305.99	2.945
306.35	0.999
306.72	-0.114
307.09	3.519
307.45	2.270
307.82	2.235
308.19	2.125
308.55	2.505
308.92	1.504
309.29	0.973
309.65	2.439
310.02	3.240
310.38	1.405
310.75	3.279
311.12	3.202
311.48	2.192
311.85	2.781
312.22	3.296
312.58	3.459
312.95	2.752
313.31	3.197
313.68	3.518
314.05	3.660
314.41	2.918
314.78	2.597
315.14	4.640
315.51	3.749
315.87	4.356
316.24	4.470
316.61	5.086
316.97	5.373
317.34	4.721
317.70	3.803
318.07	6.250
318.43	4.588
318.80	6.009
319.16	5.347
319.53	5.639
319.89	4.233
320.26	7.157
320.62	5.096
320.99	6.468
321.35	6.010
321.72	4.913
322.08	6.133
322.45	6.238
322.81	6.916
323.18	7.589
323.54	6.747
323.91	7.785
324.27	7.985
324.64	8.135
325.00	8.290
325.37	8.597
325.73	9.711
326.10	9.212
326.46	9.107
326.83	8.851
327.19	9.508
327.56	10.733
327.92	10.875
328.29	11.082
328.65	9.636
329.01	11.219
329.38	9.634
329.74	12.271
330.11	12.149
330.47	11.807
330.84	13.107
331.20	11.643
331.56	13.856
331.93	13.233
332.29	13.607
332.66	12.906
333.02	12.670
333.38	13.082
333.75	13.980
334.11	13.600
334.48	12.974
334.84	15.223
335.20	13.741
335.57	13.628
335.93	16.562
336.29	14.083
336.66	14.361
337.02	15.045
337.38	13.725
337.75	14.047
338.11	15.653
338.47	14.591
338.84	14.791
339.20	14.060
339.56	15.865
339.93	14.462
340.29	14.792
340.65	14.073
341.02	14.418
341.38	15.670
341.74	15.834
342.11	14.078
342.47	14.850
342.83	14.442
343.20	15.457
343.56	14.449
343.92	15.693
344.28	16.148
344.65	15.512
345.01	14.622
345.37	14.950
345.73	14.975
346.10	14.391
346.46	15.841
346.82	15.156
347.19	15.037
347.55	15.249
347.91	16.220
348.27	14.240
348.63	16.074
349.00	15.036
349.36	13.349
349.72	15.048
350.08	14.996
350.45	13.869
350.81	15.127
351.17	14.550
351.53	13.524
351.89	14.470
352.26	15.426
352.62	15.515
352.98	15.981
353.34	15.428
353.70	15.290
354.07	14.870
354.43	15.257
354.79	15.135
355.15	15.256
355.51	14.922
355.87	14.783
356.24	14.535
356.60	15.471
356.96	15.089
357.32	15.123
357.68	15.172
358.04	16.012
358.40	15.236
358.77	15.070
359.13	14.155
359.49	14.966
359.85	14.710
360.21	15.221
360.57	16.491
360.93	15.111
361.29	16.069
361.66	14.101
362.02	15.311
362.38	16.875
362.74	15.751
363.10	14.849
363.46	16.168
363.82	16.254
364.18	16.932
364.54	17.227
364.90	15.234
365.26	15.835
365.62	17.035
365.98	15.647
366.35	15.915
366.71	15.786
367.07	16.443
367.43	16.678
367.79	16.082
368.15	15.434
368.51	16.643
368.87	17.170
369.23	16.491
369.59	16.319
369.95	16.490
370.31	17.159
370.67	16.197
371.03	17.347
371.39	16.549
371.75	16.810
372.11	17.145
372.47	16.197
372.83	17.803
373.19	17.357
373.55	17.734
373.91	16.927
374.27	17.454
374.63	17.529
374.99	17.942
375.35	17.362
375.71	18.771
376.07	18.070
376.42	17.682
376.78	18.301
377.14	17.966
377.50	19.536
377.86	18.791
378.22	19.033
378.58	18.530
378.94	19.359
379.30	18.099
379.66	19.247
380.02	19.073
380.38	19.456
380.74	19.050
381.09	20.562
381.45	20.644
381.81	19.056
382.17	19.987
382.53	20.000
382.89	21.053
383.25	20.891
383.61	20.637
383.97	20.576
384.32	21.026
384.68	20.738
385.04	21.014
385.40	21.120
385.76	21.829
386.12	21.799
386.48	22.339
386.83	21.288
387.19	21.937
387.55	21.623
387.91	21.577
388.27	21.230
388.62	22.055
388.98	22.290
389.34	20.991
389.70	22.594
390.06	22.498
390.42	21.859
390.77	22.334
391.13	22.919
391.49	22.583
391.85	22.319
392.20	21.177
392.56	22.541
392.92	22.875
393.28	23.364
393.64	23.211
393.99	23.262
394.35	23.844
394.71	23.224
395.07	24.043
395.42	23.182
395.78	22.627
396.14	23.676
396.50	22.997
396.85	22.702
397.21	23.086
397.57	23.587
397.92	23.185
398.28	23.556
398.64	23.200
399.00	24.045
399.35	23.675
399.71	24.564
400.07	24.358
400.42	23.783
400.78	23.673
401.14	23.772
401.49	23.880
401.85	24.039
402.21	24.136
402.57	24.029
402.92	24.229
403.28	23.162
403.63	23.247
403.99	23.866
404.35	23.370
404.70	23.815
405.06	24.452
405.42	22.694
405.77	23.020
406.13	23.396
406.49	23.727
406.84	23.515
407.20	23.852
407.55	24.193
407.91	22.474
408.27	24.571
408.62	23.512
408.98	24.318
409.34	23.096
409.69	23.693
410.05	24.318
410.40	23.850
410.76	23.474
411.11	24.314
411.47	23.657
411.83	23.655
412.18	24.319
412.54	23.551
412.89	24.241
413.25	22.668
413.60	22.904
413.96	23.598
414.31	23.976
414.67	23.556
415.03	24.127
415.38	25.699
415.74	23.969
416.09	24.872
416.45	24.537
416.80	24.317
417.16	23.588
417.51	24.951
417.87	24.919
418.22	25.158
418.58	24.519
418.93	24.218
419.29	24.467
419.64	25.000
420.00	25.213
420.35	24.719
420.71	24.550
421.06	24.379
421.42	24.356
421.77	25.628
422.12	25.126
422.48	24.319
422.83	24.829
423.19	24.722
423.54	25.187
423.90	24.639
424.25	24.661
424.61	25.754
424.96	25.512
425.31	24.874
425.67	24.642
426.02	24.326
426.38	25.227
426.73	25.716
427.09	26.103
427.44	25.057
427.79	25.523
428.15	26.152
428.50	25.865
428.85	26.139
429.21	25.235
429.56	27.083
429.92	25.601
430.27	26.221
430.62	26.489
430.98	25.876
431.33	26.307
431.68	27.292
432.04	26.637
432.39	26.496
432.74	25.480
433.10	26.618
433.45	25.216
433.80	26.764
434.16	26.115
434.51	26.247
434.86	26.655
435.22	26.503
435.57	26.561
435.92	25.909
436.28	27.062
436.63	26.399
436.98	25.601
437.34	26.698
437.69	26.021
438.04	27.396
438.39	26.655
438.75	26.892
439.10	26.929
439.45	27.278
439.81	26.928
440.16	26.405
440.51	26.647
440.86	26.316
441.22	25.981
441.57	26.263
441.92	27.775
442.27	26.894
442.63	26.931
442.98	26.806
443.33	27.183
443.68	27.254
444.03	26.965
444.39	27.558
444.74	27.093
445.09	27.193
445.44	26.956
445.79	27.537
446.15	27.930
446.50	26.511
446.85	26.834
447.20	27.068
447.55	28.011
447.91	28.411
448.26	26.983
448.61	26.882
448.96	27.955
449.31	28.185
449.66	28.163
450.02	27.147
450.37	26.899
450.72	26.271
451.07	28.347
451.42	27.138
451.77	27.887
452.12	27.890
452.47	28.212
452.83	28.305
453.18	27.514
453.53	27.363
453.88	27.811
454.23	27.388
454.58	27.470
454.93	28.023
455.28	27.661
455.63	28.194
455.98	27.108
456.34	27.637
456.69	28.080
457.04	28.027
457.39	27.153
457.74	28.529
458.09	28.016
458.44	28.060
458.79	27.971
459.14	28.865
459.49	28.123
459.84	28.724
460.19	27.745
460.54	27.465
460.89	27.859
461.24	28.112
461.59	29.367
461.94	28.899
462.29	28.648
462.64	28.590
462.99	27.912
463.34	28.697
463.69	29.008
464.04	27.241
464.39	28.017
464.74	28.664
465.09	28.382
465.44	29.385
465.79	27.580
466.14	28.711
466.49	28.382
466.84	27.971
467.19	29.239
467.54	27.025
467.89	28.915
468.24	28.266
468.59	28.420
468.94	28.939
469.29	28.915
469.64	29.245
469.99	29.102
470.34	28.791
470.68	29.506
471.03	28.975
471.38	28.194
471.73	29.161
472.08	27.845
472.43	28.636
472.78	28.800
473.13	28.429
473.48	28.207
473.83	28.598
474.17	29.108
474.52	29.795
474.87	28.205
475.22	29.499
475.57	28.222
475.92	29.212
476.27	29.143
476.61	29.183
476.96	28.619
477.31	29.386
477.66	29.939
478.01	29.335
478.36	29.701
478.70	28.938
479.05	28.989
479.40	29.223
479.75	29.205
480.10	30.060
480.45	28.530
480.79	30.059
481.14	30.055
481.49	30.348
481.84	30.097
482.19	29.283
482.53	29.593
482.88	29.331
483.23	29.812
483.58	30.759
483.92	29.814
484.27	29.331
484.62	29.374
484.97	29.150
485.31	28.352
485.66	28.221
486.01	29.393
486.36	30.134
486.70	30.711
487.05	30.114
487.40	29.274
487.75	29.478
488.09	28.876
488.44	29.770
488.79	29.607
489.13	29.137
489.48	29.976
489.83	29.258
490.17	29.647
490.52	30.661
490.87	29.654
491.22	29.566
491.56	29.213
491.91	30.200
492.26	30.047
492.60	30.352
492.95	29.653
493.30	29.967
493.64	29.619
493.99	29.828
494.34	29.952
494.68	30.431
495.03	29.493
495.37	30.187
495.72	29.175
496.07	30.361
496.41	30.107
496.76	29.680
497.11	30.570
497.45	29.885
497.80	29.815
498.14	29.961
498.49	30.387
498.84	28.932
499.18	29.776
499.53	30.005
499.87	30.068
500.22	30.196
500.56	29.465
500.91	30.099
501.26	29.791
501.60	29.225
501.95	30.242
502.29	29.570
502.64	29.420
502.98	30.235
503.33	29.699
503.67	30.699
504.02	30.613
504.36	31.078
504.71	30.344
505.06	30.354
505.40	30.489
505.75	29.827
506.09	30.738
506.44	30.526
506.78	30.908
507.13	30.175
507.47	31.247
507.82	29.995
508.16	30.674
508.51	30.963
508.85	30.538
509.19	30.298
509.54	30.285
509.88	31.436
510.23	31.342
510.57	31.746
510.92	31.310
511.26	30.994
511.61	30.508
511.95	30.550
512.30	30.676
512.64	30.940
512.98	31.573
513.33	31.301
513.67	30.821
514.02	30.145
514.36	31.579
514.70	30.900
515.05	32.018
515.39	31.142
515.74	31.530
516.08	32.277
516.42	31.671
516.77	31.600
517.11	31.178
517.46	32.715
517.80	32.972
518.14	31.280
518.49	32.576
518.83	32.107
519.17	32.090
519.52	31.637
519.86	33.572
520.20	34.108
520.55	32.738
520.89	31.622
521.23	31.868
521.58	32.226
521.92	32.869
522.26	32.444
522.61	33.080
522.95	32.163
523.29	31.912
523.64	32.917
523.98	32.718
524.32	32.432
524.66	31.429
525.01	32.434
525.35	32.474
525.69	32.791
526.04	32.441
526.38	32.272
526.72	32.375
527.06	33.464
527.41	32.739
527.75	32.277
528.09	33.554
528.43	32.918
528.78	32.161
529.12	33.611
529.46	33.698
529.80	33.183
530.15	32.840
530.49	32.406
530.83	33.464
531.17	32.593
531.51	33.289
531.86	32.785
532.20	32.996
532.54	33.690
532.88	32.675
533.22	32.754
533.57	32.702
533.91	33.021
534.25	32.495
534.59	32.542
534.93	32.607
535.27	33.354
535.62	33.568
535.96	33.096
536.30	33.246
536.64	33.134
536.98	33.475
537.32	33.587
537.66	33.062
538.01	32.577
538.35	32.500
538.69	33.356
539.03	32.837
539.37	33.932
539.71	32.955
540.05	33.105
540.39	33.864
540.73	33.587
541.07	33.402
541.42	33.761
541.76	32.691
542.10	34.369
542.44	32.712
542.78	33.989
543.12	33.062
543.46	32.055
543.80	33.645
544.14	32.572
544.48	33.333
544.82	33.424
545.16	32.193
545.50	32.840
545.84	34.075
546.18	33.356
546.52	33.499
546.86	34.117
547.20	32.911
547.54	32.989
547.88	34.572
548.22	32.896
548.56	34.736
548.90	33.693
549.24	33.567
549.58	32.886
549.92	33.004
550.26	33.743
550.60	33.428
550.94	33.796
551.28	32.430
551.62	33.309
551.96	32.923
552.30	33.310
552.64	33.779
552.98	33.637
553.32	33.478
553.66	33.670
554.00	32.765
554.34	33.213
554.68	32.749
555.02	33.285
555.36	33.285
555.69	33.166
556.03	33.544
556.37	33.357
556.71	32.999
557.05	33.481
557.39	33.927
557.73	34.282
558.07	33.610
558.41	33.059
558.75	32.395
559.08	32.763
559.42	32.772
559.76	34.816
560.10	34.154
560.44	34.032
560.78	33.751
561.12	32.574
561.45	32.671
561.79	32.962
562.13	33.170
562.47	33.543
562.81	33.451
563.15	32.960
563.48	33.863
563.82	32.995
564.16	32.995
564.50	32.863
564.84	33.069
565.17	33.090
565.51	33.507
565.85	34.145
566.19	34.321
566.52	32.746
566.86	32.807
567.20	33.414
567.54	33.904
567.88	32.663
568.21	33.781
568.55	33.245
568.89	33.549
569.23	33.225
569.56	32.997
569.90	32.769
570.24	33.296
570.57	32.197
570.91	33.186
571.25	32.815
571.59	33.032
571.92	32.857
572.26	32.744
572.60	32.982
572.93	32.394
573.27	32.805
573.61	32.033
573.95	32.384
574.28	32.082
574.62	32.715
574.96	32.527
575.29	32.749
575.63	32.625
575.97	31.904
576.30	32.118
576.64	33.159
576.98	31.749
577.31	32.515
577.65	32.073
577.98	32.323
578.32	32.793
578.66	32.655
578.99	32.386
579.33	31.902
579.67	32.412
580.00	32.564
580.34	32.265
580.67	32.287
581.01	31.787
581.35	32.464
581.68	32.672
582.02	32.330
582.35	32.502
582.69	33.025
583.02	33.289
583.36	32.531
583.70	32.437
584.03	33.001
584.37	32.287
584.70	32.250
585.04	32.152
585.37	32.005
585.71	32.704
586.04	32.219
586.38	32.318
586.72	32.131
587.05	32.654
587.39	32.314
587.72	32.652
588.06	32.792
588.39	32.242
588.73	32.710
589.06	32.864
589.40	32.291
589.73	32.578
590.07	32.520
590.40	32.362
590.73	32.907
591.07	32.951
591.40	33.579
591.74	33.102
592.07	33.288
592.41	32.994
592.74	32.782
593.08	33.024
593.41	32.204
593.75	32.113
594.08	33.465
594.41	32.976
594.75	33.522
595.08	33.308
595.42	32.370
595.75	32.157
596.09	32.712
596.42	32.979
596.75	31.910
597.09	32.947
597.42	31.864
597.75	32.905
598.09	32.083
598.42	32.037
598.76	31.561
599.09	32.518
599.42	32.103
599.76	32.541
600.09	32.443
600.42	32.852
600.76	32.957
601.09	32.510
601.42	32.727
601.76	32.360
602.09	32.965
602.42	33.004
602.76	32.281
603.09	32.984
603.42	33.078
603.76	32.310
604.09	32.839
604.42	32.140
604.76	32.185
605.09	32.821
605.42	33.023
605.75	32.557
606.09	32.088
606.42	32.845
606.75	33.190
607.09	32.642
607.42	32.835
607.75	32.450
608.08	33.168
608.42	32.687
608.75	31.075
609.08	32.586
609.41	32.237
609.75	31.984
610.08	32.402
610.41	32.578
610.74	33.366
611.07	32.099
611.41	31.871
611.74	32.134
612.07	33.673
612.40	32.356
612.73	32.041
613.07	32.416
613.40	33.607
613.73	32.316
614.06	31.960
614.39	33.258
614.72	32.235
615.06	31.902
615.39	31.362
615.72	32.482
616.05	31.309
616.38	34.243
616.71	33.453
617.05	33.112
617.38	32.941
617.71	31.634
618.04	32.671
618.37	32.201
618.70	33.246
619.03	31.957
619.36	32.770
619.69	33.453
620.03	31.474
620.36	32.278
620.69	33.381
621.02	32.344
621.35	32.419
621.68	32.131
622.01	31.392
622.34	33.230
622.67	31.641
623.00	33.894
623.33	32.388
623.66	32.275
623.99	31.504
624.32	31.324
624.65	32.745
624.99	31.665
625.32	32.635
625.65	32.945
625.98	32.081
626.31	33.197
626.64	33.222
626.97	33.134
627.30	32.426
627.63	31.002
627.96	32.550
628.29	31.985
628.62	32.569
628.95	33.760
629.28	32.331
629.61	31.796
629.94	33.743
630.26	33.698
630.59	33.367
630.92	33.734
631.25	34.274
631.58	33.016
631.91	32.021
632.24	32.889
632.57	31.667
632.90	32.414
633.23	32.477
633.56	33.216
633.89	33.608
634.22	33.530
634.55	32.091
634.88	31.802
635.20	29.838
635.53	31.934
635.86	30.730
636.19	31.136
636.52	32.378
636.85	32.491
637.18	31.375
637.51	32.466
637.83	32.623
638.16	30.658
638.49	33.241
638.82	32.947
639.15	31.907
639.48	29.572
639.81	32.918
640.13	31.757
640.46	32.479
640.79	31.933
641.12	33.004
641.45	31.851
641.77	33.832
642.10	33.686
642.43	32.777
642.76	33.071
643.09	31.270
643.41	33.333
643.74	32.114
644.07	33.541
644.40	31.280
644.73	32.508
645.05	31.386
645.38	29.967
645.71	34.880
646.04	33.277
646.36	32.635
646.69	34.429
647.02	31.047
647.35	33.213
647.67	33.577
648.00	33.919
648.33	30.523
648.66	29.839
648.98	31.210
649.31	32.923
649.64	34.844
649.96	32.496
650.29	29.180
650.62	34.768
650.94	32.715
651.27	30.849
651.60	33.737
651.92	34.075
652.25	31.052
652.58	30.835
652.90	32.263
653.23	31.129
653.56	31.605
653.88	29.836
654.21	33.054
654.54	33.056
654.86	30.819
655.19	31.662
655.52	32.577
655.84	32.136
656.17	35.118
656.49	47.920
656.82	48.930
657.15	36.712
657.47	27.181
657.80	21.046
658.13	23.870
658.45	31.479
658.78	30.419
659.10	30.212
659.43	30.282
659.75	30.173
660.08	29.375
660.41	28.780
660.73	29.813
661.06	31.594
661.38	32.679
661.71	30.784
662.03	33.669
662.36	30.704
662.68	31.646
663.01	32.272
663.33	33.787
663.66	32.833
663.98	30.804
664.31	31.096
664.63	32.522
664.96	29.067
665.28	30.803
665.61	30.867
665.93	32.510
666.26	32.186
666.58	32.225
666.91	31.849
667.23	33.114
667.56	32.426
667.88	32.805
668.21	31.797
668.53	33.178
668.86	34.180
669.18	30.137
669.50	28.037
669.83	29.684
670.15	29.372
670.48	30.374
670.80	28.929
671.13	31.828
671.45	31.532
671.77	31.478
672.10	31.558
672.42	31.919
672.75	29.818
673.07	29.910
673.39	30.783
673.72	33.268
674.04	30.573
674.37	30.309
674.69	33.402
675.01	28.085
675.34	30.369
675.66	30.886
675.98	33.260
676.31	31.674
676.63	32.184
676.95	30.752
677.28	30.162
677.60	29.638
677.92	34.141
678.25	30.416
678.57	33.333
678.89	31.237
679.22	29.769
679.54	30.966
679.86	28.600
680.18	29.848
680.51	28.864
680.83	31.810
681.15	29.094
681.48	33.063
681.80	29.637
682.12	29.577
682.44	28.880
682.77	27.706
683.09	31.447
683.41	30.973
683.73	28.539
684.06	30.323
684.38	32.218
684.70	30.453
685.02	29.331
685.34	30.409
685.67	30.114
685.99	29.679
686.31	31.777
686.63	30.142
686.96	30.129
687.28	29.287
687.60	32.227
687.92	25.681
688.24	31.299
688.56	28.657
688.89	28.846
689.21	31.729
689.53	32.414
689.85	28.731
690.17	29.148
690.49	31.178
690.82	30.361
691.14	31.840
691.46	30.377
691.78	31.498
692.10	34.534
692.42	29.778
692.74	27.897
693.06	28.764
693.39	27.293
693.71	30.248
694.03	31.965
694.35	26.862
694.67	30.260
694.99	24.297
695.31	28.061
695.63	31.633
695.95	28.288
696.27	31.671
696.59	29.144
696.91	30.056
697.23	30.990
697.56	30.288
697.88	28.829
698.20	27.623
698.52	27.578
698.84	29.369
699.16	27.619
699.48	24.500
699.80	31.078
700.12	28.463
700.44	25.698
700.76	26.822
701.08	28.488
701.40	27.795
701.72	29.321
702.04	29.167
702.36	31.325
702.68	32.036
703.00	28.986
703.32	24.355
703.64	31.765
703.96	30.814
704.28	31.065
704.60	26.266
704.91	27.619
705.23	31.392
705.55	25.000
705.87	26.962
706.19	22.222
706.51	28.472
706.83	31.148
707.15	30.892
707.47	31.956
707.79	29.381
708.11	27.990
708.43	29.426
708.74	27.273
709.06	23.398
709.38	25.287
709.70	28.125
710.02	29.141
710.34	25.743
710.66	25.714
710.98	29.338
711.29	24.516
711.61	26.518
711.93	29.180
712.25	31.561
712.57	26.132
712.89	28.417
713.20	32.646
713.52	28.731
713.84	27.402
714.16	29.836
714.48	31.111
714.80	27.385
715.11	28.530
715.43	32.229
715.75	25.234
716.07	29.836
716.39	29.766
716.70	28.223
717.02	27.407
717.34	26.336
717.66	33.610
717.97	26.230
718.29	28.992
718.61	30.556
718.93	29.032
719.24	20.956
719.56	23.019
719.88	27.273
720.20	27.341
720.51	28.571
720.83	30.522
721.15	29.098
721.46	30.196
721.78	23.755
722.10	28.800
722.42	27.273
722.73	29.084
723.05	28.916
723.37	27.843
723.68	25.911
724.00	26.829
724.32	27.160
724.63	25.726
724.95	30.579
725.27	24.561
725.58	25.862
725.90	24.206
726.22	25.461
726.53	26.996
726.85	26.275
727.16	22.180
727.48	25.000
727.80	23.361
728.11	26.050
728.43	26.033
728.74	31.641
729.06	30.303
729.38	22.568
729.69	24.016
730.01	26.772
730.32	25.498
730.64	23.810
730.96	30.597
731.27	23.929
731.59	26.688
731.90	24.847
732.22	26.074
732.53	28.477
732.85	24.832
733.16	30.072
733.48	25.087
733.80	26.690
734.11	25.172
734.43	26.531
734.74	24.629
735.06	28.527
735.37	28.440
735.69	21.613
736.00	22.896
736.32	27.483
736.63	20.690
736.95	23.913
737.26	24.834
737.58	25.180
737.89	29.032
738.21	26.692
738.52	26.923
738.83	25.781
739.15	20.513
739.46	25.000
739.78	24.825
740.09	24.126
740.41	24.825
740.72	25.912
741.04	21.032
741.35	21.212
741.66	26.389
741.98	21.429
742.29	23.474
742.61	27.273
742.92	28.972
743.23	25.877
743.55	25.225
743.86	32.000
744.18	23.333
744.49	24.631
744.80	30.964
745.12	29.381
745.43	31.658
745.74	24.757
746.06	27.317
746.37	29.515
746.68	25.373
747.00	28.796
747.31	25.962
747.62	23.963
747.94	24.017
748.25	27.907
748.56	23.333
748.88	16.848
749.19	24.883
749.50	29.902
749.82	28.444
750.13	30.837
750.44	28.455
750.75	28.000
751.07	24.643
751.38	25.461
751.69	19.847
752.01	25.769
752.32	24.125
752.63	24.615
752.94	21.429
753.26	28.261
753.57	28.125
753.88	26.293
754.19	28.216
754.51	20.313
754.82	26.482
755.13	29.218
755.44	21.488
755.75	23.868
756.07	21.285
756.38	26.172
756.69	28.159
757.00	24.042
757.31	24.161
757.63	27.414
757.94	24.566
758.25	25.581
758.56	28.571
758.87	25.284
759.18	23.000
759.50	25.267
759.81	20.803
760.12	20.608
760.43	30.097
760.74	29.375
761.05	25.843
761.36	26.347
761.67	23.077
761.99	26.129
762.30	29.710
762.61	22.642
762.92	23.318
763.23	24.645
763.54	20.444
763.85	29.536
764.16	27.347
764.47	27.966
764.78	22.846
765.10	30.216
765.41	26.452
765.72	25.157
766.03	20.848
766.34	26.316
766.65	21.053
766.96	17.000
767.27	23.437
767.58	22.093
767.89	28.387
768.20	19.632
768.51	30.601
768.82	26.486
769.13	24.500
769.44	25.439
769.75	24.675
770.06	30.275
770.37	19.718
770.68	23.437
770.99	28.218
771.30	18.932
771.61	29.167
771.92	21.212
772.23	28.972
772.54	25.000
772.85	17.751
773.16	23.171
773.47	31.325
773.78	30.220
774.09	25.333
774.39	22.222
774.70	19.463
775.01	31.159
775.32	17.910
775.63	14.050
775.94	23.308
776.25	19.286
776.56	27.869
776.87	20.354
777.18	23.009
777.48	14.545
777.79	12.174
778.10	10.092
778.41	16.949
778.72	21.488
779.03	17.164
779.34	28.571
779.65	24.837
779.95	21.739
780.26	21.769
780.57	10.345
780.88	14.815
781.19	13.131
781.50	20.000
781.80	24.183
782.11	28.846
782.42	26.506
782.73	18.248
783.04	26.351
783.34	21.212
783.65	21.705
783.96	21.138
784.27	19.658
784.57	17.886
784.88	18.699
785.19	14.912
785.50	10.309
785.81	5.714
786.11	11.765
786.42	14.545
786.73	21.622
787.04	17.822
787.34	21.905
787.65	18.095
787.96	3.922
788.26	25.225
788.57	25.000
788.88	19.531
789.19	11.111
789.49	22.689
789.80	23.077
790.11	18.584
790.41	10.101
790.72	25.472
791.03	-5.556
791.33	22.368
791.64	20.430
791.95	8.000
792.25	8.571
792.56	13.415
792.87	13.265
793.17	9.211
793.48	-2.703
793.79	7.042
794.09	15.190
794.40	22.340
794.70	14.953
795.01	16.667
795.32	5.455
795.62	20.536
795.93	13.402
796.23	17.582
796.54	14.737
796.85	-9.589
797.15	9.722
797.46	16.438
797.76	38.028
798.07	15.000
798.37	11.765
798.68	7.143
798.99	18.571
799.29	23.684
799.60	11.667
799.90	0.000
800.21	3.125
800.51	11.111
800.82	-1.639
801.12	1.754
801.43	-4.225
801.73	18.644
802.04	31.148
802.34	-3.636
802.65	1.923
802.95	7.407
803.26	-35.000
803.56	25.000
803.87	7.895
804.17	20.968
804.48	12.308
804.78	7.692
805.09	-9.302
805.39	-9.375
805.70	-3.774
806.00	19.298
806.30	17.568
806.61	11.765
806.91	20.988
807.22	5.333
807.52	13.433
807.83	3.226
808.13	1.587
808.43	0.000
808.74	21.212
809.04	16.981
809.35	19.178
809.65	10.526
809.95	-2.941
810.26	-1.961
810.56	-4.000
810.86	-2.041
811.17	-14.286
811.47	-17.308
811.77	-19.355
812.08	-42.105
812.38	7.143
812.69	-17.391
812.99	19.355
813.29	-33.333
813.59	-11.111
813.90	-2.128
814.20	-23.256
814.50	25.000
814.81	-5.000
815.11	0.000
815.41	-13.333
815.72	37.143
816.02	-2.778
816.32	0.000
816.62	-2.703
816.93	-20.588
817.23	-6.522
817.53	-41.176
817.84	14.706
818.14	0.000
818.44	-41.379
818.74	-6.452
819.04	-25.926
819.35	-6.667
819.65	-24.000
819.95	-6.667
820.25	-20.000
820.56	-21.053
820.86	-27.500
821.16	0.000
821.46	18.966
821.76	-5.128
822.07	-12.500
822.37	4.651
822.67	-36.667
822.97	-35.135
823.27	-13.514
823.57	-4.000
823.88	-16.216
824.18	-80.952
824.48	-46.154
824.78	-130.769
825.08	-86.957
825.38	-16.667
825.69	-4.167
825.99	-95.000
826.29	-27.027
826.59	-2.941
826.89	24.000
827.19	-45.714
827.49	-7.895
827.79	28.125
828.09	-13.333
828.39	-8.696
828.70	-24.138
829.00	-27.586
829.30	-2.778
829.60	21.875
829.90	-38.889
830.20	-50.000
830.50	-19.048
830.80	-35.714
831.10	0.000
831.40	-19.048
831.70	-8.824
832.00	8.333
832.30	-36.842
832.60	-87.500
832.90	-58.333
833.20	-70.588
833.50	-93.333
833.80	-113.333
834.10	-70.000
834.40	-33.333
834.70	-50.000
835.00	7.692
835.30	-79.167
835.60	-37.931
835.90	-77.778
836.20	-118.182
836.50	-25.000
836.80	-34.286
837.10	34.286
837.40	0.000
837.70	-154.545
838.00	-25.000
838.30	-112.500
838.60	-95.238
838.90	40.000
839.19	-30.435
839.49	-21.739
839.79	-100.000
840.09	-73.913
840.39	-40.909
840.69	18.750
840.99	-31.579
841.29	-93.750
841.59	-35.714
841.88	-83.333
842.18	-25.000
842.48	-76.471
842.78	0.000
843.08	-64.286
843.38	-61.538
843.68	-155.556
843.97	-92.308
844.27	-109.091
844.57	-240.000
844.87	32.000
845.17	-20.000
845.47	-121.429
845.76	-277.778
846.06	0.000
846.36	-375.000
846.66	-170.000
846.96	5.263
847.25	12.500
847.55	-83.333
847.85	-53.333
848.15	-140.000
848.44	38.462
848.74	-36.842
849.04	533.333
849.34	-100.000
849.63	-131.579
849.93	0.000
850.23	-45.000
850.53	-33.333
850.82	-16.000
851.12	-26.316
851.42	-850.000
851.71	-35.714
852.01	-41.667
852.31	-58.824
852.61	6.667
852.90	-9.524
853.20	-266.667
853.50	5.556
853.79	-47.368
854.09	-33.333
854.39	-10.714
854.68	-47.826
854.98	-191.667
855.28	-13.793
855.57	-75.000
855.87	-40.000
856.17	-113.333
856.46	-3.448
856.76	-26.667
857.05	-70.588
857.35	-61.538
857.65	-18.182
857.94	-14.815
858.24	-114.286
858.53	-42.857
858.83	-33.333
859.13	-122.222
859.42	-9.524
859.72	-112.500
860.01	-633.333
860.31	-75.000
860.60	-340.000
860.90	-100.000
861.20	-75.000
861.49	-142.857
861.79	17.647
862.08	-300.000
862.38	-116.667
862.67	-107.692
862.97	-35.294
863.26	0.000
863.56	-47.059
863.85	666.667
864.15	-70.000
864.44	-146.154
864.74	-10.000
865.03	-237.500
865.33	-183.333
865.62	-64.706
865.92	-575.000
866.21	-100.000
866.51	-133.333
866.80	-1600.000
867.10	-500.000
867.39	-23.529
867.69	-17.391
867.98	-128.571
868.27	-280.000
868.57	-118.750
868.86	-145.455
869.16	-94.118
869.45	16.667
869.75	-257.143
870.04	400.000
870.33	-133.333
870.63	-200.000
870.92	-88.889
871.22	-50.000
871.51	-90.909
871.80	-16.667
872.10	10.000
>>>>>End Processed Spectral Data<<<<<
