SpectraSuite Data File
++++++++++++++++++++++++++++++++++++
Date: Sat May 16 11:18:26 PDT 2015
User: schluterlab
Dark Spectrum Present: Yes
Reference Spectrum Present: Yes
Number of Sampled Component Spectra: 1
Spectrometers: USB2E3373
Integration Time (usec): 3000 (USB2E3373)
Spectra Averaged: 3 (USB2E3373)
Boxcar Smoothing: 0 (USB2E3373)
Correct for Electrical Dark: No (USB2E3373)
Strobe/Lamp Enabled: No (USB2E3373)
Correct for Detector Non-linearity: No (USB2E3373)
Correct for Stray Light: No (USB2E3373)
Number of Pixels in Processed Spectrum: 2048
>>>>>Begin Processed Spectral Data<<<<<
178.53	0.000
178.91	66.667
179.29	400.000
179.67	-1200.000
180.04	-46.154
180.42	1500.000
180.80	175.000
181.18	375.000
181.56	37.500
181.94	1300.000
182.31	375.000
182.69	0.000
183.07	-333.333
183.45	1150.000
183.83	600.000
184.20	-171.429
184.58	-75.000
184.96	-75.000
185.34	125.000
185.72	-625.000
186.09	233.333
186.47	-100.000
186.85	-175.000
187.23	-25.000
187.61	-250.000
187.98	-250.000
188.36	-100.000
188.74	-200.000
189.12	2100.000
189.49	357.143
189.87	-41.667
190.25	450.000
190.63	-107.143
191.00	-88.889
191.38	320.000
191.76	-20.000
192.14	300.000
192.51	-200.000
192.89	-233.333
193.27	0.000
193.65	-55.556
194.02	-128.571
194.40	300.000
194.78	-110.000
195.15	-900.000
195.53	-163.636
195.91	-183.333
196.29	260.000
196.66	-766.667
197.04	2100.000
197.42	-75.000
197.79	-20.000
198.17	-166.667
198.55	-450.000
198.92	-100.000
199.30	187.500
199.68	-900.000
200.05	-122.222
200.43	-200.000
200.81	-1300.000
201.18	-75.000
201.56	271.429
201.94	-33.333
202.31	22.727
202.69	120.000
203.07	-90.000
203.44	300.000
203.82	-183.333
204.19	-350.000
204.57	-100.000
204.95	-1000.000
205.32	-37.500
205.70	-200.000
206.08	-2600.000
206.45	-11.111
206.83	-650.000
207.20	150.000
207.58	-533.333
207.96	-600.000
208.33	-125.000
208.71	-22.222
209.08	200.000
209.46	-285.714
209.84	250.000
210.21	0.000
210.59	40.000
210.96	300.000
211.34	-233.333
211.71	33.333
212.09	125.000
212.46	1050.000
212.84	-1700.000
213.22	466.667
213.59	125.000
213.97	-133.333
214.34	150.000
214.72	-30.000
215.09	-266.667
215.47	33.333
215.84	-40.000
216.22	-130.000
216.59	-6.667
216.97	-150.000
217.34	400.000
217.72	0.000
218.09	-316.667
218.47	-300.000
218.84	85.714
219.22	71.429
219.59	0.000
219.97	185.714
220.34	475.000
220.72	125.000
221.09	38.462
221.47	0.000
221.84	433.333
222.22	100.000
222.59	800.000
222.97	-175.000
223.34	-650.000
223.72	-400.000
224.09	0.000
224.46	-75.000
224.84	-28.571
225.21	-142.857
225.59	-109.091
225.96	-62.500
226.34	28.571
226.71	-211.111
227.08	40.000
227.46	2000.000
227.83	-128.571
228.21	-137.500
228.58	250.000
228.95	31.250
229.33	-1700.000
229.70	-220.000
230.08	-550.000
230.45	-100.000
230.82	-150.000
231.20	-200.000
231.57	-400.000
231.95	1500.000
232.32	19.048
232.69	-100.000
233.07	-228.571
233.44	-950.000
233.81	-80.000
234.19	-155.556
234.56	-31.250
234.93	34.375
235.31	-171.429
235.68	-100.000
236.05	-17.647
236.43	-77.273
236.80	3.226
237.17	-12.500
237.55	4.762
237.92	-40.909
238.29	-14.286
238.67	14.706
239.04	-8.333
239.41	-25.806
239.79	-15.385
240.16	16.667
240.53	-10.909
240.91	-7.692
241.28	7.273
241.65	13.846
242.02	11.475
242.40	-3.279
242.77	15.152
243.14	18.644
243.51	-7.143
243.89	18.987
244.26	6.742
244.63	9.474
245.00	20.000
245.38	25.424
245.75	16.814
246.12	11.200
246.49	11.024
246.87	14.634
247.24	7.627
247.61	11.017
247.98	16.197
248.36	14.685
248.73	14.557
249.10	15.924
249.47	19.883
249.84	18.182
250.22	6.548
250.59	19.774
250.96	13.613
251.33	21.327
251.70	19.231
252.08	20.853
252.45	15.166
252.82	9.524
253.19	11.915
253.56	18.548
253.94	19.831
254.31	18.455
254.68	21.138
255.05	15.726
255.42	19.048
255.79	20.072
256.16	18.431
256.54	18.382
256.91	16.288
257.28	17.949
257.65	17.730
258.02	19.182
258.39	19.398
258.76	16.216
259.14	16.667
259.51	21.967
259.88	17.683
260.25	22.360
260.62	18.650
260.99	19.288
261.36	20.122
261.73	20.520
262.10	20.833
262.47	17.949
262.85	24.571
263.22	18.052
263.59	17.846
263.96	16.522
264.33	17.886
264.70	20.994
265.07	19.505
265.44	18.088
265.81	20.672
266.18	17.215
266.55	18.137
266.92	22.166
267.29	20.097
267.66	20.741
268.03	21.981
268.40	20.423
268.77	20.723
269.14	19.490
269.51	17.701
269.88	16.972
270.25	19.814
270.62	19.451
270.99	20.495
271.36	21.445
271.73	18.161
272.10	16.018
272.47	18.444
272.84	21.778
273.21	21.101
273.58	18.022
273.95	18.860
274.32	19.683
274.69	18.818
275.06	20.041
275.43	17.857
275.80	20.367
276.17	18.828
276.54	21.181
276.91	18.107
277.28	18.661
277.65	18.802
278.02	19.833
278.39	20.236
278.76	17.530
279.13	18.775
279.50	17.893
279.87	20.085
280.23	21.255
280.60	21.272
280.97	18.835
281.34	19.729
281.71	20.192
282.08	18.750
282.45	17.719
282.82	18.217
283.19	18.727
283.56	21.978
283.92	21.378
284.29	17.100
284.66	20.324
285.03	19.073
285.40	20.295
285.77	19.298
286.14	17.148
286.51	17.762
286.87	20.145
287.24	18.601
287.61	18.347
287.98	17.331
288.35	16.033
288.72	19.015
289.08	17.288
289.45	16.498
289.82	16.263
290.19	18.062
290.56	16.198
290.93	17.011
291.29	16.370
291.66	16.586
292.03	16.954
292.40	16.566
292.77	15.683
293.13	17.073
293.50	16.196
293.87	15.337
294.24	15.083
294.60	14.848
294.97	17.451
295.34	15.407
295.71	16.518
296.08	12.750
296.44	15.594
296.81	15.954
297.18	14.085
297.55	16.384
297.91	17.015
298.28	15.890
298.65	15.621
299.02	16.979
299.38	14.572
299.75	13.995
300.12	14.231
300.48	16.496
300.85	13.761
301.22	14.877
301.59	15.605
301.95	15.869
302.32	11.995
302.69	13.464
303.05	14.164
303.42	14.625
303.79	14.234
304.15	14.455
304.52	14.702
304.89	14.404
305.25	13.553
305.62	13.278
305.99	15.312
306.35	15.094
306.72	12.984
307.09	14.642
307.45	13.961
307.82	12.849
308.19	13.087
308.55	12.636
308.92	12.782
309.29	13.297
309.65	13.786
310.02	13.607
310.38	13.189
310.75	14.447
311.12	14.256
311.48	12.630
311.85	13.903
312.22	13.800
312.58	14.649
312.95	12.946
313.31	12.987
313.68	13.769
314.05	13.551
314.41	13.280
314.78	12.488
315.14	13.129
315.51	14.488
315.87	13.553
316.24	13.217
316.61	12.668
316.97	12.338
317.34	13.680
317.70	12.338
318.07	13.153
318.43	13.015
318.80	13.239
319.16	11.257
319.53	12.124
319.89	12.888
320.26	13.137
320.62	11.923
320.99	13.134
321.35	11.034
321.72	12.487
322.08	13.353
322.45	12.277
322.81	12.776
323.18	13.160
323.54	14.418
323.91	13.809
324.27	11.882
324.64	13.071
325.00	13.613
325.37	13.937
325.73	13.386
326.10	10.540
326.46	12.172
326.83	13.872
327.19	13.428
327.56	14.055
327.92	13.594
328.29	13.680
328.65	12.636
329.01	13.339
329.38	12.132
329.74	13.187
330.11	13.237
330.47	12.534
330.84	12.924
331.20	11.733
331.56	12.489
331.93	13.233
332.29	13.425
332.66	12.204
333.02	12.217
333.38	12.903
333.75	12.823
334.11	12.356
334.48	12.092
334.84	13.386
335.20	12.057
335.57	13.809
335.93	13.160
336.29	13.640
336.66	11.454
337.02	13.784
337.38	12.210
337.75	12.467
338.11	12.254
338.47	12.100
338.84	12.704
339.20	12.390
339.56	13.280
339.93	11.640
340.29	12.578
340.65	11.801
341.02	12.479
341.38	11.542
341.74	12.532
342.11	11.433
342.47	11.674
342.83	11.167
343.20	12.468
343.56	11.918
343.92	11.686
344.28	12.111
344.65	12.046
345.01	11.933
345.37	13.206
345.73	11.784
346.10	11.284
346.46	11.535
346.82	10.746
347.19	11.339
347.55	11.717
347.91	12.362
348.27	11.615
348.63	12.439
349.00	12.808
349.36	10.383
349.72	12.500
350.08	12.269
350.45	11.899
350.81	12.102
351.17	10.209
351.53	11.695
351.89	11.560
352.26	12.403
352.62	12.903
352.98	11.155
353.34	12.710
353.70	11.197
354.07	12.195
354.43	12.095
354.79	11.727
355.15	11.661
355.51	11.484
355.87	11.462
356.24	11.279
356.60	12.812
356.96	12.625
357.32	11.481
357.68	11.111
358.04	11.470
358.40	12.529
358.77	12.287
359.13	11.630
359.49	11.943
359.85	10.899
360.21	11.568
360.57	12.500
360.93	11.481
361.29	11.061
361.66	10.366
362.02	11.686
362.38	11.886
362.74	10.696
363.10	12.195
363.46	11.681
363.82	11.297
364.18	11.650
364.54	12.152
364.90	10.692
365.26	11.698
365.62	12.473
365.98	11.949
366.35	11.831
366.71	11.064
367.07	11.080
367.43	12.766
367.79	11.271
368.15	10.526
368.51	11.608
368.87	13.393
369.23	11.158
369.59	11.528
369.95	11.346
370.31	12.940
370.67	10.918
371.03	11.152
371.39	10.679
371.75	11.803
372.11	11.478
372.47	10.701
372.83	11.752
373.19	11.786
373.55	11.682
373.91	11.095
374.27	10.883
374.63	11.318
374.99	11.892
375.35	11.104
375.71	12.019
376.07	10.951
376.42	10.596
376.78	11.176
377.14	11.051
377.50	11.605
377.86	11.899
378.22	12.060
378.58	11.242
378.94	11.344
379.30	11.578
379.66	12.204
380.02	11.943
380.38	10.937
380.74	11.665
381.09	11.482
381.45	11.754
381.81	11.313
382.17	11.842
382.53	11.003
382.89	11.364
383.25	11.439
383.61	11.557
383.97	11.635
384.32	11.702
384.68	11.427
385.04	11.292
385.40	12.234
385.76	11.646
386.12	11.118
386.48	11.572
386.83	11.043
387.19	11.835
387.55	11.569
387.91	10.848
388.27	11.339
388.62	11.719
388.98	12.053
389.34	11.689
389.70	11.998
390.06	11.001
390.42	11.218
390.77	11.356
391.13	12.112
391.49	11.541
391.85	11.721
392.20	11.590
392.56	11.668
392.92	11.523
393.28	12.055
393.64	11.726
393.99	12.246
394.35	11.618
394.71	11.303
395.07	12.680
395.42	10.548
395.78	11.691
396.14	12.274
396.50	11.865
396.85	11.845
397.21	11.118
397.57	11.915
397.92	12.119
398.28	12.111
398.64	11.838
399.00	11.685
399.35	11.669
399.71	12.602
400.07	11.940
400.42	11.192
400.78	11.270
401.14	11.856
401.49	11.262
401.85	11.043
402.21	11.740
402.57	11.833
402.92	12.146
403.28	11.765
403.63	11.444
403.99	13.052
404.35	11.413
404.70	11.118
405.06	11.995
405.42	11.193
405.77	11.143
406.13	11.244
406.49	11.684
406.84	11.218
407.20	12.367
407.55	12.033
407.91	12.306
408.27	12.316
408.62	12.026
408.98	12.068
409.34	10.908
409.69	11.720
410.05	12.068
410.40	12.201
410.76	11.974
411.11	11.908
411.47	11.509
411.83	12.164
412.18	11.448
412.54	11.287
412.89	12.394
413.25	11.098
413.60	10.571
413.96	11.091
414.31	11.254
414.67	11.683
415.03	11.902
415.38	11.581
415.74	11.147
416.09	12.084
416.45	12.037
416.80	12.289
417.16	11.429
417.51	12.869
417.87	11.974
418.22	11.441
418.58	12.003
418.93	11.649
419.29	10.979
419.64	11.307
420.00	12.151
420.35	11.118
420.71	11.224
421.06	12.367
421.42	11.300
421.77	11.781
422.12	11.584
422.48	12.133
422.83	12.073
423.19	11.247
423.54	11.585
423.90	12.204
424.25	11.652
424.61	11.821
424.96	11.878
425.31	12.074
425.67	12.092
426.02	11.245
426.38	11.494
426.73	11.923
427.09	11.703
427.44	11.420
427.79	12.035
428.15	12.507
428.50	12.141
428.85	12.050
429.21	10.736
429.56	11.719
429.92	11.523
430.27	11.665
430.62	11.808
430.98	11.709
431.33	11.846
431.68	12.332
432.04	11.975
432.39	12.536
432.74	13.070
433.10	11.199
433.45	11.284
433.80	12.150
434.16	12.144
434.51	12.219
434.86	11.892
435.22	12.305
435.57	11.506
435.92	12.134
436.28	12.819
436.63	11.758
436.98	11.512
437.34	12.404
437.69	11.552
438.04	11.968
438.39	12.034
438.75	11.583
439.10	12.271
439.45	11.044
439.81	12.711
440.16	11.584
440.51	11.941
440.86	11.220
441.22	11.996
441.57	12.000
441.92	11.765
442.27	11.688
442.63	11.642
442.98	11.287
443.33	11.752
443.68	11.777
444.03	11.837
444.39	11.992
444.74	12.059
445.09	11.129
445.44	11.818
445.79	11.831
446.15	11.720
446.50	11.377
446.85	11.698
447.20	11.798
447.55	11.989
447.91	13.195
448.26	11.620
448.61	11.602
448.96	12.493
449.31	11.612
449.66	12.536
450.02	11.856
450.37	11.246
450.72	11.186
451.07	12.319
451.42	10.781
451.77	12.089
452.12	12.396
452.47	11.902
452.83	11.474
453.18	11.765
453.53	11.878
453.88	13.158
454.23	11.004
454.58	12.492
454.93	12.217
455.28	11.154
455.63	12.408
455.98	12.169
456.34	11.245
456.69	12.133
457.04	12.415
457.39	11.065
457.74	11.754
458.09	12.065
458.44	11.894
458.79	11.883
459.14	11.922
459.49	11.427
459.84	11.748
460.19	12.172
460.54	11.918
460.89	11.603
461.24	12.022
461.59	11.958
461.94	12.412
462.29	11.793
462.64	11.924
462.99	11.847
463.34	11.614
463.69	11.896
464.04	11.775
464.39	11.589
464.74	11.939
465.09	11.004
465.44	11.675
465.79	12.747
466.14	12.313
466.49	11.514
466.84	12.305
467.19	12.469
467.54	11.962
467.89	11.097
468.24	11.936
468.59	11.430
468.94	11.768
469.29	11.501
469.64	12.062
469.99	11.951
470.34	12.024
470.68	12.209
471.03	11.975
471.38	11.389
471.73	12.657
472.08	11.245
472.43	12.098
472.78	12.267
473.13	11.398
473.48	12.827
473.83	12.097
474.17	12.166
474.52	12.980
474.87	12.413
475.22	12.212
475.57	12.000
475.92	13.013
476.27	12.286
476.61	11.662
476.96	11.627
477.31	12.217
477.66	11.898
478.01	12.534
478.36	12.310
478.70	12.173
479.05	12.385
479.40	12.124
479.75	12.334
480.10	11.359
480.45	11.702
480.79	12.290
481.14	12.092
481.49	12.343
481.84	12.252
482.19	11.878
482.53	12.311
482.88	11.960
483.23	11.737
483.58	12.997
483.92	12.183
484.27	11.210
484.62	12.095
484.97	12.198
485.31	11.584
485.66	11.486
486.01	12.040
486.36	12.116
486.70	12.613
487.05	12.041
487.40	12.073
487.75	12.044
488.09	11.489
488.44	12.212
488.79	12.204
489.13	11.982
489.48	12.520
489.83	11.965
490.17	11.842
490.52	12.138
490.87	11.132
491.22	11.910
491.56	12.269
491.91	11.594
492.26	12.123
492.60	12.226
492.95	12.518
493.30	12.387
493.64	11.331
493.99	12.524
494.34	11.857
494.68	12.921
495.03	12.094
495.37	11.259
495.72	12.033
496.07	12.764
496.41	12.876
496.76	12.557
497.11	12.577
497.45	12.644
497.80	12.106
498.14	12.083
498.49	11.904
498.84	12.282
499.18	13.207
499.53	12.226
499.87	12.017
500.22	12.451
500.56	12.556
500.91	12.512
501.26	13.392
501.60	12.277
501.95	12.754
502.29	11.904
502.64	13.107
502.98	12.123
503.33	12.547
503.67	12.213
504.02	12.313
504.36	12.500
504.71	11.246
505.06	11.882
505.40	12.824
505.75	11.992
506.09	12.235
506.44	12.632
506.78	12.945
507.13	12.513
507.47	12.937
507.82	12.287
508.16	12.124
508.51	12.519
508.85	11.749
509.19	12.454
509.54	13.161
509.88	13.138
510.23	13.155
510.57	11.958
510.92	12.943
511.26	12.387
511.61	12.689
511.95	12.769
512.30	12.699
512.64	12.298
512.98	13.091
513.33	12.301
513.67	12.395
514.02	11.913
514.36	12.742
514.70	12.733
515.05	12.293
515.39	12.457
515.74	13.089
516.08	13.141
516.42	12.578
516.77	13.229
517.11	12.757
517.46	13.337
517.80	12.635
518.14	11.957
518.49	12.732
518.83	12.166
519.17	13.321
519.52	12.319
519.86	12.903
520.20	12.408
520.55	12.369
520.89	11.897
521.23	12.271
521.58	12.915
521.92	12.666
522.26	12.762
522.61	12.611
522.95	12.380
523.29	13.103
523.64	12.804
523.98	13.558
524.32	12.256
524.66	12.422
525.01	12.139
525.35	13.015
525.69	12.557
526.04	12.924
526.38	13.113
526.72	11.750
527.06	12.305
527.41	12.277
527.75	12.739
528.09	12.574
528.43	12.262
528.78	13.191
529.12	12.996
529.46	12.500
529.80	11.943
530.15	12.878
530.49	12.549
530.83	13.491
531.17	12.862
531.51	12.324
531.86	12.640
532.20	12.753
532.54	13.235
532.88	12.648
533.22	11.698
533.57	12.728
533.91	12.484
534.25	12.634
534.59	11.680
534.93	12.446
535.27	12.901
535.62	13.235
535.96	12.928
536.30	12.369
536.64	13.081
536.98	12.500
537.32	12.509
537.66	12.967
538.01	12.990
538.35	13.041
538.69	12.099
539.03	12.593
539.37	12.375
539.71	12.275
540.05	12.543
540.39	12.673
540.73	12.509
541.07	12.295
541.42	12.221
541.76	12.359
542.10	12.829
542.44	12.658
542.78	13.161
543.12	12.424
543.46	11.301
543.80	12.642
544.14	12.962
544.48	12.927
544.82	12.788
545.16	12.676
545.50	11.978
545.84	12.378
546.18	13.176
546.52	12.447
546.86	12.607
547.20	13.080
547.54	12.259
547.88	13.670
548.22	12.123
548.56	12.492
548.90	13.005
549.24	11.913
549.58	12.632
549.92	13.569
550.26	12.572
550.60	12.660
550.94	12.847
551.28	12.566
551.62	12.112
551.96	12.373
552.30	13.380
552.64	12.808
552.98	13.034
553.32	12.554
553.66	13.266
554.00	12.296
554.34	11.913
554.68	12.061
555.02	13.748
555.36	12.509
555.69	12.393
556.03	12.491
556.37	11.664
556.71	13.601
557.05	13.156
557.39	12.027
557.73	13.129
558.07	12.208
558.41	12.715
558.75	12.776
559.08	12.140
559.42	12.481
559.76	11.426
560.10	12.603
560.44	13.223
560.78	12.317
561.12	12.146
561.45	12.123
561.79	13.240
562.13	12.763
562.47	11.765
562.81	12.730
563.15	12.176
563.48	12.785
563.82	12.779
564.16	12.914
564.50	12.769
564.84	12.698
565.17	12.003
565.51	13.168
565.85	13.117
566.19	12.780
566.52	12.590
566.86	11.694
567.20	13.741
567.54	13.644
567.88	12.451
568.21	12.584
568.55	12.513
568.89	12.425
569.23	11.476
569.56	11.854
569.90	12.943
570.24	12.101
570.57	12.162
570.91	11.731
571.25	12.257
571.59	12.051
571.92	11.905
572.26	12.133
572.60	12.007
572.93	11.830
573.27	11.616
573.61	11.873
573.95	12.267
574.28	11.833
574.62	12.278
574.96	11.491
575.29	12.093
575.63	12.158
575.97	12.001
576.30	11.811
576.64	12.245
576.98	11.894
577.31	11.776
577.65	11.966
577.98	12.144
578.32	12.040
578.66	12.050
578.99	11.822
579.33	12.007
579.67	11.920
580.00	11.558
580.34	11.742
580.67	12.111
581.01	11.449
581.35	11.908
581.68	11.794
582.02	11.841
582.35	11.822
582.69	11.994
583.02	12.003
583.36	12.274
583.70	12.007
584.03	12.096
584.37	11.583
584.70	11.578
585.04	12.000
585.37	11.742
585.71	11.466
586.04	11.829
586.38	11.681
586.72	12.120
587.05	12.036
587.39	12.128
587.72	11.866
588.06	11.912
588.39	12.019
588.73	12.342
589.06	12.500
589.40	12.470
589.73	12.110
590.07	11.981
590.40	12.472
590.73	11.875
591.07	11.967
591.40	12.392
591.74	12.033
592.07	11.802
592.41	12.484
592.74	12.029
593.08	12.496
593.41	11.612
593.75	11.375
594.08	11.574
594.41	12.274
594.75	12.269
595.08	12.180
595.42	11.886
595.75	12.348
596.09	12.029
596.42	12.398
596.75	11.945
597.09	12.778
597.42	11.654
597.75	11.515
598.09	11.839
598.42	11.975
598.76	12.002
599.09	11.957
599.42	12.072
599.76	12.420
600.09	12.977
600.42	12.381
600.76	11.751
601.09	11.660
601.42	11.753
601.76	12.500
602.09	11.779
602.42	12.058
602.76	11.134
603.09	11.734
603.42	12.127
603.76	12.206
604.09	11.454
604.42	11.699
604.76	12.167
605.09	11.844
605.42	12.323
605.75	11.557
606.09	11.872
606.42	11.982
606.75	12.108
607.09	12.395
607.42	11.532
607.75	11.876
608.08	12.788
608.42	12.062
608.75	11.542
609.08	11.398
609.41	11.659
609.75	11.994
610.08	12.598
610.41	11.614
610.74	12.089
611.07	12.221
611.41	12.052
611.74	12.751
612.07	12.406
612.40	11.780
612.73	11.955
613.07	11.833
613.40	12.917
613.73	12.153
614.06	11.697
614.39	11.387
614.72	11.508
615.06	11.196
615.39	11.557
615.72	12.222
616.05	11.375
616.38	12.594
616.71	12.613
617.05	13.088
617.38	12.012
617.71	12.346
618.04	12.112
618.37	11.635
618.70	12.907
619.03	12.390
619.36	12.333
619.69	12.132
620.03	12.397
620.36	12.307
620.69	12.347
621.02	12.481
621.35	11.774
621.68	12.049
622.01	11.893
622.34	12.578
622.67	11.797
623.00	12.165
623.33	12.313
623.66	11.669
623.99	11.955
624.32	11.979
624.65	11.700
624.99	11.875
625.32	10.329
625.65	12.587
625.98	12.285
626.31	13.051
626.64	12.971
626.97	12.500
627.30	11.489
627.63	11.226
627.96	12.185
628.29	11.029
628.62	11.557
628.95	11.909
629.28	13.158
629.61	10.402
629.94	12.949
630.26	11.928
630.59	12.261
630.92	12.513
631.25	13.105
631.58	11.852
631.91	11.702
632.24	12.000
632.57	12.556
632.90	13.333
633.23	12.033
633.56	11.111
633.89	12.972
634.22	12.161
634.55	12.620
634.88	13.180
635.20	11.860
635.53	12.850
635.86	10.957
636.19	11.966
636.52	11.828
636.85	11.552
637.18	9.750
637.51	12.515
637.83	11.984
638.16	13.026
638.49	10.621
638.82	12.741
639.15	11.673
639.48	11.543
639.81	11.618
640.13	11.081
640.46	14.530
640.79	12.605
641.12	14.245
641.45	10.760
641.77	11.527
642.10	12.387
642.43	13.354
642.76	12.441
643.09	9.524
643.41	13.175
643.74	12.878
644.07	13.729
644.40	11.994
644.73	10.891
645.05	11.352
645.38	13.245
645.71	12.887
646.04	13.445
646.36	10.995
646.69	12.284
647.02	12.635
647.35	13.357
647.67	9.854
648.00	13.181
648.33	12.479
648.66	12.097
648.98	10.987
649.31	12.923
649.64	12.500
649.96	11.774
650.29	11.639
650.62	11.360
650.94	11.467
651.27	13.692
651.60	11.592
651.92	13.185
652.25	12.020
652.58	8.348
652.90	10.273
653.23	10.323
653.56	10.033
653.88	11.639
654.21	12.416
654.54	11.960
654.86	10.273
655.19	11.605
655.52	12.396
655.84	11.729
656.17	12.509
656.49	17.406
656.82	18.028
657.15	13.634
657.47	9.965
657.80	7.629
658.13	8.547
658.45	11.241
658.78	11.044
659.10	11.457
659.43	11.053
659.75	11.172
660.08	10.990
660.41	11.322
660.73	11.001
661.06	10.870
661.38	11.786
661.71	13.193
662.03	11.492
662.36	12.367
662.68	9.283
663.01	14.013
663.33	13.379
663.66	11.159
663.98	9.598
664.31	10.291
664.63	11.726
664.96	9.328
665.28	10.195
665.61	11.416
665.93	14.609
666.26	12.348
666.58	11.227
666.91	10.468
667.23	13.816
667.56	15.420
667.88	14.253
668.21	11.751
668.53	12.150
668.86	12.009
669.18	11.644
669.50	10.748
669.83	11.192
670.15	12.556
670.48	9.579
670.80	11.162
671.13	9.932
671.45	9.459
671.77	12.206
672.10	11.243
672.42	11.439
672.75	12.727
673.07	10.991
673.39	13.661
673.72	12.402
674.04	10.191
674.37	8.454
674.69	12.295
675.01	10.213
675.34	9.978
675.66	11.447
675.98	11.013
676.31	11.086
676.63	11.264
676.95	11.504
677.28	12.065
677.60	13.122
677.92	11.454
678.25	12.035
678.57	13.169
678.89	10.063
679.22	11.530
679.54	13.412
679.86	10.000
680.18	9.696
680.51	9.311
680.83	12.381
681.15	12.717
681.48	12.373
681.80	10.685
682.12	8.652
682.44	11.395
682.77	9.307
683.09	11.111
683.41	11.947
683.73	10.046
684.06	10.753
684.38	12.134
684.70	11.317
685.02	11.024
685.34	11.111
685.67	10.227
685.99	9.263
686.31	9.695
686.63	14.184
686.96	11.645
687.28	8.671
687.60	9.961
687.92	9.339
688.24	10.630
688.56	10.421
688.89	9.615
689.21	11.379
689.53	11.034
689.85	12.695
690.17	12.780
690.49	12.702
690.82	11.325
691.14	9.198
691.46	11.973
691.78	12.115
692.10	11.017
692.42	8.889
692.74	12.017
693.06	11.461
693.39	10.067
693.71	8.804
694.03	14.039
694.35	11.061
694.67	10.638
694.99	10.230
695.31	9.949
695.63	11.224
695.95	9.677
696.27	11.721
696.59	13.102
696.91	10.674
697.23	11.979
697.56	8.173
697.88	10.586
698.20	12.206
698.52	8.072
698.84	13.592
699.16	11.190
699.48	9.500
699.80	9.524
700.12	10.579
700.44	11.732
700.76	10.204
701.08	10.465
701.40	7.553
701.72	12.346
702.04	11.859
702.36	13.554
702.68	8.982
703.00	14.203
703.32	8.596
703.64	12.059
703.96	11.047
704.28	11.834
704.60	11.392
704.91	8.254
705.23	8.091
705.55	10.811
705.87	9.556
706.19	7.292
706.51	8.681
706.83	8.197
707.15	7.643
707.47	11.570
707.79	7.990
708.11	8.651
708.43	11.721
708.74	8.571
709.06	6.407
709.38	11.782
709.70	10.937
710.02	13.497
710.34	6.931
710.66	10.476
710.98	5.994
711.29	3.871
711.61	8.307
711.93	9.508
712.25	9.302
712.57	3.833
712.89	13.309
713.20	13.058
713.52	4.104
713.84	4.270
714.16	7.213
714.48	6.349
714.80	6.769
715.11	10.375
715.43	12.952
715.75	10.280
716.07	5.902
716.39	10.033
716.70	11.150
717.02	5.185
717.34	11.450
717.66	8.714
717.97	5.328
718.29	8.403
718.61	14.683
718.93	11.111
719.24	4.044
719.56	5.660
719.88	11.273
720.20	7.116
720.51	9.398
720.83	6.426
721.15	9.426
721.46	9.020
721.78	7.663
722.10	12.000
722.42	8.264
722.73	7.171
723.05	10.442
723.37	12.941
723.68	13.360
724.00	10.569
724.32	8.642
724.63	6.224
724.95	11.570
725.27	3.947
725.58	8.621
725.90	10.714
726.22	11.808
726.53	12.167
726.85	0.000
727.16	10.526
727.48	10.000
727.80	3.279
728.11	7.143
728.43	6.612
728.74	12.500
729.06	11.742
729.38	8.171
729.69	8.268
730.01	9.843
730.32	5.976
730.64	7.692
730.96	11.567
731.27	8.929
731.59	12.540
731.90	11.656
732.22	9.509
732.53	12.914
732.85	10.403
733.16	6.884
733.48	9.059
733.80	5.694
734.11	10.345
734.43	11.905
734.74	12.463
735.06	8.777
735.37	10.398
735.69	8.065
736.00	10.101
736.32	9.603
736.63	5.862
736.95	6.159
737.26	10.927
737.58	8.633
737.89	11.111
738.21	7.143
738.52	6.538
738.83	12.891
739.15	4.274
739.46	8.468
739.78	11.189
740.09	12.238
740.41	6.643
740.72	13.869
741.04	6.349
741.35	5.195
741.66	10.648
741.98	10.952
742.29	9.390
742.61	5.882
742.92	11.682
743.23	9.211
743.55	8.559
743.86	18.667
744.18	6.190
744.49	9.852
744.80	15.228
745.12	13.918
745.43	8.040
745.74	4.854
746.06	9.268
746.37	15.419
746.68	13.433
747.00	6.806
747.31	3.846
747.62	11.060
747.94	15.721
748.25	8.837
748.56	7.143
748.88	0.543
749.19	9.390
749.50	10.784
749.82	13.333
750.13	11.013
750.44	9.756
750.75	8.000
751.07	13.214
751.38	8.118
751.69	4.580
752.01	10.000
752.32	5.837
752.63	8.077
752.94	8.730
753.26	8.696
753.57	12.054
753.88	6.466
754.19	9.129
754.51	7.422
754.82	10.277
755.13	6.584
755.44	10.744
755.75	4.938
756.07	6.827
756.38	9.766
756.69	7.942
757.00	10.453
757.31	10.403
757.63	11.838
757.94	12.428
758.25	7.849
758.56	11.321
758.87	11.080
759.18	4.667
759.50	6.406
759.81	5.109
760.12	5.743
760.43	11.327
760.74	11.875
761.05	11.517
761.36	10.180
761.67	8.284
761.99	9.032
762.30	11.957
762.61	10.566
762.92	10.762
763.23	13.270
763.54	7.111
763.85	13.080
764.16	6.939
764.47	13.559
764.78	11.610
765.10	8.993
765.41	7.097
765.72	12.579
766.03	2.120
766.34	10.150
766.65	9.312
766.96	4.500
767.27	6.771
767.58	11.628
767.89	10.968
768.20	11.043
768.51	3.825
768.82	14.054
769.13	12.500
769.44	9.649
769.75	8.225
770.06	15.138
770.37	7.042
770.68	12.500
770.99	14.851
771.30	6.796
771.61	7.407
771.92	10.823
772.23	6.075
772.54	7.979
772.85	4.142
773.16	10.976
773.47	13.253
773.78	15.385
774.09	2.000
774.39	17.901
774.70	3.356
775.01	2.899
775.32	3.731
775.63	1.653
775.94	9.774
776.25	13.571
776.56	7.377
776.87	7.080
777.18	5.310
777.48	0.000
777.79	1.739
778.10	-0.917
778.41	7.627
778.72	7.438
779.03	0.746
779.34	15.038
779.65	10.458
779.95	15.942
780.26	2.721
780.57	-6.897
780.88	-6.481
781.19	-3.030
781.50	-7.200
781.80	7.843
782.11	9.615
782.42	9.036
782.73	-2.920
783.04	6.757
783.34	9.091
783.65	5.426
783.96	13.821
784.27	7.692
784.57	4.878
784.88	0.000
785.19	17.544
785.50	-10.309
785.81	4.762
786.11	2.941
786.42	-10.000
786.73	9.910
787.04	20.792
787.34	6.667
787.65	-2.857
787.96	0.000
788.26	10.811
788.57	7.258
788.88	7.812
789.19	16.239
789.49	2.521
789.80	-0.855
790.11	7.965
790.41	6.061
790.72	20.755
791.03	1.389
791.33	-11.842
791.64	8.602
791.95	-8.000
792.25	5.714
792.56	-4.878
792.87	8.163
793.17	-7.895
793.48	-8.108
793.79	-8.451
794.09	-2.532
794.40	4.255
794.70	3.738
795.01	-3.509
795.32	7.273
795.62	11.607
795.93	6.186
796.23	-3.297
796.54	9.474
796.85	10.959
797.15	-1.389
797.46	0.000
797.76	-5.634
798.07	7.500
798.37	-5.882
798.68	8.571
798.99	-8.571
799.29	-2.632
799.60	-1.667
799.90	-6.944
800.21	-10.938
800.51	23.810
800.82	-3.279
801.12	-14.035
801.43	0.000
801.73	-20.339
802.04	16.393
802.34	-18.182
802.65	0.000
802.95	-11.111
803.26	2.500
803.56	0.000
803.87	-42.105
804.17	9.677
804.48	6.154
804.78	-17.949
805.09	-4.651
805.39	-9.375
805.70	-1.887
806.00	21.053
806.30	16.216
806.61	10.294
806.91	-8.642
807.22	-1.333
807.52	5.970
807.83	-20.968
808.13	-15.873
808.43	-21.818
808.74	3.030
809.04	-20.755
809.35	-4.110
809.65	15.789
809.95	-1.471
810.26	5.882
810.56	0.000
810.86	2.041
811.17	5.714
811.47	-23.077
811.77	-6.452
812.08	-36.842
812.38	-2.381
812.69	-15.217
812.99	-19.355
813.29	-26.190
813.59	-66.667
813.90	-4.255
814.20	-20.930
814.50	-4.167
814.81	-8.333
815.11	-26.829
815.41	-20.000
815.72	0.000
816.02	-33.333
816.32	-5.128
816.62	-10.811
816.93	-38.235
817.23	2.174
817.53	-17.647
817.84	-29.412
818.14	-34.375
818.44	-68.966
818.74	-35.484
819.04	-22.222
819.35	3.333
819.65	-24.000
819.95	-3.333
820.25	0.000
820.56	-31.579
820.86	-17.500
821.16	4.255
821.46	5.172
821.76	20.513
822.07	-10.000
822.37	4.651
822.67	-26.667
822.97	-32.432
823.27	-18.919
823.57	32.000
823.88	-10.811
824.18	-38.095
824.48	-53.846
824.78	-146.154
825.08	0.000
825.38	-33.333
825.69	16.667
825.99	-40.000
826.29	-29.730
826.59	-14.706
826.89	-16.000
827.19	-11.429
827.49	-18.421
827.79	6.250
828.09	-26.667
828.39	-8.696
828.70	-34.483
829.00	-44.828
829.30	-13.889
829.60	12.500
829.90	-44.444
830.20	3.846
830.50	-57.143
830.80	-53.571
831.10	2.564
831.40	-66.667
831.70	-11.765
832.00	25.000
832.30	-63.158
832.60	-87.500
832.90	-83.333
833.20	-47.059
833.50	-80.000
833.80	-113.333
834.10	-25.000
834.40	-33.333
834.70	-50.000
835.00	15.385
835.30	-25.000
835.60	6.897
835.90	-77.778
836.20	-45.455
836.50	-200.000
836.80	-17.143
837.10	-5.714
837.40	-17.647
837.70	-100.000
838.00	12.500
838.30	-50.000
838.60	-19.048
838.90	-5.000
839.19	13.043
839.49	-13.043
839.79	-138.889
840.09	-52.174
840.39	-50.000
840.69	-75.000
840.99	-42.105
841.29	-100.000
841.59	-121.429
841.88	-38.889
842.18	-54.167
842.48	-100.000
842.78	-24.138
843.08	7.143
843.38	-15.385
843.68	-100.000
843.97	-146.154
844.27	-81.818
844.57	-260.000
844.87	-24.000
845.17	-280.000
845.47	-57.143
845.76	-33.333
846.06	0.000
846.36	-425.000
846.66	-90.000
846.96	-5.263
847.25	-8.333
847.55	-108.333
847.85	-80.000
848.15	-180.000
848.44	26.923
848.74	47.368
849.04	700.000
849.34	-133.333
849.63	-78.947
849.93	0.000
850.23	-70.000
850.53	-19.048
850.82	-36.000
851.12	-10.526
851.42	-1100.000
851.71	0.000
852.01	-125.000
852.31	-29.412
852.61	-86.667
852.90	-33.333
853.20	-133.333
853.50	-11.111
853.79	-94.737
854.09	-80.000
854.39	-17.857
854.68	-39.130
854.98	-175.000
855.28	-37.931
855.57	-43.750
855.87	-60.000
856.17	-113.333
856.46	3.448
856.76	-53.333
857.05	-88.235
857.35	-92.308
857.65	-100.000
857.94	25.926
858.24	-135.714
858.53	-28.571
858.83	-133.333
859.13	-188.889
859.42	9.524
859.72	-25.000
860.01	-566.667
860.31	-212.500
860.60	-360.000
860.90	-66.667
861.20	-175.000
861.49	-128.571
861.79	23.529
862.08	-550.000
862.38	-125.000
862.67	-38.462
862.97	11.765
863.26	20.000
863.56	-5.882
863.85	333.333
864.15	-100.000
864.44	-100.000
864.74	5.000
865.03	-112.500
865.33	-166.667
865.62	-35.294
865.92	-325.000
866.21	-28.571
866.51	-133.333
866.80	-1300.000
867.10	-400.000
867.39	-35.294
867.69	69.565
867.98	-128.571
868.27	-360.000
868.57	-118.750
868.86	-181.818
869.16	-17.647
869.45	-83.333
869.75	-85.714
870.04	900.000
870.33	-83.333
870.63	-120.000
870.92	-44.444
871.22	-58.333
871.51	-118.182
871.80	-100.000
872.10	-50.000
>>>>>End Processed Spectral Data<<<<<
