SpectraSuite Data File
++++++++++++++++++++++++++++++++++++
Date: Sat May 16 11:41:08 PDT 2015
User: schluterlab
Dark Spectrum Present: Yes
Reference Spectrum Present: Yes
Number of Sampled Component Spectra: 1
Spectrometers: USB2E3373
Integration Time (usec): 3000 (USB2E3373)
Spectra Averaged: 3 (USB2E3373)
Boxcar Smoothing: 0 (USB2E3373)
Correct for Electrical Dark: No (USB2E3373)
Strobe/Lamp Enabled: No (USB2E3373)
Correct for Detector Non-linearity: No (USB2E3373)
Correct for Stray Light: No (USB2E3373)
Number of Pixels in Processed Spectrum: 2048
>>>>>Begin Processed Spectral Data<<<<<
178.53	0.000
178.91	153.333
179.29	733.333
179.67	-1900.000
180.04	-184.615
180.42	-0.000
180.80	50.000
181.18	575.000
181.56	-75.000
181.94	1500.000
182.31	325.000
182.69	-76.923
183.07	-366.667
183.45	1850.000
183.83	366.667
184.20	-28.571
184.58	-187.500
184.96	-350.000
185.34	87.500
185.72	-650.000
186.09	316.667
186.47	-275.000
186.85	-125.000
187.23	-37.500
187.61	-250.000
187.98	-325.000
188.36	-112.500
188.74	-187.500
189.12	2500.000
189.49	457.143
189.87	-133.333
190.25	350.000
190.63	-85.714
191.00	-166.667
191.38	480.000
191.76	26.667
192.14	640.000
192.51	-420.000
192.89	-633.333
193.27	0.000
193.65	-44.444
194.02	-257.143
194.40	633.333
194.78	-40.000
195.15	-1300.000
195.53	-100.000
195.91	-283.333
196.29	120.000
196.66	-300.000
197.04	2900.000
197.42	-225.000
197.79	6.667
198.17	-466.667
198.55	-500.000
198.92	-2100.000
199.30	200.000
199.68	-850.000
200.05	-77.778
200.43	-188.889
200.81	-1300.000
201.18	-116.667
201.56	271.429
201.94	-106.667
202.31	4.545
202.69	100.000
203.07	-140.000
203.44	700.000
203.82	-283.333
204.19	-350.000
204.57	-200.000
204.95	-700.000
205.32	-31.250
205.70	1600.000
206.08	-1900.000
206.45	11.111
206.83	-1300.000
207.20	100.000
207.58	-833.333
207.96	-433.333
208.33	-100.000
208.71	-244.444
209.08	230.000
209.46	-214.286
209.84	1300.000
210.21	0.000
210.59	65.000
210.96	1000.000
211.34	-333.333
211.71	-466.667
212.09	325.000
212.46	1150.000
212.84	-1600.000
213.22	666.667
213.59	200.000
213.97	55.556
214.34	200.000
214.72	-230.000
215.09	-466.667
215.47	-300.000
215.84	-130.000
216.22	-90.000
216.59	13.333
216.97	-675.000
217.34	500.000
217.72	-42.857
218.09	-400.000
218.47	-114.286
218.84	342.857
219.22	-171.429
219.59	0.000
219.97	228.571
220.34	550.000
220.72	212.500
221.09	7.692
221.47	0.000
221.84	700.000
222.22	-550.000
222.59	1000.000
222.97	-237.500
223.34	-700.000
223.72	-566.667
224.09	-14.286
224.46	-550.000
224.84	-57.143
225.21	-285.714
225.59	0.000
225.96	-87.500
226.34	-185.714
226.71	-66.667
227.08	30.000
227.46	2100.000
227.83	-171.429
228.21	-175.000
228.58	500.000
228.95	-56.250
229.33	-1400.000
229.70	-420.000
230.08	-850.000
230.45	-33.333
230.82	-216.667
231.20	-1700.000
231.57	-450.000
231.95	2000.000
232.32	-47.619
232.69	-100.000
233.07	-228.571
233.44	-1300.000
233.81	-66.667
234.19	11.111
234.56	-100.000
234.93	-3.125
235.31	-228.571
235.68	-28.571
236.05	-76.471
236.43	-77.273
236.80	-32.258
237.17	-45.833
237.55	-76.190
237.92	-40.909
238.29	-17.143
238.67	-14.706
239.04	-16.667
239.41	-19.355
239.79	-48.718
240.16	-21.429
240.53	-7.273
240.91	17.949
241.28	1.818
241.65	21.538
242.02	6.557
242.40	-3.279
242.77	13.636
243.14	1.695
243.51	-2.857
243.89	-2.532
244.26	5.618
244.63	9.474
245.00	8.421
245.38	8.475
245.75	19.469
246.12	5.600
246.49	3.937
246.87	7.317
247.24	11.864
247.61	6.780
247.98	3.521
248.36	11.189
248.73	13.924
249.10	7.643
249.47	18.129
249.84	17.045
250.22	7.738
250.59	17.514
250.96	13.613
251.33	18.009
251.70	11.538
252.08	13.744
252.45	11.848
252.82	14.286
253.19	17.021
253.56	14.113
253.94	14.768
254.31	13.734
254.68	15.447
255.05	12.903
255.42	17.460
255.79	14.337
256.16	16.078
256.54	12.500
256.91	15.152
257.28	16.484
257.65	17.376
258.02	19.811
258.39	17.057
258.76	16.216
259.14	16.358
259.51	19.672
259.88	17.683
260.25	18.634
260.62	18.650
260.99	17.507
261.36	21.037
261.73	19.364
262.10	18.889
262.47	13.960
262.85	19.429
263.22	14.613
263.59	14.154
263.96	17.101
264.33	15.447
264.70	19.890
265.07	17.582
265.44	16.537
265.81	15.245
266.18	15.190
266.55	17.157
266.92	18.136
267.29	17.191
267.66	19.506
268.03	20.048
268.40	18.310
268.77	16.627
269.14	14.385
269.51	18.161
269.88	14.908
270.25	16.550
270.62	16.247
270.99	17.793
271.36	14.918
271.73	18.161
272.10	17.849
272.47	18.222
272.84	20.000
273.21	18.349
273.58	17.363
273.95	16.447
274.32	16.516
274.69	19.037
275.06	16.564
275.43	13.616
275.80	18.534
276.17	14.435
276.54	19.145
276.91	16.049
277.28	16.836
277.65	18.802
278.02	16.910
278.39	19.450
278.76	17.131
279.13	20.751
279.50	18.290
279.87	18.393
280.23	18.623
280.60	17.694
280.97	15.146
281.34	16.054
281.71	16.538
282.08	17.540
282.45	15.886
282.82	17.054
283.19	18.545
283.56	19.597
283.92	17.845
284.29	17.100
284.66	15.647
285.03	15.152
285.40	15.498
285.77	17.719
286.14	16.426
286.51	17.762
286.87	15.971
287.24	19.113
287.61	18.017
287.98	14.211
288.35	14.711
288.72	15.280
289.08	14.746
289.45	15.825
289.82	15.398
290.19	17.077
290.56	16.198
290.93	16.216
291.29	16.370
291.66	14.010
292.03	15.856
292.40	16.114
292.77	14.907
293.13	14.959
293.50	16.642
293.87	16.104
294.24	15.083
294.60	14.242
294.97	16.692
295.34	14.963
295.71	14.881
296.08	12.750
296.44	14.306
296.81	14.815
297.18	13.944
297.55	15.819
297.91	13.668
298.28	14.110
298.65	12.273
299.02	14.572
299.38	14.305
299.75	14.130
300.12	14.103
300.48	14.578
300.85	14.155
301.22	13.066
301.59	13.264
301.95	15.995
302.32	12.256
302.69	14.321
303.05	14.286
303.42	13.875
303.79	13.158
304.15	12.678
304.52	12.602
304.89	12.987
305.25	13.675
305.62	12.691
305.99	14.959
306.35	13.762
306.72	12.415
307.09	14.642
307.45	14.529
307.82	11.285
308.19	13.535
308.55	14.161
308.92	12.997
309.29	12.432
309.65	12.831
310.02	12.743
310.38	11.676
310.75	13.627
311.12	13.946
311.48	13.674
311.85	12.873
312.22	12.564
312.58	14.039
312.95	12.232
313.31	13.586
313.68	14.171
314.05	14.243
314.41	12.173
314.78	12.887
315.14	13.524
315.51	13.576
315.87	12.875
316.24	14.772
316.61	14.203
316.97	15.423
317.34	14.258
317.70	12.709
318.07	14.832
318.43	13.015
318.80	15.117
319.16	12.946
319.53	14.286
319.89	13.264
320.26	14.216
320.62	13.365
320.99	14.527
321.35	13.005
321.72	12.590
322.08	14.837
322.45	15.050
322.81	15.754
323.18	14.505
323.54	16.174
323.91	15.570
324.27	13.878
324.64	14.625
325.00	15.532
325.37	14.842
325.73	15.836
326.10	15.146
326.46	15.849
326.83	15.404
327.19	16.264
327.56	16.951
327.92	17.077
328.29	16.364
328.65	15.182
329.01	16.166
329.38	16.146
329.74	16.209
330.11	16.591
330.47	16.440
330.84	16.774
331.20	16.155
331.56	16.408
331.93	16.341
332.29	17.808
332.66	16.681
333.02	16.833
333.38	16.935
333.75	16.919
334.11	16.800
334.48	16.858
334.84	17.060
335.20	16.312
335.57	17.058
335.93	17.010
336.29	17.006
336.66	15.154
337.02	16.757
337.38	15.775
337.75	16.594
338.11	17.889
338.47	15.747
338.84	16.969
339.20	16.344
339.56	17.291
339.93	15.961
340.29	16.386
340.65	17.308
341.02	16.526
341.38	18.029
341.74	16.765
342.11	16.894
342.47	16.910
342.83	16.961
343.20	16.225
343.56	17.388
343.92	17.195
344.28	18.082
344.65	16.254
345.01	16.387
345.37	17.442
345.73	15.303
346.10	16.353
346.46	15.597
346.82	15.718
347.19	17.173
347.55	16.292
347.91	17.402
348.27	17.025
348.63	17.367
349.00	17.502
349.36	16.081
349.72	17.357
350.08	16.760
350.45	16.470
350.81	15.764
351.17	15.514
351.53	15.911
351.89	16.168
352.26	15.891
352.62	17.512
352.98	16.930
353.34	16.787
353.70	17.143
354.07	17.309
354.43	18.182
354.79	16.878
355.15	16.613
355.51	17.266
355.87	16.759
356.24	16.283
356.60	17.808
356.96	17.398
357.32	16.310
357.68	16.705
358.04	16.782
358.40	16.164
358.77	17.156
359.13	17.292
359.49	17.385
359.85	16.692
360.21	17.352
360.57	18.223
360.93	17.407
361.29	18.834
361.66	15.930
362.02	16.494
362.38	17.315
362.74	17.802
363.10	17.575
363.46	17.593
363.82	18.003
364.18	18.234
364.54	18.370
364.90	17.750
365.26	17.974
365.62	17.890
365.98	18.350
366.35	18.662
366.71	18.111
367.07	18.207
367.43	18.394
367.79	18.076
368.15	17.639
368.51	17.203
368.87	18.269
369.23	19.088
369.59	18.403
369.95	18.111
370.31	18.917
370.67	18.149
371.03	18.659
371.39	18.953
371.75	18.169
372.11	17.862
372.47	18.510
372.83	19.332
373.19	18.571
373.55	19.423
373.91	18.990
374.27	19.644
374.63	18.841
374.99	20.515
375.35	18.641
375.71	20.527
376.07	19.986
376.42	18.808
376.78	20.131
377.14	19.729
377.50	20.181
377.86	20.351
378.22	20.729
378.58	19.518
378.94	19.914
379.30	20.414
379.66	20.097
380.02	20.737
380.38	20.060
380.74	20.516
381.09	20.328
381.45	21.301
381.81	20.327
382.17	20.113
382.53	21.398
382.89	20.455
383.25	21.373
383.61	20.755
383.97	20.514
384.32	21.589
384.68	22.672
385.04	21.498
385.40	21.485
385.76	21.829
386.12	21.736
386.48	22.153
386.83	21.840
387.19	21.100
387.55	22.290
387.91	22.288
388.27	21.411
388.62	22.236
388.98	22.471
389.34	22.399
389.70	22.107
390.06	22.436
390.42	22.564
390.77	22.902
391.13	22.733
391.49	21.585
391.85	23.005
392.20	21.905
392.56	22.419
392.92	23.617
393.28	22.790
393.64	22.670
393.99	23.323
394.35	22.689
394.71	22.792
395.07	23.603
395.42	23.778
395.78	22.627
396.14	24.299
396.50	23.731
396.85	23.442
397.21	23.876
397.57	24.255
397.92	24.239
398.28	24.556
398.64	23.974
399.00	24.719
399.35	23.957
399.71	24.623
400.07	24.776
400.42	23.783
400.78	23.196
401.14	24.251
401.49	23.998
401.85	24.832
402.21	24.195
402.57	24.333
402.92	25.991
403.28	25.184
403.63	23.307
403.99	24.114
404.35	24.155
404.70	24.517
405.06	24.452
405.42	23.678
405.77	24.604
406.13	25.043
406.49	25.165
406.84	25.375
407.20	24.735
407.55	25.459
407.91	24.158
408.27	25.613
408.62	24.654
408.98	25.045
409.34	25.594
409.69	25.457
410.05	25.349
410.40	24.831
410.76	25.193
411.11	26.434
411.47	25.831
411.83	25.672
412.18	25.619
412.54	24.954
412.89	25.942
413.25	24.852
413.60	25.881
413.96	24.831
414.31	25.505
414.67	25.206
415.03	26.003
415.38	26.545
415.74	26.418
416.09	25.895
416.45	24.603
416.80	25.228
417.16	26.047
417.51	26.330
417.87	26.084
418.22	25.095
418.58	26.380
418.93	26.303
419.29	25.910
419.64	25.691
420.00	27.217
420.35	26.671
420.71	26.351
421.06	26.095
421.42	25.937
421.77	25.405
422.12	26.861
422.48	26.136
422.83	26.481
423.19	25.891
423.54	26.801
423.90	26.431
424.25	25.452
424.61	27.141
424.96	27.209
425.31	27.166
425.67	26.189
426.02	25.990
426.38	26.618
426.73	27.469
427.09	26.961
427.44	27.102
427.79	26.512
428.15	27.229
428.50	27.977
428.85	27.278
429.21	27.947
429.56	27.083
429.92	27.305
430.27	27.468
430.62	28.318
430.98	26.973
431.33	26.734
431.68	27.936
432.04	27.476
432.39	28.376
432.74	27.638
433.10	27.518
433.45	27.001
433.80	27.828
434.16	27.243
434.51	28.384
434.86	28.530
435.22	28.842
435.57	27.846
435.92	27.315
436.28	28.190
436.63	27.417
436.98	27.892
437.34	27.820
437.69	27.480
438.04	28.134
438.39	28.941
438.75	28.172
439.10	28.262
439.45	28.002
439.81	28.494
440.16	28.507
440.51	28.765
440.86	28.687
441.22	28.579
441.57	27.526
441.92	29.463
442.27	27.706
442.63	29.185
442.98	27.427
443.33	29.105
443.68	28.140
444.03	28.831
444.39	29.320
444.74	29.515
445.09	27.961
445.44	28.813
445.79	28.965
446.15	29.244
446.50	28.688
446.85	28.220
447.20	28.601
447.55	29.006
447.91	29.534
448.26	29.721
448.61	28.749
448.96	29.636
449.31	29.425
449.66	29.307
450.02	28.199
450.37	28.522
450.72	28.136
451.07	29.604
451.42	28.191
451.77	29.623
452.12	29.201
452.47	28.526
452.83	29.645
453.18	29.981
453.53	29.726
453.88	30.801
454.23	29.504
454.58	30.329
454.93	29.534
455.28	29.828
455.63	29.853
455.98	29.157
456.34	29.034
456.69	29.956
457.04	29.441
457.39	29.366
457.74	29.770
458.09	29.582
458.44	29.965
458.79	29.092
459.14	29.036
459.49	29.663
459.84	29.567
460.19	29.594
460.54	28.131
460.89	29.821
461.24	30.298
461.59	29.426
461.94	28.899
462.29	30.613
462.64	29.776
462.99	31.660
463.34	29.575
463.69	30.280
464.04	29.350
464.39	29.869
464.74	29.787
465.09	29.585
465.44	28.821
465.79	29.949
466.14	30.207
466.49	29.246
466.84	30.972
467.19	31.421
467.54	28.861
467.89	29.593
468.24	30.641
468.59	31.106
468.94	30.932
469.29	29.955
469.64	30.930
469.99	30.385
470.34	30.528
470.68	32.267
471.03	31.659
471.38	30.139
471.73	31.259
472.08	30.120
472.43	30.888
472.78	31.267
473.13	30.881
473.48	31.270
473.83	31.328
474.17	31.146
474.52	32.161
474.87	30.361
475.22	31.740
475.57	31.889
475.92	31.857
476.27	30.743
476.61	30.930
476.96	31.302
477.31	32.185
477.66	31.544
478.01	31.767
478.36	31.430
478.70	32.248
479.05	32.450
479.40	31.606
479.75	32.671
480.10	31.944
480.45	30.948
480.79	32.873
481.14	32.263
481.49	32.091
481.84	31.993
482.19	32.069
482.53	31.818
482.88	31.039
483.23	31.737
483.58	32.747
483.92	31.964
484.27	31.812
484.62	32.484
484.97	31.021
485.31	29.536
485.66	29.092
486.01	29.669
486.36	30.863
486.70	31.820
487.05	30.795
487.40	30.849
487.75	31.303
488.09	30.976
488.44	31.495
488.79	31.836
489.13	32.446
489.48	32.545
489.83	32.795
490.17	32.738
490.52	32.563
490.87	32.240
491.22	32.135
491.56	31.852
491.91	32.252
492.26	32.217
492.60	32.731
492.95	32.746
493.30	31.968
493.64	31.500
493.99	31.883
494.34	33.810
494.68	33.427
495.03	32.983
495.37	33.137
495.72	33.006
496.07	33.599
496.41	33.812
496.76	34.018
497.11	33.349
497.45	33.908
497.80	33.267
498.14	33.006
498.49	33.852
498.84	32.573
499.18	33.918
499.53	33.415
499.87	32.915
500.22	34.412
500.56	33.017
500.91	33.892
501.26	33.236
501.60	33.317
501.95	35.024
502.29	32.782
502.64	34.323
502.98	34.068
503.33	33.506
503.67	34.339
504.02	33.655
504.36	35.147
504.71	34.549
505.06	34.099
505.40	35.579
505.75	34.604
506.09	34.934
506.44	35.589
506.78	35.273
507.13	34.861
507.47	35.994
507.82	34.951
508.16	35.285
508.51	35.652
508.85	35.559
509.19	35.636
509.54	36.099
509.88	36.011
510.23	36.583
510.57	36.878
510.92	37.003
511.26	36.523
511.61	37.203
511.95	37.069
512.30	37.548
512.64	36.839
512.98	38.174
513.33	37.232
513.67	37.186
514.02	37.584
514.36	37.452
514.70	38.087
515.05	38.879
515.39	38.466
515.74	39.500
516.08	39.539
516.42	38.527
516.77	39.168
517.11	38.444
517.46	40.191
517.80	39.651
518.14	39.432
518.49	39.868
518.83	40.415
519.17	40.497
519.52	38.577
519.86	40.263
520.20	40.403
520.55	40.615
520.89	40.326
521.23	39.988
521.58	40.564
521.92	42.242
522.26	40.889
522.61	41.065
522.95	41.481
523.29	41.254
523.64	42.349
523.98	42.457
524.32	41.295
524.66	41.180
525.01	42.518
525.35	41.430
525.69	42.355
526.04	42.950
526.38	42.330
526.72	41.571
527.06	42.187
527.41	42.310
527.75	40.660
528.09	43.614
528.43	43.279
528.78	42.399
529.12	42.638
529.46	42.397
529.80	43.060
530.15	42.563
530.49	42.497
530.83	44.073
531.17	42.896
531.51	42.867
531.86	43.713
532.20	43.387
532.54	42.313
532.88	42.951
533.22	43.717
533.57	43.799
533.91	42.697
534.25	42.300
534.59	42.723
534.93	42.999
535.27	43.235
535.62	43.159
535.96	42.857
536.30	43.325
536.64	42.829
536.98	44.986
537.32	44.022
537.66	43.720
538.01	43.299
538.35	43.041
538.69	43.917
539.03	44.685
539.37	42.914
539.71	43.496
540.05	44.208
540.39	45.360
540.73	44.091
541.07	45.219
541.42	43.282
541.76	43.189
542.10	44.902
542.44	44.037
542.78	43.284
543.12	44.874
543.46	42.466
543.80	43.144
544.14	43.855
544.48	44.357
544.82	45.873
545.16	44.869
545.50	43.540
545.84	45.341
546.18	45.215
546.52	46.799
546.86	44.801
547.20	45.429
547.54	43.664
547.88	43.995
548.22	41.809
548.56	44.289
548.90	43.868
549.24	44.709
549.58	45.730
549.92	45.159
550.26	45.303
550.60	44.239
550.94	45.693
551.28	46.050
551.62	45.790
551.96	45.876
552.30	45.436
552.64	45.461
552.98	45.690
553.32	46.537
553.66	45.926
554.00	46.055
554.34	44.332
554.68	44.810
555.02	45.948
555.36	44.141
555.69	46.060
556.03	44.912
556.37	44.168
556.71	45.956
557.05	45.750
557.39	45.583
557.73	45.879
558.07	46.873
558.41	44.577
558.75	46.084
559.08	44.981
559.42	47.014
559.76	47.623
560.10	46.160
560.44	45.520
560.78	45.233
561.12	44.859
561.45	45.068
561.79	45.575
562.13	46.353
562.47	45.798
562.81	44.059
563.15	45.976
563.48	46.095
563.82	45.774
564.16	45.368
564.50	45.766
564.84	45.172
565.17	44.430
565.51	46.415
565.85	46.180
566.19	46.970
566.52	45.858
566.86	45.512
567.20	46.489
567.54	46.249
567.88	44.444
568.21	44.743
568.55	44.539
568.89	42.942
569.23	42.665
569.56	41.404
569.90	42.093
570.24	42.503
570.57	41.652
570.91	40.836
571.25	41.602
571.59	41.617
571.92	40.536
572.26	40.294
572.60	40.894
572.93	40.570
573.27	40.518
573.61	39.862
573.95	41.325
574.28	40.290
574.62	40.086
574.96	39.880
575.29	39.761
575.63	40.934
575.97	39.563
576.30	39.107
576.64	40.366
576.98	39.363
577.31	40.048
577.65	40.081
577.98	39.983
578.32	38.876
578.66	40.150
578.99	39.981
579.33	39.839
579.67	40.578
580.00	40.228
580.34	39.702
580.67	40.206
581.01	39.260
581.35	39.512
581.68	39.065
582.02	39.288
582.35	39.377
582.69	39.706
583.02	40.208
583.36	40.396
583.70	40.579
584.03	40.814
584.37	40.622
584.70	40.682
585.04	40.532
585.37	39.594
585.71	39.792
586.04	40.527
586.38	40.150
586.72	40.840
587.05	41.008
587.39	40.426
587.72	41.067
588.06	40.908
588.39	41.498
588.73	41.219
589.06	41.656
589.40	41.738
589.73	41.324
590.07	42.025
590.40	42.288
590.73	42.183
591.07	43.402
591.40	43.674
591.74	43.831
592.07	43.559
592.41	43.015
592.74	42.621
593.08	41.366
593.41	42.039
593.75	41.906
594.08	42.236
594.41	42.440
594.75	42.205
595.08	42.744
595.42	42.305
595.75	41.602
596.09	43.229
596.42	42.962
596.75	42.906
597.09	43.811
597.42	43.736
597.75	43.623
598.09	42.793
598.42	43.173
598.76	42.359
599.09	42.699
599.42	42.330
599.76	42.318
600.09	43.053
600.42	43.562
600.76	43.164
601.09	41.967
601.42	41.907
601.76	42.874
602.09	43.272
602.42	43.210
602.76	42.584
603.09	42.823
603.42	42.828
603.76	43.000
604.09	42.611
604.42	42.673
604.76	43.437
605.09	44.123
605.42	43.573
605.75	43.510
606.09	43.130
606.42	42.857
606.75	42.508
607.09	44.199
607.42	43.662
607.75	43.620
608.08	44.555
608.42	44.087
608.75	42.710
609.08	43.887
609.41	43.996
609.75	43.491
610.08	44.265
610.41	43.518
610.74	43.762
611.07	44.625
611.41	44.629
611.74	45.707
612.07	45.811
612.40	45.149
612.73	44.965
613.07	44.524
613.40	45.868
613.73	46.104
614.06	45.085
614.39	47.238
614.72	45.196
615.06	43.696
615.39	45.632
615.72	44.921
616.05	45.003
616.38	46.198
616.71	45.345
617.05	46.381
617.38	46.687
617.71	46.007
618.04	46.211
618.37	47.358
618.70	48.566
619.03	46.581
619.36	47.428
619.69	48.241
620.03	46.970
620.36	48.383
620.69	47.882
621.02	49.163
621.35	48.145
621.68	49.754
622.01	49.191
622.34	48.913
622.67	48.281
623.00	49.273
623.33	48.582
623.66	46.307
623.99	49.398
624.32	47.247
624.65	47.388
624.99	47.647
625.32	47.081
625.65	49.573
625.98	48.983
626.31	50.245
626.64	49.038
626.97	51.884
627.30	49.191
627.63	48.964
627.96	49.608
628.29	51.930
628.62	49.666
628.95	52.559
629.28	50.752
629.61	49.951
629.94	49.905
630.26	53.082
630.59	53.266
630.92	51.952
631.25	50.202
631.58	52.698
631.91	52.021
632.24	52.222
632.57	52.111
632.90	54.483
633.23	52.921
633.56	53.333
633.89	54.363
634.22	53.837
634.55	55.168
634.88	53.567
635.20	52.559
635.53	54.198
635.86	52.393
636.19	52.015
636.52	54.002
636.85	52.948
637.18	53.875
637.51	54.523
637.83	56.325
638.16	53.684
638.49	55.724
638.82	54.698
639.15	54.604
639.48	52.529
639.81	56.017
640.13	55.135
640.46	55.413
640.79	55.042
641.12	56.700
641.45	55.524
641.77	56.737
642.10	53.776
642.43	55.842
642.76	57.480
643.09	58.571
643.41	59.206
643.74	57.075
644.07	57.410
644.40	57.212
644.73	58.911
645.05	55.426
645.38	58.940
645.71	60.653
646.04	56.639
646.36	58.290
646.69	59.170
647.02	58.303
647.35	60.830
647.67	59.672
648.00	57.118
648.33	59.191
648.66	54.677
648.98	56.210
649.31	55.538
649.64	56.250
649.96	55.887
650.29	54.918
650.62	58.864
650.94	56.324
651.27	56.326
651.60	56.747
651.92	57.534
652.25	55.259
652.58	56.899
652.90	56.019
653.23	54.677
653.56	56.020
653.88	53.770
654.21	58.054
654.54	58.140
654.86	55.377
655.19	55.444
655.52	49.131
655.84	41.624
656.17	44.602
656.49	60.154
656.82	61.839
657.15	46.822
657.47	34.929
657.80	27.023
658.13	30.752
658.45	42.588
658.78	42.699
659.10	42.590
659.43	42.652
659.75	44.060
660.08	45.208
660.41	45.142
660.73	49.505
661.06	52.464
661.38	59.821
661.71	57.744
662.03	60.685
662.36	57.356
662.68	58.650
663.01	60.297
663.33	60.544
663.66	59.871
663.98	60.491
664.31	58.837
664.63	59.513
664.96	58.785
665.28	58.785
665.61	61.945
665.93	60.288
666.26	59.717
666.58	61.123
666.91	62.361
667.23	58.772
667.56	61.451
667.88	62.443
668.21	59.447
668.53	60.981
668.86	61.663
669.18	63.014
669.50	58.645
669.83	59.854
670.15	60.538
670.48	61.215
670.80	56.492
671.13	60.722
671.45	60.586
671.77	61.242
672.10	57.199
672.42	53.506
672.75	57.818
673.07	55.676
673.39	55.738
673.72	59.843
674.04	60.510
674.37	56.907
674.69	56.967
675.01	55.106
675.34	56.399
675.66	60.475
675.98	62.115
676.31	60.633
676.63	61.609
676.95	57.743
677.28	61.021
677.60	59.276
677.92	59.912
678.25	57.112
678.57	58.436
678.89	56.813
679.22	59.329
679.54	57.988
679.86	55.200
680.18	56.464
680.51	53.631
680.83	55.810
681.15	57.225
681.48	59.635
681.80	56.048
682.12	56.942
682.44	54.224
682.77	56.277
683.09	57.442
683.41	58.407
683.73	58.219
684.06	57.849
684.38	58.996
684.70	54.527
685.02	57.283
685.34	58.869
685.67	56.061
685.99	55.009
686.31	55.835
686.63	54.255
686.96	54.159
687.28	55.299
687.60	55.664
687.92	53.113
688.24	56.102
688.56	57.315
688.89	55.342
689.21	55.799
689.53	57.701
689.85	56.347
690.17	58.969
690.49	57.044
690.82	57.831
691.14	58.019
691.46	54.767
691.78	59.031
692.10	56.568
692.42	57.333
692.74	54.936
693.06	56.854
693.39	54.586
693.71	57.788
694.03	55.508
694.35	52.596
694.67	56.974
694.99	54.731
695.31	57.653
695.63	56.633
695.95	58.065
696.27	58.603
696.59	57.219
696.91	61.798
697.23	60.156
697.56	55.048
697.88	55.180
698.20	53.533
698.52	58.744
698.84	58.010
699.16	54.048
699.48	57.250
699.80	58.145
700.12	58.186
700.44	58.659
700.76	56.560
701.08	58.721
701.40	53.474
701.72	63.272
702.04	68.590
702.36	58.735
702.68	51.497
703.00	58.551
703.32	54.728
703.64	59.706
703.96	61.919
704.28	58.284
704.60	58.544
704.91	57.778
705.23	59.547
705.55	59.459
705.87	64.164
706.19	55.208
706.51	61.806
706.83	64.262
707.15	58.280
707.47	58.953
707.79	54.124
708.11	53.181
708.43	52.369
708.74	57.143
709.06	53.760
709.38	53.448
709.70	57.812
710.02	64.110
710.34	59.076
710.66	57.143
710.98	58.675
711.29	53.226
711.61	54.952
711.93	59.672
712.25	59.468
712.57	59.930
712.89	61.871
713.20	57.045
713.52	58.582
713.84	59.786
714.16	59.672
714.48	56.825
714.80	55.077
715.11	57.061
715.43	59.940
715.75	56.075
716.07	59.672
716.39	59.866
716.70	55.749
717.02	62.222
717.34	57.252
717.66	63.900
717.97	56.148
718.29	55.882
718.61	65.079
718.93	59.498
719.24	50.735
719.56	55.472
719.88	57.091
720.20	60.300
720.51	60.526
720.83	61.044
721.15	58.607
721.46	57.255
721.78	53.640
722.10	59.600
722.42	57.438
722.73	57.371
723.05	59.036
723.37	60.000
723.68	55.870
724.00	63.415
724.32	62.551
724.63	59.751
724.95	59.091
725.27	53.509
725.58	60.345
725.90	55.556
726.22	62.362
726.53	55.513
726.85	51.765
727.16	56.015
727.48	56.538
727.80	54.918
728.11	63.025
728.43	59.504
728.74	56.641
729.06	57.955
729.38	54.864
729.69	56.299
730.01	59.055
730.32	54.582
730.64	57.509
730.96	60.075
731.27	54.643
731.59	54.019
731.90	52.147
732.22	53.374
732.53	58.278
732.85	54.698
733.16	53.623
733.48	49.477
733.80	52.313
734.11	51.724
734.43	51.701
734.74	52.226
735.06	49.216
735.37	55.352
735.69	48.387
736.00	48.148
736.32	53.642
736.63	52.414
736.95	53.986
737.26	51.987
737.58	54.676
737.89	56.631
738.21	53.759
738.52	60.769
738.83	53.906
739.15	59.402
739.46	58.468
739.78	51.399
740.09	51.748
740.41	48.252
740.72	55.109
741.04	50.397
741.35	54.545
741.66	58.333
741.98	53.333
742.29	59.155
742.61	63.102
742.92	57.477
743.23	52.193
743.55	67.117
743.86	60.000
744.18	48.095
744.49	60.591
744.80	63.452
745.12	62.887
745.43	61.809
745.74	63.107
746.06	55.122
746.37	58.150
746.68	58.209
747.00	64.398
747.31	60.096
747.62	56.682
747.94	54.585
748.25	56.279
748.56	59.048
748.88	60.326
749.19	59.155
749.50	61.275
749.82	62.222
750.13	65.639
750.44	58.537
750.75	55.200
751.07	55.000
751.38	54.244
751.69	52.290
752.01	52.308
752.32	49.027
752.63	53.462
752.94	53.175
753.26	58.696
753.57	57.143
753.88	60.345
754.19	57.261
754.51	54.297
754.82	51.383
755.13	58.025
755.44	54.959
755.75	57.202
756.07	51.807
756.38	54.687
756.69	53.069
757.00	52.613
757.31	53.356
757.63	52.025
757.94	51.734
758.25	50.000
758.56	53.369
758.87	51.136
759.18	50.333
759.50	55.516
759.81	48.905
760.12	52.027
760.43	55.016
760.74	53.125
761.05	52.247
761.36	50.599
761.67	46.154
761.99	48.065
762.30	54.348
762.61	47.925
762.92	56.951
763.23	56.872
763.54	52.444
763.85	54.008
764.16	51.837
764.47	53.390
764.78	46.442
765.10	51.439
765.41	47.419
765.72	50.000
766.03	48.763
766.34	51.880
766.65	51.012
766.96	49.000
767.27	57.292
767.58	56.977
767.89	57.419
768.20	60.123
768.51	56.284
768.82	51.351
769.13	51.500
769.44	52.193
769.75	54.113
770.06	55.046
770.37	51.174
770.68	58.333
770.99	55.941
771.30	50.485
771.61	51.852
771.92	53.247
772.23	51.869
772.54	45.745
772.85	49.704
773.16	53.049
773.47	54.819
773.78	57.692
774.09	56.000
774.39	53.704
774.70	53.691
775.01	52.174
775.32	52.239
775.63	48.760
775.94	54.887
776.25	52.857
776.56	59.016
776.87	59.292
777.18	52.212
777.48	51.818
777.79	62.609
778.10	58.716
778.41	45.763
778.72	52.893
779.03	58.209
779.34	60.150
779.65	49.020
779.95	55.072
780.26	45.578
780.57	52.586
780.88	54.630
781.19	54.545
781.50	50.400
781.80	52.288
782.11	50.000
782.42	48.193
782.73	46.715
783.04	45.270
783.34	53.788
783.65	48.062
783.96	62.602
784.27	58.120
784.57	55.285
784.88	39.024
785.19	50.877
785.50	39.175
785.81	58.095
786.11	52.941
786.42	40.000
786.73	56.757
787.04	48.515
787.34	52.381
787.65	50.476
787.96	55.882
788.26	54.054
788.57	45.161
788.88	42.969
789.19	55.556
789.49	48.739
789.80	50.427
790.11	55.752
790.41	49.495
790.72	51.887
791.03	54.167
791.33	57.895
791.64	37.634
791.95	64.000
792.25	48.571
792.56	42.683
792.87	53.061
793.17	38.158
793.48	27.027
793.79	39.437
794.09	45.570
794.40	51.064
794.70	41.121
795.01	35.965
795.32	46.364
795.62	35.714
795.93	52.577
796.23	41.758
796.54	52.632
796.85	24.658
797.15	41.667
797.46	49.315
797.76	54.930
798.07	47.500
798.37	51.471
798.68	54.286
798.99	55.714
799.29	47.368
799.60	65.000
799.90	41.667
800.21	43.750
800.51	49.206
800.82	54.098
801.12	36.842
801.43	40.845
801.73	27.119
802.04	63.934
802.34	54.545
802.65	28.846
802.95	38.889
803.26	27.500
803.56	34.615
803.87	36.842
804.17	43.548
804.48	40.000
804.78	56.410
805.09	25.581
805.39	46.875
805.70	33.962
806.00	70.175
806.30	39.189
806.61	45.588
806.91	38.272
807.22	46.667
807.52	44.776
807.83	38.710
808.13	36.508
808.43	47.273
808.74	37.879
809.04	50.943
809.35	46.575
809.65	57.895
809.95	48.529
810.26	43.137
810.56	28.000
810.86	38.776
811.17	42.857
811.47	50.000
811.77	16.129
812.08	2.632
812.38	21.429
812.69	13.043
812.99	19.355
813.29	30.952
813.59	18.519
813.90	57.447
814.20	9.302
814.50	45.833
814.81	23.333
815.11	29.268
815.41	26.667
815.72	60.000
816.02	8.333
816.32	53.846
816.62	18.919
816.93	17.647
817.23	30.435
817.53	23.529
817.84	23.529
818.14	12.500
818.44	-10.345
818.74	3.226
819.04	11.111
819.35	30.000
819.65	56.000
819.95	16.667
820.25	32.000
820.56	15.789
820.86	35.000
821.16	34.043
821.46	44.828
821.76	28.205
822.07	12.500
822.37	41.860
822.67	30.000
822.97	0.000
823.27	27.027
823.57	72.000
823.88	37.838
824.18	-4.762
824.48	46.154
824.78	46.154
825.08	8.696
825.38	0.000
825.69	16.667
825.99	-25.000
826.29	-18.919
826.59	26.471
826.89	16.000
827.19	20.000
827.49	36.842
827.79	12.500
828.09	26.667
828.39	26.087
828.70	-17.241
829.00	17.241
829.30	36.111
829.60	87.500
829.90	72.222
830.20	-15.385
830.50	-28.571
830.80	21.429
831.10	35.897
831.40	-9.524
831.70	-2.941
832.00	54.167
832.30	5.263
832.60	-31.250
832.90	-33.333
833.20	-41.176
833.50	-60.000
833.80	-33.333
834.10	10.000
834.40	25.000
834.70	5.556
835.00	26.923
835.30	12.500
835.60	10.345
835.90	-5.556
836.20	-118.182
836.50	-8.333
836.80	2.857
837.10	60.000
837.40	-11.765
837.70	-145.455
838.00	62.500
838.30	-25.000
838.60	33.333
838.90	20.000
839.19	17.391
839.49	-21.739
839.79	-16.667
840.09	21.739
840.39	9.091
840.69	-56.250
840.99	-10.526
841.29	-87.500
841.59	28.571
841.88	-50.000
842.18	-20.833
842.48	11.765
842.78	-10.345
843.08	14.286
843.38	-23.077
843.68	-11.111
843.97	-53.846
844.27	18.182
844.57	-100.000
844.87	48.000
845.17	-140.000
845.47	-50.000
845.76	-222.222
846.06	0.000
846.36	-200.000
846.66	-90.000
846.96	15.789
847.25	-4.167
847.55	0.000
847.85	-40.000
848.15	-110.000
848.44	34.615
848.74	-15.789
849.04	300.000
849.34	-44.444
849.63	-73.684
849.93	0.000
850.23	-40.000
850.53	-47.619
850.82	-16.000
851.12	-31.579
851.42	-350.000
851.71	-85.714
852.01	-50.000
852.31	-17.647
852.61	-13.333
852.90	-33.333
853.20	-200.000
853.50	-5.556
853.79	-31.579
854.09	-20.000
854.39	21.429
854.68	-17.391
854.98	-225.000
855.28	-3.448
855.57	-12.500
855.87	20.000
856.17	-73.333
856.46	-10.345
856.76	0.000
857.05	-41.176
857.35	-123.077
857.65	18.182
857.94	-3.704
858.24	-35.714
858.53	-35.714
858.83	-133.333
859.13	44.444
859.42	-4.762
859.72	-25.000
860.01	-400.000
860.31	-200.000
860.60	-220.000
860.90	-11.111
861.20	-75.000
861.49	-314.286
861.79	23.529
862.08	-150.000
862.38	-100.000
862.67	-115.385
862.97	35.294
863.26	-5.000
863.56	11.765
863.85	466.667
864.15	-80.000
864.44	-46.154
864.74	10.000
865.03	-175.000
865.33	-300.000
865.62	-82.353
865.92	-625.000
866.21	-35.714
866.51	-116.667
866.80	-1300.000
867.10	-400.000
867.39	-17.647
867.69	8.696
867.98	-228.571
868.27	-460.000
868.57	-75.000
868.86	-72.727
869.16	23.529
869.45	-166.667
869.75	-200.000
870.04	800.000
870.33	58.333
870.63	-60.000
870.92	-77.778
871.22	-41.667
871.51	-109.091
871.80	41.667
872.10	30.000
>>>>>End Processed Spectral Data<<<<<
