SpectraSuite Data File
++++++++++++++++++++++++++++++++++++
Date: Sat May 16 11:46:12 PDT 2015
User: schluterlab
Dark Spectrum Present: Yes
Reference Spectrum Present: Yes
Number of Sampled Component Spectra: 1
Spectrometers: USB2E3373
Integration Time (usec): 3000 (USB2E3373)
Spectra Averaged: 3 (USB2E3373)
Boxcar Smoothing: 0 (USB2E3373)
Correct for Electrical Dark: No (USB2E3373)
Strobe/Lamp Enabled: No (USB2E3373)
Correct for Detector Non-linearity: No (USB2E3373)
Correct for Stray Light: No (USB2E3373)
Number of Pixels in Processed Spectrum: 2048
>>>>>Begin Processed Spectral Data<<<<<
178.53	0.000
178.91	60.000
179.29	300.000
179.67	-1300.000
180.04	-146.154
180.42	1200.000
180.80	550.000
181.18	475.000
181.56	-162.500
181.94	1600.000
182.31	500.000
182.69	-84.615
183.07	-466.667
183.45	1400.000
183.83	500.000
184.20	-214.286
184.58	-100.000
184.96	-225.000
185.34	43.750
185.72	-475.000
186.09	266.667
186.47	-125.000
186.85	-237.500
187.23	-200.000
187.61	-325.000
187.98	-350.000
188.36	-62.500
188.74	-200.000
189.12	1700.000
189.49	157.143
189.87	-141.667
190.25	350.000
190.63	0.000
191.00	-144.444
191.38	300.000
191.76	6.667
192.14	300.000
192.51	-280.000
192.89	-166.667
193.27	0.000
193.65	-77.778
194.02	-257.143
194.40	733.333
194.78	-60.000
195.15	-700.000
195.53	-127.273
195.91	-350.000
196.29	340.000
196.66	-433.333
197.04	2500.000
197.42	-125.000
197.79	-13.333
198.17	-600.000
198.55	-100.000
198.92	-1300.000
199.30	175.000
199.68	-50.000
200.05	-66.667
200.43	-55.556
200.81	-1700.000
201.18	-116.667
201.56	42.857
201.94	-66.667
202.31	9.091
202.69	100.000
203.07	-60.000
203.44	566.667
203.82	-183.333
204.19	-300.000
204.57	-225.000
204.95	-600.000
205.32	-31.250
205.70	1300.000
206.08	-700.000
206.45	16.667
206.83	-1150.000
207.20	-100.000
207.58	-700.000
207.96	0.000
208.33	-25.000
208.71	-66.667
209.08	190.000
209.46	-285.714
209.84	450.000
210.21	0.000
210.59	25.000
210.96	1600.000
211.34	-250.000
211.71	66.667
212.09	400.000
212.46	900.000
212.84	-2600.000
213.22	500.000
213.59	83.333
213.97	44.444
214.34	120.000
214.72	-120.000
215.09	-266.667
215.47	-183.333
215.84	-90.000
216.22	-160.000
216.59	-6.667
216.97	-575.000
217.34	1050.000
217.72	-114.286
218.09	-316.667
218.47	-185.714
218.84	200.000
219.22	-85.714
219.59	0.000
219.97	185.714
220.34	250.000
220.72	262.500
221.09	-46.154
221.47	0.000
221.84	233.333
222.22	-750.000
222.59	-300.000
222.97	-150.000
223.34	-450.000
223.72	-333.333
224.09	-42.857
224.46	-300.000
224.84	-7.143
225.21	-171.429
225.59	27.273
225.96	37.500
226.34	-85.714
226.71	-122.222
227.08	-35.000
227.46	1200.000
227.83	-100.000
228.21	-225.000
228.58	150.000
228.95	-25.000
229.33	-900.000
229.70	-240.000
230.08	-600.000
230.45	-8.333
230.82	-50.000
231.20	-600.000
231.57	-500.000
231.95	500.000
232.32	0.000
232.69	-55.556
233.07	-142.857
233.44	-400.000
233.81	-13.333
234.19	-122.222
234.56	-56.250
234.93	31.250
235.31	-142.857
235.68	-42.857
236.05	5.882
236.43	-63.636
236.80	-22.581
237.17	33.333
237.55	-19.048
237.92	-36.364
238.29	2.857
238.67	-14.706
239.04	5.556
239.41	-25.806
239.79	-25.641
240.16	-16.667
240.53	3.636
240.91	2.564
241.28	0.000
241.65	12.308
242.02	1.639
242.40	3.279
242.77	-3.030
243.14	-10.169
243.51	-17.143
243.89	2.532
244.26	11.236
244.63	11.579
245.00	6.316
245.38	5.932
245.75	6.195
246.12	12.000
246.49	14.173
246.87	13.008
247.24	9.322
247.61	1.695
247.98	18.310
248.36	10.490
248.73	10.127
249.10	11.465
249.47	11.696
249.84	19.318
250.22	7.738
250.59	16.949
250.96	12.042
251.33	17.536
251.70	12.981
252.08	14.692
252.45	16.588
252.82	12.857
253.19	9.787
253.56	16.935
253.94	16.456
254.31	12.876
254.68	15.447
255.05	11.290
255.42	16.667
255.79	9.319
256.16	12.941
256.54	13.971
256.91	11.742
257.28	12.088
257.65	10.993
258.02	12.579
258.39	15.385
258.76	14.189
259.14	13.580
259.51	14.754
259.88	14.329
260.25	15.528
260.62	11.254
260.99	13.353
261.36	16.159
261.73	15.029
262.10	16.111
262.47	14.530
262.85	15.714
263.22	15.473
263.59	10.769
263.96	13.043
264.33	16.531
264.70	13.812
265.07	14.011
265.44	13.695
265.81	11.370
266.18	14.684
266.55	16.176
266.92	14.610
267.29	14.770
267.66	12.593
268.03	17.633
268.40	13.380
268.77	15.663
269.14	12.993
269.51	14.253
269.88	12.156
270.25	13.054
270.62	14.645
270.99	13.964
271.36	15.152
271.73	15.695
272.10	13.730
272.47	14.222
272.84	15.778
273.21	11.468
273.58	13.407
273.95	14.474
274.32	16.290
274.69	16.849
275.06	15.951
275.43	10.714
275.80	18.330
276.17	15.481
276.54	16.904
276.91	14.815
277.28	13.996
277.65	14.669
278.02	15.031
278.39	17.485
278.76	15.538
279.13	15.415
279.50	14.115
279.87	13.742
280.23	15.182
280.60	14.911
280.97	13.010
281.34	13.540
281.71	17.115
282.08	14.315
282.45	12.016
282.82	16.860
283.19	14.182
283.56	16.300
283.92	12.721
284.29	12.825
284.66	14.029
285.03	14.082
285.40	15.683
285.77	15.614
286.14	12.274
286.51	13.499
286.87	13.975
287.24	17.577
287.61	15.537
287.98	14.731
288.35	13.223
288.72	12.564
289.08	11.525
289.45	13.636
289.82	11.765
290.19	13.793
290.56	11.074
290.93	11.924
291.29	11.831
291.66	13.527
292.03	14.757
292.40	12.349
292.77	10.093
293.13	12.520
293.50	12.036
293.87	11.963
294.24	13.575
294.60	11.970
294.97	13.657
295.34	11.704
295.71	11.905
296.08	10.138
296.44	11.874
296.81	11.681
297.18	13.099
297.55	12.571
297.91	11.715
298.28	10.274
298.65	10.879
299.02	13.636
299.38	11.765
299.75	11.141
300.12	11.923
300.48	13.683
300.85	12.189
301.22	11.255
301.59	10.923
301.95	12.469
302.32	10.821
302.69	12.362
303.05	10.256
303.42	11.250
303.79	11.364
304.15	12.559
304.52	12.602
304.89	11.098
305.25	11.600
305.62	10.811
305.99	12.485
306.35	12.764
306.72	11.617
307.09	12.713
307.45	11.805
307.82	12.291
308.19	12.752
308.55	12.745
308.92	12.137
309.29	12.000
309.65	13.043
310.02	11.663
310.38	12.216
310.75	13.832
311.12	13.120
311.48	13.257
311.85	13.285
312.22	12.667
312.58	13.123
312.95	13.761
313.31	14.985
313.68	15.176
314.05	16.123
314.41	14.386
314.78	14.885
315.14	16.584
315.51	17.325
315.87	17.619
316.24	16.327
316.61	18.426
316.97	18.209
317.34	18.208
317.70	16.512
318.07	19.403
318.43	20.037
318.80	21.878
319.16	20.075
319.53	21.992
319.89	22.295
320.26	21.275
320.62	22.308
320.99	24.577
321.35	22.266
321.72	24.360
322.08	26.311
322.45	26.337
322.81	26.513
323.18	28.530
323.54	29.113
323.91	28.823
324.27	31.084
324.64	31.444
325.00	32.548
325.37	35.475
325.73	35.958
326.10	35.430
326.46	37.916
326.83	37.106
327.19	40.284
327.56	42.419
327.92	42.906
328.29	43.377
328.65	42.818
329.01	44.611
329.38	45.674
329.74	47.161
330.11	48.413
330.47	50.136
330.84	49.954
331.20	50.993
331.56	50.684
331.93	52.220
332.29	53.425
332.66	53.029
333.02	54.751
333.38	54.570
333.75	54.141
334.11	55.022
334.48	54.545
334.84	55.031
335.20	55.319
335.57	56.498
335.93	58.997
336.29	57.042
336.66	55.947
337.02	58.288
337.38	56.774
337.75	57.155
338.11	59.750
338.47	59.786
338.84	60.436
339.20	58.612
339.56	59.447
339.93	59.171
340.29	58.370
340.65	58.916
341.02	58.432
341.38	59.225
341.74	59.356
342.11	59.556
342.47	60.858
342.83	59.614
343.20	60.034
343.56	58.122
343.92	60.351
344.28	61.396
344.65	60.066
345.01	61.429
345.37	62.209
345.73	59.902
346.10	59.362
346.46	60.682
346.82	61.347
347.19	61.956
347.55	61.798
347.91	61.102
348.27	60.541
348.63	61.147
349.00	61.098
349.36	60.109
349.72	63.217
350.08	61.909
350.45	61.229
350.81	62.898
351.17	62.621
351.53	62.450
351.89	62.490
352.26	62.791
352.62	63.287
352.98	62.896
353.34	64.189
353.70	61.622
354.07	61.998
354.43	63.399
354.79	61.569
355.15	63.738
355.51	64.531
355.87	64.269
356.24	62.907
356.60	65.592
356.96	64.588
357.32	63.104
357.68	63.985
358.04	63.741
358.40	65.197
358.77	64.451
359.13	64.269
359.49	65.004
359.85	64.329
360.21	64.764
360.57	65.587
360.93	66.148
361.29	67.713
361.66	66.311
362.02	65.311
362.38	65.664
362.74	66.081
363.10	64.849
363.46	67.308
363.82	65.816
364.18	67.511
364.54	66.476
364.90	65.758
365.26	67.546
365.62	67.498
365.98	68.848
366.35	67.817
366.71	66.667
367.07	67.819
367.43	67.742
367.79	69.485
368.15	70.057
368.51	68.462
368.87	67.170
369.23	70.596
369.59	67.986
369.95	68.781
370.31	70.675
370.67	70.282
371.03	71.064
371.39	68.458
371.75	71.102
372.11	70.086
372.47	71.945
372.83	71.071
373.19	71.000
373.55	70.866
373.91	72.617
374.27	72.485
374.63	71.429
374.99	72.392
375.35	72.207
375.71	73.194
376.07	73.374
376.42	71.192
376.78	74.183
377.14	76.475
377.50	74.210
377.86	73.407
378.22	75.628
378.58	74.120
378.94	74.908
379.30	73.370
379.66	74.013
380.02	74.094
380.38	75.227
380.74	74.560
381.09	74.458
381.45	75.597
381.81	75.923
382.17	76.128
382.53	75.562
382.89	76.316
383.25	76.400
383.61	76.238
383.97	78.261
384.32	78.348
384.68	77.025
385.04	76.329
385.40	75.350
385.76	79.268
386.12	77.826
386.48	78.403
386.83	77.975
387.19	77.406
387.55	77.529
387.91	77.119
388.27	78.347
388.62	77.103
388.98	78.316
389.34	78.274
389.70	78.502
390.06	78.869
390.42	81.090
390.77	80.126
391.13	79.876
391.49	78.478
391.85	79.426
392.20	79.672
392.56	79.536
392.92	79.293
393.28	79.851
393.64	80.457
393.99	80.369
394.35	80.049
394.71	79.679
395.07	81.293
395.42	79.797
395.78	79.447
396.14	80.935
396.50	79.878
396.85	81.061
397.21	80.194
397.57	80.243
397.92	80.855
398.28	80.167
398.64	79.477
399.00	81.348
399.35	80.552
399.71	81.649
400.07	80.955
400.42	79.927
400.78	81.336
401.14	81.078
401.49	81.840
401.85	83.466
402.21	82.539
402.57	80.643
402.92	83.575
403.28	81.189
403.63	79.988
403.99	81.231
404.35	81.401
404.70	80.105
405.06	80.277
405.42	81.796
405.77	80.373
406.13	81.772
406.49	82.684
406.84	82.543
407.20	81.684
407.55	82.901
407.91	81.865
408.27	81.005
408.62	81.840
408.98	82.656
409.34	81.901
409.69	81.979
410.05	81.565
410.40	81.668
410.76	83.047
411.11	82.544
411.47	83.376
411.83	81.846
412.18	82.240
412.54	80.781
412.89	82.442
413.25	81.405
413.60	82.199
413.96	81.577
414.31	83.242
414.67	83.937
415.03	81.824
415.38	84.385
415.74	84.665
416.09	82.673
416.45	82.738
416.80	83.615
417.16	83.920
417.51	85.620
417.87	85.178
418.22	84.766
418.58	84.146
418.93	84.304
419.29	84.693
419.64	85.050
420.00	85.358
420.35	85.275
420.71	87.815
421.06	85.799
421.42	85.597
421.77	86.767
422.12	87.633
422.48	87.280
422.83	84.624
423.19	86.024
423.54	86.110
423.90	86.813
424.25	86.821
424.61	88.601
424.96	89.409
425.31	88.597
425.67	89.112
426.02	89.616
426.38	89.776
426.73	89.831
427.09	90.993
427.44	89.432
427.79	90.058
428.15	91.023
428.50	90.616
428.85	92.326
429.21	89.651
429.56	91.771
429.92	89.930
430.27	91.176
430.62	91.797
430.98	91.532
431.33	93.063
431.68	93.619
432.04	93.844
432.39	93.903
432.74	92.446
433.10	93.922
433.45	94.070
433.80	94.401
434.16	95.379
434.51	96.164
434.86	95.372
435.22	95.713
435.57	96.328
435.92	95.955
436.28	98.042
436.63	97.004
436.98	96.048
437.34	95.806
437.69	97.550
438.04	97.845
438.39	98.676
438.75	98.603
439.10	97.002
439.45	98.129
439.81	97.590
440.16	98.240
440.51	99.882
440.86	99.075
441.22	98.397
441.57	99.526
441.92	99.437
442.27	98.972
442.63	98.391
442.98	98.871
443.33	99.780
443.68	101.615
444.03	101.031
444.39	99.462
444.74	100.716
445.09	101.974
445.44	101.913
445.79	103.825
446.15	101.479
446.50	101.306
446.85	99.692
447.20	101.839
447.55	103.536
447.91	103.987
448.26	102.849
448.61	101.811
448.96	104.258
449.31	103.382
449.66	103.377
450.02	103.601
450.37	103.072
450.72	104.294
451.07	105.720
451.42	102.912
451.77	105.506
452.12	104.768
452.47	103.967
452.83	104.193
453.18	107.084
453.53	104.913
453.88	107.117
454.23	105.623
454.58	107.644
454.93	104.975
455.28	108.158
455.63	106.818
455.98	108.614
456.34	106.607
456.69	106.567
457.04	106.023
457.39	106.041
457.74	107.797
458.09	106.497
458.44	105.139
458.79	106.222
459.14	107.644
459.49	107.815
459.84	107.420
460.19	106.026
460.54	107.320
460.89	108.913
461.24	105.768
461.59	105.686
461.94	109.102
462.29	107.445
462.64	110.540
462.99	109.705
463.34	107.900
463.69	109.987
464.04	106.854
464.39	109.319
464.74	107.861
465.09	106.795
465.44	108.122
465.79	107.671
466.14	109.379
466.49	109.211
466.84	108.463
467.19	110.037
467.54	107.848
467.89	110.296
468.24	107.185
468.59	108.057
468.94	111.061
469.29	110.331
469.64	107.682
469.99	109.791
470.34	111.623
470.68	112.209
471.03	109.360
471.38	112.153
471.73	113.846
472.08	112.316
472.43	111.519
472.78	111.067
473.13	113.055
473.48	112.955
473.83	111.849
474.17	113.822
474.52	113.683
474.87	109.848
475.22	111.681
475.57	111.500
475.92	110.583
476.27	109.086
476.61	110.986
476.96	110.900
477.31	112.917
477.66	112.120
478.01	112.372
478.36	108.905
478.70	114.362
479.05	112.547
479.40	112.073
479.75	111.315
480.10	111.012
480.45	109.091
480.79	112.438
481.14	113.347
481.49	112.488
481.84	110.125
482.19	109.913
482.53	114.583
482.88	113.004
483.23	111.596
483.58	112.720
483.92	112.996
484.27	110.323
484.62	111.274
484.97	109.392
485.31	107.488
485.66	103.737
486.01	104.798
486.36	105.867
486.70	109.059
487.05	108.538
487.40	107.906
487.75	106.962
488.09	106.671
488.44	107.409
488.79	107.110
489.13	109.091
489.48	110.726
489.83	112.052
490.17	110.535
490.52	112.817
490.87	113.949
491.22	113.825
491.56	112.870
491.91	113.454
492.26	112.123
492.60	113.463
492.95	112.423
493.30	113.197
493.64	112.835
493.99	115.010
494.34	113.905
494.68	114.841
495.03	113.002
495.37	114.651
495.72	113.310
496.07	113.749
496.41	114.914
496.76	113.927
497.11	114.885
497.45	113.697
497.80	116.258
498.14	114.833
498.49	114.314
498.84	112.282
499.18	114.961
499.53	113.590
499.87	115.203
500.22	115.098
500.56	116.058
500.91	115.468
501.26	115.429
501.60	113.914
501.95	116.860
502.29	112.848
502.64	114.899
502.98	115.093
503.33	112.876
503.67	113.889
504.02	114.631
504.36	114.657
504.71	114.438
505.06	114.428
505.40	115.220
505.75	115.549
506.09	116.582
506.44	115.789
506.78	114.802
507.13	115.448
507.47	117.058
507.82	114.610
508.16	115.440
508.51	115.404
508.85	117.340
509.19	117.268
509.54	117.653
509.88	115.638
510.23	116.824
510.57	117.513
510.92	117.615
511.26	115.949
511.61	115.389
511.95	115.463
512.30	117.482
512.64	118.030
512.98	117.657
513.33	117.188
513.67	118.481
514.02	117.729
514.36	115.956
514.70	117.600
515.05	118.582
515.39	116.840
515.74	120.361
516.08	116.888
516.42	117.677
516.77	119.180
517.11	117.563
517.46	119.916
517.80	120.217
518.14	120.109
518.49	119.845
518.83	119.644
519.17	119.183
519.52	116.657
519.86	120.311
520.20	121.394
520.55	121.477
520.89	121.290
521.23	118.926
521.58	122.947
521.92	122.039
522.26	119.365
522.61	120.025
522.95	119.400
523.29	120.439
523.64	120.550
523.98	121.642
524.32	120.490
524.66	119.814
525.01	119.910
525.35	120.747
525.69	121.080
526.04	120.757
526.38	120.178
526.72	117.944
527.06	122.135
527.41	121.716
527.75	120.264
528.09	121.840
528.43	120.852
528.78	120.289
529.12	121.639
529.46	121.714
529.80	122.660
530.15	121.700
530.49	118.435
530.83	119.057
531.17	120.067
531.51	120.295
531.86	118.828
532.20	119.838
532.54	119.586
532.88	119.763
533.22	119.586
533.57	121.345
533.91	118.227
534.25	118.919
534.59	117.239
534.93	115.619
535.27	118.188
535.62	117.775
535.96	117.647
536.30	118.717
536.64	117.530
536.98	120.692
537.32	119.765
537.66	118.058
538.01	121.100
538.35	119.189
538.69	119.184
539.03	117.942
539.37	118.563
539.71	117.478
540.05	119.260
540.39	119.806
540.73	119.419
541.07	119.331
541.42	118.569
541.76	116.146
542.10	119.784
542.44	116.456
542.78	119.335
543.12	119.552
543.46	118.014
543.80	115.987
544.14	118.872
544.48	116.798
544.82	118.539
545.16	118.846
545.50	116.016
545.84	118.707
546.18	118.308
546.52	117.923
546.86	120.085
547.20	118.776
547.54	116.873
547.88	116.921
548.22	116.514
548.56	117.568
548.90	118.464
549.24	119.481
549.58	117.149
549.92	117.597
550.26	119.653
550.60	116.287
550.94	120.511
551.28	119.865
551.62	119.129
551.96	118.017
552.30	116.794
552.64	119.704
552.98	119.341
553.32	120.707
553.66	120.115
554.00	120.043
554.34	119.856
554.68	118.056
555.02	118.813
555.36	119.986
555.69	122.206
556.03	117.825
556.37	117.994
556.71	119.470
557.05	121.212
557.39	119.822
557.73	120.277
558.07	121.703
558.41	121.242
558.75	121.749
559.08	121.323
559.42	121.286
559.76	120.322
560.10	121.849
560.44	119.653
560.78	121.155
561.12	117.598
561.45	118.630
561.79	119.373
562.13	119.846
562.47	119.188
562.81	119.873
563.15	118.614
563.48	118.521
563.82	119.202
564.16	118.864
564.50	117.675
564.84	116.402
565.17	116.910
565.51	117.405
565.85	121.433
566.19	119.433
566.52	118.721
566.86	117.130
567.20	116.949
567.54	117.602
567.88	114.350
568.21	115.996
568.55	113.998
568.89	112.773
569.23	110.088
569.56	110.635
569.90	109.756
570.24	109.545
570.57	107.627
570.91	106.970
571.25	107.361
571.59	106.556
571.92	105.030
572.26	105.422
572.60	104.933
572.93	104.212
573.27	104.848
573.61	102.638
573.95	102.182
574.28	102.486
574.62	102.745
574.96	101.221
575.29	102.058
575.63	102.602
575.97	102.589
576.30	101.754
576.64	103.055
576.98	101.219
577.31	101.907
577.65	101.320
577.98	101.599
578.32	101.052
578.66	100.553
578.99	102.102
579.33	101.583
579.67	101.116
580.00	101.017
580.34	101.394
580.67	101.299
581.01	100.137
581.35	101.052
581.68	99.332
582.02	101.065
582.35	100.869
582.69	101.872
583.02	103.028
583.36	102.908
583.70	102.253
584.03	102.532
584.37	103.410
584.70	102.009
585.04	102.203
585.37	100.740
585.71	101.790
586.04	102.660
586.38	103.101
586.72	103.354
587.05	104.276
587.39	103.196
587.72	103.371
588.06	103.961
588.39	103.418
588.73	103.923
589.06	104.955
589.40	106.115
589.73	106.303
590.07	106.191
590.40	105.424
590.73	107.917
591.07	106.352
591.40	108.709
591.74	106.082
592.07	108.559
592.41	108.195
592.74	107.610
593.08	105.561
593.41	106.414
593.75	106.396
594.08	109.166
594.41	108.392
594.75	107.097
595.08	110.263
595.42	107.045
595.75	106.652
596.09	107.451
596.42	109.165
596.75	108.969
597.09	109.394
597.42	108.206
597.75	109.433
598.09	108.631
598.42	108.131
598.76	106.935
599.09	107.380
599.42	107.459
599.76	107.097
600.09	108.321
600.42	106.532
600.76	108.286
601.09	107.102
601.42	107.875
601.76	106.581
602.09	108.875
602.42	107.366
602.76	107.478
603.09	107.339
603.42	109.508
603.76	109.374
604.09	107.609
604.42	108.326
604.76	108.373
605.09	108.228
605.42	108.865
605.75	108.840
606.09	108.095
606.42	107.834
606.75	108.373
607.09	109.131
607.42	108.935
607.75	109.183
608.08	109.489
608.42	110.501
608.75	108.692
609.08	109.450
609.41	111.460
609.75	109.361
610.08	111.765
610.41	110.940
610.74	110.251
611.07	110.953
611.41	109.985
611.74	110.386
612.07	113.319
612.40	111.834
612.73	109.855
613.07	111.282
613.40	113.246
613.73	112.643
614.06	111.203
614.39	114.994
614.72	111.453
615.06	110.652
615.39	110.364
615.72	112.873
616.05	111.264
616.38	113.871
616.71	112.312
617.05	112.364
617.38	113.622
617.71	114.312
618.04	115.839
618.37	114.214
618.70	116.493
619.03	115.437
619.36	116.209
619.69	116.798
620.03	113.981
620.36	115.963
620.69	117.014
621.02	119.330
621.35	119.435
621.68	121.639
622.01	120.793
622.34	117.624
622.67	117.734
623.00	118.898
623.33	118.433
623.66	115.805
623.99	117.444
624.32	119.271
624.65	118.028
624.99	120.239
625.32	116.617
625.65	118.260
625.98	117.919
626.31	120.473
626.64	119.833
626.97	121.490
627.30	119.660
627.63	120.035
627.96	120.191
628.29	123.621
628.62	123.687
628.95	123.228
629.28	121.992
629.61	127.184
629.94	122.968
630.26	124.950
630.59	125.025
630.92	124.825
631.25	124.395
631.58	126.243
631.91	126.489
632.24	129.222
632.57	127.889
632.90	130.000
633.23	130.257
633.56	128.655
633.89	129.835
634.22	126.446
634.55	130.048
634.88	127.932
635.20	130.337
635.53	132.443
635.86	131.864
636.19	126.618
636.52	125.568
636.85	129.122
637.18	128.375
637.51	128.129
637.83	134.354
638.16	130.526
638.49	136.414
638.82	129.601
639.15	127.756
639.48	128.534
639.81	134.578
640.13	130.405
640.46	135.185
640.79	129.972
641.12	133.004
641.45	133.429
641.77	137.575
642.10	137.311
642.43	134.143
642.76	136.063
643.09	137.619
643.41	138.413
643.74	135.612
644.07	134.477
644.40	136.467
644.73	136.469
645.05	135.559
645.38	139.735
645.71	142.784
646.04	136.975
646.36	140.838
646.69	135.467
647.02	140.794
647.35	146.029
647.67	144.343
648.00	137.610
648.33	138.954
648.66	133.548
648.98	132.962
649.31	132.308
649.64	134.531
649.96	132.182
650.29	135.246
650.62	140.448
650.94	132.378
651.27	137.608
651.60	135.467
651.92	138.185
652.25	134.057
652.58	137.308
652.90	128.732
653.23	132.581
653.56	134.281
653.88	130.164
654.21	136.242
654.54	132.558
654.86	127.287
655.19	130.372
655.52	113.605
655.84	102.463
656.17	100.000
656.49	100.000
656.82	100.000
657.15	100.000
657.47	100.000
657.80	100.000
658.13	96.494
658.45	97.548
658.78	96.420
659.10	95.019
659.43	94.458
659.75	95.555
660.08	97.760
660.41	98.101
660.73	113.311
661.06	121.884
661.38	136.607
661.71	132.314
662.03	138.105
662.36	140.938
662.68	140.928
663.01	143.524
663.33	145.805
663.66	141.845
663.98	143.527
664.31	142.953
664.63	140.708
664.96	143.601
665.28	143.818
665.61	140.803
665.93	137.449
666.26	138.664
666.58	136.590
666.91	139.198
667.23	136.404
667.56	142.404
667.88	142.534
668.21	141.705
668.53	147.897
668.86	142.032
669.18	146.347
669.50	144.860
669.83	143.552
670.15	136.547
670.48	141.589
670.80	139.636
671.13	139.052
671.45	138.288
671.77	137.901
672.10	133.531
672.42	133.026
672.75	134.000
673.07	131.892
673.39	131.148
673.72	137.992
674.04	139.915
674.37	134.845
674.69	136.270
675.01	134.043
675.34	137.527
675.66	133.693
675.98	140.749
676.31	138.914
676.63	142.989
676.95	139.159
677.28	141.995
677.60	139.819
677.92	138.326
678.25	139.825
678.57	135.391
678.89	134.172
679.22	132.914
679.54	126.824
679.86	133.200
680.18	132.319
680.51	130.726
680.83	132.381
681.15	128.324
681.48	135.903
681.80	133.669
682.12	133.602
682.44	128.487
682.77	133.766
683.09	129.560
683.41	135.398
683.73	135.388
684.06	135.484
684.38	131.799
684.70	133.539
685.02	129.724
685.34	130.799
685.67	130.492
685.99	129.301
686.31	128.905
686.63	123.582
686.96	123.660
687.28	127.938
687.60	128.906
687.92	124.125
688.24	131.299
688.56	126.453
688.89	130.342
689.21	129.978
689.53	137.701
689.85	128.508
690.17	134.305
690.49	133.487
690.82	136.627
691.14	131.132
691.46	132.151
691.78	135.242
692.10	133.686
692.42	131.333
692.74	127.253
693.06	132.584
693.39	130.649
693.71	130.248
694.03	127.430
694.35	131.377
694.67	126.478
694.99	132.992
695.31	137.245
695.63	133.673
695.95	137.221
696.27	133.416
696.59	135.829
696.91	140.730
697.23	136.719
697.56	134.615
697.88	133.333
698.20	123.769
698.52	124.888
698.84	133.495
699.16	122.381
699.48	132.250
699.80	132.080
700.12	127.708
700.44	135.196
700.76	132.070
701.08	136.628
701.40	135.952
701.72	139.815
702.04	143.910
702.36	137.349
702.68	133.533
703.00	136.812
703.32	132.951
703.64	138.529
703.96	137.791
704.28	136.095
704.60	139.557
704.91	135.556
705.23	139.482
705.55	141.216
705.87	138.908
706.19	140.278
706.51	137.153
706.83	134.426
707.15	138.217
707.47	134.160
707.79	126.031
708.11	125.954
708.43	126.185
708.74	120.000
709.06	127.855
709.38	131.897
709.70	138.438
710.02	133.436
710.34	138.944
710.66	130.794
710.98	133.123
711.29	127.419
711.61	129.712
711.93	134.754
712.25	131.894
712.57	134.843
712.89	138.489
713.20	135.052
713.52	135.448
713.84	143.416
714.16	134.098
714.48	128.571
714.80	126.769
715.11	125.072
715.43	131.024
715.75	126.480
716.07	129.836
716.39	135.452
716.70	131.010
717.02	136.667
717.34	135.878
717.66	147.303
717.97	140.164
718.29	140.756
718.61	138.492
718.93	130.108
719.24	126.103
719.56	136.604
719.88	138.909
720.20	130.712
720.51	136.842
720.83	135.743
721.15	136.885
721.46	135.294
721.78	131.801
722.10	136.400
722.42	132.231
722.73	136.255
723.05	131.727
723.37	130.196
723.68	123.077
724.00	136.179
724.32	131.687
724.63	127.386
724.95	134.298
725.27	132.895
725.58	133.190
725.90	130.952
726.22	128.044
726.53	134.221
726.85	132.941
727.16	134.211
727.48	128.077
727.80	127.869
728.11	131.513
728.43	135.124
728.74	132.422
729.06	128.788
729.38	123.735
729.69	132.677
730.01	133.858
730.32	133.865
730.64	124.908
730.96	132.090
731.27	126.786
731.59	124.116
731.90	120.859
732.22	115.644
732.53	131.126
732.85	119.463
733.16	131.522
733.48	121.603
733.80	124.199
734.11	121.034
734.43	125.510
734.74	116.320
735.06	125.392
735.37	122.324
735.69	119.355
736.00	121.212
736.32	121.523
736.63	118.276
736.95	123.913
737.26	117.550
737.58	127.698
737.89	126.165
738.21	123.308
738.52	125.385
738.83	128.906
739.15	131.624
739.46	125.000
739.78	119.930
740.09	118.881
740.41	123.427
740.72	124.818
741.04	124.603
741.35	128.571
741.66	130.093
741.98	119.524
742.29	127.700
742.61	137.433
742.92	132.243
743.23	124.561
743.55	128.378
743.86	125.778
744.18	125.714
744.49	133.498
744.80	125.381
745.12	136.598
745.43	139.196
745.74	128.641
746.06	126.829
746.37	122.907
746.68	130.348
747.00	136.649
747.31	121.154
747.62	122.581
747.94	123.581
748.25	128.837
748.56	128.095
748.88	139.130
749.19	122.066
749.50	137.255
749.82	129.778
750.13	130.396
750.44	126.829
750.75	129.200
751.07	119.643
751.38	120.664
751.69	118.702
752.01	120.385
752.32	122.568
752.63	116.538
752.94	119.048
753.26	131.304
753.57	129.018
753.88	125.431
754.19	123.651
754.51	119.141
754.82	128.854
755.13	123.045
755.44	124.793
755.75	129.218
756.07	118.474
756.38	124.609
756.69	117.690
757.00	119.164
757.31	116.107
757.63	113.707
757.94	110.405
758.25	115.116
758.56	116.712
758.87	113.068
759.18	114.000
759.50	122.420
759.81	117.883
760.12	116.892
760.43	119.741
760.74	123.125
761.05	112.640
761.36	117.665
761.67	109.467
761.99	114.194
762.30	121.014
762.61	112.830
762.92	127.354
763.23	126.540
763.54	121.778
763.85	122.363
764.16	122.041
764.47	125.847
764.78	116.105
765.10	112.950
765.41	113.548
765.72	107.862
766.03	109.894
766.34	115.038
766.65	114.170
766.96	118.000
767.27	129.167
767.58	131.395
767.89	130.323
768.20	130.675
768.51	118.579
768.82	124.865
769.13	126.000
769.44	117.105
769.75	114.286
770.06	120.642
770.37	116.432
770.68	124.479
770.99	117.327
771.30	120.388
771.61	112.500
771.92	110.390
772.23	114.953
772.54	122.340
772.85	118.935
773.16	124.390
773.47	122.892
773.78	110.440
774.09	123.333
774.39	114.198
774.70	120.134
775.01	123.913
775.32	113.433
775.63	131.405
775.94	125.564
776.25	108.571
776.56	131.148
776.87	125.664
777.18	123.009
777.48	125.455
777.79	120.000
778.10	126.606
778.41	123.729
778.72	129.752
779.03	124.627
779.34	127.068
779.65	108.497
779.95	132.609
780.26	108.844
780.57	119.828
780.88	141.667
781.19	129.293
781.50	123.200
781.80	114.379
782.11	126.923
782.42	103.012
782.73	114.599
783.04	116.216
783.34	121.970
783.65	115.504
783.96	119.512
784.27	135.897
784.57	126.829
784.88	111.382
785.19	106.140
785.50	115.464
785.81	118.095
786.11	125.490
786.42	110.909
786.73	114.414
787.04	126.733
787.34	119.048
787.65	110.476
787.96	125.490
788.26	121.622
788.57	108.871
788.88	107.813
789.19	108.547
789.49	108.403
789.80	113.675
790.11	107.965
790.41	104.040
790.72	113.208
791.03	119.444
791.33	119.737
791.64	116.129
791.95	133.333
792.25	141.429
792.56	128.049
792.87	105.102
793.17	88.158
793.48	100.000
793.79	111.268
794.09	102.532
794.40	109.574
794.70	106.542
795.01	92.982
795.32	100.000
795.62	96.429
795.93	108.247
796.23	102.198
796.54	104.211
796.85	102.740
797.15	94.444
797.46	109.589
797.76	114.085
798.07	101.250
798.37	125.000
798.68	122.857
798.99	107.143
799.29	100.000
799.60	131.667
799.90	88.889
800.21	117.188
800.51	92.063
800.82	109.836
801.12	110.526
801.43	84.507
801.73	116.949
802.04	118.033
802.34	112.727
802.65	115.385
802.95	98.148
803.26	137.500
803.56	130.769
803.87	178.947
804.17	125.806
804.48	109.231
804.78	128.205
805.09	120.930
805.39	125.000
805.70	90.566
806.00	110.526
806.30	113.514
806.61	104.412
806.91	100.000
807.22	124.000
807.52	100.000
807.83	108.065
808.13	92.063
808.43	96.364
808.74	83.333
809.04	107.547
809.35	100.000
809.65	121.053
809.95	101.471
810.26	117.647
810.56	100.000
810.86	87.755
811.17	102.857
811.47	78.846
811.77	167.742
812.08	94.737
812.38	123.810
812.69	89.130
812.99	135.484
813.29	78.571
813.59	118.519
813.90	104.255
814.20	86.047
814.50	116.667
814.81	73.333
815.11	87.805
815.41	113.333
815.72	131.429
816.02	105.556
816.32	120.513
816.62	110.811
816.93	55.882
817.23	100.000
817.53	144.118
817.84	117.647
818.14	100.000
818.44	79.310
818.74	145.161
819.04	88.889
819.35	120.000
819.65	104.000
819.95	93.333
820.25	116.000
820.56	94.737
820.86	77.500
821.16	91.489
821.46	67.241
821.76	87.179
822.07	80.000
822.37	93.023
822.67	76.667
822.97	70.270
823.27	89.189
823.57	128.000
823.88	113.514
824.18	76.190
824.48	107.692
824.78	61.538
825.08	113.043
825.38	62.500
825.69	79.167
825.99	80.000
826.29	70.270
826.59	67.647
826.89	136.000
827.19	54.286
827.49	63.158
827.79	78.125
828.09	83.333
828.39	108.696
828.70	100.000
829.00	72.414
829.30	63.889
829.60	87.500
829.90	150.000
830.20	80.769
830.50	95.238
830.80	46.429
831.10	74.359
831.40	133.333
831.70	44.118
832.00	54.167
832.30	89.474
832.60	62.500
832.90	125.000
833.20	35.294
833.50	113.333
833.80	80.000
834.10	90.000
834.40	79.167
834.70	116.667
835.00	107.692
835.30	50.000
835.60	79.310
835.90	50.000
836.20	127.273
836.50	-16.667
836.80	48.571
837.10	88.571
837.40	88.235
837.70	-36.364
838.00	91.667
838.30	12.500
838.60	57.143
838.90	115.000
839.19	73.913
839.49	43.478
839.79	50.000
840.09	17.391
840.39	86.364
840.69	50.000
840.99	73.684
841.29	87.500
841.59	21.429
841.88	11.111
842.18	-8.333
842.48	-41.176
842.78	10.345
843.08	64.286
843.38	46.154
843.68	-77.778
843.97	53.846
844.27	9.091
844.57	60.000
844.87	56.000
845.17	40.000
845.47	78.571
845.76	-33.333
846.06	0.000
846.36	-275.000
846.66	30.000
846.96	5.263
847.25	33.333
847.55	25.000
847.85	73.333
848.15	-10.000
848.44	80.769
848.74	110.526
849.04	66.667
849.34	122.222
849.63	-10.526
849.93	0.000
850.23	25.000
850.53	33.333
850.82	24.000
851.12	15.789
851.42	-50.000
851.71	-7.143
852.01	41.667
852.31	0.000
852.61	53.333
852.90	0.000
853.20	150.000
853.50	22.222
853.79	15.789
854.09	60.000
854.39	32.143
854.68	30.435
854.98	-91.667
855.28	58.621
855.57	43.750
855.87	45.000
856.17	80.000
856.46	27.586
856.76	33.333
857.05	29.412
857.35	-46.154
857.65	0.000
857.94	37.037
858.24	-7.143
858.53	-35.714
858.83	41.667
859.13	-111.111
859.42	71.429
859.72	25.000
860.01	-200.000
860.31	-37.500
860.60	-240.000
860.90	-55.556
861.20	62.500
861.49	-28.571
861.79	17.647
862.08	-50.000
862.38	0.000
862.67	0.000
862.97	58.824
863.26	85.000
863.56	29.412
863.85	533.333
864.15	-110.000
864.44	-69.231
864.74	65.000
865.03	-125.000
865.33	-100.000
865.62	5.882
865.92	-150.000
866.21	-7.143
866.51	-108.333
866.80	-200.000
867.10	-366.667
867.39	58.824
867.69	8.696
867.98	42.857
868.27	-160.000
868.57	-12.500
868.86	-27.273
869.16	-23.529
869.45	0.000
869.75	0.000
870.04	500.000
870.33	-33.333
870.63	-140.000
870.92	-44.444
871.22	41.667
871.51	-27.273
871.80	25.000
872.10	-20.000
>>>>>End Processed Spectral Data<<<<<
