SpectraSuite Data File
++++++++++++++++++++++++++++++++++++
Date: Sat May 16 11:13:56 PDT 2015
User: schluterlab
Dark Spectrum Present: Yes
Reference Spectrum Present: Yes
Number of Sampled Component Spectra: 1
Spectrometers: USB2E3373
Integration Time (usec): 3000 (USB2E3373)
Spectra Averaged: 3 (USB2E3373)
Boxcar Smoothing: 0 (USB2E3373)
Correct for Electrical Dark: No (USB2E3373)
Strobe/Lamp Enabled: No (USB2E3373)
Correct for Detector Non-linearity: No (USB2E3373)
Correct for Stray Light: No (USB2E3373)
Number of Pixels in Processed Spectrum: 2048
>>>>>Begin Processed Spectral Data<<<<<
178.53	0.000
178.91	53.333
179.29	166.667
179.67	-100.000
180.04	-76.923
180.42	600.000
180.80	250.000
181.18	450.000
181.56	-62.500
181.94	500.000
182.31	200.000
182.69	-30.769
183.07	-366.667
183.45	800.000
183.83	200.000
184.20	14.286
184.58	-212.500
184.96	-75.000
185.34	81.250
185.72	-475.000
186.09	150.000
186.47	-125.000
186.85	-62.500
187.23	112.500
187.61	-75.000
187.98	-175.000
188.36	-175.000
188.74	-125.000
189.12	1000.000
189.49	300.000
189.87	8.333
190.25	350.000
190.63	-7.143
191.00	-155.556
191.38	20.000
191.76	6.667
192.14	160.000
192.51	-140.000
192.89	-400.000
193.27	0.000
193.65	22.222
194.02	-85.714
194.40	266.667
194.78	-50.000
195.15	-1000.000
195.53	0.000
195.91	-283.333
196.29	80.000
196.66	-466.667
197.04	1600.000
197.42	-100.000
197.79	66.667
198.17	0.000
198.55	-450.000
198.92	-200.000
199.30	112.500
199.68	-200.000
200.05	-33.333
200.43	-144.444
200.81	-600.000
201.18	8.333
201.56	157.143
201.94	-53.333
202.31	-13.636
202.69	40.000
203.07	20.000
203.44	333.333
203.82	-116.667
204.19	-250.000
204.57	-25.000
204.95	-1100.000
205.32	-25.000
205.70	-700.000
206.08	-1100.000
206.45	22.222
206.83	-800.000
207.20	250.000
207.58	-666.667
207.96	-200.000
208.33	-12.500
208.71	-33.333
209.08	200.000
209.46	0.000
209.84	350.000
210.21	0.000
210.59	80.000
210.96	700.000
211.34	-150.000
211.71	433.333
212.09	150.000
212.46	500.000
212.84	-300.000
213.22	233.333
213.59	41.667
213.97	100.000
214.34	50.000
214.72	-120.000
215.09	-433.333
215.47	-83.333
215.84	30.000
216.22	-100.000
216.59	106.667
216.97	-400.000
217.34	550.000
217.72	0.000
218.09	-116.667
218.47	-71.429
218.84	28.571
219.22	100.000
219.59	0.000
219.97	285.714
220.34	150.000
220.72	87.500
221.09	15.385
221.47	0.000
221.84	33.333
222.22	-300.000
222.59	1200.000
222.97	-87.500
223.34	-550.000
223.72	-133.333
224.09	-28.571
224.46	-75.000
224.84	-42.857
225.21	-85.714
225.59	9.091
225.96	-62.500
226.34	28.571
226.71	-122.222
227.08	15.000
227.46	-0.000
227.83	-14.286
228.21	0.000
228.58	250.000
228.95	-12.500
229.33	-600.000
229.70	-60.000
230.08	-450.000
230.45	-41.667
230.82	-200.000
231.20	-100.000
231.57	-400.000
231.95	900.000
232.32	4.762
232.69	-44.444
233.07	-171.429
233.44	-300.000
233.81	-13.333
234.19	111.111
234.56	6.250
234.93	50.000
235.31	-57.143
235.68	-85.714
236.05	17.647
236.43	-18.182
236.80	9.677
237.17	25.000
237.55	42.857
237.92	-13.636
238.29	0.000
238.67	14.706
239.04	38.889
239.41	12.903
239.79	12.821
240.16	2.381
240.53	9.091
240.91	10.256
241.28	27.273
241.65	21.538
242.02	19.672
242.40	18.033
242.77	10.606
243.14	18.644
243.51	0.000
243.89	31.646
244.26	15.730
244.63	23.158
245.00	28.421
245.38	33.898
245.75	14.159
246.12	20.000
246.49	18.110
246.87	17.886
247.24	5.932
247.61	17.797
247.98	21.127
248.36	16.084
248.73	25.316
249.10	16.561
249.47	23.977
249.84	26.136
250.22	17.857
250.59	22.034
250.96	20.942
251.33	23.697
251.70	27.404
252.08	18.957
252.45	21.327
252.82	26.667
253.19	27.234
253.56	15.323
253.94	21.941
254.31	22.318
254.68	30.081
255.05	21.774
255.42	23.016
255.79	21.505
256.16	23.922
256.54	20.588
256.91	19.697
257.28	19.414
257.65	20.213
258.02	25.157
258.39	22.742
258.76	18.581
259.14	22.222
259.51	24.918
259.88	22.561
260.25	22.981
260.62	17.685
260.99	18.101
261.36	23.476
261.73	21.965
262.10	22.500
262.47	19.658
262.85	23.429
263.22	20.630
263.59	18.769
263.96	20.580
264.33	20.054
264.70	25.967
265.07	21.154
265.44	22.222
265.81	22.481
266.18	22.278
266.55	22.059
266.92	25.441
267.29	19.855
267.66	17.778
268.03	24.879
268.40	22.770
268.77	21.687
269.14	22.506
269.51	21.149
269.88	19.266
270.25	22.145
270.62	21.739
270.99	22.748
271.36	17.249
271.73	21.300
272.10	21.739
272.47	19.111
272.84	24.000
273.21	23.853
273.58	22.198
273.95	19.956
274.32	19.457
274.69	22.319
275.06	22.495
275.43	19.196
275.80	22.200
276.17	21.339
276.54	22.607
276.91	22.222
277.28	20.081
277.65	20.868
278.02	20.459
278.39	20.629
278.76	21.116
279.13	23.123
279.50	21.869
279.87	21.142
280.23	22.267
280.60	21.869
280.97	20.388
281.34	22.050
281.71	22.692
282.08	21.774
282.45	21.589
282.82	22.093
283.19	20.000
283.56	23.443
283.92	20.848
284.29	21.933
284.66	20.324
285.03	22.816
285.40	23.247
285.77	21.754
286.14	20.578
286.51	19.005
286.87	22.505
287.24	20.819
287.61	22.314
287.98	20.797
288.35	18.182
288.72	21.732
289.08	19.661
289.45	19.360
289.82	18.512
290.19	21.511
290.56	18.182
290.93	19.078
291.29	19.935
291.66	20.612
292.03	20.722
292.40	19.127
292.77	19.255
293.13	17.886
293.50	21.397
293.87	18.558
294.24	18.100
294.60	16.667
294.97	20.182
295.34	17.185
295.71	18.601
296.08	17.819
296.44	15.880
296.81	19.658
297.18	17.606
297.55	18.927
297.91	19.665
298.28	18.219
298.65	16.876
299.02	17.781
299.38	18.984
299.75	17.663
300.12	18.077
300.48	18.414
300.85	17.693
301.22	19.664
301.59	18.075
301.95	19.521
302.32	15.776
302.69	18.237
303.05	17.705
303.42	15.500
303.79	18.900
304.15	17.891
304.52	18.203
304.89	18.772
305.25	17.582
305.62	17.744
305.99	19.670
306.35	18.202
306.72	16.401
307.09	18.956
307.45	18.615
307.82	17.318
308.19	17.562
308.55	18.845
308.92	18.690
309.29	18.595
309.65	19.830
310.02	19.438
310.38	18.270
310.75	20.389
311.12	20.661
311.48	20.981
311.85	20.288
312.22	20.906
312.58	21.770
312.95	21.713
313.31	22.278
313.68	23.015
314.05	22.651
314.41	21.730
314.78	22.577
315.14	24.383
315.51	24.215
315.87	24.589
316.24	24.976
316.61	26.104
316.97	25.871
317.34	25.434
317.70	25.696
318.07	28.265
318.43	25.936
318.80	27.700
319.16	27.486
319.53	28.195
319.89	28.128
320.26	30.490
320.62	28.654
320.99	30.149
321.35	29.064
321.72	27.738
322.08	29.773
322.45	29.901
322.81	30.644
323.18	32.949
323.54	32.440
323.91	32.345
324.27	32.414
324.64	32.541
325.00	34.817
325.37	36.018
325.73	35.521
326.10	36.404
326.46	37.478
326.83	37.106
327.19	38.032
327.56	39.267
327.92	38.997
328.29	39.394
328.65	39.273
329.01	40.194
329.38	40.589
329.74	41.300
330.11	41.614
330.47	43.324
330.84	44.363
331.20	42.599
331.56	42.935
331.93	42.540
332.29	44.475
332.66	41.440
333.02	43.439
333.38	43.638
333.75	44.613
334.11	44.356
334.48	44.131
334.84	44.182
335.20	44.326
335.57	45.036
335.93	45.748
336.29	44.198
336.66	44.405
337.02	46.486
337.38	43.316
337.75	45.215
338.11	46.064
338.47	44.751
338.84	46.370
339.20	44.815
339.56	44.742
339.93	45.238
340.29	45.173
340.65	45.629
341.02	44.941
341.38	45.156
341.74	43.692
342.11	44.369
342.47	45.494
342.83	45.256
343.20	45.687
343.56	43.184
343.92	46.244
344.28	45.921
344.65	44.967
345.01	45.546
345.37	45.349
345.73	44.354
346.10	45.053
346.46	45.085
346.82	44.026
347.19	45.522
347.55	44.222
347.91	44.409
348.27	45.187
348.63	44.830
349.00	46.062
349.36	43.716
349.72	46.019
350.08	45.870
350.45	44.760
350.81	45.621
351.17	44.775
351.53	44.869
351.89	45.109
352.26	46.047
352.62	45.929
352.98	46.440
353.34	45.643
353.70	44.170
354.07	46.656
354.43	46.719
354.79	45.563
355.15	46.965
355.51	45.469
355.87	45.929
356.24	46.465
356.60	49.073
356.96	46.189
357.32	45.051
357.68	47.280
358.04	45.727
358.40	45.785
358.77	47.527
359.13	45.295
359.49	46.939
359.85	45.960
360.21	46.271
360.57	45.482
360.93	46.444
361.29	47.608
361.66	46.189
362.02	46.154
362.38	47.322
362.74	45.421
363.10	47.633
363.46	47.721
363.82	48.105
364.18	47.757
364.54	48.463
364.90	46.890
365.26	48.787
365.62	49.537
365.98	48.009
366.35	47.535
366.71	47.639
367.07	48.130
367.43	48.250
367.79	47.354
368.15	48.293
368.51	48.112
368.87	49.519
369.23	48.912
369.59	47.708
369.95	48.908
370.31	48.875
370.67	48.445
371.03	48.907
371.39	48.727
371.75	49.285
372.11	49.713
372.47	48.952
372.83	49.235
373.19	49.786
373.55	51.091
373.91	49.004
374.27	50.445
374.63	49.551
374.99	51.669
375.35	49.798
375.71	50.034
376.07	50.034
376.42	49.404
376.78	51.765
377.14	51.322
377.50	51.515
377.86	51.951
378.22	51.633
378.58	51.575
378.94	51.850
379.30	51.859
379.66	51.427
380.02	51.515
380.38	51.722
380.74	51.465
381.09	51.963
381.45	51.790
381.81	51.906
382.17	53.070
382.53	51.854
382.89	53.529
383.25	53.522
383.61	51.651
383.97	54.195
384.32	52.879
384.68	53.507
385.04	51.751
385.40	53.682
385.76	53.537
386.12	52.842
386.48	54.332
386.83	52.638
387.19	54.214
387.55	54.149
387.91	54.890
388.27	53.981
388.62	53.486
388.98	54.149
389.34	53.244
389.70	53.410
390.06	53.760
390.42	54.487
390.77	54.069
391.13	55.839
391.49	55.271
391.85	54.426
392.20	54.126
392.56	53.879
392.92	54.649
393.28	54.937
393.64	55.382
393.99	54.462
394.35	54.684
394.71	54.849
395.07	56.685
395.42	54.052
395.78	55.437
396.14	55.888
396.50	54.679
396.85	55.336
397.21	55.772
397.57	55.441
397.92	56.323
398.28	56.667
398.64	55.860
399.00	57.135
399.35	55.919
399.71	57.143
400.07	57.075
400.42	57.238
400.78	57.782
401.14	54.790
401.49	56.427
401.85	56.742
402.21	56.496
402.57	55.522
402.92	57.898
403.28	55.760
403.63	54.524
403.99	56.370
404.35	55.193
404.70	57.343
405.06	55.709
405.42	56.396
405.77	54.977
406.13	57.297
406.49	55.422
406.84	55.489
407.20	57.244
407.55	55.415
407.91	55.764
408.27	57.353
408.62	56.344
408.98	56.640
409.34	56.307
409.69	56.522
410.05	56.398
410.40	57.082
410.76	56.194
411.11	58.416
411.47	55.371
411.83	57.824
412.18	56.064
412.54	55.827
412.89	56.926
413.25	56.198
413.60	55.650
413.96	55.391
414.31	56.453
414.67	56.127
415.03	56.792
415.38	56.994
415.74	56.637
416.09	55.946
416.45	57.209
416.80	57.412
417.16	56.877
417.51	57.190
417.87	55.987
418.22	57.143
418.58	57.189
418.93	56.591
419.29	57.403
419.64	56.595
420.00	58.445
420.35	58.545
420.71	57.923
421.06	57.041
421.42	56.792
421.77	57.454
422.12	58.310
422.48	57.242
422.83	58.314
423.19	57.350
423.54	58.271
423.90	56.854
424.25	57.070
424.61	58.565
424.96	59.099
425.31	57.965
425.67	57.765
426.02	57.602
426.38	58.379
426.73	58.036
427.09	58.211
427.44	58.693
427.79	57.674
428.15	60.084
428.50	59.296
428.85	58.213
429.21	58.993
429.56	59.219
429.92	58.617
430.27	58.475
430.62	60.502
430.98	59.697
431.33	59.712
431.68	59.839
432.04	60.772
432.39	59.601
432.74	59.053
433.10	59.539
433.45	59.240
433.80	59.742
434.16	60.398
434.51	60.274
434.86	60.516
435.22	60.078
435.57	60.526
435.92	59.437
436.28	59.881
436.63	60.260
436.98	59.221
437.34	60.189
437.69	59.568
438.04	60.238
438.39	60.770
438.75	60.070
439.10	58.690
439.45	59.384
439.81	60.904
440.16	59.625
440.51	61.882
440.86	61.249
441.22	59.038
441.57	60.895
441.92	60.818
442.27	59.957
442.63	61.373
442.98	61.343
443.33	59.692
443.68	60.604
444.03	60.756
444.39	61.429
444.74	61.233
445.09	60.307
445.44	61.171
445.79	61.601
446.15	61.008
446.50	60.425
446.85	59.723
447.20	60.112
447.55	60.994
447.91	62.100
448.26	60.838
448.61	61.121
448.96	61.681
449.31	60.654
449.66	62.278
450.02	61.274
450.37	60.928
450.72	60.847
451.07	61.911
451.42	60.843
451.77	61.520
452.12	60.727
452.47	61.209
452.83	61.619
453.18	61.543
453.53	61.132
453.88	61.902
454.23	60.701
454.58	61.280
454.93	61.587
455.28	62.141
455.63	61.855
455.98	63.072
456.34	61.817
456.69	61.789
457.04	61.709
457.39	60.467
457.74	62.493
458.09	60.151
458.44	62.125
458.79	60.930
459.14	61.723
459.49	62.522
459.84	60.989
460.19	60.143
460.54	60.738
460.89	61.491
461.24	61.020
461.59	60.141
461.94	61.553
462.29	61.942
462.64	60.079
462.99	62.249
463.34	59.959
463.69	62.277
464.04	60.047
464.39	61.111
464.74	60.816
465.09	60.072
465.44	59.504
465.79	61.534
466.14	61.623
466.49	61.140
466.84	60.264
467.19	61.783
467.54	60.253
467.89	60.666
468.24	60.629
468.59	60.462
468.94	61.479
469.29	60.884
469.64	60.782
469.99	61.918
470.34	60.788
470.68	61.919
471.03	60.220
471.38	60.417
471.73	62.308
472.08	60.910
472.43	60.425
472.78	61.067
473.13	59.510
473.48	60.881
473.83	60.546
474.17	60.955
474.52	60.550
474.87	59.907
475.22	60.826
475.57	60.222
475.92	60.799
476.27	60.686
476.61	62.141
476.96	60.369
477.31	60.280
477.66	60.432
478.01	60.940
478.36	59.036
478.70	59.156
479.05	60.465
479.40	60.207
479.75	60.347
480.10	58.879
480.45	58.414
480.79	59.970
481.14	60.813
481.49	60.407
481.84	60.379
482.19	59.205
482.53	59.896
482.88	59.658
483.23	59.484
483.58	59.621
483.92	60.535
484.27	58.042
484.62	60.173
484.97	59.041
485.31	58.912
485.66	57.749
486.01	57.886
486.36	58.740
486.70	59.408
487.05	58.137
487.40	58.894
487.75	58.899
488.09	57.412
488.44	58.018
488.79	57.588
489.13	58.501
489.48	59.543
489.83	59.039
490.17	59.687
490.52	61.096
490.87	59.446
491.22	59.879
491.56	59.120
491.91	59.685
492.26	58.160
492.60	59.134
492.95	59.781
493.30	58.075
493.64	58.486
493.99	59.082
494.34	59.476
494.68	60.346
495.03	58.748
495.37	58.702
495.72	58.841
496.07	59.643
496.41	59.843
496.76	58.767
497.11	60.104
497.45	60.105
497.80	58.779
498.14	59.086
498.49	59.367
498.84	57.670
499.18	61.014
499.53	58.889
499.87	58.687
500.22	59.657
500.56	59.680
500.91	59.655
501.26	59.389
501.60	58.739
501.95	59.420
502.29	58.337
502.64	58.557
502.98	59.415
503.33	58.459
503.67	58.860
504.02	58.957
504.36	60.147
504.71	58.713
505.06	58.163
505.40	58.034
505.75	59.807
506.09	59.707
506.44	58.246
506.78	58.856
507.13	59.217
507.47	58.477
507.82	58.957
508.16	58.653
508.51	59.042
508.85	58.075
509.19	58.608
509.54	58.721
509.88	59.149
510.23	58.491
510.57	59.841
510.92	59.184
511.26	58.161
511.61	58.693
511.95	58.836
512.30	59.208
512.64	59.432
512.98	58.636
513.33	57.716
513.67	58.124
514.02	59.004
514.36	58.227
514.70	58.347
515.05	57.519
515.39	59.170
515.74	59.570
516.08	58.674
516.42	57.394
516.77	58.868
517.11	58.066
517.46	60.287
517.80	59.386
518.14	58.816
518.49	58.757
518.83	57.923
519.17	58.615
519.52	57.663
519.86	59.618
520.20	59.597
520.55	58.708
520.89	58.673
521.23	58.852
521.58	60.125
521.92	59.088
522.26	59.175
522.61	59.062
522.95	57.243
523.29	60.063
523.64	59.151
523.98	59.580
524.32	57.888
524.66	59.006
525.01	59.281
525.35	59.601
525.69	59.336
526.04	59.530
526.38	58.752
526.72	57.280
527.06	59.049
527.41	58.482
527.75	58.548
528.09	60.424
528.43	58.295
528.78	58.794
529.12	59.539
529.46	58.441
529.80	58.877
530.15	56.922
530.49	58.085
530.83	59.070
531.17	58.855
531.51	58.741
531.86	58.262
532.20	57.557
532.54	60.094
532.88	59.420
533.22	57.888
533.57	59.661
533.91	57.366
534.25	58.014
534.59	58.151
534.93	57.374
535.27	58.276
535.62	58.248
535.96	57.854
536.30	57.395
536.64	57.636
536.98	59.816
537.32	58.120
537.66	57.094
538.01	58.625
538.35	58.108
538.69	58.757
539.03	59.377
539.37	57.751
539.71	57.438
540.05	58.259
540.39	58.726
540.73	58.466
541.07	59.153
541.42	57.664
541.76	56.080
542.10	58.879
542.44	56.829
542.78	57.191
543.12	57.162
543.46	56.644
543.80	57.525
544.14	58.966
544.48	57.349
544.82	58.593
545.16	58.350
545.50	56.528
545.84	58.484
546.18	57.490
546.52	57.752
546.86	57.977
547.20	58.439
547.54	56.474
547.88	56.669
548.22	57.471
548.56	58.450
548.90	57.682
549.24	57.253
549.58	57.375
549.92	57.739
550.26	58.598
550.60	57.255
550.94	58.467
551.28	57.487
551.62	57.607
551.96	57.381
552.30	57.561
552.64	58.269
552.98	56.903
553.32	57.937
553.66	58.616
554.00	58.706
554.34	56.534
554.68	57.383
555.02	57.308
555.36	57.225
555.69	56.232
556.03	57.474
556.37	57.255
556.71	57.695
557.05	57.650
557.39	58.872
557.73	57.695
558.07	58.101
558.41	58.863
558.75	57.414
559.08	57.899
559.42	58.423
559.76	57.592
560.10	58.762
560.44	58.454
560.78	57.829
561.12	57.557
561.45	56.438
561.79	57.352
562.13	56.872
562.47	57.283
562.81	57.284
563.15	56.963
563.48	56.807
563.82	57.606
564.16	56.795
564.50	57.796
564.84	56.680
565.17	57.560
565.51	56.584
565.85	57.674
566.19	57.773
566.52	57.534
566.86	56.448
567.20	57.446
567.54	58.594
567.88	56.449
568.21	57.774
568.55	56.363
568.89	55.368
569.23	54.836
569.56	55.107
569.90	55.783
570.24	55.205
570.57	54.025
570.91	53.961
571.25	55.318
571.59	55.667
571.92	54.137
572.26	52.936
572.60	53.460
572.93	54.661
573.27	53.598
573.61	53.742
573.95	54.151
574.28	53.496
574.62	54.093
574.96	53.490
575.29	53.582
575.63	53.517
575.97	53.182
576.30	53.522
576.64	54.230
576.98	53.247
577.31	53.516
577.65	53.769
577.98	53.955
578.32	53.631
578.66	54.212
578.99	54.072
579.33	53.529
579.67	53.538
580.00	53.695
580.34	53.253
580.67	53.567
581.01	52.742
581.35	54.218
581.68	53.168
582.02	53.938
582.35	53.730
582.69	53.633
583.02	54.266
583.36	53.622
583.70	53.943
584.03	54.068
584.37	53.965
584.70	53.740
585.04	54.203
585.37	53.222
585.71	52.854
586.04	53.445
586.38	53.034
586.72	53.777
587.05	54.149
587.39	53.728
587.72	53.066
588.06	54.058
588.39	54.372
588.73	54.043
589.06	54.316
589.40	54.861
589.73	54.356
590.07	53.532
590.40	53.948
590.73	54.938
591.07	54.467
591.40	55.546
591.74	54.301
592.07	55.180
592.41	54.395
592.74	54.919
593.08	53.862
593.41	54.572
593.75	53.940
594.08	55.607
594.41	55.268
594.75	54.285
595.08	55.414
595.42	53.685
595.75	54.649
596.09	54.715
596.42	55.237
596.75	54.118
597.09	55.209
597.42	54.038
597.75	54.960
598.09	54.406
598.42	54.750
598.76	54.153
599.09	54.459
599.42	53.979
599.76	53.945
600.09	55.267
600.42	54.045
600.76	54.501
601.09	54.804
601.42	54.333
601.76	53.699
602.09	55.051
602.42	53.868
602.76	53.469
603.09	53.790
603.42	55.197
603.76	53.650
604.09	53.304
604.42	54.455
604.76	53.947
605.09	54.385
605.42	54.743
605.75	54.506
606.09	54.379
606.42	53.917
606.75	53.800
607.09	54.433
607.42	54.445
607.75	54.481
608.08	54.767
608.42	55.109
608.75	54.860
609.08	54.847
609.41	55.456
609.75	54.071
610.08	55.588
610.41	54.940
610.74	54.497
611.07	54.970
611.41	54.261
611.74	54.910
612.07	55.854
612.40	54.478
612.73	54.873
613.07	55.421
613.40	55.720
613.73	55.095
614.06	54.695
614.39	55.919
614.72	55.475
615.06	55.815
615.39	53.717
615.72	55.242
616.05	54.611
616.38	54.730
616.71	55.135
617.05	55.911
617.38	55.913
617.71	55.651
618.04	56.149
618.37	55.472
618.70	57.627
619.03	56.398
619.36	56.237
619.69	56.784
620.03	55.716
620.36	56.329
620.69	55.564
621.02	55.175
621.35	57.258
621.68	56.148
622.01	57.282
622.34	56.056
622.67	55.625
623.00	57.077
623.33	57.761
623.66	56.647
623.99	56.466
624.32	57.366
624.65	56.806
624.99	56.161
625.32	55.689
625.65	57.964
625.98	55.477
626.31	57.178
626.64	56.569
626.97	56.250
627.30	56.000
627.63	55.959
627.96	56.571
628.29	57.077
628.62	57.784
628.95	57.874
629.28	55.075
629.61	57.017
629.94	56.333
630.26	58.449
630.59	59.196
630.92	59.760
631.25	57.762
631.58	56.720
631.91	56.064
632.24	59.000
632.57	58.222
632.90	57.816
633.23	57.360
633.56	56.023
633.89	58.608
634.22	59.504
634.55	59.736
634.88	57.316
635.20	58.926
635.53	58.270
635.86	58.690
636.19	57.631
636.52	56.631
636.85	57.280
637.18	58.375
637.51	58.736
637.83	58.455
638.16	58.684
638.49	58.897
638.82	57.658
639.15	59.792
639.48	57.458
639.81	60.719
640.13	57.973
640.46	58.974
640.79	57.143
641.12	59.661
641.45	59.684
641.77	59.132
642.10	58.761
642.43	59.181
642.76	58.268
643.09	57.778
643.41	59.841
643.74	59.777
644.07	58.190
644.40	60.130
644.73	59.571
645.05	59.265
645.38	60.099
645.71	61.684
646.04	61.681
646.36	60.035
646.69	60.208
647.02	62.094
647.35	60.289
647.67	60.401
648.00	59.754
648.33	62.395
648.66	57.258
648.98	58.917
649.31	60.308
649.64	60.000
649.96	58.242
650.29	58.361
650.62	60.069
650.94	59.359
651.27	59.792
651.60	60.035
651.92	58.904
652.25	57.429
652.58	58.944
652.90	57.945
653.23	59.032
653.56	56.689
653.88	58.689
654.21	61.577
654.54	58.638
654.86	58.587
655.19	56.160
655.52	55.707
655.84	54.609
656.17	58.293
656.49	78.596
656.82	80.885
657.15	60.482
657.47	44.611
657.80	34.575
658.13	39.145
658.45	52.641
658.78	51.421
659.10	51.631
659.43	50.490
659.75	50.000
660.08	50.885
660.41	50.986
660.73	54.455
661.06	57.101
661.38	61.607
661.71	59.465
662.03	59.879
662.36	58.635
662.68	58.439
663.01	63.057
663.33	63.946
663.66	62.661
663.98	60.938
664.31	61.074
664.63	61.504
664.96	60.304
665.28	61.388
665.61	58.774
665.93	59.053
666.26	57.287
666.58	58.004
666.91	61.024
667.23	61.184
667.56	60.317
667.88	63.575
668.21	61.060
668.53	61.449
668.86	63.048
669.18	60.959
669.50	60.514
669.83	60.584
670.15	57.848
670.48	62.150
670.80	57.859
671.13	61.174
671.45	57.432
671.77	59.315
672.10	57.396
672.42	54.982
672.75	56.364
673.07	57.297
673.39	59.381
673.72	60.630
674.04	59.873
674.37	58.557
674.69	59.836
675.01	58.936
675.34	56.616
675.66	57.019
675.98	59.692
676.31	60.407
676.63	63.448
676.95	57.080
677.28	60.789
677.60	59.276
677.92	60.573
678.25	60.394
678.57	59.465
678.89	57.233
679.22	60.587
679.54	57.791
679.86	58.600
680.18	59.696
680.51	55.680
680.83	57.714
681.15	55.106
681.48	62.069
681.80	58.669
682.12	59.155
682.44	56.974
682.77	55.411
683.09	61.006
683.41	59.071
683.73	57.991
684.06	53.548
684.38	57.741
684.70	60.700
685.02	54.528
685.34	58.480
685.67	57.386
685.99	56.900
686.31	57.630
686.63	55.496
686.96	54.344
687.28	53.950
687.60	55.859
687.92	56.615
688.24	56.496
688.56	56.513
688.89	56.197
689.21	58.862
689.53	60.460
689.85	59.688
690.17	58.296
690.49	60.277
690.82	57.590
691.14	56.132
691.46	56.319
691.78	59.031
692.10	59.746
692.42	56.444
692.74	57.082
693.06	57.079
693.39	57.718
693.71	56.885
694.03	58.315
694.35	56.885
694.67	55.792
694.99	52.685
695.31	56.633
695.63	56.888
695.95	57.816
696.27	57.107
696.59	58.824
696.91	61.236
697.23	56.510
697.56	59.135
697.88	55.631
698.20	56.745
698.52	55.605
698.84	59.223
699.16	54.048
699.48	55.250
699.80	56.642
700.12	56.675
700.44	54.190
700.76	63.265
701.08	57.267
701.40	56.798
701.72	58.333
702.04	63.462
702.36	56.928
702.68	60.479
703.00	59.130
703.32	57.307
703.64	63.824
703.96	59.302
704.28	54.438
704.60	58.861
704.91	52.698
705.23	60.194
705.55	57.432
705.87	55.973
706.19	54.514
706.51	54.167
706.83	59.016
707.15	58.280
707.47	59.504
707.79	53.866
708.11	55.980
708.43	56.110
708.74	53.247
709.06	58.217
709.38	60.345
709.70	57.187
710.02	57.055
710.34	56.766
710.66	54.603
710.98	59.937
711.29	57.742
711.61	55.911
711.93	54.426
712.25	60.797
712.57	54.355
712.89	61.511
713.20	57.732
713.52	58.582
713.84	55.872
714.16	56.393
714.48	55.873
714.80	56.615
715.11	56.484
715.43	56.325
715.75	57.009
716.07	58.689
716.39	57.860
716.70	55.749
717.02	57.037
717.34	53.817
717.66	61.826
717.97	59.426
718.29	57.563
718.61	60.714
718.93	51.971
719.24	52.941
719.56	55.849
719.88	57.818
720.20	57.303
720.51	60.526
720.83	59.839
721.15	57.377
721.46	60.392
721.78	48.659
722.10	56.400
722.42	54.959
722.73	55.777
723.05	57.430
723.37	61.569
723.68	53.036
724.00	60.976
724.32	60.494
724.63	53.112
724.95	58.264
725.27	56.579
725.58	56.034
725.90	53.175
726.22	55.720
726.53	60.076
726.85	52.941
727.16	56.015
727.48	54.615
727.80	56.557
728.11	56.723
728.43	59.091
728.74	56.250
729.06	53.788
729.38	53.307
729.69	53.937
730.01	59.843
730.32	56.972
730.64	54.212
730.96	61.194
731.27	54.643
731.59	54.662
731.90	55.215
732.22	51.840
732.53	57.616
732.85	52.013
733.16	55.797
733.48	58.537
733.80	51.601
734.11	53.793
734.43	55.102
734.74	57.270
735.06	54.859
735.37	55.657
735.69	50.000
736.00	55.219
736.32	54.967
736.63	49.310
736.95	55.072
737.26	55.298
737.58	52.878
737.89	57.706
738.21	55.639
738.52	56.923
738.83	55.859
739.15	58.974
739.46	58.065
739.78	58.042
740.09	56.643
740.41	55.245
740.72	55.109
741.04	52.381
741.35	51.082
741.66	57.407
741.98	46.667
742.29	52.582
742.61	60.963
742.92	60.280
743.23	55.263
743.55	55.405
743.86	60.444
744.18	56.190
744.49	61.084
744.80	61.929
745.12	61.340
745.43	58.291
745.74	59.709
746.06	56.098
746.37	57.269
746.68	54.229
747.00	64.921
747.31	56.250
747.62	57.604
747.94	55.022
748.25	57.674
748.56	55.238
748.88	50.543
749.19	54.460
749.50	64.216
749.82	54.667
750.13	59.031
750.44	51.626
750.75	58.800
751.07	56.429
751.38	54.244
751.69	55.344
752.01	58.462
752.32	50.973
752.63	55.385
752.94	57.143
753.26	56.957
753.57	52.232
753.88	51.724
754.19	48.548
754.51	51.953
754.82	54.545
755.13	59.259
755.44	54.132
755.75	56.790
756.07	51.807
756.38	56.250
756.69	53.791
757.00	51.568
757.31	53.691
757.63	54.206
757.94	51.156
758.25	54.070
758.56	54.987
758.87	50.852
759.18	52.333
759.50	53.737
759.81	48.540
760.12	51.351
760.43	60.518
760.74	59.688
761.05	48.315
761.36	52.695
761.67	55.621
761.99	53.226
762.30	54.710
762.61	53.208
762.92	56.054
763.23	58.294
763.54	49.778
763.85	56.540
764.16	56.327
764.47	55.932
764.78	52.809
765.10	54.676
765.41	54.839
765.72	52.830
766.03	48.763
766.34	55.639
766.65	52.227
766.96	52.500
767.27	49.479
767.58	59.302
767.89	52.258
768.20	55.828
768.51	52.459
768.82	57.838
769.13	50.000
769.44	52.193
769.75	54.545
770.06	54.128
770.37	48.357
770.68	54.687
770.99	52.475
771.30	53.883
771.61	52.315
771.92	46.753
772.23	53.738
772.54	54.255
772.85	51.479
773.16	52.439
773.47	59.036
773.78	54.945
774.09	56.000
774.39	61.111
774.70	59.060
775.01	51.449
775.32	45.522
775.63	50.413
775.94	54.135
776.25	50.000
776.56	54.918
776.87	51.327
777.18	59.292
777.48	49.091
777.79	51.304
778.10	51.376
778.41	45.763
778.72	52.066
779.03	53.731
779.34	51.128
779.65	43.137
779.95	59.420
780.26	46.939
780.57	50.000
780.88	57.407
781.19	51.515
781.50	51.200
781.80	43.791
782.11	51.923
782.42	50.602
782.73	48.175
783.04	45.946
783.34	52.273
783.65	42.636
783.96	63.415
784.27	58.974
784.57	43.902
784.88	40.650
785.19	44.737
785.50	49.485
785.81	49.524
786.11	48.039
786.42	40.000
786.73	55.856
787.04	66.337
787.34	50.476
787.65	36.190
787.96	53.922
788.26	57.658
788.57	52.419
788.88	51.563
789.19	50.427
789.49	41.176
789.80	58.974
790.11	43.363
790.41	46.465
790.72	51.887
791.03	40.278
791.33	38.158
791.64	55.914
791.95	50.667
792.25	50.000
792.56	41.463
792.87	43.878
793.17	55.263
793.48	31.081
793.79	39.437
794.09	48.101
794.40	46.809
794.70	55.140
795.01	49.123
795.32	45.455
795.62	45.536
795.93	40.206
796.23	53.846
796.54	57.895
796.85	49.315
797.15	36.111
797.46	34.247
797.76	52.113
798.07	48.750
798.37	57.353
798.68	57.143
798.99	35.714
799.29	47.368
799.60	50.000
799.90	41.667
800.21	51.563
800.51	53.968
800.82	42.623
801.12	43.860
801.43	42.254
801.73	38.983
802.04	52.459
802.34	49.091
802.65	61.538
802.95	40.741
803.26	47.500
803.56	71.154
803.87	60.526
804.17	58.065
804.48	52.308
804.78	76.923
805.09	62.791
805.39	37.500
805.70	13.208
806.00	70.175
806.30	47.297
806.61	57.353
806.91	55.556
807.22	49.333
807.52	46.269
807.83	40.323
808.13	39.683
808.43	38.182
808.74	51.515
809.04	58.491
809.35	46.575
809.65	50.877
809.95	52.941
810.26	50.980
810.56	38.000
810.86	38.776
811.17	45.714
811.47	46.154
811.77	80.645
812.08	23.684
812.38	52.381
812.69	26.087
812.99	64.516
813.29	35.714
813.59	44.444
813.90	42.553
814.20	25.581
814.50	54.167
814.81	35.000
815.11	58.537
815.41	30.000
815.72	54.286
816.02	11.111
816.32	58.974
816.62	43.243
816.93	14.706
817.23	21.739
817.53	35.294
817.84	76.471
818.14	28.125
818.44	13.793
818.74	64.516
819.04	70.370
819.35	20.000
819.65	24.000
819.95	40.000
820.25	32.000
820.56	23.684
820.86	35.000
821.16	44.681
821.46	43.103
821.76	38.462
822.07	42.500
822.37	34.884
822.67	3.333
822.97	24.324
823.27	45.946
823.57	72.000
823.88	27.027
824.18	4.762
824.48	38.462
824.78	7.692
825.08	47.826
825.38	20.833
825.69	0.000
825.99	-40.000
826.29	10.811
826.59	5.882
826.89	36.000
827.19	17.143
827.49	44.737
827.79	46.875
828.09	20.000
828.39	56.522
828.70	17.241
829.00	31.034
829.30	41.667
829.60	93.750
829.90	11.111
830.20	11.538
830.50	19.048
830.80	35.714
831.10	38.462
831.40	-9.524
831.70	35.294
832.00	79.167
832.30	0.000
832.60	25.000
832.90	-16.667
833.20	11.765
833.50	6.667
833.80	6.667
834.10	-10.000
834.40	41.667
834.70	55.556
835.00	23.077
835.30	33.333
835.60	55.172
835.90	11.111
836.20	-18.182
836.50	-41.667
836.80	28.571
837.10	57.143
837.40	5.882
837.70	-72.727
838.00	41.667
838.30	43.750
838.60	23.810
838.90	55.000
839.19	26.087
839.49	60.870
839.79	33.333
840.09	-4.348
840.39	0.000
840.69	-37.500
840.99	26.316
841.29	-75.000
841.59	42.857
841.88	33.333
842.18	12.500
842.48	-5.882
842.78	24.138
843.08	-28.571
843.38	-7.692
843.68	-66.667
843.97	23.077
844.27	9.091
844.57	-100.000
844.87	48.000
845.17	-80.000
845.47	0.000
845.76	-33.333
846.06	0.000
846.36	-125.000
846.66	-70.000
846.96	0.000
847.25	20.833
847.55	-58.333
847.85	60.000
848.15	-140.000
848.44	34.615
848.74	-5.263
849.04	266.667
849.34	-55.556
849.63	-15.789
849.93	0.000
850.23	-15.000
850.53	-14.286
850.82	32.000
851.12	15.789
851.42	100.000
851.71	71.429
852.01	-41.667
852.31	29.412
852.61	26.667
852.90	19.048
853.20	-150.000
853.50	16.667
853.79	-5.263
854.09	60.000
854.39	32.143
854.68	17.391
854.98	-91.667
855.28	58.621
855.57	-25.000
855.87	20.000
856.17	6.667
856.46	31.034
856.76	-6.667
857.05	-47.059
857.35	-23.077
857.65	0.000
857.94	-7.407
858.24	-21.429
858.53	-128.571
858.83	-25.000
859.13	-44.444
859.42	66.667
859.72	-12.500
860.01	-66.667
860.31	-62.500
860.60	-220.000
860.90	-155.556
861.20	-50.000
861.49	-171.429
861.79	11.765
862.08	-350.000
862.38	-133.333
862.67	-15.385
862.97	-5.882
863.26	20.000
863.56	-17.647
863.85	466.667
864.15	-30.000
864.44	15.385
864.74	15.000
865.03	-62.500
865.33	-66.667
865.62	-52.941
865.92	-700.000
866.21	-50.000
866.51	-133.333
866.80	500.000
867.10	-33.333
867.39	0.000
867.69	56.522
867.98	-57.143
868.27	-140.000
868.57	0.000
868.86	-72.727
869.16	0.000
869.45	-83.333
869.75	-42.857
870.04	1400.000
870.33	-25.000
870.63	240.000
870.92	11.111
871.22	-8.333
871.51	-45.455
871.80	50.000
872.10	10.000
>>>>>End Processed Spectral Data<<<<<
