SpectraSuite Data File
++++++++++++++++++++++++++++++++++++
Date: Sat May 16 11:43:46 PDT 2015
User: schluterlab
Dark Spectrum Present: Yes
Reference Spectrum Present: Yes
Number of Sampled Component Spectra: 1
Spectrometers: USB2E3373
Integration Time (usec): 3000 (USB2E3373)
Spectra Averaged: 3 (USB2E3373)
Boxcar Smoothing: 0 (USB2E3373)
Correct for Electrical Dark: No (USB2E3373)
Strobe/Lamp Enabled: No (USB2E3373)
Correct for Detector Non-linearity: No (USB2E3373)
Correct for Stray Light: No (USB2E3373)
Number of Pixels in Processed Spectrum: 2048
>>>>>Begin Processed Spectral Data<<<<<
178.53	0.000
178.91	93.333
179.29	433.333
179.67	-1300.000
180.04	-15.385
180.42	1600.000
180.80	450.000
181.18	325.000
181.56	-87.500
181.94	2600.000
182.31	250.000
182.69	-53.846
183.07	-700.000
183.45	1650.000
183.83	366.667
184.20	-214.286
184.58	-250.000
184.96	-325.000
185.34	112.500
185.72	-500.000
186.09	266.667
186.47	-262.500
186.85	-175.000
187.23	-112.500
187.61	-50.000
187.98	-350.000
188.36	-175.000
188.74	-225.000
189.12	2100.000
189.49	314.286
189.87	-100.000
190.25	300.000
190.63	-64.286
191.00	-166.667
191.38	340.000
191.76	13.333
192.14	480.000
192.51	-300.000
192.89	-133.333
193.27	0.000
193.65	-133.333
194.02	-100.000
194.40	700.000
194.78	-70.000
195.15	-700.000
195.53	-45.455
195.91	-633.333
196.29	300.000
196.66	-533.333
197.04	2300.000
197.42	-200.000
197.79	-20.000
198.17	-333.333
198.55	-500.000
198.92	-1300.000
199.30	225.000
199.68	-800.000
200.05	-188.889
200.43	-288.889
200.81	-1900.000
201.18	-158.333
201.56	328.571
201.94	-80.000
202.31	4.545
202.69	-10.000
203.07	-110.000
203.44	433.333
203.82	-316.667
204.19	-525.000
204.57	-425.000
204.95	-700.000
205.32	-56.250
205.70	1100.000
206.08	-1900.000
206.45	-83.333
206.83	-750.000
207.20	-150.000
207.58	-533.333
207.96	-166.667
208.33	-175.000
208.71	-77.778
209.08	260.000
209.46	-271.429
209.84	700.000
210.21	0.000
210.59	15.000
210.96	1100.000
211.34	-83.333
211.71	-266.667
212.09	550.000
212.46	1100.000
212.84	-3300.000
213.22	666.667
213.59	208.333
213.97	-77.778
214.34	140.000
214.72	-120.000
215.09	-333.333
215.47	-350.000
215.84	-30.000
216.22	-80.000
216.59	-26.667
216.97	-550.000
217.34	750.000
217.72	-157.143
218.09	-466.667
218.47	-285.714
218.84	114.286
219.22	-42.857
219.59	0.000
219.97	257.143
220.34	550.000
220.72	212.500
221.09	-84.615
221.47	0.000
221.84	500.000
222.22	-500.000
222.59	900.000
222.97	-187.500
223.34	-300.000
223.72	-466.667
224.09	-85.714
224.46	-225.000
224.84	-50.000
225.21	-157.143
225.59	-63.636
225.96	-125.000
226.34	42.857
226.71	-77.778
227.08	-30.000
227.46	2200.000
227.83	-300.000
228.21	-87.500
228.58	150.000
228.95	-43.750
229.33	-900.000
229.70	-340.000
230.08	-1150.000
230.45	-100.000
230.82	-216.667
231.20	-1800.000
231.57	-750.000
231.95	1600.000
232.32	-28.571
232.69	-277.778
233.07	-228.571
233.44	-1350.000
233.81	-73.333
234.19	-177.778
234.56	-62.500
234.93	-9.375
235.31	-114.286
235.68	-157.143
236.05	-88.235
236.43	-72.727
236.80	-6.452
237.17	-41.667
237.55	-42.857
237.92	-109.091
238.29	-8.571
238.67	0.000
239.04	-27.778
239.41	-45.161
239.79	-41.026
240.16	-50.000
240.53	-14.545
240.91	-30.769
241.28	-9.091
241.65	6.154
242.02	-26.230
242.40	-18.033
242.77	-10.606
243.14	-10.169
243.51	-21.429
243.89	-13.924
244.26	-13.483
244.63	3.158
245.00	-16.842
245.38	-3.390
245.75	-0.885
246.12	0.000
246.49	-3.937
246.87	-6.504
247.24	-11.864
247.61	-16.102
247.98	-7.042
248.36	-5.594
248.73	2.532
249.10	-7.006
249.47	2.339
249.84	-3.409
250.22	-3.571
250.59	2.260
250.96	1.047
251.33	1.422
251.70	0.000
252.08	1.896
252.45	-3.791
252.82	0.000
253.19	8.085
253.56	-2.419
253.94	3.797
254.31	-1.288
254.68	0.813
255.05	0.403
255.42	0.397
255.79	0.000
256.16	0.000
256.54	4.412
256.91	1.515
257.28	-4.762
257.65	0.355
258.02	5.660
258.39	0.000
258.76	0.676
259.14	2.778
259.51	3.607
259.88	2.134
260.25	3.727
260.62	-3.215
260.99	0.890
261.36	1.524
261.73	5.780
262.10	4.167
262.47	1.140
262.85	2.286
263.22	1.146
263.59	-2.769
263.96	0.290
264.33	4.336
264.70	3.591
265.07	0.275
265.44	4.651
265.81	3.359
266.18	2.025
266.55	5.392
266.92	2.519
267.29	1.695
267.66	3.210
268.03	4.589
268.40	0.000
268.77	1.687
269.14	2.552
269.51	4.368
269.88	1.147
270.25	-0.699
270.62	3.890
270.99	1.577
271.36	1.399
271.73	4.260
272.10	2.517
272.47	2.000
272.84	3.333
273.21	2.523
273.58	1.978
273.95	2.632
274.32	2.036
274.69	3.282
275.06	2.863
275.43	1.339
275.80	3.462
276.17	4.603
276.54	1.833
276.91	1.440
277.28	2.434
277.65	3.306
278.02	2.923
278.39	2.554
278.76	2.191
279.13	3.162
279.50	2.783
279.87	1.057
280.23	1.619
280.60	3.181
280.97	2.913
281.34	1.354
281.71	4.423
282.08	1.210
282.45	1.426
282.82	0.581
283.19	2.727
283.56	4.762
283.92	3.357
284.29	1.487
284.66	2.698
285.03	4.635
285.40	4.613
285.77	5.263
286.14	4.152
286.51	3.552
286.87	4.537
287.24	2.730
287.61	5.289
287.98	3.120
288.35	1.653
288.72	3.565
289.08	1.864
289.45	5.051
289.82	2.076
290.19	5.090
290.56	3.636
290.93	4.134
291.29	1.621
291.66	3.060
292.03	6.122
292.40	4.970
292.77	4.348
293.13	3.415
293.50	3.566
293.87	4.448
294.24	4.223
294.60	2.879
294.97	4.097
295.34	2.963
295.71	3.125
296.08	1.536
296.44	3.290
296.81	4.416
297.18	4.930
297.55	5.791
297.91	4.324
298.28	4.795
298.65	3.626
299.02	4.278
299.38	4.947
299.75	2.582
300.12	3.846
300.48	5.243
300.85	4.063
301.22	3.105
301.59	3.121
301.95	5.038
302.32	4.563
302.69	4.774
303.05	4.640
303.42	3.125
303.79	4.665
304.15	6.161
304.52	5.251
304.89	4.014
305.25	5.006
305.62	6.228
305.99	6.360
306.35	5.993
306.72	5.467
307.09	4.881
307.45	6.129
307.82	5.363
308.19	7.047
308.55	6.209
308.92	4.296
309.29	6.054
309.65	5.726
310.02	6.371
310.38	4.649
310.75	6.865
311.12	6.818
311.48	6.576
311.85	5.561
312.22	7.827
312.58	6.816
312.95	8.257
313.31	7.193
313.68	8.945
314.05	7.814
314.41	7.445
314.78	8.292
315.14	8.193
315.51	7.700
315.87	8.035
316.24	8.163
316.61	9.021
316.97	8.955
317.34	7.996
317.70	9.740
318.07	9.981
318.43	8.708
318.80	10.610
319.16	8.537
319.53	8.929
319.89	10.254
320.26	10.980
320.62	9.519
320.99	10.945
321.35	9.852
321.72	9.826
322.08	10.682
322.45	10.891
322.81	11.720
323.18	12.392
323.54	13.309
323.91	12.697
324.27	13.213
324.64	11.974
325.00	14.747
325.37	14.751
325.73	15.661
326.10	14.880
326.46	16.375
326.83	15.660
327.19	16.347
327.56	18.228
327.92	18.607
328.29	19.307
328.65	17.364
329.01	19.523
329.38	18.733
329.74	21.062
330.11	20.580
330.47	21.798
330.84	22.456
331.20	21.480
331.56	21.787
331.93	21.847
332.29	23.379
332.66	23.266
333.02	22.443
333.38	23.566
333.75	24.310
334.11	24.444
334.48	23.919
334.84	24.497
335.20	25.266
335.57	25.090
335.93	25.783
336.29	25.244
336.66	24.581
337.02	24.865
337.38	26.649
337.75	25.373
338.11	26.476
338.47	24.466
338.84	25.953
339.20	25.220
339.56	25.936
339.93	25.838
340.29	25.509
340.65	25.437
341.02	25.379
341.38	25.779
341.74	27.265
342.11	26.621
342.47	26.180
342.83	24.433
343.20	25.619
343.56	24.571
343.92	26.210
344.28	27.839
344.65	25.743
345.01	26.303
345.37	26.993
345.73	24.877
346.10	24.775
346.46	25.995
346.82	25.100
347.19	26.787
347.55	25.281
347.91	26.772
348.27	26.173
348.63	26.010
349.00	26.412
349.36	23.497
349.72	26.513
350.08	25.662
350.45	24.901
350.81	26.433
351.17	26.206
351.53	24.741
351.89	25.707
352.26	25.659
352.62	26.575
352.98	24.921
353.34	25.659
353.70	24.479
354.07	25.570
354.43	26.640
354.79	26.307
355.15	26.038
355.51	25.859
355.87	24.348
356.24	24.940
356.60	26.753
356.96	25.866
357.32	26.445
357.68	25.211
358.04	26.405
358.40	24.517
358.77	25.966
359.13	26.167
359.49	26.153
359.85	25.381
360.21	25.419
360.57	27.033
360.93	26.148
361.29	26.756
361.66	25.229
362.02	26.331
362.38	25.972
362.74	27.033
363.10	26.040
363.46	26.567
363.82	26.822
364.18	25.687
364.54	27.448
364.90	26.345
365.26	26.391
365.62	27.584
365.98	27.169
366.35	27.042
366.71	26.427
367.07	26.606
367.43	28.346
367.79	26.942
368.15	26.529
368.51	26.993
368.87	27.198
369.23	27.228
369.59	26.458
369.95	27.202
370.31	26.793
370.67	26.753
371.03	27.697
371.39	26.521
371.75	28.398
372.11	27.762
372.47	27.693
372.83	28.164
373.19	28.643
373.55	27.375
373.91	28.165
374.27	27.173
374.63	28.709
374.99	28.651
375.35	27.456
375.71	28.629
376.07	27.515
376.42	26.821
376.78	28.562
377.14	29.017
377.50	29.078
377.86	28.283
378.22	28.580
378.58	28.598
378.94	28.977
379.30	28.885
379.66	29.265
380.02	27.926
380.38	29.003
380.74	27.667
381.09	28.764
381.45	28.998
381.81	28.554
382.17	29.135
382.53	28.936
382.89	29.605
383.25	30.885
383.61	29.009
383.97	29.761
384.32	30.413
384.68	29.444
385.04	29.831
385.40	30.310
385.76	31.280
386.12	29.419
386.48	30.446
386.83	30.798
387.19	30.424
387.55	29.982
387.91	30.468
388.27	29.493
388.62	30.469
388.98	30.830
389.34	31.089
389.70	30.146
390.06	30.516
390.42	30.897
390.77	30.662
391.13	31.615
391.49	31.067
391.85	30.673
392.20	29.854
392.56	29.994
392.92	30.120
393.28	30.941
393.64	30.667
393.99	31.446
394.35	29.745
394.71	30.636
395.07	29.755
395.42	30.870
395.78	29.981
396.14	31.713
396.50	31.131
396.85	30.475
397.21	31.288
397.57	30.760
397.92	31.557
398.28	32.167
398.64	31.648
399.00	31.629
399.35	31.003
399.71	30.604
400.07	32.119
400.42	31.083
400.78	30.411
401.14	30.060
401.49	31.191
401.85	30.567
402.21	31.585
402.57	31.311
402.92	31.089
403.28	31.801
403.63	30.797
403.99	31.448
404.35	30.978
404.70	30.720
405.06	31.257
405.42	30.996
405.77	30.204
406.13	30.721
406.49	32.055
406.84	30.714
407.20	31.625
407.55	31.349
407.91	29.793
408.27	31.373
408.62	30.968
408.98	31.049
409.34	30.713
409.69	30.624
410.05	31.352
410.40	30.901
410.76	31.298
411.11	32.357
411.47	31.458
411.83	31.907
412.18	31.064
412.54	31.483
412.89	32.017
413.25	30.047
413.60	29.891
413.96	31.054
414.31	31.865
414.67	31.365
415.03	30.595
415.38	32.661
415.74	32.281
416.09	31.202
416.45	29.960
416.80	31.404
417.16	30.963
417.51	32.305
417.87	31.133
418.22	30.531
418.58	31.707
418.93	32.679
419.29	31.619
419.64	31.847
420.00	32.807
420.35	31.638
420.71	31.933
421.06	31.775
421.42	31.440
421.77	32.942
422.12	31.897
422.48	32.282
422.83	31.834
423.19	31.737
423.54	33.026
423.90	31.637
424.25	32.692
424.61	33.595
424.96	33.177
425.31	32.364
425.67	32.722
426.02	32.530
426.38	32.789
426.73	32.379
427.09	32.047
427.44	32.670
427.79	33.140
428.15	34.051
428.50	35.015
428.85	32.734
429.21	32.983
429.56	33.281
429.92	32.816
430.27	34.197
430.62	34.065
430.98	33.298
431.33	33.458
431.68	34.155
432.04	33.296
432.39	34.074
432.74	33.273
433.10	33.934
433.45	34.773
433.80	34.099
434.16	34.551
434.51	34.466
434.86	34.271
435.22	33.630
435.57	33.537
435.92	34.349
436.28	34.837
436.63	34.370
436.98	34.192
437.34	34.495
437.69	34.772
438.04	34.033
438.39	35.499
438.75	34.342
439.10	34.536
439.45	35.486
439.81	34.819
440.16	34.696
440.51	35.353
440.86	35.512
441.22	34.549
441.57	35.579
441.92	35.141
442.27	35.390
442.63	35.354
442.98	34.086
443.33	35.914
443.68	35.852
444.03	35.560
444.39	35.389
444.74	35.352
445.09	35.033
445.44	35.903
445.79	36.563
446.15	35.104
446.50	35.547
446.85	35.403
447.20	35.802
447.55	36.519
447.91	36.047
448.26	35.419
448.61	36.050
448.96	37.647
449.31	36.302
449.66	36.062
450.02	35.180
450.37	35.884
450.72	36.158
451.07	36.832
451.42	35.316
451.77	37.702
452.12	37.068
452.47	37.343
452.83	36.692
453.18	37.508
453.53	37.438
453.88	37.321
454.23	37.304
454.58	37.912
454.93	37.343
455.28	37.667
455.63	37.162
455.98	37.892
456.34	36.595
456.69	37.899
457.04	36.693
457.39	37.620
457.74	37.448
458.09	37.181
458.44	37.875
458.79	38.453
459.14	38.049
459.49	38.011
459.84	37.605
460.19	37.589
460.54	38.052
460.89	37.892
461.24	37.341
461.59	37.749
461.94	38.447
462.29	38.058
462.64	39.196
462.99	38.487
463.34	38.488
463.69	38.486
464.04	37.610
464.39	38.112
464.74	38.239
465.09	36.801
465.44	37.902
465.79	39.425
466.14	39.701
466.49	37.651
466.84	38.295
467.19	38.716
467.54	37.658
467.89	39.519
468.24	38.717
468.59	39.600
468.94	38.714
469.29	38.077
469.64	39.488
469.99	39.568
470.34	39.880
470.68	39.898
471.03	39.986
471.38	39.861
471.73	40.210
472.08	40.830
472.43	39.833
472.78	39.200
473.13	38.767
473.48	39.821
473.83	40.447
474.17	40.255
474.52	40.409
474.87	38.636
475.22	39.882
475.57	38.556
475.92	39.957
476.27	40.457
476.61	39.662
476.96	39.631
477.31	40.043
477.66	40.232
478.01	40.357
478.36	39.497
478.70	40.630
479.05	40.022
479.40	40.052
479.75	40.520
480.10	39.931
480.45	39.265
480.79	40.474
481.14	41.244
481.49	41.384
481.84	40.129
482.19	40.247
482.53	41.193
482.88	40.532
483.23	40.282
483.58	40.934
483.92	41.280
484.27	39.743
484.62	39.698
484.97	39.634
485.31	38.976
485.66	38.423
486.01	39.173
486.36	39.663
486.70	40.509
487.05	39.528
487.40	40.118
487.75	39.585
488.09	39.314
488.44	39.716
488.79	40.149
489.13	40.243
489.48	41.599
489.83	41.092
490.17	41.620
490.52	42.029
490.87	41.155
491.22	41.569
491.56	41.204
491.91	42.319
492.26	41.887
492.60	41.484
492.95	41.218
493.30	41.734
493.64	41.561
493.99	41.491
494.34	41.381
494.68	42.556
495.03	41.396
495.37	42.330
495.72	41.798
496.07	42.234
496.41	42.890
496.76	42.283
497.11	42.299
497.45	42.912
497.80	43.472
498.14	42.583
498.49	42.240
498.84	42.087
499.18	42.641
499.53	42.815
499.87	41.988
500.22	42.500
500.56	43.122
500.91	42.906
501.26	42.698
501.60	41.984
501.95	43.527
502.29	43.033
502.64	43.329
502.98	42.022
503.33	42.528
503.67	43.008
504.02	43.312
504.36	43.186
504.71	42.249
505.06	42.237
505.40	43.463
505.75	42.734
506.09	43.175
506.44	44.060
506.78	43.603
507.13	43.306
507.47	44.079
507.82	43.986
508.16	43.782
508.51	43.689
508.85	44.410
509.19	44.898
509.54	43.658
509.88	44.202
510.23	44.025
510.57	44.974
510.92	45.274
511.26	43.966
511.61	44.654
511.95	43.750
512.30	44.530
512.64	44.407
512.98	44.829
513.33	44.316
513.67	44.221
514.02	44.072
514.36	45.374
514.70	44.482
515.05	44.940
515.39	45.790
515.74	45.259
516.08	45.476
516.42	44.646
516.77	45.985
517.11	45.595
517.46	45.754
517.80	46.691
518.14	47.585
518.49	45.846
518.83	45.638
519.17	46.004
519.52	44.939
519.86	46.476
520.20	46.822
520.55	46.585
520.89	45.648
521.23	47.009
521.58	47.022
521.92	46.168
522.26	47.492
522.61	46.198
522.95	46.713
523.29	46.332
523.64	45.597
523.98	47.613
524.32	46.574
524.66	45.404
525.01	47.270
525.35	47.552
525.69	47.690
526.04	47.063
526.38	47.295
526.72	46.296
527.06	47.852
527.41	47.459
527.75	46.337
528.09	48.114
528.43	46.557
528.78	45.666
529.12	47.759
529.46	46.714
529.80	47.902
530.15	47.328
530.49	46.766
530.83	48.003
531.17	47.071
531.51	46.685
531.86	48.124
532.20	47.706
532.54	48.596
532.88	47.431
533.22	48.596
533.57	47.520
533.91	46.317
534.25	45.317
534.59	47.220
534.93	46.609
535.27	47.640
535.62	47.634
535.96	46.218
536.30	46.073
536.64	47.012
536.98	48.023
537.32	46.856
537.66	47.726
538.01	46.598
538.35	48.446
538.69	46.791
539.03	48.409
539.37	46.574
539.71	47.899
540.05	47.567
540.39	48.615
540.73	47.478
541.07	48.566
541.42	46.860
541.76	46.379
542.10	47.468
542.44	45.969
542.78	47.354
543.12	47.658
543.46	46.301
543.80	46.221
544.14	47.079
544.48	47.244
544.82	46.617
545.16	45.674
545.50	46.164
545.84	47.705
546.18	47.295
546.52	47.511
546.86	46.866
547.20	48.805
547.54	46.763
547.88	47.578
548.22	45.020
548.56	47.295
548.90	46.968
549.24	46.041
549.58	46.789
549.92	47.208
550.26	48.410
550.60	45.875
550.94	47.664
551.28	47.780
551.62	45.938
551.96	46.816
552.30	45.993
552.64	45.954
552.98	46.882
553.32	46.609
553.66	47.657
554.00	47.406
554.34	46.209
554.68	47.880
555.02	47.395
555.36	46.370
555.69	46.848
556.03	45.684
556.37	46.942
556.71	46.815
557.05	46.933
557.39	47.439
557.73	46.535
558.07	47.626
558.41	45.251
558.75	46.388
559.08	45.992
559.42	46.784
559.76	47.699
560.10	46.383
560.44	46.965
560.78	45.442
561.12	46.032
561.45	46.301
561.79	46.760
562.13	46.844
562.47	45.658
562.81	44.979
563.15	46.186
563.48	45.473
563.82	46.180
564.16	45.774
564.50	45.565
564.84	45.767
565.17	44.894
565.51	45.176
565.85	47.397
566.19	46.443
566.52	46.314
566.86	45.259
567.20	46.489
567.54	46.722
567.88	43.719
568.21	45.022
568.55	44.963
568.89	44.384
569.23	43.452
569.56	42.917
569.90	43.116
570.24	43.555
570.57	41.793
570.91	41.755
571.25	41.634
571.59	42.117
571.92	41.101
572.26	41.642
572.60	40.987
572.93	41.530
573.27	40.671
573.61	40.723
573.95	41.112
574.28	40.653
574.62	40.849
574.96	40.753
575.29	40.447
575.63	40.297
575.97	40.183
576.30	41.052
576.64	40.757
576.98	39.463
577.31	40.882
577.65	40.215
577.98	39.859
578.32	40.286
578.66	39.973
578.99	40.721
579.33	40.794
579.67	39.767
580.00	39.360
580.34	40.509
580.67	40.010
581.01	39.008
581.35	39.933
581.68	39.408
582.02	39.251
582.35	40.019
582.69	40.451
583.02	40.782
583.36	40.181
583.70	40.374
584.03	40.975
584.37	40.298
584.70	40.788
585.04	39.924
585.37	39.570
585.71	39.816
586.04	40.071
586.38	39.722
586.72	40.135
587.05	40.640
587.39	39.989
587.72	40.138
588.06	40.550
588.39	40.558
588.73	39.710
589.06	40.313
589.40	41.051
589.73	40.864
590.07	40.896
590.40	40.443
590.73	41.144
591.07	41.434
591.40	42.591
591.74	41.964
592.07	40.991
592.41	41.783
592.74	41.276
593.08	41.057
593.41	40.164
593.75	39.927
594.08	41.912
594.41	40.961
594.75	41.336
595.08	41.053
595.42	40.751
595.75	40.426
596.09	40.473
596.42	41.571
596.75	40.448
597.09	41.407
597.42	41.161
597.75	41.010
598.09	41.211
598.42	41.052
598.76	40.864
599.09	40.963
599.42	40.408
599.76	40.355
600.09	40.763
600.42	40.600
600.76	40.942
601.09	40.486
601.42	40.602
601.76	40.771
602.09	40.859
602.42	40.741
602.76	40.341
603.09	40.685
603.42	40.290
603.76	41.005
604.09	40.449
604.42	40.383
604.76	40.820
605.09	41.049
605.42	41.578
605.75	41.354
606.09	40.100
606.42	40.972
606.75	39.760
607.09	40.450
607.42	41.065
607.75	40.971
608.08	40.804
608.42	41.012
608.75	40.794
609.08	40.136
609.41	41.256
609.75	40.127
610.08	41.029
610.41	41.542
610.74	41.441
611.07	41.937
611.41	39.788
611.74	41.697
612.07	42.374
612.40	41.365
612.73	41.626
613.07	42.157
613.40	42.365
613.73	41.199
614.06	41.131
614.39	42.108
614.72	40.391
615.06	41.522
615.39	40.423
615.72	41.391
616.05	41.027
616.38	41.381
616.71	41.862
617.05	42.943
617.38	42.415
617.71	42.383
618.04	41.801
618.37	42.013
618.70	42.894
619.03	42.248
619.36	43.199
619.69	42.498
620.03	41.873
620.36	43.108
620.69	42.929
621.02	42.390
621.35	44.435
621.68	43.770
622.01	42.557
622.34	44.022
622.67	44.375
623.00	43.458
623.33	43.358
623.66	42.762
623.99	43.308
624.32	42.932
624.65	42.311
624.99	42.942
625.32	41.467
625.65	43.434
625.98	42.019
626.31	43.638
626.64	42.510
626.97	43.408
627.30	43.915
627.63	43.351
627.96	44.560
628.29	44.761
628.62	43.171
628.95	43.701
629.28	43.891
629.61	44.161
629.94	44.896
630.26	45.825
630.59	46.432
630.92	43.844
631.25	44.254
631.58	45.608
631.91	44.574
632.24	45.556
632.57	46.444
632.90	46.782
633.23	45.678
633.56	45.731
633.89	44.575
634.22	45.455
634.55	47.596
634.88	46.312
635.20	46.317
635.53	46.310
635.86	47.229
636.19	45.421
636.52	43.728
636.85	46.450
637.18	43.625
637.51	47.336
637.83	47.403
638.16	46.447
638.49	45.793
638.82	45.045
639.15	47.860
639.48	44.747
639.81	47.580
640.13	44.865
640.46	48.291
640.79	45.658
641.12	44.993
641.45	47.059
641.77	49.251
642.10	45.317
642.43	45.524
642.76	45.984
643.09	48.254
643.41	47.302
643.74	48.967
644.07	46.490
644.40	47.650
644.73	47.030
645.05	47.746
645.38	48.510
645.71	50.859
646.04	48.739
646.36	46.597
646.69	47.751
647.02	50.000
647.35	50.361
647.67	46.350
648.00	46.924
648.33	49.241
648.66	44.516
648.98	45.064
649.31	46.308
649.64	46.875
649.96	44.741
650.29	45.410
650.62	47.160
650.94	44.857
651.27	46.101
651.60	43.772
651.92	47.774
652.25	47.078
652.58	46.848
652.90	45.425
653.23	44.839
653.56	44.649
653.88	44.590
654.21	46.644
654.54	46.844
654.86	45.907
655.19	44.413
655.52	41.799
655.84	37.826
656.17	40.233
656.49	54.623
656.82	56.043
657.15	42.357
657.47	31.744
657.80	24.523
658.13	27.683
658.45	37.344
658.78	36.863
659.10	36.687
659.43	35.732
659.75	37.097
660.08	37.135
660.41	37.838
660.73	37.734
661.06	43.768
661.38	46.429
661.71	46.080
662.03	47.984
662.36	49.041
662.68	48.523
663.01	49.257
663.33	47.619
663.66	46.996
663.98	48.437
664.31	46.980
664.63	49.558
664.96	45.553
665.28	47.722
665.61	46.089
665.93	47.531
666.26	45.142
666.58	48.233
666.91	46.548
667.23	47.149
667.56	46.712
667.88	50.905
668.21	47.696
668.53	50.234
668.86	51.501
669.18	44.749
669.50	46.963
669.83	48.905
670.15	46.637
670.48	48.832
670.80	45.103
671.13	45.147
671.45	45.045
671.77	44.754
672.10	46.351
672.42	45.018
672.75	43.273
673.07	41.261
673.39	44.627
673.72	45.472
674.04	47.134
674.37	46.598
674.69	46.107
675.01	47.021
675.34	45.987
675.66	45.788
675.98	46.256
676.31	48.190
676.63	45.747
676.95	45.796
677.28	47.100
677.60	47.738
677.92	48.238
678.25	47.702
678.57	45.267
678.89	44.444
679.22	45.912
679.54	46.746
679.86	45.800
680.18	43.536
680.51	45.438
680.83	43.238
681.15	45.472
681.48	45.639
681.80	45.363
682.12	43.058
682.44	44.008
682.77	42.857
683.09	44.654
683.41	45.796
683.73	43.607
684.06	44.516
684.38	43.724
684.70	45.679
685.02	45.472
685.34	45.419
685.67	42.614
685.99	43.667
686.31	42.908
686.63	42.021
686.96	42.699
687.28	43.931
687.60	43.945
687.92	42.607
688.24	44.882
688.56	45.090
688.89	42.094
689.21	43.982
689.53	45.287
689.85	44.989
690.17	42.825
690.49	45.266
690.82	41.687
691.14	44.104
691.46	45.011
691.78	47.357
692.10	44.492
692.42	45.111
692.74	44.421
693.06	44.494
693.39	45.414
693.71	43.341
694.03	42.765
694.35	41.986
694.67	44.917
694.99	40.153
695.31	42.602
695.63	41.582
695.95	43.672
696.27	44.638
696.59	45.187
696.91	44.101
697.23	43.229
697.56	42.067
697.88	41.667
698.20	41.970
698.52	43.498
698.84	45.146
699.16	40.238
699.48	41.750
699.80	45.113
700.12	44.584
700.44	39.385
700.76	41.691
701.08	43.023
701.40	44.411
701.72	46.605
702.04	50.321
702.36	46.988
702.68	43.413
703.00	43.478
703.32	40.688
703.64	47.353
703.96	43.314
704.28	44.675
704.60	41.139
704.91	40.952
705.23	46.926
705.55	44.257
705.87	46.758
706.19	41.319
706.51	43.403
706.83	43.934
707.15	46.497
707.47	46.832
707.79	41.495
708.11	37.913
708.43	39.900
708.74	41.818
709.06	43.175
709.38	39.655
709.70	43.750
710.02	46.319
710.34	38.614
710.66	44.127
710.98	44.164
711.29	39.355
711.61	44.089
711.93	43.607
712.25	46.512
712.57	42.857
712.89	44.245
713.20	43.986
713.52	44.403
713.84	45.907
714.16	40.984
714.48	40.952
714.80	44.000
715.11	44.092
715.43	43.976
715.75	45.483
716.07	42.623
716.39	44.147
716.70	44.599
717.02	41.481
717.34	42.748
717.66	48.548
717.97	34.016
718.29	44.538
718.61	46.032
718.93	43.369
719.24	36.765
719.56	37.358
719.88	43.273
720.20	43.820
720.51	43.985
720.83	42.972
721.15	45.492
721.46	40.784
721.78	40.996
722.10	44.000
722.42	42.149
722.73	37.849
723.05	41.767
723.37	43.529
723.68	39.676
724.00	44.715
724.32	39.918
724.63	36.929
724.95	49.587
725.27	42.105
725.58	43.534
725.90	39.683
726.22	43.911
726.53	44.106
726.85	43.529
727.16	38.346
727.48	39.615
727.80	39.754
728.11	42.857
728.43	45.041
728.74	49.219
729.06	40.909
729.38	39.689
729.69	38.976
730.01	45.276
730.32	40.637
730.64	42.125
730.96	45.522
731.27	35.357
731.59	39.228
731.90	33.742
732.22	40.491
732.53	42.053
732.85	37.248
733.16	42.754
733.48	39.024
733.80	38.078
734.11	37.586
734.43	42.857
734.74	37.685
735.06	37.931
735.37	36.697
735.69	34.516
736.00	32.660
736.32	40.397
736.63	34.483
736.95	36.957
737.26	45.364
737.58	35.252
737.89	42.294
738.21	36.466
738.52	42.308
738.83	35.937
739.15	44.444
739.46	44.758
739.78	39.510
740.09	32.168
740.41	39.161
740.72	41.606
741.04	35.714
741.35	38.961
741.66	42.130
741.98	33.810
742.29	44.131
742.61	47.059
742.92	43.925
743.23	39.474
743.55	36.036
743.86	45.333
744.18	40.000
744.49	40.887
744.80	45.685
745.12	44.330
745.43	41.206
745.74	45.146
746.06	37.073
746.37	37.885
746.68	44.776
747.00	45.550
747.31	41.346
747.62	41.475
747.94	42.795
748.25	46.512
748.56	38.095
748.88	39.674
749.19	40.845
749.50	46.569
749.82	35.111
750.13	45.815
750.44	37.805
750.75	39.600
751.07	41.071
751.38	39.114
751.69	35.878
752.01	40.769
752.32	34.241
752.63	35.385
752.94	41.270
753.26	43.478
753.57	40.179
753.88	35.776
754.19	34.855
754.51	38.672
754.82	35.968
755.13	41.564
755.44	44.628
755.75	39.918
756.07	34.538
756.38	39.062
756.69	44.765
757.00	35.540
757.31	39.933
757.63	41.433
757.94	38.150
758.25	36.047
758.56	42.049
758.87	38.352
759.18	35.333
759.50	39.146
759.81	36.131
760.12	34.122
760.43	43.366
760.74	37.187
761.05	38.202
761.36	34.731
761.67	37.278
761.99	35.806
762.30	40.217
762.61	36.604
762.92	42.601
763.23	44.550
763.54	40.444
763.85	40.506
764.16	40.000
764.47	45.763
764.78	37.828
765.10	41.007
765.41	36.774
765.72	38.679
766.03	32.509
766.34	33.083
766.65	35.223
766.96	35.500
767.27	38.542
767.58	43.605
767.89	32.903
768.20	34.969
768.51	35.519
768.82	36.216
769.13	35.500
769.44	38.158
769.75	38.528
770.06	35.780
770.37	38.498
770.68	38.021
770.99	38.614
771.30	39.806
771.61	41.667
771.92	31.169
772.23	38.785
772.54	34.043
772.85	34.320
773.16	37.195
773.47	45.783
773.78	41.209
774.09	34.000
774.39	41.975
774.70	36.913
775.01	31.884
775.32	38.060
775.63	29.752
775.94	35.338
776.25	37.143
776.56	45.902
776.87	38.053
777.18	40.708
777.48	29.091
777.79	35.652
778.10	31.193
778.41	31.356
778.72	42.975
779.03	35.075
779.34	36.842
779.65	43.137
779.95	39.855
780.26	26.531
780.57	34.483
780.88	35.185
781.19	39.394
781.50	24.800
781.80	29.412
782.11	32.051
782.42	36.145
782.73	26.277
783.04	30.405
783.34	29.545
783.65	31.008
783.96	40.650
784.27	41.026
784.57	40.650
784.88	30.894
785.19	32.456
785.50	10.309
785.81	40.000
786.11	28.431
786.42	40.000
786.73	35.135
787.04	36.634
787.34	16.190
787.65	25.714
787.96	19.608
788.26	37.838
788.57	41.935
788.88	27.344
789.19	35.897
789.49	34.454
789.80	29.915
790.11	31.858
790.41	29.293
790.72	33.019
791.03	25.000
791.33	27.632
791.64	37.634
791.95	33.333
792.25	24.286
792.56	23.171
792.87	29.592
793.17	40.789
793.48	4.054
793.79	28.169
794.09	25.316
794.40	39.362
794.70	36.449
795.01	22.807
795.32	30.000
795.62	33.036
795.93	18.557
796.23	29.670
796.54	35.789
796.85	34.247
797.15	13.889
797.46	26.027
797.76	26.761
798.07	20.000
798.37	23.529
798.68	44.286
798.99	7.143
799.29	36.842
799.60	35.000
799.90	20.833
800.21	28.125
800.51	46.032
800.82	22.951
801.12	22.807
801.43	19.718
801.73	22.034
802.04	19.672
802.34	9.091
802.65	48.077
802.95	25.926
803.26	15.000
803.56	36.538
803.87	-5.263
804.17	33.871
804.48	35.385
804.78	0.000
805.09	18.605
805.39	-9.375
805.70	15.094
806.00	36.842
806.30	17.568
806.61	23.529
806.91	33.333
807.22	29.333
807.52	19.403
807.83	48.387
808.13	12.698
808.43	25.455
808.74	25.758
809.04	18.868
809.35	27.397
809.65	42.105
809.95	30.882
810.26	25.490
810.56	16.000
810.86	18.367
811.17	20.000
811.47	7.692
811.77	3.226
812.08	0.000
812.38	23.810
812.69	-4.348
812.99	19.355
813.29	11.905
813.59	-25.926
813.90	6.383
814.20	4.651
814.50	18.750
814.81	13.333
815.11	24.390
815.41	6.667
815.72	31.429
816.02	-33.333
816.32	25.641
816.62	-10.811
816.93	-8.824
817.23	6.522
817.53	0.000
817.84	38.235
818.14	6.250
818.44	6.897
818.74	-25.806
819.04	3.704
819.35	13.333
819.65	4.000
819.95	20.000
820.25	-36.000
820.56	2.632
820.86	-10.000
821.16	14.894
821.46	20.690
821.76	5.128
822.07	5.000
822.37	-6.977
822.67	-16.667
822.97	-2.703
823.27	24.324
823.57	44.000
823.88	10.811
824.18	-19.048
824.48	-15.385
824.78	-100.000
825.08	-39.130
825.38	-25.000
825.69	-20.833
825.99	-35.000
826.29	-8.108
826.59	-14.706
826.89	0.000
827.19	-34.286
827.49	28.947
827.79	-9.375
828.09	-10.000
828.39	26.087
828.70	-24.138
829.00	24.138
829.30	22.222
829.60	0.000
829.90	0.000
830.20	-23.077
830.50	-19.048
830.80	-57.143
831.10	23.077
831.40	-28.571
831.70	-2.941
832.00	29.167
832.30	-63.158
832.60	37.500
832.90	-41.667
833.20	-82.353
833.50	-40.000
833.80	-26.667
834.10	-20.000
834.40	12.500
834.70	11.111
835.00	3.846
835.30	-33.333
835.60	20.690
835.90	-33.333
836.20	-145.455
836.50	-58.333
836.80	22.857
837.10	48.571
837.40	-11.765
837.70	-45.455
838.00	-54.167
838.30	-12.500
838.60	0.000
838.90	30.000
839.19	8.696
839.49	17.391
839.79	-38.889
840.09	-26.087
840.39	-59.091
840.69	-87.500
840.99	0.000
841.29	6.250
841.59	-42.857
841.88	-38.889
842.18	29.167
842.48	-70.588
842.78	3.448
843.08	-50.000
843.38	-15.385
843.68	0.000
843.97	-53.846
844.27	-90.909
844.57	-260.000
844.87	4.000
845.17	-160.000
845.47	-50.000
845.76	-111.111
846.06	0.000
846.36	-100.000
846.66	-80.000
846.96	-5.263
847.25	12.500
847.55	-66.667
847.85	-26.667
848.15	-150.000
848.44	38.462
848.74	10.526
849.04	266.667
849.34	-77.778
849.63	-5.263
849.93	0.000
850.23	-50.000
850.53	0.000
850.82	-56.000
851.12	-73.684
851.42	-1150.000
851.71	-50.000
852.01	-41.667
852.31	-47.059
852.61	-33.333
852.90	-52.381
853.20	-166.667
853.50	-33.333
853.79	-31.579
854.09	0.000
854.39	10.714
854.68	8.696
854.98	-125.000
855.28	27.586
855.57	-81.250
855.87	-45.000
856.17	-60.000
856.46	-51.724
856.76	-53.333
857.05	-17.647
857.35	-69.231
857.65	-72.727
857.94	-37.037
858.24	-92.857
858.53	-57.143
858.83	-83.333
859.13	-100.000
859.42	-9.524
859.72	-187.500
860.01	-466.667
860.31	-150.000
860.60	-180.000
860.90	-144.444
861.20	-112.500
861.49	-128.571
861.79	41.176
862.08	-450.000
862.38	-100.000
862.67	-61.538
862.97	23.529
863.26	-10.000
863.56	-11.765
863.85	566.667
864.15	-110.000
864.44	-107.692
864.74	25.000
865.03	-312.500
865.33	-200.000
865.62	-76.471
865.92	-550.000
866.21	-57.143
866.51	-125.000
866.80	-900.000
867.10	-500.000
867.39	-29.412
867.69	-4.348
867.98	-100.000
868.27	-120.000
868.57	-56.250
868.86	-127.273
869.16	-5.882
869.45	-116.667
869.75	-85.714
870.04	1100.000
870.33	-41.667
870.63	-80.000
870.92	-44.444
871.22	0.000
871.51	-163.636
871.80	-50.000
872.10	-30.000
>>>>>End Processed Spectral Data<<<<<
