SpectraSuite Data File
++++++++++++++++++++++++++++++++++++
Date: Sat May 16 11:42:36 PDT 2015
User: schluterlab
Dark Spectrum Present: Yes
Reference Spectrum Present: Yes
Number of Sampled Component Spectra: 1
Spectrometers: USB2E3373
Integration Time (usec): 3000 (USB2E3373)
Spectra Averaged: 3 (USB2E3373)
Boxcar Smoothing: 0 (USB2E3373)
Correct for Electrical Dark: No (USB2E3373)
Strobe/Lamp Enabled: No (USB2E3373)
Correct for Detector Non-linearity: No (USB2E3373)
Correct for Stray Light: No (USB2E3373)
Number of Pixels in Processed Spectrum: 2048
>>>>>Begin Processed Spectral Data<<<<<
178.53	0.000
178.91	160.000
179.29	766.667
179.67	-1100.000
180.04	-46.154
180.42	1100.000
180.80	350.000
181.18	550.000
181.56	-87.500
181.94	1500.000
182.31	625.000
182.69	-30.769
183.07	-400.000
183.45	1800.000
183.83	433.333
184.20	-271.429
184.58	-212.500
184.96	-250.000
185.34	118.750
185.72	-250.000
186.09	100.000
186.47	-250.000
186.85	-200.000
187.23	-87.500
187.61	-150.000
187.98	-187.500
188.36	-87.500
188.74	-200.000
189.12	1600.000
189.49	257.143
189.87	-108.333
190.25	225.000
190.63	-85.714
191.00	-122.222
191.38	420.000
191.76	-33.333
192.14	660.000
192.51	-360.000
192.89	-700.000
193.27	0.000
193.65	-111.111
194.02	-214.286
194.40	233.333
194.78	-100.000
195.15	-1400.000
195.53	-54.545
195.91	-450.000
196.29	100.000
196.66	-600.000
197.04	1400.000
197.42	-250.000
197.79	40.000
198.17	-666.667
198.55	-600.000
198.92	-600.000
199.30	137.500
199.68	-500.000
200.05	-122.222
200.43	-211.111
200.81	-1500.000
201.18	-66.667
201.56	300.000
201.94	-80.000
202.31	-27.273
202.69	-60.000
203.07	-160.000
203.44	633.333
203.82	-400.000
204.19	-400.000
204.57	-125.000
204.95	-1400.000
205.32	-12.500
205.70	1600.000
206.08	-2400.000
206.45	-44.444
206.83	-850.000
207.20	50.000
207.58	-500.000
207.96	-533.333
208.33	-25.000
208.71	-233.333
209.08	300.000
209.46	0.000
209.84	650.000
210.21	0.000
210.59	-5.000
210.96	700.000
211.34	-233.333
211.71	-100.000
212.09	225.000
212.46	850.000
212.84	-2400.000
213.22	433.333
213.59	150.000
213.97	-44.444
214.34	170.000
214.72	-90.000
215.09	-500.000
215.47	-166.667
215.84	-100.000
216.22	-70.000
216.59	20.000
216.97	-650.000
217.34	650.000
217.72	-214.286
218.09	-183.333
218.47	-228.571
218.84	257.143
219.22	-85.714
219.59	0.000
219.97	300.000
220.34	475.000
220.72	200.000
221.09	-76.923
221.47	0.000
221.84	633.333
222.22	-600.000
222.59	1000.000
222.97	-200.000
223.34	-800.000
223.72	-233.333
224.09	-92.857
224.46	-150.000
224.84	-42.857
225.21	-185.714
225.59	-109.091
225.96	-112.500
226.34	-142.857
226.71	-155.556
227.08	-20.000
227.46	1000.000
227.83	-128.571
228.21	-250.000
228.58	200.000
228.95	-50.000
229.33	-1500.000
229.70	-340.000
230.08	-950.000
230.45	-8.333
230.82	-50.000
231.20	-1500.000
231.57	-550.000
231.95	1700.000
232.32	9.524
232.69	-133.333
233.07	-214.286
233.44	-850.000
233.81	-93.333
234.19	-77.778
234.56	-93.750
234.93	6.250
235.31	-100.000
235.68	-164.286
236.05	-123.529
236.43	-104.545
236.80	-19.355
237.17	-4.167
237.55	-33.333
237.92	-159.091
238.29	-40.000
238.67	2.941
239.04	-2.778
239.41	-16.129
239.79	-43.590
240.16	-47.619
240.53	-5.455
240.91	-7.692
241.28	-25.455
241.65	-1.538
242.02	-4.918
242.40	-18.033
242.77	-6.061
243.14	-16.949
243.51	-11.429
243.89	-3.797
244.26	0.000
244.63	5.263
245.00	0.000
245.38	5.085
245.75	0.885
246.12	2.400
246.49	-1.575
246.87	0.000
247.24	-5.085
247.61	-4.237
247.98	2.817
248.36	-4.196
248.73	2.532
249.10	-1.911
249.47	8.772
249.84	11.364
250.22	-2.381
250.59	1.130
250.96	5.759
251.33	7.109
251.70	2.885
252.08	4.265
252.45	7.109
252.82	5.714
253.19	5.957
253.56	2.823
253.94	3.797
254.31	3.863
254.68	5.285
255.05	3.629
255.42	7.937
255.79	0.717
256.16	6.275
256.54	6.618
256.91	5.682
257.28	1.832
257.65	2.128
258.02	7.547
258.39	6.355
258.76	-1.014
259.14	7.099
259.51	2.295
259.88	6.098
260.25	6.211
260.62	2.572
260.99	2.671
261.36	5.488
261.73	7.225
262.10	4.722
262.47	4.274
262.85	6.857
263.22	1.146
263.59	2.769
263.96	4.058
264.33	4.607
264.70	5.525
265.07	4.945
265.44	1.034
265.81	3.876
266.18	2.278
266.55	3.431
266.92	8.816
267.29	6.538
267.66	4.198
268.03	6.522
268.40	5.634
268.77	4.819
269.14	4.176
269.51	6.437
269.88	2.752
270.25	5.594
270.62	5.034
270.99	6.081
271.36	4.429
271.73	4.709
272.10	4.805
272.47	3.778
272.84	8.222
273.21	6.193
273.58	4.615
273.95	4.386
274.32	5.882
274.69	7.440
275.06	6.339
275.43	3.571
275.80	7.536
276.17	5.230
276.54	6.721
276.91	3.498
277.28	5.680
277.65	7.438
278.02	7.098
278.39	5.108
278.76	6.972
279.13	6.522
279.50	4.771
279.87	4.440
280.23	7.085
280.60	5.169
280.97	4.078
281.34	3.288
281.71	5.769
282.08	6.250
282.45	4.684
282.82	6.395
283.19	6.909
283.56	6.777
283.92	5.830
284.29	6.134
284.66	5.396
285.03	6.239
285.40	6.458
285.77	7.193
286.14	3.610
286.51	3.730
286.87	3.993
287.24	6.143
287.61	5.124
287.98	3.813
288.35	5.950
288.72	4.244
289.08	0.508
289.45	4.714
289.82	3.979
290.19	5.911
290.56	4.132
290.93	5.723
291.29	4.052
291.66	5.153
292.03	5.808
292.40	7.229
292.77	5.280
293.13	6.179
293.50	4.309
293.87	5.675
294.24	6.335
294.60	3.485
294.97	4.552
295.34	3.407
295.71	5.208
296.08	3.994
296.44	3.863
296.81	5.983
297.18	4.366
297.55	4.944
297.91	5.718
298.28	3.562
298.65	4.324
299.02	7.086
299.38	5.348
299.75	3.668
300.12	5.256
300.48	6.138
300.85	4.194
301.22	5.175
301.59	4.161
301.95	6.423
302.32	2.608
302.69	5.018
303.05	4.884
303.42	4.125
303.79	4.426
304.15	5.213
304.52	3.851
304.89	5.195
305.25	4.396
305.62	4.935
305.99	5.183
306.35	4.661
306.72	4.214
307.09	5.335
307.45	4.654
307.82	4.358
308.19	5.481
308.55	4.357
308.92	3.974
309.29	4.541
309.65	4.878
310.02	5.832
310.38	4.541
310.75	6.045
311.12	6.302
311.48	5.846
311.85	5.046
312.22	7.518
312.58	6.714
312.95	6.524
313.31	6.294
313.68	8.141
314.05	7.319
314.41	5.231
314.78	6.993
315.14	7.700
315.51	8.207
315.87	7.454
316.24	8.455
316.61	8.829
316.97	8.159
317.34	9.152
317.70	8.256
318.07	10.448
318.43	11.236
318.80	10.986
319.16	10.131
319.53	10.808
319.89	10.913
320.26	10.784
320.62	11.923
320.99	12.040
321.35	11.823
321.72	12.180
322.08	13.056
322.45	12.079
322.81	13.449
323.18	14.409
323.54	15.896
323.91	16.311
324.27	17.205
324.64	17.093
325.00	16.928
325.37	17.557
325.73	20.385
326.10	17.892
326.46	20.315
326.83	21.532
327.19	20.767
327.56	23.680
327.92	22.600
328.29	23.723
328.65	23.000
329.01	25.442
329.38	25.335
329.74	26.740
330.11	26.292
330.47	27.702
330.84	29.239
331.20	27.708
331.56	29.626
331.93	30.462
332.29	31.416
332.66	30.465
333.02	31.946
333.38	33.513
333.75	33.482
334.11	32.444
334.48	32.392
334.84	33.946
335.20	34.131
335.57	34.928
335.93	35.721
336.29	34.898
336.66	34.273
337.02	35.315
337.38	35.294
337.75	35.733
338.11	36.315
338.47	35.765
338.84	36.388
339.20	36.204
339.56	37.879
339.93	35.802
340.29	36.315
340.65	37.325
341.02	36.678
341.38	37.489
341.74	37.341
342.11	35.922
342.47	36.824
342.83	37.112
343.20	37.575
343.56	36.490
343.92	37.896
344.28	38.352
344.65	38.284
345.01	38.571
345.37	39.203
345.73	36.989
346.10	36.631
346.46	36.718
346.82	36.808
347.19	38.784
347.55	37.721
347.91	38.425
348.27	36.118
348.63	37.803
349.00	38.663
349.36	36.378
349.72	38.535
350.08	39.134
350.45	38.455
350.81	39.490
351.17	38.103
351.53	37.470
351.89	37.591
352.26	37.984
352.62	38.326
352.98	38.845
353.34	39.009
353.70	37.606
354.07	38.710
354.43	40.237
354.79	39.382
355.15	39.537
355.51	39.219
355.87	39.921
356.24	39.476
356.60	39.484
356.96	40.108
357.32	39.984
357.68	39.234
358.04	39.800
358.40	39.288
358.77	40.649
359.13	40.245
359.49	40.741
359.85	40.625
360.21	41.096
360.57	40.889
360.93	40.741
361.29	41.555
361.66	41.159
362.02	42.604
362.38	41.233
362.74	43.883
363.10	40.746
363.46	42.379
363.82	42.566
364.18	42.185
364.54	43.746
364.90	42.138
365.26	42.511
365.62	42.552
365.98	44.381
366.35	42.958
366.71	42.988
367.07	44.319
367.43	44.544
367.79	43.574
368.15	44.808
368.51	44.545
368.87	44.437
369.23	44.211
369.59	43.472
369.95	44.257
370.31	46.484
370.67	45.481
371.03	45.845
371.39	45.757
371.75	46.638
372.11	45.409
372.47	47.650
372.83	46.036
373.19	47.286
373.55	46.868
373.91	46.515
374.27	46.954
374.63	46.239
374.99	47.983
375.35	47.376
375.71	49.156
376.07	47.433
376.42	47.152
376.78	48.824
377.14	49.153
377.50	48.743
377.86	48.635
378.22	50.063
378.58	49.660
378.94	49.938
379.30	50.701
379.66	50.698
380.02	48.960
380.38	50.634
380.74	50.059
381.09	50.029
381.45	50.418
381.81	50.151
382.17	52.193
382.53	52.036
382.89	51.555
383.25	52.559
383.61	51.769
383.97	52.174
384.32	52.879
384.68	53.869
385.04	53.321
385.40	53.074
385.76	54.207
386.12	52.780
386.48	54.455
386.83	54.356
387.19	54.812
387.55	54.149
387.91	54.890
388.27	54.282
388.62	54.267
388.98	55.421
389.34	55.508
389.70	55.177
390.06	55.190
390.42	56.859
390.77	56.025
391.13	57.453
391.49	55.895
391.85	55.362
392.20	54.854
392.56	56.017
392.92	55.619
393.28	56.429
393.64	57.607
393.99	56.800
394.35	57.664
394.71	56.146
395.07	58.129
395.42	55.840
395.78	56.254
396.14	57.072
396.50	57.859
396.85	56.138
397.21	56.987
397.57	56.960
397.92	57.436
398.28	57.000
398.64	57.525
399.00	59.438
399.35	57.497
399.71	59.408
400.07	60.299
400.42	58.090
400.78	58.259
401.14	59.162
401.49	58.432
401.85	58.816
402.21	57.688
402.57	58.556
402.92	59.660
403.28	57.353
403.63	56.681
403.99	58.794
404.35	57.971
404.70	58.280
405.06	57.958
405.42	57.934
405.77	57.183
406.13	59.001
406.49	60.036
406.84	58.608
407.20	60.130
407.55	60.418
407.91	57.254
408.27	59.865
408.62	59.351
408.98	58.763
409.34	58.074
409.69	58.538
410.05	58.399
410.40	60.208
410.76	59.751
411.11	59.788
411.47	59.783
411.83	59.230
412.18	59.097
412.54	59.426
412.89	59.599
413.25	58.323
413.60	59.478
413.96	59.643
414.31	60.122
414.67	60.825
415.03	59.767
415.38	60.638
415.74	61.469
416.09	60.550
416.45	59.259
416.80	60.858
417.16	61.794
417.51	61.129
417.87	61.230
418.22	60.999
418.58	60.013
418.93	60.515
419.29	61.920
419.64	61.558
420.00	61.725
420.35	61.088
420.71	61.705
421.06	62.722
421.42	61.885
421.77	63.037
422.12	61.556
422.48	61.358
422.83	61.902
423.19	61.971
423.54	63.170
423.90	62.059
424.25	63.122
424.61	63.510
424.96	63.839
425.31	64.338
425.67	64.126
426.02	62.823
426.38	62.976
426.73	63.121
427.09	64.767
427.44	63.864
427.79	65.000
428.15	64.991
428.50	64.633
428.85	64.688
429.21	64.859
429.56	66.094
429.92	64.930
430.27	64.656
430.62	65.674
430.98	64.558
431.33	64.888
431.68	66.113
432.04	65.865
432.39	66.553
432.74	65.588
433.10	66.066
433.45	65.688
433.80	67.637
434.16	66.040
434.51	67.178
434.86	67.838
435.22	67.483
435.57	68.237
435.92	67.702
436.28	67.062
436.63	66.591
436.98	67.468
437.34	68.045
437.69	67.795
438.04	69.314
438.39	69.495
438.75	68.685
439.10	70.128
439.45	69.523
439.81	69.639
440.16	68.825
440.51	70.353
440.86	68.710
441.22	67.993
441.57	68.947
441.92	69.770
442.27	69.535
442.63	70.547
442.98	69.526
443.33	69.467
443.68	70.505
444.03	70.972
444.39	70.534
444.74	71.971
445.09	69.737
445.44	71.300
445.79	70.831
446.15	71.030
446.50	69.080
446.85	71.113
447.20	70.327
447.55	70.221
447.91	73.330
448.26	69.777
448.61	69.553
448.96	71.317
449.31	70.349
449.66	71.208
450.02	71.302
450.37	71.420
450.72	72.260
451.07	73.224
451.42	71.747
451.77	71.454
452.12	71.573
452.47	72.040
452.83	72.103
453.18	72.043
453.53	71.393
453.88	73.385
454.23	71.040
454.58	73.959
454.93	72.292
455.28	73.805
455.63	72.727
455.98	73.133
456.34	71.537
456.69	74.109
457.04	72.465
457.39	72.667
457.74	72.888
458.09	73.376
458.44	73.383
458.79	73.430
459.14	73.018
459.49	72.765
459.84	72.569
460.19	73.926
460.54	72.051
460.89	72.590
461.24	72.920
461.59	72.743
461.94	73.520
462.29	72.960
462.64	74.967
462.99	73.896
463.34	73.396
463.69	74.173
464.04	71.763
464.39	74.074
464.74	73.345
465.09	69.934
465.44	74.394
465.79	73.378
466.14	75.086
466.49	73.345
466.84	73.229
467.19	73.254
467.54	73.228
467.89	73.120
468.24	73.634
468.59	74.266
468.94	75.434
469.29	73.034
469.64	72.911
469.99	72.519
470.34	74.148
470.68	72.529
471.03	75.086
471.38	73.472
471.73	75.594
472.08	74.833
472.43	72.973
472.78	73.733
473.13	73.426
473.48	74.984
473.83	73.511
474.17	74.268
474.52	75.767
474.87	73.601
475.22	73.687
475.57	73.944
475.92	73.380
476.27	73.771
476.61	73.690
476.96	74.231
477.31	75.027
477.66	74.377
478.01	74.554
478.36	73.808
478.70	75.387
479.05	74.202
479.40	73.472
479.75	73.344
480.10	73.710
480.45	72.292
480.79	75.025
481.14	74.661
481.49	75.557
481.84	73.971
482.19	73.413
482.53	74.811
482.88	73.469
483.23	74.554
483.58	73.913
483.92	74.773
484.27	73.416
484.62	73.045
484.97	73.772
485.31	71.552
485.66	69.074
486.01	70.919
486.36	72.314
486.70	74.137
487.05	72.902
487.40	73.264
487.75	72.656
488.09	71.587
488.44	72.767
488.79	72.727
489.13	73.792
489.48	74.715
489.83	74.498
490.17	73.618
490.52	75.861
490.87	74.273
491.22	74.264
491.56	75.231
491.91	74.141
492.26	74.717
492.60	75.262
492.95	75.440
493.30	74.559
493.64	73.766
493.99	73.662
494.34	74.857
494.68	74.345
495.03	73.757
495.37	74.287
495.72	75.147
496.07	74.566
496.41	75.035
496.76	74.886
497.11	74.941
497.45	74.713
497.80	75.138
498.14	75.589
498.49	76.042
498.84	74.417
499.18	74.756
499.53	73.843
499.87	74.759
500.22	74.657
500.56	77.039
500.91	74.433
501.26	74.721
501.60	74.771
501.95	76.135
502.29	73.028
502.64	73.786
502.98	75.803
503.33	74.107
503.67	75.048
504.02	75.761
504.36	74.559
504.71	75.431
505.06	74.538
505.40	76.447
505.75	76.626
506.09	76.896
506.44	75.840
506.78	76.066
507.13	75.077
507.47	75.378
507.82	75.632
508.16	76.632
508.51	76.043
508.85	76.242
509.19	74.935
509.54	76.427
509.88	76.436
510.23	76.258
510.57	77.460
510.92	77.282
511.26	75.917
511.61	75.756
511.95	75.485
512.30	76.416
512.64	75.904
512.98	75.688
513.33	76.496
513.67	76.214
514.02	76.063
514.36	77.064
514.70	76.910
515.05	76.387
515.39	76.701
515.74	77.196
516.08	75.562
516.42	76.827
516.77	77.816
517.11	77.174
517.46	78.349
517.80	79.964
518.14	77.597
518.49	78.362
518.83	77.864
519.17	77.324
519.52	76.865
519.86	78.017
520.20	78.973
520.55	78.708
520.89	77.332
521.23	78.571
521.58	79.185
521.92	79.164
522.26	79.175
522.61	77.503
522.95	78.622
523.29	78.433
523.64	77.889
523.98	79.185
524.32	78.504
524.66	77.267
525.01	78.998
525.35	78.351
525.69	79.050
526.04	79.765
526.38	78.676
526.72	77.139
527.06	80.208
527.41	80.198
527.75	78.020
528.09	78.822
528.43	77.902
528.78	78.643
529.12	80.026
529.46	78.415
529.80	77.663
530.15	78.236
530.49	77.361
530.83	79.437
531.17	79.327
531.51	79.236
531.86	77.683
532.20	76.653
532.54	79.412
532.88	79.315
533.22	79.947
533.57	78.851
533.91	77.278
534.25	76.493
534.59	76.015
534.93	76.665
535.27	77.848
535.62	77.302
535.96	77.246
536.30	76.374
536.64	79.084
536.98	81.427
537.32	79.198
537.66	77.461
538.01	77.732
538.35	78.446
538.69	78.676
539.03	76.506
539.37	77.645
539.71	77.985
540.05	77.587
540.39	80.956
540.73	78.300
541.07	78.484
541.42	78.393
541.76	77.076
542.10	77.380
542.44	77.082
542.78	78.426
543.12	78.072
543.46	77.466
543.80	76.522
544.14	76.763
544.48	76.575
544.82	77.131
545.16	79.745
545.50	77.591
545.84	77.677
546.18	78.918
546.52	78.094
546.86	78.632
547.20	79.184
547.54	76.791
547.88	76.443
548.22	76.278
548.56	78.023
548.90	78.774
549.24	78.486
549.58	77.911
549.92	77.456
550.26	78.685
550.60	78.663
550.94	79.635
551.28	80.135
551.62	80.502
551.96	78.799
552.30	77.909
552.64	79.029
552.98	78.907
553.32	79.509
553.66	79.380
554.00	80.242
554.34	79.278
554.68	77.705
555.02	78.726
555.36	76.851
555.69	78.725
556.03	77.544
556.37	78.450
556.71	78.525
557.05	80.783
557.39	80.252
557.73	78.118
558.07	79.277
558.41	79.806
558.75	78.403
559.08	79.377
559.42	79.020
559.76	80.061
560.10	80.164
560.44	80.347
560.78	76.688
561.12	78.951
561.45	79.247
561.79	79.373
562.13	78.752
562.47	78.151
562.81	77.511
563.15	78.516
563.48	77.609
563.82	78.229
564.16	78.229
564.50	77.151
564.84	78.175
565.17	77.785
565.51	78.096
565.85	79.919
566.19	80.303
566.52	78.539
566.86	76.169
567.20	78.269
567.54	78.500
567.88	75.600
568.21	77.517
568.55	76.723
568.89	75.099
569.23	75.012
569.56	74.359
569.90	74.862
570.24	74.746
570.57	73.111
570.91	73.852
571.25	73.573
571.59	72.776
571.92	71.845
572.26	71.540
572.60	72.169
572.93	70.889
573.27	71.402
573.61	71.666
573.95	71.927
574.28	71.103
574.62	72.140
574.96	70.239
575.29	71.418
575.63	70.905
575.97	70.793
576.30	71.280
576.64	71.462
576.98	70.615
577.31	70.822
577.65	71.125
577.98	70.334
578.32	70.869
578.66	70.971
578.99	70.552
579.33	71.590
579.67	70.429
580.00	70.784
580.34	70.817
580.67	71.488
581.01	69.858
581.35	70.650
581.68	69.504
582.02	70.516
582.35	70.444
582.69	71.463
583.02	72.016
583.36	71.401
583.70	70.661
584.03	72.575
584.37	71.746
584.70	71.345
585.04	71.215
585.37	69.976
585.71	70.634
586.04	72.391
586.38	71.104
586.72	72.492
587.05	72.218
587.39	72.166
587.72	71.967
588.06	71.774
588.39	72.088
588.73	72.571
589.06	72.538
589.40	73.720
589.73	72.273
590.07	72.323
590.40	71.845
590.73	73.171
591.07	74.098
591.40	75.520
591.74	73.371
592.07	73.964
592.41	73.885
592.74	73.021
593.08	72.949
593.41	73.618
593.75	71.777
594.08	74.874
594.41	74.640
594.75	73.348
595.08	74.624
595.42	73.988
595.75	73.943
596.09	74.311
596.42	74.182
596.75	74.515
597.09	73.731
597.42	73.156
597.75	74.225
598.09	74.333
598.42	73.487
598.76	72.757
599.09	72.494
599.42	73.664
599.76	72.480
600.09	73.550
600.42	72.503
600.76	73.183
601.09	73.262
601.42	72.220
601.76	73.326
602.09	73.292
602.42	72.716
602.76	72.871
603.09	74.597
603.42	73.288
603.76	74.272
604.09	72.687
604.42	72.231
604.76	73.354
605.09	74.231
605.42	74.512
605.75	73.394
606.09	73.059
606.42	73.104
606.75	73.079
607.09	73.974
607.42	73.900
607.75	73.510
608.08	73.656
608.42	75.733
608.75	73.131
609.08	74.915
609.41	74.190
609.75	73.769
610.08	74.510
610.41	73.687
610.74	75.000
611.07	75.761
611.41	73.172
611.74	74.961
612.07	76.853
612.40	75.053
612.73	74.798
613.07	75.069
613.40	76.847
613.73	76.022
614.06	75.178
614.39	76.043
614.72	75.196
615.06	74.402
615.39	74.227
615.72	75.720
616.05	74.655
616.38	76.436
616.71	75.916
617.05	76.659
617.38	76.409
617.71	75.246
618.04	76.211
618.37	76.352
618.70	76.988
619.03	75.085
619.36	78.295
619.69	75.951
620.03	75.069
620.36	77.496
620.69	75.664
621.02	76.941
621.35	77.097
621.68	79.098
622.01	78.722
622.34	78.649
622.67	76.797
623.00	78.500
623.33	78.507
623.66	77.696
623.99	77.820
624.32	77.381
624.65	76.380
624.99	78.491
625.32	77.470
625.65	78.866
625.98	77.543
626.31	78.467
626.64	78.494
626.97	78.425
627.30	78.894
627.63	78.670
627.96	79.199
628.29	80.607
628.62	78.988
628.95	80.610
629.28	78.853
629.61	80.962
629.94	80.435
630.26	82.406
630.59	82.111
630.92	79.580
631.25	79.940
631.58	80.106
631.91	82.447
632.24	81.111
632.57	82.889
632.90	83.563
633.23	83.645
633.56	83.743
633.89	81.604
634.22	81.936
634.55	82.332
634.88	80.895
635.20	81.898
635.53	84.224
635.86	84.005
636.19	80.952
636.52	80.884
636.85	83.032
637.18	84.000
637.51	82.652
637.83	85.885
638.16	85.263
638.49	81.931
638.82	81.338
639.15	83.658
639.48	81.971
639.81	87.275
640.13	83.243
640.46	85.328
640.79	83.473
641.12	82.934
641.45	84.075
641.77	85.030
642.10	83.988
642.43	83.612
642.76	83.780
643.09	85.079
643.41	86.667
643.74	83.466
644.07	83.775
644.40	85.251
644.73	83.663
645.05	85.810
645.38	85.265
645.71	89.003
646.04	83.866
646.36	86.038
646.69	84.256
647.02	89.350
647.35	87.545
647.67	84.489
648.00	84.007
648.33	87.858
648.66	81.290
648.98	82.484
649.31	83.538
649.64	82.031
649.96	81.633
650.29	84.754
650.62	85.714
650.94	84.148
651.27	86.135
651.60	85.813
651.92	85.445
652.25	81.970
652.58	83.986
652.90	83.949
653.23	84.516
653.56	83.110
653.88	84.754
654.21	86.074
654.54	83.056
654.86	79.615
655.19	80.802
655.52	76.493
655.84	71.472
656.17	76.439
656.49	99.966
656.82	100.000
657.15	83.261
657.47	59.019
657.80	45.800
658.13	52.627
658.45	70.332
658.78	69.386
659.10	67.970
659.43	67.912
659.75	68.568
660.08	68.333
660.41	68.809
660.73	74.807
661.06	80.290
661.38	85.179
661.71	86.233
662.03	84.274
662.36	85.928
662.68	84.599
663.01	87.898
663.33	89.342
663.66	84.335
663.98	87.723
664.31	85.682
664.63	87.168
664.96	86.985
665.28	88.069
665.61	85.624
665.93	87.860
666.26	81.781
666.58	82.952
666.91	88.419
667.23	85.088
667.56	84.354
667.88	84.842
668.21	90.092
668.53	89.019
668.86	86.374
669.18	84.932
669.50	83.879
669.83	89.538
670.15	84.753
670.48	85.748
670.80	85.421
671.13	85.779
671.45	84.685
671.77	83.726
672.10	85.996
672.42	83.395
672.75	83.273
673.07	80.180
673.39	82.878
673.72	86.220
674.04	86.412
674.37	81.237
674.69	85.656
675.01	83.404
675.34	83.297
675.66	82.937
675.98	85.683
676.31	89.140
676.63	87.816
676.95	84.071
677.28	85.615
677.60	84.389
677.92	85.683
678.25	85.120
678.57	81.070
678.89	84.486
679.22	82.600
679.54	82.643
679.86	81.600
680.18	81.369
680.51	79.516
680.83	81.905
681.15	81.310
681.48	85.598
681.80	82.258
682.12	79.678
682.44	79.371
682.77	82.684
683.09	81.761
683.41	82.522
683.73	83.333
684.06	79.140
684.38	83.054
684.70	81.687
685.02	80.906
685.34	80.897
685.67	79.924
685.99	80.529
686.31	83.662
686.63	77.305
686.96	75.416
687.28	82.466
687.60	80.664
687.92	78.988
688.24	82.087
688.56	75.551
688.89	79.915
689.21	81.400
689.53	83.678
689.85	80.846
690.17	81.166
690.49	82.448
690.82	81.928
691.14	79.717
691.46	80.044
691.78	80.396
692.10	81.356
692.42	82.667
692.74	81.330
693.06	79.775
693.39	78.971
693.71	79.233
694.03	79.482
694.35	80.587
694.67	80.378
694.99	83.376
695.31	80.357
695.63	87.755
695.95	80.397
696.27	82.294
696.59	80.749
696.91	84.270
697.23	82.292
697.56	81.010
697.88	80.180
698.20	75.589
698.52	77.578
698.84	79.612
699.16	78.571
699.48	78.250
699.80	79.699
700.12	76.071
700.44	78.771
700.76	79.009
701.08	84.593
701.40	79.758
701.72	81.790
702.04	86.218
702.36	80.120
702.68	80.539
703.00	83.478
703.32	80.516
703.64	85.000
703.96	83.140
704.28	81.361
704.60	84.494
704.91	79.048
705.23	80.906
705.55	80.405
705.87	86.348
706.19	81.597
706.51	84.375
706.83	81.967
707.15	85.032
707.47	82.645
707.79	77.577
708.11	76.590
708.43	79.052
708.74	76.104
709.06	80.223
709.38	74.425
709.70	80.625
710.02	79.141
710.34	81.188
710.66	75.873
710.98	78.233
711.29	80.968
711.61	75.399
711.93	76.393
712.25	82.392
712.57	78.397
712.89	77.338
713.20	81.787
713.52	83.582
713.84	80.071
714.16	78.689
714.48	78.730
714.80	73.846
715.11	72.911
715.43	81.325
715.75	79.751
716.07	79.016
716.39	77.592
716.70	77.352
717.02	79.630
717.34	73.282
717.66	85.062
717.97	79.918
718.29	84.034
718.61	79.762
718.93	76.703
719.24	73.162
719.56	77.736
719.88	82.909
720.20	81.273
720.51	79.699
720.83	78.313
721.15	84.426
721.46	80.000
721.78	77.011
722.10	85.200
722.42	78.099
722.73	78.486
723.05	81.124
723.37	72.941
723.68	71.660
724.00	81.707
724.32	74.897
724.63	76.763
724.95	79.752
725.27	77.632
725.58	76.724
725.90	75.794
726.22	75.646
726.53	77.567
726.85	73.725
727.16	77.444
727.48	81.154
727.80	76.230
728.11	77.311
728.43	86.364
728.74	76.172
729.06	76.136
729.38	69.650
729.69	75.984
730.01	80.315
730.32	82.869
730.64	77.656
730.96	81.716
731.27	76.786
731.59	77.492
731.90	73.926
732.22	72.699
732.53	77.815
732.85	70.470
733.16	72.464
733.48	75.610
733.80	75.089
734.11	76.552
734.43	74.150
734.74	72.997
735.06	75.235
735.37	75.841
735.69	72.903
736.00	65.993
736.32	76.821
736.63	71.034
736.95	73.551
737.26	72.517
737.58	78.417
737.89	74.910
738.21	79.699
738.52	79.615
738.83	73.437
739.15	74.786
739.46	77.419
739.78	71.329
740.09	70.280
740.41	72.727
740.72	76.277
741.04	73.413
741.35	75.325
741.66	78.704
741.98	73.810
742.29	75.587
742.61	78.075
742.92	80.841
743.23	75.439
743.55	73.874
743.86	75.111
744.18	76.190
744.49	79.803
744.80	72.589
745.12	85.052
745.43	73.367
745.74	75.243
746.06	72.683
746.37	75.771
746.68	77.612
747.00	83.246
747.31	74.519
747.62	76.498
747.94	73.799
748.25	81.395
748.56	80.476
748.88	82.609
749.19	68.545
749.50	85.294
749.82	74.222
750.13	83.260
750.44	72.358
750.75	78.000
751.07	74.643
751.38	70.111
751.69	76.336
752.01	70.769
752.32	75.097
752.63	73.462
752.94	70.238
753.26	72.609
753.57	73.661
753.88	77.155
754.19	73.859
754.51	71.875
754.82	69.960
755.13	75.309
755.44	73.554
755.75	75.309
756.07	67.470
756.38	71.484
756.69	75.090
757.00	74.564
757.31	72.483
757.63	74.455
757.94	69.942
758.25	77.035
758.56	72.776
758.87	63.636
759.18	68.000
759.50	74.021
759.81	72.993
760.12	70.270
760.43	74.434
760.74	74.375
761.05	69.663
761.36	69.461
761.67	66.864
761.99	69.032
762.30	79.348
762.61	67.925
762.92	78.027
763.23	81.991
763.54	69.778
763.85	73.418
764.16	73.061
764.47	76.271
764.78	65.169
765.10	73.022
765.41	65.484
765.72	71.698
766.03	64.664
766.34	69.549
766.65	68.016
766.96	73.500
767.27	71.354
767.58	76.163
767.89	78.065
768.20	74.233
768.51	75.410
768.82	69.189
769.13	73.500
769.44	72.368
769.75	66.234
770.06	71.101
770.37	69.484
770.68	72.917
770.99	71.782
771.30	72.330
771.61	74.537
771.92	64.502
772.23	71.028
772.54	71.809
772.85	72.781
773.16	75.610
773.47	71.687
773.78	75.824
774.09	74.000
774.39	71.605
774.70	73.154
775.01	68.841
775.32	75.373
775.63	70.248
775.94	72.932
776.25	72.143
776.56	71.311
776.87	83.186
777.18	76.991
777.48	75.455
777.79	60.000
778.10	73.394
778.41	69.492
778.72	68.595
779.03	79.104
779.34	73.684
779.65	69.281
779.95	73.913
780.26	64.626
780.57	73.276
780.88	76.852
781.19	64.646
781.50	69.600
781.80	60.131
782.11	65.385
782.42	57.229
782.73	53.285
783.04	64.865
783.34	70.455
783.65	61.240
783.96	59.350
784.27	70.085
784.57	59.350
784.88	64.228
785.19	65.789
785.50	53.608
785.81	70.476
786.11	82.353
786.42	60.909
786.73	70.270
787.04	75.248
787.34	61.905
787.65	69.524
787.96	68.627
788.26	72.072
788.57	68.548
788.88	63.281
789.19	58.120
789.49	64.706
789.80	58.974
790.11	58.407
790.41	66.667
790.72	58.491
791.03	66.667
791.33	72.368
791.64	53.763
791.95	72.000
792.25	60.000
792.56	57.317
792.87	57.143
793.17	63.158
793.48	55.405
793.79	46.479
794.09	69.620
794.40	76.596
794.70	65.421
795.01	47.368
795.32	62.727
795.62	58.929
795.93	53.608
796.23	53.846
796.54	64.211
796.85	57.534
797.15	51.389
797.46	50.685
797.76	47.887
798.07	63.750
798.37	73.529
798.68	61.429
798.99	64.286
799.29	71.053
799.60	60.000
799.90	41.667
800.21	59.375
800.51	73.016
800.82	57.377
801.12	49.123
801.43	47.887
801.73	55.932
802.04	59.016
802.34	60.000
802.65	38.462
802.95	64.815
803.26	40.000
803.56	57.692
803.87	52.632
804.17	62.903
804.48	44.615
804.78	46.154
805.09	48.837
805.39	37.500
805.70	26.415
806.00	64.912
806.30	59.459
806.61	61.765
806.91	65.432
807.22	44.000
807.52	58.209
807.83	53.226
808.13	39.683
808.43	47.273
808.74	39.394
809.04	67.925
809.35	53.425
809.65	47.368
809.95	70.588
810.26	58.824
810.56	36.000
810.86	42.857
811.17	51.429
811.47	51.923
811.77	90.323
812.08	21.053
812.38	45.238
812.69	36.957
812.99	54.839
813.29	30.952
813.59	51.852
813.90	46.809
814.20	55.814
814.50	47.917
814.81	46.667
815.11	46.341
815.41	63.333
815.72	45.714
816.02	13.889
816.32	51.282
816.62	27.027
816.93	-14.706
817.23	28.261
817.53	17.647
817.84	52.941
818.14	25.000
818.44	17.241
818.74	9.677
819.04	25.926
819.35	50.000
819.65	64.000
819.95	56.667
820.25	16.000
820.56	26.316
820.86	37.500
821.16	17.021
821.46	36.207
821.76	30.769
822.07	10.000
822.37	46.512
822.67	30.000
822.97	37.838
823.27	27.027
823.57	72.000
823.88	45.946
824.18	0.000
824.48	26.923
824.78	23.077
825.08	30.435
825.38	8.333
825.69	45.833
825.99	50.000
826.29	5.405
826.59	26.471
826.89	52.000
827.19	54.286
827.49	13.158
827.79	-6.250
828.09	3.333
828.39	69.565
828.70	20.690
829.00	37.931
829.30	36.111
829.60	53.125
829.90	77.778
830.20	0.000
830.50	-28.571
830.80	-17.857
831.10	17.949
831.40	-61.905
831.70	2.941
832.00	50.000
832.30	15.789
832.60	-6.250
832.90	-66.667
833.20	-47.059
833.50	-20.000
833.80	20.000
834.10	20.000
834.40	12.500
834.70	33.333
835.00	23.077
835.30	-16.667
835.60	10.345
835.90	-44.444
836.20	-81.818
836.50	0.000
836.80	40.000
837.10	54.286
837.40	-41.176
837.70	-118.182
838.00	37.500
838.30	50.000
838.60	23.810
838.90	15.000
839.19	-13.043
839.49	4.348
839.79	-33.333
840.09	-43.478
840.39	13.636
840.69	12.500
840.99	-15.789
841.29	-6.250
841.59	-57.143
841.88	0.000
842.18	25.000
842.48	-64.706
842.78	31.034
843.08	0.000
843.38	-84.615
843.68	-122.222
843.97	-76.923
844.27	36.364
844.57	-220.000
844.87	0.000
845.17	-180.000
845.47	-42.857
845.76	-22.222
846.06	0.000
846.36	-75.000
846.66	-100.000
846.96	5.263
847.25	-29.167
847.55	-33.333
847.85	53.333
848.15	-120.000
848.44	-34.615
848.74	31.579
849.04	433.333
849.34	-22.222
849.63	-57.895
849.93	0.000
850.23	-45.000
850.53	-33.333
850.82	-12.000
851.12	-10.526
851.42	-800.000
851.71	35.714
852.01	-33.333
852.31	11.765
852.61	-40.000
852.90	0.000
853.20	-233.333
853.50	-27.778
853.79	-26.316
854.09	-100.000
854.39	7.143
854.68	0.000
854.98	-108.333
855.28	13.793
855.57	25.000
855.87	10.000
856.17	-46.667
856.46	0.000
856.76	-106.667
857.05	-41.176
857.35	-115.385
857.65	-18.182
857.94	-18.519
858.24	35.714
858.53	-78.571
858.83	-41.667
859.13	-100.000
859.42	19.048
859.72	-37.500
860.01	-266.667
860.31	-125.000
860.60	-260.000
860.90	-77.778
861.20	-150.000
861.49	-71.429
861.79	-11.765
862.08	-200.000
862.38	-133.333
862.67	-61.538
862.97	11.765
863.26	40.000
863.56	-29.412
863.85	700.000
864.15	-200.000
864.44	-92.308
864.74	40.000
865.03	-212.500
865.33	-350.000
865.62	-52.941
865.92	-525.000
866.21	-50.000
866.51	-125.000
866.80	-900.000
867.10	-100.000
867.39	35.294
867.69	-26.087
867.98	-142.857
868.27	-400.000
868.57	-106.250
868.86	-100.000
869.16	-5.882
869.45	-166.667
869.75	-128.571
870.04	1000.000
870.33	-50.000
870.63	-20.000
870.92	44.444
871.22	-41.667
871.51	-100.000
871.80	-50.000
872.10	-120.000
>>>>>End Processed Spectral Data<<<<<
