SpectraSuite Data File
++++++++++++++++++++++++++++++++++++
Date: Sat May 16 11:40:11 PDT 2015
User: schluterlab
Dark Spectrum Present: Yes
Reference Spectrum Present: Yes
Number of Sampled Component Spectra: 1
Spectrometers: USB2E3373
Integration Time (usec): 3000 (USB2E3373)
Spectra Averaged: 3 (USB2E3373)
Boxcar Smoothing: 0 (USB2E3373)
Correct for Electrical Dark: No (USB2E3373)
Strobe/Lamp Enabled: No (USB2E3373)
Correct for Detector Non-linearity: No (USB2E3373)
Correct for Stray Light: No (USB2E3373)
Number of Pixels in Processed Spectrum: 2048
>>>>>Begin Processed Spectral Data<<<<<
178.53	0.000
178.91	106.667
179.29	700.000
179.67	-1900.000
180.04	0.000
180.42	900.000
180.80	400.000
181.18	500.000
181.56	-62.500
181.94	700.000
182.31	600.000
182.69	-30.769
183.07	-633.333
183.45	1650.000
183.83	333.333
184.20	-214.286
184.58	-225.000
184.96	-300.000
185.34	162.500
185.72	-300.000
186.09	216.667
186.47	-137.500
186.85	-250.000
187.23	-137.500
187.61	-125.000
187.98	-250.000
188.36	-200.000
188.74	-212.500
189.12	1400.000
189.49	385.714
189.87	-116.667
190.25	200.000
190.63	-50.000
191.00	-244.444
191.38	280.000
191.76	13.333
192.14	660.000
192.51	-240.000
192.89	-633.333
193.27	0.000
193.65	-111.111
194.02	-128.571
194.40	466.667
194.78	-130.000
195.15	-1000.000
195.53	-109.091
195.91	-516.667
196.29	280.000
196.66	-1033.333
197.04	1500.000
197.42	-425.000
197.79	-20.000
198.17	-266.667
198.55	-1050.000
198.92	-1700.000
199.30	275.000
199.68	-1250.000
200.05	-188.889
200.43	-211.111
200.81	-1600.000
201.18	33.333
201.56	271.429
201.94	-126.667
202.31	13.636
202.69	-90.000
203.07	-170.000
203.44	433.333
203.82	-283.333
204.19	-650.000
204.57	-175.000
204.95	-1400.000
205.32	18.750
205.70	1200.000
206.08	-1300.000
206.45	-38.889
206.83	-800.000
207.20	-300.000
207.58	-666.667
207.96	-366.667
208.33	-50.000
208.71	-144.444
209.08	110.000
209.46	-114.286
209.84	850.000
210.21	0.000
210.59	-10.000
210.96	900.000
211.34	-233.333
211.71	-533.333
212.09	425.000
212.46	500.000
212.84	-3100.000
213.22	333.333
213.59	158.333
213.97	-44.444
214.34	90.000
214.72	-100.000
215.09	-666.667
215.47	-166.667
215.84	-60.000
216.22	-40.000
216.59	6.667
216.97	-475.000
217.34	550.000
217.72	-85.714
218.09	-400.000
218.47	-271.429
218.84	242.857
219.22	-142.857
219.59	0.000
219.97	242.857
220.34	500.000
220.72	225.000
221.09	-46.154
221.47	0.000
221.84	533.333
222.22	-350.000
222.59	1200.000
222.97	-200.000
223.34	-1050.000
223.72	-266.667
224.09	-7.143
224.46	-300.000
224.84	-107.143
225.21	-328.571
225.59	-72.727
225.96	-300.000
226.34	-114.286
226.71	-66.667
227.08	15.000
227.46	2800.000
227.83	-142.857
228.21	-250.000
228.58	150.000
228.95	-93.750
229.33	-1100.000
229.70	-300.000
230.08	-1250.000
230.45	-91.667
230.82	-250.000
231.20	-100.000
231.57	-400.000
231.95	2100.000
232.32	-9.524
232.69	-122.222
233.07	-385.714
233.44	-600.000
233.81	-66.667
234.19	-122.222
234.56	12.500
234.93	0.000
235.31	-442.857
235.68	-192.857
236.05	-82.353
236.43	-54.545
236.80	-48.387
237.17	-8.333
237.55	-61.905
237.92	-90.909
238.29	-34.286
238.67	-23.529
239.04	-11.111
239.41	-25.806
239.79	-46.154
240.16	-40.476
240.53	-23.636
240.91	-35.897
241.28	-1.818
241.65	-7.692
242.02	8.197
242.40	-27.869
242.77	3.030
243.14	-30.508
243.51	-30.000
243.89	3.797
244.26	-5.618
244.63	9.474
245.00	0.000
245.38	-9.322
245.75	9.735
246.12	-8.800
246.49	0.000
246.87	-5.691
247.24	-7.627
247.61	-6.780
247.98	-10.563
248.36	-3.497
248.73	1.266
249.10	-6.369
249.47	0.585
249.84	1.705
250.22	-2.976
250.59	-3.955
250.96	3.665
251.33	5.213
251.70	2.885
252.08	3.791
252.45	0.000
252.82	0.476
253.19	0.851
253.56	1.210
253.94	1.266
254.31	1.288
254.68	3.659
255.05	-1.210
255.42	1.587
255.79	2.151
256.16	1.569
256.54	2.206
256.91	0.000
257.28	-2.564
257.65	3.546
258.02	6.289
258.39	5.017
258.76	-2.703
259.14	2.469
259.51	5.574
259.88	4.573
260.25	7.453
260.62	1.286
260.99	0.890
261.36	4.878
261.73	2.601
262.10	4.722
262.47	1.709
262.85	8.000
263.22	6.304
263.59	1.846
263.96	3.478
264.33	2.168
264.70	2.762
265.07	1.923
265.44	3.876
265.81	1.809
266.18	1.772
266.55	3.922
266.92	4.030
267.29	3.148
267.66	3.210
268.03	5.314
268.40	4.695
268.77	2.410
269.14	3.016
269.51	4.368
269.88	3.440
270.25	2.564
270.62	3.890
270.99	2.928
271.36	3.730
271.73	5.605
272.10	2.059
272.47	3.111
272.84	6.222
273.21	3.670
273.58	4.835
273.95	1.754
274.32	4.525
274.69	4.814
275.06	5.930
275.43	2.232
275.80	6.110
276.17	4.812
276.54	4.073
276.91	4.321
277.28	5.071
277.65	6.198
278.02	4.593
278.39	4.715
278.76	2.590
279.13	5.534
279.50	4.175
279.87	3.594
280.23	4.049
280.60	3.976
280.97	4.854
281.34	5.222
281.71	5.192
282.08	4.839
282.45	0.611
282.82	2.713
283.19	3.636
283.56	7.509
283.92	3.357
284.29	4.833
284.66	5.935
285.03	6.595
285.40	4.797
285.77	5.088
286.14	5.415
286.51	3.197
286.87	4.174
287.24	6.143
287.61	5.620
287.98	4.506
288.35	3.967
288.72	4.754
289.08	3.220
289.45	3.872
289.82	4.844
290.19	6.404
290.56	3.306
290.93	3.975
291.29	3.728
291.66	3.060
292.03	5.651
292.40	4.970
292.77	3.882
293.13	3.902
293.50	3.863
293.87	4.601
294.24	4.525
294.60	1.515
294.97	7.284
295.34	4.000
295.71	2.976
296.08	1.536
296.44	2.003
296.81	3.846
297.18	5.634
297.55	3.814
297.91	5.160
298.28	4.932
298.65	4.045
299.02	5.348
299.38	5.481
299.75	3.804
300.12	5.128
300.48	4.348
300.85	4.718
301.22	5.433
301.59	3.641
301.95	6.423
302.32	2.738
302.69	4.896
303.05	3.419
303.42	3.375
303.79	4.067
304.15	4.976
304.52	4.434
304.89	5.313
305.25	3.785
305.62	6.110
305.99	7.303
306.35	6.104
306.72	5.239
307.09	6.583
307.45	5.335
307.82	6.145
308.19	6.600
308.55	5.882
308.92	4.834
309.29	5.297
309.65	5.832
310.02	5.184
310.38	4.973
310.75	6.455
311.12	6.095
311.48	5.324
311.85	6.591
312.22	6.076
312.58	6.918
312.95	5.708
313.31	7.892
313.68	7.839
314.05	8.902
314.41	6.740
314.78	6.494
315.14	7.502
315.51	8.004
315.87	7.648
316.24	7.483
316.61	8.253
316.97	9.055
317.34	8.382
317.70	7.421
318.07	8.955
318.43	8.427
318.80	9.484
319.16	9.850
319.53	8.929
319.89	8.937
320.26	9.608
320.62	9.135
320.99	10.149
321.35	9.064
321.72	10.645
322.08	10.979
322.45	8.812
322.81	10.183
323.18	11.047
323.54	11.275
323.91	11.307
324.27	11.692
324.64	10.878
325.00	11.431
325.37	12.760
325.73	12.511
326.10	11.072
326.46	11.734
326.83	11.830
327.19	12.761
327.56	13.629
327.92	12.319
328.29	13.853
328.65	11.000
329.01	13.516
329.38	13.649
329.74	14.377
330.11	13.418
330.47	14.441
330.84	15.032
331.20	14.350
331.56	14.494
331.93	14.831
332.29	14.795
332.66	15.277
333.02	14.751
333.38	16.577
333.75	15.761
334.11	14.044
334.48	14.387
334.84	17.060
335.20	15.160
335.57	14.350
335.93	17.278
336.29	14.792
336.66	15.330
337.02	16.216
337.38	14.260
337.75	14.838
338.11	14.758
338.47	15.214
338.84	14.882
339.20	15.290
339.56	17.291
339.93	15.168
340.29	15.146
340.65	14.510
341.02	16.358
341.38	15.670
341.74	16.003
342.11	15.017
342.47	15.365
342.83	14.777
343.20	15.628
343.56	14.122
343.92	16.694
344.28	16.989
344.65	16.172
345.01	15.714
345.37	16.694
345.73	15.221
346.10	15.045
346.46	15.435
346.82	14.916
347.19	15.201
347.55	15.409
347.91	16.220
348.27	14.797
348.63	16.155
349.00	15.513
349.36	14.520
349.72	15.605
350.08	16.038
350.45	15.209
350.81	16.242
351.17	15.595
351.53	14.240
351.89	14.956
352.26	15.194
352.62	16.359
352.98	15.506
353.34	16.387
353.70	15.135
354.07	15.578
354.43	16.126
354.79	15.531
355.15	15.096
355.51	14.766
355.87	15.573
356.24	15.886
356.60	16.761
356.96	16.320
357.32	15.835
357.68	15.709
358.04	16.012
358.40	16.009
358.77	16.306
359.13	15.685
359.49	14.815
359.85	16.768
360.21	16.743
360.57	16.491
360.93	17.481
361.29	16.517
361.66	15.396
362.02	15.754
362.38	16.434
362.74	16.777
363.10	16.141
363.46	17.308
363.82	16.327
364.18	17.294
364.54	17.084
364.90	16.003
365.26	16.262
365.62	16.821
365.98	17.639
366.35	16.690
366.71	17.336
367.07	17.078
367.43	18.325
367.79	16.495
368.15	16.714
368.51	17.413
368.87	17.376
369.23	18.105
369.59	17.847
369.95	17.054
370.31	17.862
370.67	16.558
371.03	18.003
371.39	17.963
371.75	18.026
372.11	17.504
372.47	18.221
372.83	18.498
373.19	18.643
373.55	18.015
373.91	18.279
374.27	18.686
374.63	19.048
374.99	18.985
375.35	18.775
375.71	19.986
376.07	18.754
376.42	18.675
376.78	19.673
377.14	19.864
377.50	20.309
377.86	19.831
378.22	19.724
378.58	19.086
378.94	20.037
379.30	19.317
379.66	20.036
380.02	20.380
380.38	20.181
380.74	20.926
381.09	20.797
381.45	21.718
381.81	20.992
382.17	20.677
382.53	20.790
382.89	20.813
383.25	20.831
383.61	20.932
383.97	21.127
384.32	21.589
384.68	21.161
385.04	21.075
385.40	21.059
385.76	21.829
386.12	22.361
386.48	22.277
386.83	22.577
387.19	22.475
387.55	22.774
387.91	22.347
388.27	21.592
388.62	21.935
388.98	22.229
389.34	22.215
389.70	22.716
390.06	22.312
390.42	23.333
390.77	22.650
391.13	24.099
391.49	23.269
391.85	22.756
392.20	23.058
392.56	23.641
392.92	22.989
393.28	24.225
393.64	23.873
393.99	23.938
394.35	23.783
394.71	24.089
395.07	24.043
395.42	24.374
395.78	23.633
396.14	23.863
396.50	23.792
396.85	23.751
397.21	23.572
397.57	23.587
397.92	23.653
398.28	24.611
398.64	24.807
399.00	24.944
399.35	23.224
399.71	24.390
400.07	25.194
400.42	24.453
400.78	23.614
401.14	24.371
401.49	24.646
401.85	24.527
402.21	24.553
402.57	24.575
402.92	25.677
403.28	25.184
403.63	23.907
403.99	25.482
404.35	24.758
404.70	25.278
405.06	25.202
405.42	25.277
405.77	24.943
406.13	25.610
406.49	25.944
406.84	26.035
407.20	26.031
407.55	24.889
407.91	25.712
408.27	26.103
408.62	26.578
408.98	26.562
409.34	25.777
409.69	26.465
410.05	25.591
410.40	25.935
410.76	26.319
411.11	26.683
411.47	26.535
411.83	26.650
412.18	25.495
412.54	25.503
412.89	26.731
413.25	25.030
413.60	25.213
413.96	25.200
414.31	26.422
414.67	25.651
415.03	26.326
415.38	26.805
415.74	26.418
416.09	26.598
416.45	25.860
416.80	27.373
417.16	26.777
417.51	28.037
417.87	27.379
418.22	26.738
418.58	26.637
418.93	27.039
419.29	27.290
419.64	26.884
420.00	27.947
420.35	27.499
420.71	26.711
421.06	27.041
421.42	27.635
421.77	28.252
422.12	28.316
422.48	26.670
422.83	27.392
423.19	27.784
423.54	27.378
423.90	27.473
424.25	27.489
424.61	29.192
424.96	28.847
425.31	28.284
425.67	28.309
426.02	28.514
426.38	29.583
426.73	28.404
427.09	29.289
427.44	29.205
427.79	28.895
428.15	29.264
428.50	28.856
428.85	28.957
429.21	29.164
429.56	29.635
429.92	29.860
430.27	29.960
430.62	29.990
430.98	28.751
431.33	29.616
431.68	28.954
432.04	30.666
432.39	29.801
432.74	30.156
433.10	30.051
433.45	31.261
433.80	31.019
434.16	29.500
434.51	30.849
434.86	32.396
435.22	31.904
435.57	31.212
435.92	31.360
436.28	32.285
436.63	30.639
436.98	30.126
437.34	30.892
437.69	31.505
438.04	31.877
438.39	31.348
438.75	31.607
439.10	31.649
439.45	31.261
439.81	30.843
440.16	31.743
440.51	31.529
440.86	31.695
441.22	30.404
441.57	31.211
441.92	31.714
442.27	31.981
442.63	32.725
442.98	32.223
443.33	32.290
443.68	31.735
444.03	32.269
444.39	32.599
444.74	32.434
445.09	32.292
445.44	33.483
445.79	32.381
446.15	32.749
446.50	32.226
446.85	32.478
447.20	32.737
447.55	33.923
447.91	32.285
448.26	32.346
448.61	32.767
448.96	32.941
449.31	33.089
449.66	33.829
450.02	32.742
450.37	32.638
450.72	32.825
451.07	33.250
451.42	32.962
451.77	32.436
452.12	33.135
452.47	32.997
452.83	33.547
453.18	33.270
453.53	33.333
453.88	34.450
454.23	33.313
454.58	34.991
454.93	33.627
455.28	33.270
455.63	34.091
455.98	34.458
456.34	33.609
456.69	35.460
457.04	33.927
457.39	34.211
457.74	34.141
458.09	33.875
458.44	34.642
458.79	33.688
459.14	34.797
459.49	35.110
459.84	34.682
460.19	34.010
460.54	34.543
460.89	33.969
461.24	33.819
461.59	35.170
461.94	34.437
462.29	35.200
462.64	35.178
462.99	35.542
463.34	34.706
463.69	35.305
464.04	33.158
464.39	33.632
464.74	33.806
465.09	34.336
465.44	34.010
465.79	34.067
466.14	35.788
466.49	34.657
466.84	35.114
467.19	34.726
467.54	34.367
467.89	34.464
468.24	35.095
468.59	35.915
468.94	34.727
469.29	34.893
469.64	34.973
469.99	35.517
470.34	35.404
470.68	35.029
471.03	35.375
471.38	35.486
471.73	36.224
472.08	35.676
472.43	35.714
472.78	36.000
473.13	35.255
473.48	36.439
473.83	35.608
474.17	35.987
474.52	36.701
474.87	37.179
475.22	35.870
475.57	35.611
475.92	35.637
476.27	35.371
476.61	36.225
476.96	35.159
477.31	35.414
477.66	35.196
478.01	36.089
478.36	35.464
478.70	36.199
479.05	36.344
479.40	36.114
479.75	35.219
480.10	35.615
480.45	34.478
480.79	36.377
481.14	36.829
481.49	36.108
481.84	36.153
482.19	35.678
482.53	36.316
482.88	35.216
483.23	36.244
483.58	37.188
483.92	36.885
484.27	35.357
484.62	34.903
484.97	34.996
485.31	33.856
485.66	33.081
486.01	32.978
486.36	34.317
486.70	34.963
487.05	34.396
487.40	34.028
487.75	34.363
488.09	33.632
488.44	34.472
488.79	34.878
489.13	35.070
489.48	36.215
489.83	36.070
490.17	34.872
490.52	36.096
490.87	35.704
491.22	36.151
491.56	35.926
491.91	36.975
492.26	35.991
492.60	36.489
492.95	35.697
493.30	36.351
493.64	36.389
493.99	35.707
494.34	37.667
494.68	35.861
495.03	36.042
495.37	36.037
495.72	36.198
496.07	36.039
496.41	36.452
496.76	36.301
497.11	36.599
497.45	36.398
497.80	37.219
498.14	36.640
498.49	35.861
498.84	36.699
499.18	36.404
499.53	35.996
499.87	36.245
500.22	36.814
500.56	37.119
500.91	36.256
501.26	37.215
501.60	36.688
501.95	36.618
502.29	35.664
502.64	37.341
502.98	35.937
503.33	35.573
503.67	35.536
504.02	37.035
504.36	36.471
504.71	36.829
505.06	36.246
505.40	37.275
505.75	36.382
506.09	37.007
506.44	36.742
506.78	36.578
507.13	36.457
507.47	37.507
507.82	36.242
508.16	37.461
508.51	36.837
508.85	37.164
509.19	35.740
509.54	37.209
509.88	37.926
510.23	37.421
510.57	37.619
510.92	38.400
511.26	37.374
511.61	37.311
511.95	36.746
512.30	38.428
512.64	36.950
512.98	37.844
513.33	36.848
513.67	38.582
514.02	36.969
514.36	37.452
514.70	38.993
515.05	38.079
515.39	37.659
515.74	38.511
516.08	38.329
516.42	38.810
516.77	39.168
517.11	38.787
517.46	39.234
517.80	37.786
518.14	37.560
518.49	39.331
518.83	37.685
519.17	38.840
519.52	37.478
519.86	38.769
520.20	39.792
520.55	40.000
520.89	38.572
521.23	38.950
521.58	38.871
521.92	39.899
522.26	39.810
522.61	38.720
522.95	39.694
523.29	40.063
523.64	38.726
523.98	38.638
524.32	38.718
524.66	38.447
525.01	39.756
525.35	38.789
525.69	39.427
526.04	40.405
526.38	40.484
526.72	39.208
527.06	39.779
527.41	39.406
527.75	39.340
528.09	39.444
528.43	38.689
528.78	39.510
529.12	40.461
529.46	39.046
529.80	39.380
530.15	39.601
530.49	37.969
530.83	41.650
531.17	39.259
531.51	39.518
531.86	40.224
532.20	40.351
532.54	39.305
532.88	39.592
533.22	40.107
533.57	39.295
533.91	38.889
534.25	38.843
534.59	38.039
534.93	37.399
535.27	39.144
535.62	39.130
535.96	39.560
536.30	38.024
536.64	40.173
536.98	40.254
537.32	39.530
537.66	38.832
538.01	39.381
538.35	38.784
538.69	38.503
539.03	40.149
539.37	39.721
539.71	39.693
540.05	39.685
540.39	39.820
540.73	38.079
541.07	39.071
541.42	38.420
541.76	38.738
542.10	40.041
542.44	39.907
542.78	39.213
543.12	40.054
543.46	38.219
543.80	38.127
544.14	38.684
544.48	39.108
544.82	38.363
545.16	39.302
545.50	38.694
545.84	38.526
546.18	39.945
546.52	39.331
546.86	40.598
547.20	39.873
547.54	38.567
547.88	38.553
548.22	37.615
548.56	37.742
548.90	38.679
549.24	38.402
549.58	38.109
549.92	39.011
550.26	39.451
550.60	38.549
550.94	39.708
551.28	39.654
551.62	39.586
551.96	39.074
552.30	37.003
552.64	39.409
552.98	39.874
553.32	38.672
553.66	39.366
554.00	39.659
554.34	37.545
554.68	38.816
555.02	40.304
555.36	38.821
555.69	37.751
556.03	39.789
556.37	38.976
556.71	40.372
557.05	40.724
557.39	38.233
557.73	38.950
558.07	40.618
558.41	40.015
558.75	40.228
559.08	38.132
559.42	40.429
559.76	40.184
560.10	41.387
560.44	39.740
560.78	39.179
561.12	39.337
561.45	40.000
561.79	38.885
562.13	40.042
562.47	39.006
562.81	38.685
563.15	39.608
563.48	39.254
563.82	38.878
564.16	39.013
564.50	38.978
564.84	37.434
565.17	38.462
565.51	38.462
565.85	39.689
566.19	38.274
566.52	37.965
566.86	38.622
567.20	37.893
567.54	38.866
567.88	37.130
568.21	37.975
568.55	36.479
568.89	36.779
569.23	35.724
569.56	35.687
569.90	35.169
570.24	35.551
570.57	34.200
570.91	35.022
571.25	34.371
571.59	34.280
571.92	33.512
572.26	34.422
572.60	33.913
572.93	33.137
573.27	33.049
573.61	32.836
573.95	33.715
574.28	32.962
574.62	33.528
574.96	33.300
575.29	32.647
575.63	32.944
575.97	33.145
576.30	32.557
576.64	33.290
576.98	32.993
577.31	32.777
577.65	33.057
577.98	32.655
578.32	33.088
578.66	33.009
578.99	32.959
579.33	32.906
579.67	33.071
580.00	33.061
580.34	33.121
580.67	32.802
581.01	32.107
581.35	32.337
581.68	32.099
582.02	32.587
582.35	32.597
582.69	32.602
583.02	33.179
583.36	33.127
583.70	32.335
584.03	33.702
584.37	32.855
584.70	32.699
585.04	32.506
585.37	32.148
585.71	32.487
586.04	32.877
586.38	32.825
586.72	33.005
587.05	33.588
587.39	33.379
587.72	33.289
588.06	33.177
588.39	32.954
588.73	33.283
589.06	34.047
589.40	34.490
589.73	33.746
590.07	33.030
590.40	32.989
590.73	34.626
591.07	34.385
591.40	35.745
591.74	35.795
592.07	35.000
592.41	35.159
592.74	34.281
593.08	34.260
593.41	34.309
593.75	32.971
594.08	34.687
594.41	34.677
594.75	34.315
595.08	35.038
595.42	34.574
595.75	34.068
596.09	34.614
596.42	35.270
596.75	34.627
597.09	35.263
597.42	34.788
597.75	35.651
598.09	34.433
598.42	34.644
598.76	33.970
599.09	34.688
599.42	33.872
599.76	34.390
600.09	34.924
600.42	34.561
600.76	33.936
601.09	33.802
601.42	33.558
601.76	34.073
602.09	33.620
602.42	35.062
602.76	33.693
603.09	34.637
603.42	34.327
603.76	35.102
604.09	34.802
604.42	35.012
604.76	34.889
605.09	35.172
605.42	35.860
605.75	34.756
606.09	34.579
606.42	34.395
606.75	34.736
607.09	35.112
607.42	35.167
607.75	35.673
608.08	35.789
608.42	36.093
608.75	34.299
609.08	36.045
609.41	34.629
609.75	34.373
610.08	34.706
610.41	34.988
610.74	35.590
611.07	35.649
611.41	35.502
611.74	35.784
612.07	37.325
612.40	35.608
612.73	35.595
613.07	35.223
613.40	37.001
613.73	37.003
614.06	35.640
614.39	35.908
614.72	35.810
615.06	35.924
615.39	35.377
615.72	35.090
616.05	35.837
616.38	36.042
616.71	35.736
617.05	36.550
617.38	36.656
617.71	36.794
618.04	35.776
618.37	37.799
618.70	38.070
619.03	37.373
619.36	38.266
619.69	37.832
620.03	37.259
620.36	37.553
620.69	37.473
621.02	38.052
621.35	39.194
621.68	39.426
622.01	39.401
622.34	37.500
622.67	36.875
623.00	37.567
623.33	39.104
623.66	36.706
623.99	38.421
624.32	37.798
624.65	37.528
624.99	37.117
625.32	38.323
625.65	39.938
625.98	38.576
626.31	39.152
626.64	39.414
626.97	39.041
627.30	39.149
627.63	39.119
627.96	39.774
628.29	40.257
628.62	40.306
628.95	41.240
629.28	40.320
629.61	40.334
629.94	41.682
630.26	41.054
630.59	42.111
630.92	41.441
631.25	42.137
631.58	38.307
631.91	39.787
632.24	42.778
632.57	41.889
632.90	43.333
633.23	42.991
633.56	41.053
633.89	42.217
634.22	41.558
634.55	42.067
634.88	41.354
635.20	40.574
635.53	42.875
635.86	41.688
636.19	40.537
636.52	41.099
636.85	40.674
637.18	41.500
637.51	42.875
637.83	42.610
638.16	41.447
638.49	43.034
638.82	42.342
639.15	42.023
639.48	41.764
639.81	44.952
640.13	41.486
640.46	43.590
640.79	45.098
641.12	41.326
641.45	43.185
641.77	44.611
642.10	45.166
642.43	44.461
642.76	44.882
643.09	43.968
643.41	44.603
643.74	45.787
644.07	44.150
644.40	44.895
644.73	44.224
645.05	44.908
645.38	46.358
645.71	46.907
646.04	46.218
646.36	44.677
646.69	43.945
647.02	48.014
647.35	47.653
647.67	45.073
648.00	46.221
648.33	46.374
648.66	43.871
648.98	43.949
649.31	44.462
649.64	43.750
649.96	43.014
650.29	43.770
650.62	45.095
650.94	43.170
651.27	44.021
651.60	42.907
651.92	45.377
652.25	43.072
652.58	42.760
652.90	43.339
653.23	45.323
653.56	40.635
653.88	42.951
654.21	45.973
654.54	43.189
654.86	43.178
655.19	41.404
655.52	37.793
655.84	32.486
656.17	35.067
656.49	47.860
656.82	48.819
657.15	37.114
657.47	27.249
657.80	21.029
658.13	23.858
658.45	32.007
658.78	31.265
659.10	31.382
659.43	31.537
659.75	31.786
660.08	33.073
660.41	32.798
660.73	37.624
661.06	42.174
661.38	44.464
661.71	43.212
662.03	46.169
662.36	47.122
662.68	44.093
663.01	48.832
663.33	48.299
663.66	47.854
663.98	45.982
664.31	47.875
664.63	49.115
664.96	42.516
665.28	47.722
665.61	41.860
665.93	45.473
666.26	44.534
666.58	47.609
666.91	45.657
667.23	44.737
667.56	47.392
667.88	46.380
668.21	45.853
668.53	47.196
668.86	46.882
669.18	47.489
669.50	45.794
669.83	47.689
670.15	46.861
670.48	46.028
670.80	45.786
671.13	45.824
671.45	46.622
671.77	45.182
672.10	44.379
672.42	41.882
672.75	39.636
673.07	41.261
673.39	42.987
673.72	45.276
674.04	43.737
674.37	45.155
674.69	45.287
675.01	40.638
675.34	42.299
675.66	46.436
675.98	47.357
676.31	47.285
676.63	46.207
676.95	44.690
677.28	43.852
677.60	45.023
677.92	48.018
678.25	44.420
678.57	43.621
678.89	44.444
679.22	41.300
679.54	42.604
679.86	41.200
680.18	43.536
680.51	40.782
680.83	44.762
681.15	41.618
681.48	43.813
681.80	45.363
682.12	44.467
682.44	46.169
682.77	41.342
683.09	44.654
683.41	46.239
683.73	43.379
684.06	42.581
684.38	44.770
684.70	41.975
685.02	43.504
685.34	41.326
685.67	42.614
685.99	43.100
686.31	41.831
686.63	43.440
686.96	40.111
687.28	43.160
687.60	44.531
687.92	41.051
688.24	44.882
688.56	41.884
688.89	41.667
689.21	43.982
689.53	47.356
689.85	45.434
690.17	45.740
690.49	42.263
690.82	44.096
691.14	42.217
691.46	44.568
691.78	44.714
692.10	42.373
692.42	44.444
692.74	42.489
693.06	43.146
693.39	44.295
693.71	44.244
694.03	42.981
694.35	40.406
694.67	45.154
694.99	45.013
695.31	43.367
695.63	45.153
695.95	46.402
696.27	42.394
696.59	45.722
696.91	43.258
697.23	45.833
697.56	41.346
697.88	43.919
698.20	42.612
698.52	40.807
698.84	43.204
699.16	42.143
699.48	41.500
699.80	43.860
700.12	43.577
700.44	46.927
700.76	43.440
701.08	48.547
701.40	43.807
701.72	43.827
702.04	49.359
702.36	47.289
702.68	42.216
703.00	41.739
703.32	44.413
703.64	45.294
703.96	47.674
704.28	47.041
704.60	38.291
704.91	40.952
705.23	45.631
705.55	42.230
705.87	50.512
706.19	45.486
706.51	44.097
706.83	49.836
707.15	45.541
707.47	44.628
707.79	40.722
708.11	38.931
708.43	43.890
708.74	38.961
709.06	41.226
709.38	42.241
709.70	41.250
710.02	45.399
710.34	43.894
710.66	42.857
710.98	45.741
711.29	43.871
711.61	41.534
711.93	45.902
712.25	47.841
712.57	41.463
712.89	45.324
713.20	45.361
713.52	44.030
713.84	44.840
714.16	43.607
714.48	46.667
714.80	42.462
715.11	43.804
715.43	45.482
715.75	42.056
716.07	41.311
716.39	39.465
716.70	48.084
717.02	43.333
717.34	47.328
717.66	51.867
717.97	45.492
718.29	46.639
718.61	51.587
718.93	45.161
719.24	42.279
719.56	38.113
719.88	44.000
720.20	41.948
720.51	43.985
720.83	41.767
721.15	43.852
721.46	50.980
721.78	44.061
722.10	49.200
722.42	43.802
722.73	44.622
723.05	44.578
723.37	44.314
723.68	36.842
724.00	46.748
724.32	49.794
724.63	39.004
724.95	48.347
725.27	35.965
725.58	43.966
725.90	43.651
726.22	49.446
726.53	39.544
726.85	39.608
727.16	45.865
727.48	42.692
727.80	40.984
728.11	44.538
728.43	44.628
728.74	47.656
729.06	42.045
729.38	40.078
729.69	40.551
730.01	44.488
730.32	41.036
730.64	42.491
730.96	42.164
731.27	37.857
731.59	38.907
731.90	38.957
732.22	38.344
732.53	44.040
732.85	39.262
733.16	40.217
733.48	39.721
733.80	41.637
734.11	39.310
734.43	40.476
734.74	43.620
735.06	39.185
735.37	40.061
735.69	39.032
736.00	39.057
736.32	41.391
736.63	38.966
736.95	41.304
737.26	43.709
737.58	41.727
737.89	43.011
738.21	46.992
738.52	43.077
738.83	40.625
739.15	41.026
739.46	40.323
739.78	36.014
740.09	42.308
740.41	39.161
740.72	40.511
741.04	40.079
741.35	41.558
741.66	47.222
741.98	42.381
742.29	44.601
742.61	45.989
742.92	49.533
743.23	42.105
743.55	42.793
743.86	47.111
744.18	41.905
744.49	52.217
744.80	51.269
745.12	44.845
745.43	43.719
745.74	40.291
746.06	42.927
746.37	43.612
746.68	44.279
747.00	42.408
747.31	40.385
747.62	41.935
747.94	44.541
748.25	42.326
748.56	41.905
748.88	47.283
749.19	44.131
749.50	48.039
749.82	42.222
750.13	46.696
750.44	42.683
750.75	40.000
751.07	41.071
751.38	39.483
751.69	39.313
752.01	43.077
752.32	38.132
752.63	42.308
752.94	40.873
753.26	44.783
753.57	48.214
753.88	39.224
754.19	39.419
754.51	37.891
754.82	41.107
755.13	41.564
755.44	41.736
755.75	41.152
756.07	39.357
756.38	43.359
756.69	40.433
757.00	42.509
757.31	37.248
757.63	44.548
757.94	36.416
758.25	38.372
758.56	39.623
758.87	39.205
759.18	39.667
759.50	41.281
759.81	36.861
760.12	37.162
760.43	43.042
760.74	41.875
761.05	41.573
761.36	41.018
761.67	41.716
761.99	32.581
762.30	39.130
762.61	36.604
762.92	47.534
763.23	40.284
763.54	43.111
763.85	40.928
764.16	40.816
764.47	47.034
764.78	41.948
765.10	42.806
765.41	38.065
765.72	38.679
766.03	36.042
766.34	40.977
766.65	40.486
766.96	45.000
767.27	44.792
767.58	33.140
767.89	41.935
768.20	44.172
768.51	42.077
768.82	40.541
769.13	40.000
769.44	32.895
769.75	39.827
770.06	46.789
770.37	36.620
770.68	44.792
770.99	39.109
771.30	38.350
771.61	43.519
771.92	37.662
772.23	40.187
772.54	36.170
772.85	36.686
773.16	50.000
773.47	48.795
773.78	42.308
774.09	42.000
774.39	38.272
774.70	39.597
775.01	42.029
775.32	44.030
775.63	34.711
775.94	46.617
776.25	42.857
776.56	43.443
776.87	41.593
777.18	42.478
777.48	30.000
777.79	29.565
778.10	41.284
778.41	26.271
778.72	43.802
779.03	33.582
779.34	48.872
779.65	33.987
779.95	44.928
780.26	32.653
780.57	36.207
780.88	50.000
781.19	34.343
781.50	19.200
781.80	37.908
782.11	37.179
782.42	42.169
782.73	30.657
783.04	33.108
783.34	37.121
783.65	38.760
783.96	47.967
784.27	44.444
784.57	39.024
784.88	35.772
785.19	42.105
785.50	32.990
785.81	29.524
786.11	44.118
786.42	40.909
786.73	40.541
787.04	36.634
787.34	36.190
787.65	32.381
787.96	29.412
788.26	38.739
788.57	32.258
788.88	32.031
789.19	25.641
789.49	31.092
789.80	31.624
790.11	44.248
790.41	32.323
790.72	44.340
791.03	13.889
791.33	22.368
791.64	51.613
791.95	38.667
792.25	40.000
792.56	18.293
792.87	39.796
793.17	26.316
793.48	24.324
793.79	33.803
794.09	36.709
794.40	23.404
794.70	28.972
795.01	25.439
795.32	32.727
795.62	35.714
795.93	31.959
796.23	25.275
796.54	35.789
796.85	30.137
797.15	5.556
797.46	34.247
797.76	43.662
798.07	35.000
798.37	19.118
798.68	51.429
798.99	25.714
799.29	31.579
799.60	38.333
799.90	13.889
800.21	23.438
800.51	36.508
800.82	36.066
801.12	35.088
801.43	32.394
801.73	25.424
802.04	24.590
802.34	21.818
802.65	23.077
802.95	25.926
803.26	27.500
803.56	44.231
803.87	34.211
804.17	22.581
804.48	23.077
804.78	20.513
805.09	27.907
805.39	0.000
805.70	15.094
806.00	36.842
806.30	52.703
806.61	32.353
806.91	38.272
807.22	32.000
807.52	40.299
807.83	24.194
808.13	30.159
808.43	32.727
808.74	34.848
809.04	37.736
809.35	23.288
809.65	29.825
809.95	38.235
810.26	19.608
810.56	16.000
810.86	14.286
811.17	25.714
811.47	23.077
811.77	16.129
812.08	-7.895
812.38	26.190
812.69	17.391
812.99	19.355
813.29	2.381
813.59	3.704
813.90	23.404
814.20	2.326
814.50	37.500
814.81	13.333
815.11	4.878
815.41	20.000
815.72	28.571
816.02	-8.333
816.32	17.949
816.62	-10.811
816.93	17.647
817.23	15.217
817.53	35.294
817.84	20.588
818.14	-21.875
818.44	10.345
818.74	6.452
819.04	11.111
819.35	23.333
819.65	12.000
819.95	-3.333
820.25	-20.000
820.56	2.632
820.86	-10.000
821.16	36.170
821.46	32.759
821.76	28.205
822.07	-7.500
822.37	11.628
822.67	30.000
822.97	13.514
823.27	24.324
823.57	32.000
823.88	8.108
824.18	-71.429
824.48	34.615
824.78	-84.615
825.08	17.391
825.38	-12.500
825.69	-16.667
825.99	-5.000
826.29	0.000
826.59	-2.941
826.89	12.000
827.19	11.429
827.49	13.158
827.79	-3.125
828.09	-6.667
828.39	0.000
828.70	-20.690
829.00	17.241
829.30	-2.778
829.60	21.875
829.90	22.222
830.20	-19.231
830.50	-19.048
830.80	-10.714
831.10	17.949
831.40	-33.333
831.70	17.647
832.00	-37.500
832.30	-47.368
832.60	-75.000
832.90	25.000
833.20	-58.824
833.50	-53.333
833.80	-46.667
834.10	0.000
834.40	0.000
834.70	11.111
835.00	-3.846
835.30	0.000
835.60	24.138
835.90	-50.000
836.20	-81.818
836.50	-58.333
836.80	0.000
837.10	54.286
837.40	-70.588
837.70	-63.636
838.00	12.500
838.30	-6.250
838.60	14.286
838.90	-15.000
839.19	-43.478
839.49	-26.087
839.79	-55.556
840.09	-86.957
840.39	-50.000
840.69	-31.250
840.99	26.316
841.29	-56.250
841.59	-71.429
841.88	-72.222
842.18	16.667
842.48	-82.353
842.78	-3.448
843.08	-21.429
843.38	-15.385
843.68	-222.222
843.97	-38.462
844.27	-145.455
844.57	-140.000
844.87	20.000
845.17	-160.000
845.47	7.143
845.76	-77.778
846.06	0.000
846.36	-325.000
846.66	-90.000
846.96	-31.579
847.25	-20.833
847.55	-33.333
847.85	-13.333
848.15	-70.000
848.44	19.231
848.74	36.842
849.04	566.667
849.34	0.000
849.63	-63.158
849.93	0.000
850.23	-45.000
850.53	-4.762
850.82	-52.000
851.12	-21.053
851.42	-750.000
851.71	-71.429
852.01	-50.000
852.31	-41.176
852.61	-46.667
852.90	-19.048
853.20	-133.333
853.50	-5.556
853.79	-42.105
854.09	-86.667
854.39	-7.143
854.68	4.348
854.98	-100.000
855.28	-3.448
855.57	-62.500
855.87	-55.000
856.17	-46.667
856.46	24.138
856.76	-53.333
857.05	-47.059
857.35	-38.462
857.65	-72.727
857.94	-11.111
858.24	-71.429
858.53	-64.286
858.83	-33.333
859.13	-200.000
859.42	19.048
859.72	-225.000
860.01	-566.667
860.31	-62.500
860.60	-360.000
860.90	-77.778
861.20	-112.500
861.49	-157.143
861.79	-29.412
862.08	-1050.000
862.38	-150.000
862.67	-61.538
862.97	23.529
863.26	-10.000
863.56	-35.294
863.85	433.333
864.15	-90.000
864.44	-15.385
864.74	15.000
865.03	-112.500
865.33	-300.000
865.62	-70.588
865.92	-400.000
866.21	-78.571
866.51	-133.333
866.80	-100.000
867.10	-500.000
867.39	-64.706
867.69	26.087
867.98	-242.857
868.27	-240.000
868.57	-37.500
868.86	-154.545
869.16	-41.176
869.45	-183.333
869.75	-357.143
870.04	300.000
870.33	-8.333
870.63	-200.000
870.92	-233.333
871.22	-83.333
871.51	-145.455
871.80	-91.667
872.10	20.000
>>>>>End Processed Spectral Data<<<<<
