SpectraSuite Data File
++++++++++++++++++++++++++++++++++++
Date: Sat May 16 11:40:08 PDT 2015
User: schluterlab
Dark Spectrum Present: Yes
Reference Spectrum Present: Yes
Number of Sampled Component Spectra: 1
Spectrometers: USB2E3373
Integration Time (usec): 3000 (USB2E3373)
Spectra Averaged: 3 (USB2E3373)
Boxcar Smoothing: 0 (USB2E3373)
Correct for Electrical Dark: No (USB2E3373)
Strobe/Lamp Enabled: No (USB2E3373)
Correct for Detector Non-linearity: No (USB2E3373)
Correct for Stray Light: No (USB2E3373)
Number of Pixels in Processed Spectrum: 2048
>>>>>Begin Processed Spectral Data<<<<<
178.53	0.000
178.91	93.333
179.29	400.000
179.67	-900.000
180.04	-76.923
180.42	1300.000
180.80	350.000
181.18	425.000
181.56	-75.000
181.94	2000.000
182.31	525.000
182.69	-61.538
183.07	-833.333
183.45	1550.000
183.83	433.333
184.20	-242.857
184.58	-125.000
184.96	-300.000
185.34	106.250
185.72	-350.000
186.09	216.667
186.47	-175.000
186.85	-162.500
187.23	-200.000
187.61	-325.000
187.98	-312.500
188.36	-87.500
188.74	-275.000
189.12	2100.000
189.49	357.143
189.87	-75.000
190.25	550.000
190.63	-64.286
191.00	-155.556
191.38	420.000
191.76	-33.333
192.14	500.000
192.51	-300.000
192.89	-700.000
193.27	0.000
193.65	-155.556
194.02	-214.286
194.40	533.333
194.78	-160.000
195.15	-800.000
195.53	-172.727
195.91	-283.333
196.29	180.000
196.66	-833.333
197.04	1700.000
197.42	-150.000
197.79	-33.333
198.17	-366.667
198.55	-600.000
198.92	-2100.000
199.30	237.500
199.68	-1100.000
200.05	-222.222
200.43	-177.778
200.81	-1300.000
201.18	-58.333
201.56	185.714
201.94	-113.333
202.31	4.545
202.69	-10.000
203.07	-150.000
203.44	600.000
203.82	-383.333
204.19	-425.000
204.57	-450.000
204.95	-1700.000
205.32	-81.250
205.70	2200.000
206.08	-2500.000
206.45	-55.556
206.83	-700.000
207.20	50.000
207.58	-366.667
207.96	-800.000
208.33	-175.000
208.71	-133.333
209.08	260.000
209.46	-128.571
209.84	750.000
210.21	0.000
210.59	5.000
210.96	-0.000
211.34	-100.000
211.71	-166.667
212.09	300.000
212.46	1300.000
212.84	-2400.000
213.22	666.667
213.59	141.667
213.97	-122.222
214.34	230.000
214.72	-10.000
215.09	-633.333
215.47	-300.000
215.84	-60.000
216.22	-50.000
216.59	0.000
216.97	-425.000
217.34	1000.000
217.72	-128.571
218.09	-333.333
218.47	-314.286
218.84	300.000
219.22	-228.571
219.59	0.000
219.97	342.857
220.34	500.000
220.72	337.500
221.09	-138.462
221.47	0.000
221.84	233.333
222.22	-500.000
222.59	1900.000
222.97	-225.000
223.34	-600.000
223.72	-833.333
224.09	-85.714
224.46	-375.000
224.84	-92.857
225.21	-285.714
225.59	-118.182
225.96	-175.000
226.34	-171.429
226.71	-133.333
227.08	-10.000
227.46	2000.000
227.83	-171.429
228.21	-412.500
228.58	200.000
228.95	-50.000
229.33	-2100.000
229.70	-360.000
230.08	-950.000
230.45	8.333
230.82	-216.667
231.20	-800.000
231.57	-800.000
231.95	2000.000
232.32	-9.524
232.69	-211.111
233.07	-285.714
233.44	-700.000
233.81	-46.667
234.19	-188.889
234.56	-75.000
234.93	-3.125
235.31	-371.429
235.68	-164.286
236.05	-105.882
236.43	-72.727
236.80	-25.806
237.17	-20.833
237.55	-42.857
237.92	-50.000
238.29	-57.143
238.67	-8.824
239.04	-8.333
239.41	-51.613
239.79	-69.231
240.16	-33.333
240.53	-40.000
240.91	-28.205
241.28	-23.636
241.65	-12.308
242.02	-13.115
242.40	-36.066
242.77	-13.636
243.14	-50.847
243.51	-30.000
243.89	-5.063
244.26	-11.236
244.63	-9.474
245.00	-11.579
245.38	-8.475
245.75	1.770
246.12	-4.800
246.49	-10.236
246.87	-19.512
247.24	-11.864
247.61	-17.797
247.98	-8.451
248.36	-18.182
248.73	-6.962
249.10	-11.465
249.47	-1.170
249.84	-3.977
250.22	-10.119
250.59	-3.390
250.96	-6.806
251.33	-0.474
251.70	-5.288
252.08	-1.422
252.45	-4.265
252.82	-8.095
253.19	-1.702
253.56	-4.839
253.94	-7.173
254.31	-0.858
254.68	-3.252
255.05	-4.839
255.42	-0.397
255.79	-6.093
256.16	-5.098
256.54	-4.412
256.91	-0.758
257.28	-3.297
257.65	-6.383
258.02	-0.629
258.39	-4.682
258.76	-3.041
259.14	-5.556
259.51	0.328
259.88	-0.305
260.25	-3.416
260.62	-2.894
260.99	-3.858
261.36	1.829
261.73	-0.578
262.10	0.833
262.47	0.000
262.85	3.429
263.22	-5.444
263.59	-7.385
263.96	-2.609
264.33	1.897
264.70	-1.381
265.07	-0.275
265.44	-2.067
265.81	-4.651
266.18	-3.291
266.55	-0.245
266.92	1.763
267.29	-1.937
267.66	-3.704
268.03	0.242
268.40	-0.469
268.77	-1.928
269.14	-2.784
269.51	-0.920
269.88	-1.376
270.25	-3.730
270.62	-3.204
270.99	-2.477
271.36	-2.098
271.73	-3.139
272.10	-0.915
272.47	-1.556
272.84	-1.778
273.21	-0.917
273.58	0.440
273.95	-1.754
274.32	-3.846
274.69	-1.094
275.06	-1.431
275.43	-4.018
275.80	1.426
276.17	-1.464
276.54	0.611
276.91	-2.058
277.28	-1.623
277.65	-1.653
278.02	0.209
278.39	1.375
278.76	-2.390
279.13	0.198
279.50	-1.789
279.87	-2.326
280.23	-3.036
280.60	-2.982
280.97	-2.136
281.34	-3.095
281.71	-0.577
282.08	-1.411
282.45	-3.462
282.82	-1.357
283.19	-0.545
283.56	0.549
283.92	-0.707
284.29	-2.602
284.66	-2.518
285.03	-0.178
285.40	-0.738
285.77	0.175
286.14	-1.264
286.51	-1.776
286.87	-0.907
287.24	0.512
287.61	0.165
287.98	-2.080
288.35	-1.983
288.72	-2.207
289.08	-2.542
289.45	-1.852
289.82	-2.941
290.19	-0.985
290.56	-4.132
290.93	-1.908
291.29	-1.459
291.66	-2.415
292.03	0.471
292.40	-0.301
292.77	-2.329
293.13	-0.488
293.50	-0.594
293.87	-2.147
294.24	0.000
294.60	-1.667
294.97	-0.152
295.34	-3.704
295.71	-0.893
296.08	-1.229
296.44	-2.861
296.81	0.712
297.18	-0.282
297.55	-1.271
297.91	-0.697
298.28	-0.959
298.65	-1.813
299.02	0.401
299.38	-0.401
299.75	-0.815
300.12	-1.154
300.48	-0.512
300.85	-0.655
301.22	0.000
301.59	-1.170
301.95	1.008
302.32	-2.347
302.69	-0.245
303.05	-1.221
303.42	-1.500
303.79	-0.120
304.15	0.237
304.52	-0.350
304.89	-1.535
305.25	-0.611
305.62	-0.353
305.99	1.413
306.35	0.777
306.72	-1.025
307.09	0.795
307.45	0.000
307.82	-0.112
308.19	0.447
308.55	-0.436
308.92	-0.107
309.29	-0.757
309.65	0.636
310.02	2.376
310.38	-1.081
310.75	1.127
311.12	1.136
311.48	1.775
311.85	1.339
312.22	0.721
312.58	1.831
312.95	0.917
313.31	2.198
313.68	1.005
314.05	2.572
314.41	0.101
314.78	1.199
315.14	2.369
315.51	2.330
315.87	3.582
316.24	2.235
316.61	3.551
316.97	2.587
317.34	3.661
317.70	2.690
318.07	4.571
318.43	3.558
318.80	4.507
319.16	3.283
319.53	3.477
319.89	4.045
320.26	4.804
320.62	3.077
320.99	4.080
321.35	3.842
321.72	3.582
322.08	5.539
322.45	3.663
322.81	5.283
323.18	4.131
323.54	5.545
323.91	5.746
324.27	6.654
324.64	5.941
325.00	7.068
325.37	7.330
325.73	8.486
326.10	5.580
326.46	7.881
326.83	7.404
327.19	7.673
327.56	8.603
327.92	9.601
328.29	8.485
328.65	8.000
329.01	9.364
329.38	9.367
329.74	11.081
330.11	9.791
330.47	8.810
330.84	11.091
331.20	9.657
331.56	10.483
331.93	10.480
332.29	9.954
332.66	11.326
333.02	9.864
333.38	11.828
333.75	10.062
334.11	11.556
334.48	10.503
334.84	12.423
335.20	10.904
335.57	11.282
335.93	12.444
336.29	11.869
336.66	9.780
337.02	12.162
337.38	11.765
337.75	10.975
338.11	12.612
338.47	11.566
338.84	11.615
339.20	11.424
339.56	12.032
339.93	10.847
340.29	11.780
340.65	11.538
341.02	11.973
341.38	12.047
341.74	11.600
342.11	11.945
342.47	11.760
342.83	12.007
343.20	11.956
343.56	11.020
343.92	12.270
344.28	12.952
344.65	11.386
345.01	12.353
345.37	12.126
345.73	11.293
346.10	11.284
346.46	11.617
346.82	10.585
347.19	11.257
347.55	12.039
347.91	11.181
348.27	11.138
348.63	12.036
349.00	11.933
349.36	11.007
349.72	11.943
350.08	11.788
350.45	11.348
350.81	12.341
351.17	11.334
351.53	10.819
351.89	11.641
352.26	11.783
352.62	13.671
352.98	12.421
353.34	11.191
353.70	12.046
354.07	11.251
354.43	12.806
354.79	11.965
355.15	11.981
355.51	12.500
355.87	11.542
356.24	11.199
356.60	12.973
356.96	11.701
357.32	11.718
357.68	12.107
358.04	12.856
358.40	12.529
358.77	12.442
359.13	11.859
359.49	11.716
359.85	12.576
360.21	12.785
360.57	13.253
360.93	12.000
361.29	13.229
361.66	11.662
362.02	12.722
362.38	12.399
362.74	12.381
363.10	12.339
363.46	13.462
363.82	13.557
364.18	13.242
364.54	14.081
364.90	13.068
365.26	12.197
365.62	13.329
365.98	13.656
366.35	13.451
366.71	12.967
367.07	13.197
367.43	13.864
367.79	13.814
368.15	12.589
368.51	13.986
368.87	14.904
369.23	13.474
369.59	13.542
369.95	13.742
370.31	14.346
370.67	13.232
371.03	14.067
371.39	12.588
371.75	14.163
372.11	13.989
372.47	13.449
372.83	14.395
373.19	15.214
373.55	15.341
373.91	15.576
374.27	14.579
374.63	14.562
374.99	15.786
375.35	15.007
375.71	16.273
376.07	14.442
376.42	14.901
376.78	15.098
377.14	16.271
377.50	16.312
377.86	15.995
378.22	16.332
378.58	16.430
378.94	16.030
379.30	16.332
379.66	16.879
380.02	16.340
380.38	16.918
380.74	16.647
381.09	17.340
381.45	18.317
381.81	16.697
382.17	16.855
382.53	17.325
382.89	17.703
383.25	18.543
383.61	17.748
383.97	19.596
384.32	17.960
384.68	18.319
385.04	18.176
385.40	17.894
385.76	19.817
386.12	18.114
386.48	18.812
386.83	19.080
387.19	19.605
387.55	19.019
387.91	19.265
388.27	19.119
388.62	19.171
388.98	19.322
389.34	19.767
389.70	19.671
390.06	19.142
390.42	19.103
390.77	20.000
391.13	20.559
391.49	20.524
391.85	20.574
392.20	19.357
392.56	20.464
392.92	20.707
393.28	21.010
393.64	20.746
393.99	20.985
394.35	20.681
394.71	20.877
395.07	21.281
395.42	19.666
395.78	21.056
396.14	21.620
396.50	20.612
396.85	20.666
397.21	20.109
397.57	21.520
397.92	20.726
398.28	20.667
398.64	21.118
399.00	22.528
399.35	20.688
399.71	21.603
400.07	21.791
400.42	22.141
400.78	21.109
401.14	22.156
401.49	21.167
401.85	21.599
402.21	21.097
402.57	21.723
402.92	22.215
403.28	22.426
403.63	20.551
403.99	22.747
404.35	21.498
404.70	21.943
405.06	22.030
405.42	21.156
405.77	21.380
406.13	21.919
406.49	21.270
406.84	21.356
407.20	22.556
407.55	21.976
407.91	21.438
408.27	22.794
408.62	22.369
408.98	21.953
409.34	22.608
409.69	21.613
410.05	22.074
410.40	21.704
410.76	22.525
411.11	22.880
411.47	22.123
411.83	23.411
412.18	22.772
412.54	22.514
412.89	22.539
413.25	21.783
413.60	21.507
413.96	21.996
414.31	23.486
414.67	23.111
415.03	22.316
415.38	22.511
415.74	22.938
416.09	22.442
416.45	22.487
416.80	23.342
417.16	23.056
417.51	23.966
417.87	22.783
418.22	23.198
418.58	23.620
418.93	24.034
419.29	23.965
419.64	23.932
420.00	23.815
420.35	23.536
420.71	24.250
421.06	23.254
421.42	23.361
421.77	23.674
422.12	24.846
422.48	24.693
422.83	25.285
423.19	23.385
423.54	25.187
423.90	24.407
424.25	23.699
424.61	25.633
424.96	25.161
425.31	24.539
425.67	24.355
426.02	24.842
426.38	26.195
426.73	25.424
427.09	25.797
427.44	25.511
427.79	25.058
428.15	25.733
428.50	25.630
428.85	25.540
429.21	25.401
429.56	25.469
429.92	24.800
430.27	25.673
430.62	26.750
430.98	25.666
431.33	26.254
431.68	26.488
432.04	27.084
432.39	27.066
432.74	27.518
433.10	26.337
433.45	26.943
433.80	26.876
434.16	26.276
434.51	27.507
434.86	27.124
435.22	27.060
435.57	26.622
435.92	27.257
436.28	27.359
436.63	27.191
436.98	27.549
437.34	27.702
437.69	26.429
438.04	27.170
438.39	28.941
438.75	28.114
439.10	28.429
439.45	28.063
439.81	27.349
440.16	27.995
440.51	28.353
440.86	28.282
441.22	26.645
441.57	28.105
441.92	27.980
442.27	28.463
442.63	28.648
442.98	27.709
443.33	27.897
443.68	28.661
444.03	27.849
444.39	28.341
444.74	29.240
445.09	28.180
445.44	29.657
445.79	29.271
446.15	29.299
446.50	28.144
446.85	28.066
447.20	28.090
447.55	30.000
447.91	28.860
448.26	28.659
448.61	28.806
448.96	29.636
449.31	29.425
449.66	29.250
450.02	28.809
450.37	28.058
450.72	28.531
451.07	29.793
451.42	28.377
451.77	29.623
452.12	29.797
452.47	28.967
452.83	29.121
453.18	30.234
453.53	30.037
453.88	30.921
454.23	29.383
454.58	30.329
454.93	30.605
455.28	29.700
455.63	29.177
455.98	30.181
456.34	28.780
456.69	31.019
457.04	29.932
457.39	30.024
457.74	29.592
458.09	30.162
458.44	30.600
458.79	29.877
459.14	30.234
459.49	30.610
459.84	29.904
460.19	29.833
460.54	29.885
460.89	29.877
461.24	31.026
461.59	30.129
461.94	30.808
462.29	30.613
462.64	30.237
462.99	31.392
463.34	30.250
463.69	30.852
464.04	30.287
464.39	29.928
464.74	29.905
465.09	29.405
465.44	30.852
465.79	30.400
466.14	30.207
466.49	30.167
466.84	31.032
467.19	30.486
467.54	29.937
467.89	30.703
468.24	30.641
468.59	29.919
468.94	30.096
469.29	31.189
469.64	30.728
469.99	31.398
470.34	31.129
470.68	31.250
471.03	31.177
471.38	30.972
471.73	31.329
472.08	30.455
472.43	30.888
472.78	31.000
473.13	31.213
473.48	30.121
473.83	30.583
474.17	30.701
474.52	33.120
474.87	31.294
475.22	30.796
475.57	31.389
475.92	32.343
476.27	31.314
476.61	30.310
476.96	31.694
477.31	31.755
477.66	30.714
478.01	31.605
478.36	30.959
478.70	31.714
479.05	32.017
479.40	32.176
479.75	31.346
480.10	31.944
480.45	30.996
480.79	32.231
481.14	31.410
481.49	31.946
481.84	31.114
482.19	31.384
482.53	31.203
482.88	31.039
483.23	31.221
483.58	32.424
483.92	31.820
484.27	31.325
484.62	31.231
484.97	30.865
485.31	28.832
485.66	29.092
486.01	29.761
486.36	30.359
486.70	31.019
487.05	30.941
487.40	30.849
487.75	30.460
488.09	29.339
488.44	30.886
488.79	30.279
489.13	30.316
489.48	31.648
489.83	31.485
490.17	31.519
490.52	31.748
490.87	30.577
491.22	31.294
491.56	31.620
491.91	32.061
492.26	31.132
492.60	31.304
492.95	32.223
493.30	31.253
493.64	31.265
493.99	31.023
494.34	31.143
494.68	31.320
495.03	31.023
495.37	31.318
495.72	31.729
496.07	32.098
496.41	32.561
496.76	31.826
497.11	31.653
497.45	32.663
497.80	31.266
498.14	31.385
498.49	31.441
498.84	31.505
499.18	32.164
499.53	31.612
499.87	31.805
500.22	31.912
500.56	31.866
500.91	31.379
501.26	31.684
501.60	30.910
501.95	32.222
502.29	31.271
502.64	31.306
502.98	30.426
503.33	30.921
503.67	30.603
504.02	30.227
504.36	32.010
504.71	30.902
505.06	31.353
505.40	32.086
505.75	31.504
506.09	32.508
506.44	32.030
506.78	31.009
507.13	31.617
507.47	32.238
507.82	31.131
508.16	31.762
508.51	31.839
508.85	31.677
509.19	32.130
509.54	32.135
509.88	32.872
510.23	32.233
510.57	30.952
510.92	32.062
511.26	31.473
511.61	31.587
511.95	31.897
512.30	32.490
512.64	31.386
512.98	32.728
513.33	32.619
513.67	32.049
514.02	32.494
514.36	32.853
514.70	31.636
515.05	32.476
515.39	32.641
515.74	32.984
516.08	32.680
516.42	32.408
516.77	34.547
517.11	32.952
517.46	32.297
517.80	34.055
518.14	32.186
518.49	32.696
518.83	32.226
519.17	34.636
519.52	32.620
519.86	33.035
520.20	33.191
520.55	33.415
520.89	33.312
521.23	33.211
521.58	32.853
521.92	33.439
522.26	34.032
522.61	32.953
522.95	32.802
523.29	33.229
523.64	33.229
523.98	34.373
524.32	32.935
524.66	33.416
525.01	32.563
525.35	33.183
525.69	33.247
526.04	33.159
526.38	35.073
526.72	31.865
527.06	33.464
527.41	33.465
527.75	33.201
528.09	33.951
528.43	34.164
528.78	32.915
529.12	34.443
529.46	33.763
529.80	33.957
530.15	32.904
530.49	33.700
530.83	34.447
531.17	33.131
531.51	33.222
531.86	33.180
532.20	32.726
532.54	34.358
532.88	32.675
533.22	33.021
533.57	34.530
533.91	31.898
534.25	33.375
534.59	32.792
534.93	32.545
535.27	32.599
535.62	32.737
535.96	33.226
536.30	32.526
536.64	33.798
536.98	34.887
537.32	33.241
537.66	33.537
538.01	33.402
538.35	34.054
538.69	32.955
539.03	33.378
539.37	33.067
539.71	32.889
540.05	33.105
540.39	33.864
540.73	32.412
541.07	35.451
541.42	33.086
541.76	32.027
542.10	32.816
542.44	33.178
542.78	33.175
543.12	32.722
543.46	32.260
543.80	31.973
544.14	34.050
544.48	33.858
544.82	33.424
545.16	32.461
545.50	32.167
545.84	32.615
546.18	33.010
546.52	32.361
546.86	32.977
547.20	33.755
547.54	32.025
547.88	33.112
548.22	31.913
548.56	31.931
548.90	32.278
549.24	32.376
549.58	32.604
549.92	32.721
550.26	34.321
550.60	32.504
550.94	35.109
551.28	33.258
551.62	33.604
551.96	33.430
552.30	33.240
552.64	32.301
552.98	34.057
553.32	33.189
553.66	34.895
554.00	33.049
554.34	32.202
554.68	32.749
555.02	32.923
555.36	32.566
555.69	32.736
556.03	32.281
556.37	33.001
556.71	33.214
557.05	33.481
557.39	33.482
557.73	33.406
558.07	33.760
558.41	33.957
558.75	33.916
559.08	33.152
559.42	33.614
559.76	33.512
560.10	32.960
560.44	33.598
560.78	33.333
561.12	32.505
561.45	33.014
561.79	33.449
562.13	32.749
562.47	32.493
562.81	34.300
563.15	33.730
563.48	32.619
563.82	33.266
564.16	31.981
564.50	32.997
564.84	32.804
565.17	31.565
565.51	31.877
565.85	33.198
566.19	33.860
566.52	32.420
566.86	32.807
567.20	33.172
567.54	32.782
567.88	32.607
568.21	31.935
568.55	31.654
568.89	31.561
569.23	31.374
569.56	31.484
569.90	31.078
570.24	31.605
570.57	30.193
570.91	30.330
571.25	30.026
571.59	31.408
571.92	30.387
572.26	30.467
572.60	30.189
572.93	29.793
573.27	29.848
573.61	29.366
573.95	29.803
574.28	29.700
574.62	29.944
574.96	29.736
575.29	29.624
575.63	29.971
575.97	29.800
576.30	28.994
576.64	29.791
576.98	28.938
577.31	29.321
577.65	29.658
577.98	29.147
578.32	29.004
578.66	29.007
578.99	29.926
579.33	29.515
579.67	29.369
580.00	28.695
580.34	29.477
580.67	29.125
581.01	28.885
581.35	29.076
581.68	29.294
582.02	28.768
582.35	29.027
582.69	29.422
583.02	29.664
583.36	29.909
583.70	29.621
584.03	29.930
584.37	29.526
584.70	29.870
585.04	29.570
585.37	28.640
585.71	28.689
586.04	29.230
586.38	29.404
586.72	29.932
587.05	30.218
587.39	29.664
587.72	29.812
588.06	29.546
588.39	29.764
588.73	29.692
589.06	30.115
589.40	30.196
589.73	29.851
590.07	30.371
590.40	30.664
590.73	30.588
591.07	30.615
591.40	31.239
591.74	30.712
592.07	30.360
592.41	30.531
592.74	30.092
593.08	30.518
593.41	29.572
593.75	29.311
594.08	30.841
594.41	30.832
594.75	30.464
595.08	30.827
595.42	29.949
595.75	30.393
596.09	30.384
596.42	30.769
596.75	30.487
597.09	31.745
597.42	31.034
597.75	31.311
598.09	31.360
598.42	30.446
598.76	30.565
599.09	30.426
599.42	29.950
599.76	30.955
600.09	30.687
600.42	30.725
600.76	30.471
601.09	30.384
601.42	30.036
601.76	30.919
602.09	30.511
602.42	30.494
602.76	30.619
603.09	30.726
603.42	30.177
603.76	30.275
604.09	30.356
604.42	30.558
604.76	30.397
605.09	31.420
605.42	30.319
605.75	30.703
606.09	30.967
606.42	30.499
606.75	30.271
607.09	30.701
607.42	30.854
607.75	30.464
608.08	31.179
608.42	31.173
608.75	30.374
609.08	30.882
609.41	31.440
609.75	31.009
610.08	30.833
610.41	31.181
610.74	31.141
611.07	32.201
611.41	30.358
611.74	30.797
612.07	31.901
612.40	30.810
612.73	31.287
613.07	30.600
613.40	32.239
613.73	31.717
614.06	31.247
614.39	32.018
614.72	31.061
615.06	30.652
615.39	30.548
615.72	31.505
616.05	30.922
616.38	31.225
616.71	31.291
617.05	31.363
617.38	31.269
617.71	31.511
618.04	31.491
618.37	32.075
618.70	33.312
619.03	31.550
619.36	32.840
619.69	31.730
620.03	30.785
620.36	31.857
620.69	31.658
621.02	31.811
621.35	32.661
621.68	32.131
622.01	33.738
622.34	33.773
622.67	31.563
623.00	32.823
623.33	32.836
623.66	32.866
623.99	30.977
624.32	32.515
624.65	32.892
624.99	32.263
625.32	32.036
625.65	33.023
625.98	32.786
626.31	33.197
626.64	33.138
626.97	33.134
627.30	33.957
627.63	31.693
627.96	33.072
628.29	33.272
628.62	32.856
628.95	33.366
629.28	33.929
629.61	33.562
629.94	33.743
630.26	33.698
630.59	35.377
630.92	33.033
631.25	34.274
631.58	33.545
631.91	33.191
632.24	35.444
632.57	34.667
632.90	36.897
633.23	32.710
633.56	35.789
633.89	33.726
634.22	34.829
634.55	36.298
634.88	35.067
635.20	35.081
635.53	35.242
635.86	35.642
636.19	35.409
636.52	33.094
636.85	33.935
637.18	33.125
637.51	35.068
637.83	34.088
638.16	34.605
638.49	34.483
638.82	33.848
639.15	34.890
639.48	33.852
639.81	36.376
640.13	32.568
640.46	34.615
640.79	36.555
641.12	35.543
641.45	35.868
641.77	35.778
642.10	36.103
642.43	36.115
642.76	35.276
643.09	34.444
643.41	38.254
643.74	35.135
644.07	33.853
644.40	35.494
644.73	35.809
645.05	34.558
645.38	36.093
645.71	38.144
646.04	36.303
646.36	35.951
646.69	34.948
647.02	36.823
647.35	36.101
647.67	37.044
648.00	37.083
648.33	36.931
648.66	34.355
648.98	35.350
649.31	36.923
649.64	35.781
649.96	34.223
650.29	34.918
650.62	35.972
650.94	37.437
651.27	33.969
651.60	36.505
651.92	35.103
652.25	36.227
652.58	34.242
652.90	33.547
653.23	36.129
653.56	34.281
653.88	36.230
654.21	36.745
654.54	36.379
654.86	35.313
655.19	33.954
655.52	31.897
655.84	29.466
656.17	32.300
656.49	43.288
656.82	44.941
657.15	33.496
657.47	25.049
657.80	18.906
658.13	21.780
658.45	28.819
658.78	28.878
659.10	28.394
659.43	27.832
659.75	27.734
660.08	28.906
660.41	27.757
660.73	29.923
661.06	33.043
661.38	37.857
661.71	33.461
662.03	35.887
662.36	38.806
662.68	36.076
663.01	38.641
663.33	37.188
663.66	36.695
663.98	36.384
664.31	36.913
664.63	40.044
664.96	33.406
665.28	35.575
665.61	36.364
665.93	35.185
666.26	35.223
666.58	35.551
666.91	39.198
667.23	39.693
667.56	36.281
667.88	36.878
668.21	35.253
668.53	35.981
668.86	36.490
669.18	34.703
669.50	37.850
669.83	36.010
670.15	36.323
670.48	36.215
670.80	33.713
671.13	34.989
671.45	32.432
671.77	35.760
672.10	34.122
672.42	33.948
672.75	33.091
673.07	34.054
673.39	33.880
673.72	35.039
674.04	35.032
674.37	32.577
674.69	37.500
675.01	35.106
675.34	33.406
675.66	36.501
675.98	33.040
676.31	35.294
676.63	41.149
676.95	35.619
677.28	37.819
677.60	33.710
677.92	37.445
678.25	37.637
678.57	34.362
678.89	35.010
679.22	33.753
679.54	36.686
679.86	33.400
680.18	36.692
680.51	32.961
680.83	35.429
681.15	35.260
681.48	37.323
681.80	33.468
682.12	35.211
682.44	33.399
682.77	34.632
683.09	35.430
683.41	34.956
683.73	34.018
684.06	35.914
684.38	33.054
684.70	33.539
685.02	34.843
685.34	33.528
685.67	32.386
685.99	33.081
686.31	35.548
686.63	33.156
686.96	34.196
687.28	33.333
687.60	33.984
687.92	31.323
688.24	34.449
688.56	33.667
688.89	32.265
689.21	36.105
689.53	35.862
689.85	34.744
690.17	35.650
690.49	35.797
690.82	34.940
691.14	33.019
691.46	36.807
691.78	37.004
692.10	34.322
692.42	32.889
692.74	31.760
693.06	34.382
693.39	32.662
693.71	34.312
694.03	34.773
694.35	29.571
694.67	34.043
694.99	32.992
695.31	34.439
695.63	32.908
695.95	34.491
696.27	30.923
696.59	36.898
696.91	36.517
697.23	34.375
697.56	32.452
697.88	33.559
698.20	33.405
698.52	32.287
698.84	33.495
699.16	32.381
699.48	33.250
699.80	33.083
700.12	34.257
700.44	33.799
700.76	34.985
701.08	30.523
701.40	32.024
701.72	35.185
702.04	39.744
702.36	35.542
702.68	32.934
703.00	35.942
703.32	32.092
703.64	34.412
703.96	35.174
704.28	35.207
704.60	33.861
704.91	32.698
705.23	37.540
705.55	30.405
705.87	35.836
706.19	31.944
706.51	33.333
706.83	34.426
707.15	35.669
707.47	39.394
707.79	30.412
708.11	33.333
708.43	36.658
708.74	32.208
709.06	31.198
709.38	31.897
709.70	33.750
710.02	34.969
710.34	30.363
710.66	32.698
710.98	29.968
711.29	32.903
711.61	31.629
711.93	31.475
712.25	33.555
712.57	38.328
712.89	35.252
713.20	37.113
713.52	31.343
713.84	34.520
714.16	29.180
714.48	31.429
714.80	36.000
715.11	29.683
715.43	36.747
715.75	33.956
716.07	32.787
716.39	33.779
716.70	36.934
717.02	40.000
717.34	34.351
717.66	37.759
717.97	30.328
718.29	35.294
718.61	39.286
718.93	31.900
719.24	31.250
719.56	32.830
719.88	33.091
720.20	35.581
720.51	38.722
720.83	36.546
721.15	33.607
721.46	30.588
721.78	36.398
722.10	38.000
722.42	30.992
722.73	35.060
723.05	32.530
723.37	35.686
723.68	31.174
724.00	34.959
724.32	34.568
724.63	28.216
724.95	39.669
725.27	31.579
725.58	31.466
725.90	31.349
726.22	36.162
726.53	33.460
726.85	31.373
727.16	38.346
727.48	28.846
727.80	35.246
728.11	31.933
728.43	34.298
728.74	35.156
729.06	34.091
729.38	33.463
729.69	33.465
730.01	33.465
730.32	33.466
730.64	34.432
730.96	37.313
731.27	30.714
731.59	34.727
731.90	30.675
732.22	34.049
732.53	33.113
732.85	28.523
733.16	31.159
733.48	29.268
733.80	34.520
734.11	34.138
734.43	34.694
734.74	31.751
735.06	31.034
735.37	33.333
735.69	32.581
736.00	29.966
736.32	36.093
736.63	25.862
736.95	31.884
737.26	33.775
737.58	33.813
737.89	35.484
738.21	28.571
738.52	35.000
738.83	36.719
739.15	32.906
739.46	35.484
739.78	31.119
740.09	27.972
740.41	29.021
740.72	32.847
741.04	31.746
741.35	24.242
741.66	33.333
741.98	34.286
742.29	35.211
742.61	31.551
742.92	37.383
743.23	25.000
743.55	33.333
743.86	36.444
744.18	31.905
744.49	37.438
744.80	34.518
745.12	36.082
745.43	34.673
745.74	31.553
746.06	33.659
746.37	36.564
746.68	32.836
747.00	38.743
747.31	34.135
747.62	32.719
747.94	28.821
748.25	30.698
748.56	35.238
748.88	26.630
749.19	37.559
749.50	40.686
749.82	34.222
750.13	35.683
750.44	33.740
750.75	35.600
751.07	31.071
751.38	29.520
751.69	29.008
752.01	29.231
752.32	29.572
752.63	29.615
752.94	30.556
753.26	31.739
753.57	32.143
753.88	33.621
754.19	28.631
754.51	32.422
754.82	35.178
755.13	37.037
755.44	31.405
755.75	31.276
756.07	22.088
756.38	30.859
756.69	31.408
757.00	30.314
757.31	34.228
757.63	35.514
757.94	31.792
758.25	33.430
758.56	36.388
758.87	32.102
759.18	29.000
759.50	33.452
759.81	30.292
760.12	30.405
760.43	34.628
760.74	30.625
761.05	30.899
761.36	30.838
761.67	29.882
761.99	28.065
762.30	33.333
762.61	33.585
762.92	34.081
763.23	33.175
763.54	29.333
763.85	33.755
764.16	31.020
764.47	32.203
764.78	36.704
765.10	29.856
765.41	25.806
765.72	29.560
766.03	28.622
766.34	32.331
766.65	24.291
766.96	34.500
767.27	27.604
767.58	34.884
767.89	29.032
768.20	37.423
768.51	31.148
768.82	25.946
769.13	28.000
769.44	28.509
769.75	32.035
770.06	34.862
770.37	29.577
770.68	32.812
770.99	26.238
771.30	31.068
771.61	29.167
771.92	29.437
772.23	35.514
772.54	31.915
772.85	27.219
773.16	36.585
773.47	34.940
773.78	34.066
774.09	28.667
774.39	25.309
774.70	31.544
775.01	34.058
775.32	30.597
775.63	21.488
775.94	39.098
776.25	27.143
776.56	27.869
776.87	33.628
777.18	36.283
777.48	25.455
777.79	24.348
778.10	29.358
778.41	32.203
778.72	34.711
779.03	29.104
779.34	31.579
779.65	36.601
779.95	28.986
780.26	23.810
780.57	18.103
780.88	28.704
781.19	11.111
781.50	23.200
781.80	26.144
782.11	27.564
782.42	29.518
782.73	15.328
783.04	33.784
783.34	29.545
783.65	24.806
783.96	30.894
784.27	32.479
784.57	22.764
784.88	24.390
785.19	35.965
785.50	22.680
785.81	26.667
786.11	13.725
786.42	27.273
786.73	33.333
787.04	36.634
787.34	21.905
787.65	17.143
787.96	25.490
788.26	21.622
788.57	33.871
788.88	23.438
789.19	18.803
789.49	27.731
789.80	23.077
790.11	28.319
790.41	19.192
790.72	29.245
791.03	13.889
791.33	17.105
791.64	13.978
791.95	26.667
792.25	25.714
792.56	21.951
792.87	36.735
793.17	27.632
793.48	10.811
793.79	12.676
794.09	24.051
794.40	31.915
794.70	27.103
795.01	24.561
795.32	20.909
795.62	27.679
795.93	18.557
796.23	27.473
796.54	23.158
796.85	34.247
797.15	8.333
797.46	10.959
797.76	23.944
798.07	32.500
798.37	16.176
798.68	25.714
798.99	21.429
799.29	27.632
799.60	28.333
799.90	6.944
800.21	26.562
800.51	39.683
800.82	6.557
801.12	31.579
801.43	11.268
801.73	10.169
802.04	21.311
802.34	9.091
802.65	23.077
802.95	7.407
803.26	17.500
803.56	15.385
803.87	5.263
804.17	24.194
804.48	12.308
804.78	-7.692
805.09	9.302
805.39	-25.000
805.70	11.321
806.00	31.579
806.30	22.973
806.61	19.118
806.91	14.815
807.22	22.667
807.52	23.881
807.83	29.032
808.13	12.698
808.43	-3.636
808.74	22.727
809.04	1.887
809.35	19.178
809.65	15.789
809.95	16.176
810.26	23.529
810.56	-16.000
810.86	4.082
811.17	34.286
811.47	11.538
811.77	48.387
812.08	-57.895
812.38	14.286
812.69	-17.391
812.99	6.452
813.29	0.000
813.59	-40.741
813.90	-10.638
814.20	-18.605
814.50	8.333
814.81	6.667
815.11	7.317
815.41	-16.667
815.72	8.571
816.02	-27.778
816.32	23.077
816.62	29.730
816.93	-8.824
817.23	-4.348
817.53	32.353
817.84	17.647
818.14	-18.750
818.44	-10.345
818.74	-19.355
819.04	0.000
819.35	-6.667
819.65	-32.000
819.95	-10.000
820.25	4.000
820.56	-7.895
820.86	2.500
821.16	-4.255
821.46	13.793
821.76	7.692
822.07	2.500
822.37	9.302
822.67	-40.000
822.97	-8.108
823.27	8.108
823.57	20.000
823.88	29.730
824.18	-28.571
824.48	-11.538
824.78	-123.077
825.08	4.348
825.38	-25.000
825.69	-8.333
825.99	-85.000
826.29	-29.730
826.59	5.882
826.89	4.000
827.19	22.857
827.49	-7.895
827.79	-12.500
828.09	-16.667
828.39	-4.348
828.70	-17.241
829.00	3.448
829.30	16.667
829.60	21.875
829.90	11.111
830.20	-34.615
830.50	-76.190
830.80	-25.000
831.10	15.385
831.40	-80.952
831.70	-17.647
832.00	4.167
832.30	-42.105
832.60	-37.500
832.90	-158.333
833.20	-76.471
833.50	-113.333
833.80	-60.000
834.10	0.000
834.40	-25.000
834.70	-22.222
835.00	-11.538
835.30	-4.167
835.60	0.000
835.90	-122.222
836.20	-63.636
836.50	-158.333
836.80	5.714
837.10	42.857
837.40	-58.824
837.70	-100.000
838.00	-20.833
838.30	-50.000
838.60	-47.619
838.90	10.000
839.19	-26.087
839.49	4.348
839.79	-44.444
840.09	-69.565
840.39	-59.091
840.69	-31.250
840.99	-89.474
841.29	-68.750
841.59	-21.429
841.88	-33.333
842.18	20.833
842.48	-82.353
842.78	-3.448
843.08	-64.286
843.38	-30.769
843.68	-188.889
843.97	-115.385
844.27	-90.909
844.57	-260.000
844.87	32.000
845.17	-200.000
845.47	-135.714
845.76	-177.778
846.06	0.000
846.36	-375.000
846.66	-180.000
846.96	-31.579
847.25	-50.000
847.55	-66.667
847.85	6.667
848.15	-70.000
848.44	53.846
848.74	-10.526
849.04	533.333
849.34	-100.000
849.63	-63.158
849.93	0.000
850.23	-10.000
850.53	-57.143
850.82	-28.000
851.12	-73.684
851.42	-1400.000
851.71	-35.714
852.01	-41.667
852.31	-88.235
852.61	-26.667
852.90	-23.810
853.20	-133.333
853.50	-27.778
853.79	-57.895
854.09	-93.333
854.39	-3.571
854.68	-43.478
854.98	-183.333
855.28	20.690
855.57	0.000
855.87	-50.000
856.17	-133.333
856.46	-13.793
856.76	-33.333
857.05	-88.235
857.35	-138.462
857.65	-136.364
857.94	25.926
858.24	-85.714
858.53	-85.714
858.83	-100.000
859.13	-144.444
859.42	0.000
859.72	-225.000
860.01	-400.000
860.31	-150.000
860.60	-480.000
860.90	-222.222
861.20	-112.500
861.49	-171.429
861.79	0.000
862.08	-800.000
862.38	-200.000
862.67	-46.154
862.97	17.647
863.26	-30.000
863.56	-17.647
863.85	566.667
864.15	-190.000
864.44	-76.923
864.74	5.000
865.03	-187.500
865.33	-166.667
865.62	-76.471
865.92	-675.000
866.21	-64.286
866.51	-75.000
866.80	-1400.000
867.10	-533.333
867.39	0.000
867.69	4.348
867.98	-185.714
868.27	-240.000
868.57	-50.000
868.86	-163.636
869.16	-41.176
869.45	-266.667
869.75	-271.429
870.04	1500.000
870.33	-83.333
870.63	-20.000
870.92	22.222
871.22	-41.667
871.51	-136.364
871.80	-91.667
872.10	-40.000
>>>>>End Processed Spectral Data<<<<<
