SpectraSuite Data File
++++++++++++++++++++++++++++++++++++
Date: Sat May 16 11:31:58 PDT 2015
User: schluterlab
Dark Spectrum Present: Yes
Reference Spectrum Present: Yes
Number of Sampled Component Spectra: 1
Spectrometers: USB2E3373
Integration Time (usec): 3000 (USB2E3373)
Spectra Averaged: 3 (USB2E3373)
Boxcar Smoothing: 0 (USB2E3373)
Correct for Electrical Dark: No (USB2E3373)
Strobe/Lamp Enabled: No (USB2E3373)
Correct for Detector Non-linearity: No (USB2E3373)
Correct for Stray Light: No (USB2E3373)
Number of Pixels in Processed Spectrum: 2048
>>>>>Begin Processed Spectral Data<<<<<
178.53	0.000
178.91	120.000
179.29	733.333
179.67	-1900.000
180.04	-69.231
180.42	900.000
180.80	375.000
181.18	750.000
181.56	-100.000
181.94	-400.000
182.31	525.000
182.69	-100.000
183.07	-433.333
183.45	1800.000
183.83	700.000
184.20	-228.571
184.58	-175.000
184.96	-375.000
185.34	112.500
185.72	-550.000
186.09	333.333
186.47	-237.500
186.85	-162.500
187.23	62.500
187.61	-200.000
187.98	-362.500
188.36	-37.500
188.74	-175.000
189.12	200.000
189.49	214.286
189.87	-125.000
190.25	350.000
190.63	-28.571
191.00	-144.444
191.38	440.000
191.76	-6.667
192.14	500.000
192.51	-280.000
192.89	-433.333
193.27	0.000
193.65	-77.778
194.02	-214.286
194.40	433.333
194.78	-70.000
195.15	-1200.000
195.53	-118.182
195.91	-400.000
196.29	300.000
196.66	-500.000
197.04	1800.000
197.42	-300.000
197.79	-33.333
198.17	-166.667
198.55	-650.000
198.92	-1800.000
199.30	200.000
199.68	-550.000
200.05	-88.889
200.43	-255.556
200.81	-1000.000
201.18	-108.333
201.56	100.000
201.94	-80.000
202.31	9.091
202.69	-70.000
203.07	-60.000
203.44	300.000
203.82	-283.333
204.19	-250.000
204.57	-125.000
204.95	-1000.000
205.32	-25.000
205.70	1100.000
206.08	-1800.000
206.45	-33.333
206.83	-1000.000
207.20	0.000
207.58	-666.667
207.96	-566.667
208.33	-162.500
208.71	-66.667
209.08	120.000
209.46	-114.286
209.84	250.000
210.21	0.000
210.59	40.000
210.96	600.000
211.34	-350.000
211.71	-500.000
212.09	325.000
212.46	900.000
212.84	-1300.000
213.22	600.000
213.59	91.667
213.97	-100.000
214.34	130.000
214.72	-50.000
215.09	-733.333
215.47	-200.000
215.84	-70.000
216.22	-70.000
216.59	-40.000
216.97	-400.000
217.34	1100.000
217.72	-42.857
218.09	-283.333
218.47	-171.429
218.84	128.571
219.22	71.429
219.59	0.000
219.97	300.000
220.34	350.000
220.72	312.500
221.09	-23.077
221.47	0.000
221.84	433.333
222.22	-500.000
222.59	1000.000
222.97	-125.000
223.34	-1350.000
223.72	-533.333
224.09	-57.143
224.46	-225.000
224.84	-78.571
225.21	-100.000
225.59	-118.182
225.96	-75.000
226.34	-185.714
226.71	-100.000
227.08	10.000
227.46	1600.000
227.83	-214.286
228.21	-187.500
228.58	250.000
228.95	-68.750
229.33	-2800.000
229.70	-340.000
230.08	-1350.000
230.45	-58.333
230.82	-116.667
231.20	-1600.000
231.57	-500.000
231.95	1100.000
232.32	-14.286
232.69	-277.778
233.07	-342.857
233.44	-800.000
233.81	-106.667
234.19	11.111
234.56	-31.250
234.93	-15.625
235.31	-142.857
235.68	-121.429
236.05	-94.118
236.43	-50.000
236.80	-29.032
237.17	-54.167
237.55	-9.524
237.92	-68.182
238.29	-5.714
238.67	-32.353
239.04	33.333
239.41	-38.710
239.79	-30.769
240.16	-23.810
240.53	-30.909
240.91	28.205
241.28	-10.909
241.65	3.077
242.02	6.557
242.40	9.836
242.77	9.091
243.14	-5.085
243.51	-10.000
243.89	7.595
244.26	0.000
244.63	4.211
245.00	15.789
245.38	16.949
245.75	6.195
246.12	8.000
246.49	1.575
246.87	-3.252
247.24	-4.237
247.61	1.695
247.98	6.338
248.36	9.790
248.73	8.861
249.10	1.274
249.47	10.526
249.84	9.659
250.22	3.571
250.59	12.429
250.96	8.901
251.33	14.218
251.70	12.981
252.08	11.848
252.45	8.057
252.82	6.667
253.19	7.234
253.56	11.290
253.94	10.970
254.31	9.442
254.68	16.260
255.05	7.258
255.42	14.683
255.79	12.903
256.16	14.510
256.54	17.279
256.91	8.712
257.28	8.059
257.65	10.638
258.02	16.981
258.39	11.371
258.76	9.797
259.14	11.420
259.51	14.426
259.88	13.720
260.25	13.665
260.62	13.505
260.99	9.199
261.36	11.890
261.73	15.029
262.10	12.778
262.47	12.821
262.85	13.714
263.22	10.315
263.59	10.769
263.96	15.362
264.33	15.989
264.70	10.221
265.07	12.637
265.44	12.920
265.81	14.729
266.18	11.899
266.55	13.480
266.92	15.113
267.29	12.591
267.66	14.815
268.03	13.768
268.40	13.615
268.77	12.289
269.14	8.353
269.51	13.793
269.88	12.385
270.25	8.392
270.62	13.272
270.99	13.514
271.36	13.054
271.73	10.762
272.10	14.874
272.47	11.333
272.84	13.556
273.21	11.239
273.58	10.989
273.95	12.281
274.32	15.385
274.69	14.004
275.06	13.497
275.43	11.384
275.80	14.053
276.17	13.598
276.54	14.868
276.91	14.198
277.28	14.807
277.65	12.810
278.02	11.900
278.39	13.360
278.76	13.944
279.13	13.241
279.50	14.911
279.87	11.205
280.23	15.182
280.60	13.519
280.97	13.981
281.34	13.540
281.71	14.038
282.08	11.895
282.45	13.238
282.82	12.403
283.19	13.091
283.56	13.004
283.92	12.367
284.29	11.524
284.66	10.432
285.03	15.686
285.40	12.177
285.77	13.509
286.14	14.079
286.51	11.012
286.87	14.701
287.24	15.017
287.61	13.884
287.98	14.385
288.35	11.405
288.72	12.903
289.08	11.695
289.45	14.310
289.82	12.111
290.19	12.972
290.56	9.752
290.93	12.083
291.29	11.345
291.66	12.882
292.03	13.344
292.40	12.651
292.77	12.112
293.13	12.195
293.50	13.819
293.87	13.344
294.24	12.821
294.60	10.606
294.97	12.443
295.34	12.148
295.71	12.798
296.08	12.289
296.44	12.303
296.81	14.245
297.18	12.254
297.55	12.712
297.91	14.505
298.28	11.781
298.65	10.879
299.02	13.102
299.38	13.102
299.75	12.500
300.12	12.179
300.48	12.404
300.85	13.106
301.22	13.195
301.59	11.964
301.95	14.232
302.32	10.169
302.69	13.464
303.05	10.989
303.42	11.750
303.79	12.201
304.15	12.322
304.52	13.069
304.89	12.515
305.25	13.797
305.62	11.163
305.99	15.430
306.35	13.873
306.72	13.098
307.09	14.188
307.45	13.053
307.82	13.184
308.19	14.094
308.55	11.983
308.92	12.137
309.29	13.838
309.65	12.513
310.02	14.147
310.38	12.108
310.75	13.320
311.12	14.773
311.48	13.152
311.85	12.564
312.22	14.624
312.58	15.361
312.95	12.640
313.31	13.786
313.68	15.176
314.05	15.134
314.41	13.481
314.78	13.886
315.14	17.078
315.51	12.969
315.87	14.908
316.24	15.160
316.61	16.507
316.97	15.721
317.34	14.836
317.70	16.234
318.07	16.604
318.43	16.479
318.80	17.746
319.16	16.792
319.53	17.293
319.89	15.898
320.26	17.059
320.62	16.346
320.99	18.010
321.35	15.567
321.72	17.298
322.08	18.595
322.45	18.416
322.81	20.077
323.18	19.404
323.54	19.316
323.91	20.760
324.27	20.722
324.64	20.841
325.00	20.244
325.37	20.814
325.73	22.485
326.10	20.372
326.46	21.629
326.83	21.362
327.19	22.519
327.56	23.765
327.92	23.364
328.29	23.723
328.65	23.909
329.01	23.763
329.38	24.532
329.74	24.634
330.11	24.025
330.47	24.977
330.84	25.848
331.20	25.000
331.56	24.704
331.93	25.133
332.29	27.123
332.66	25.285
333.02	26.697
333.38	27.240
333.75	26.269
334.11	26.756
334.48	27.008
334.84	26.597
335.20	27.128
335.57	26.444
335.93	27.484
336.29	26.572
336.66	25.463
337.02	27.117
337.38	26.471
337.75	26.251
338.11	27.728
338.47	26.423
338.84	26.588
339.20	26.274
339.56	27.451
339.93	26.543
340.29	27.369
340.65	26.399
341.02	26.981
341.38	27.296
341.74	27.604
342.11	27.645
342.47	27.811
342.83	27.204
343.20	27.925
343.56	26.122
343.92	27.295
344.28	28.259
344.65	27.723
345.01	28.319
345.37	27.159
345.73	26.678
346.10	27.473
346.46	26.483
346.82	26.624
347.19	27.938
347.55	27.047
347.91	27.638
348.27	27.924
348.63	28.837
349.00	27.526
349.36	26.073
349.72	28.424
350.08	27.747
350.45	27.581
350.81	27.627
351.17	27.412
351.53	27.446
351.89	28.618
352.26	28.140
352.62	28.802
352.98	26.899
353.34	28.777
353.70	27.336
354.07	29.111
354.43	29.091
354.79	29.635
355.15	28.914
355.51	29.141
355.87	28.775
356.24	28.594
356.60	30.218
356.96	30.562
357.32	28.424
357.68	29.502
358.04	28.791
358.40	27.842
358.77	29.289
359.13	28.845
359.49	29.630
359.85	28.277
360.21	28.767
360.57	30.873
360.93	30.074
361.29	29.895
361.66	28.659
362.02	29.142
362.38	30.154
362.74	29.890
363.10	28.766
363.46	29.701
363.82	30.394
364.18	30.174
364.54	29.950
364.90	30.189
365.26	29.743
365.62	30.577
365.98	30.939
366.35	30.704
366.71	29.810
367.07	29.711
367.43	31.915
367.79	30.103
368.15	30.085
368.51	30.559
368.87	31.456
369.23	31.228
369.59	29.653
369.95	31.360
370.31	31.083
370.67	30.658
371.03	31.706
371.39	30.057
371.75	32.403
372.11	32.066
372.47	32.683
372.83	33.102
373.19	32.714
373.55	32.090
373.91	32.290
374.27	32.033
374.63	31.401
374.99	33.102
375.35	32.032
375.71	33.356
376.07	32.854
376.42	30.993
376.78	34.118
377.14	33.695
377.50	32.624
377.86	32.965
378.22	33.291
378.58	32.551
378.94	33.600
379.30	33.638
379.66	34.791
380.02	32.917
380.38	33.958
380.74	33.177
381.09	32.982
381.45	35.382
381.81	33.515
382.17	34.461
382.53	35.137
382.89	34.270
383.25	35.400
383.61	35.259
383.97	35.028
384.32	35.169
384.68	36.820
385.04	34.843
385.40	34.936
385.76	35.244
386.12	35.603
386.48	35.829
386.83	36.135
387.19	35.326
387.55	35.191
387.91	35.625
388.27	34.620
388.62	35.337
388.98	35.857
389.34	35.067
389.70	36.906
390.06	35.799
390.42	36.154
390.77	36.341
391.13	37.578
391.49	36.494
391.85	36.721
392.20	35.862
392.56	36.469
392.92	36.908
393.28	36.797
393.64	37.763
393.99	38.523
394.35	38.200
394.71	37.925
395.07	37.414
395.42	37.008
395.78	37.712
396.14	38.380
396.50	37.309
396.85	38.001
397.21	37.363
397.57	38.055
397.92	37.822
398.28	37.556
398.64	37.656
399.00	39.326
399.35	37.599
399.71	39.024
400.07	38.448
400.42	39.112
400.78	36.971
401.14	37.006
401.49	37.736
401.85	39.536
402.21	38.737
402.57	38.167
402.92	39.333
403.28	38.174
403.63	36.848
403.99	38.906
404.35	36.775
404.70	38.327
405.06	39.043
405.42	38.561
405.77	38.348
406.13	37.933
406.49	39.365
406.84	38.572
407.20	39.282
407.55	38.315
407.91	38.536
408.27	39.338
408.62	39.146
408.98	39.297
409.34	38.452
409.69	39.256
410.05	38.084
410.40	40.037
410.76	39.360
411.11	39.838
411.47	38.171
411.83	40.037
412.18	38.861
412.54	38.926
412.89	39.550
413.25	38.666
413.60	39.368
413.96	38.078
414.31	40.734
414.67	39.937
415.03	39.715
415.38	40.599
415.74	41.173
416.09	39.898
416.45	40.278
416.80	40.767
417.16	39.867
417.51	41.628
417.87	40.065
418.22	41.530
418.58	39.281
418.93	40.159
419.29	40.652
419.64	40.766
420.00	42.345
420.35	41.041
420.71	41.537
421.06	42.071
421.42	40.984
421.77	40.313
422.12	40.963
422.48	41.208
422.83	41.230
423.19	42.205
423.54	42.651
423.90	40.717
424.25	42.308
424.61	43.245
424.96	43.066
425.31	43.208
425.67	44.011
426.02	41.939
426.38	43.073
426.73	43.776
427.09	42.218
427.44	43.125
427.79	42.791
428.15	43.627
428.50	44.106
428.85	44.365
429.21	43.940
429.56	44.167
429.92	44.790
430.27	43.370
430.62	45.559
430.98	44.328
431.33	44.771
431.68	45.684
432.04	45.551
432.39	45.356
432.74	44.245
433.10	45.414
433.45	45.826
433.80	45.689
434.16	45.621
434.51	45.808
434.86	46.690
435.22	45.991
435.57	45.900
435.92	45.897
436.28	47.122
436.63	46.467
436.98	45.246
437.34	46.013
437.69	46.733
438.04	46.171
438.39	47.834
438.75	46.275
439.10	47.307
439.45	48.099
439.81	47.410
440.16	47.303
440.51	48.412
440.86	47.600
441.22	46.877
441.57	48.421
441.92	46.854
442.27	47.890
442.63	46.620
442.98	47.178
443.33	47.227
443.68	47.942
444.03	48.527
444.39	47.577
444.74	49.725
445.09	47.643
445.44	49.128
445.79	49.720
446.15	49.945
446.50	48.340
446.85	47.665
447.20	48.264
447.55	49.834
447.91	49.579
448.26	48.324
448.61	49.236
448.96	50.420
449.31	50.000
449.66	49.227
450.02	48.033
450.37	49.565
450.72	49.040
451.07	50.597
451.42	48.203
451.77	50.090
452.12	49.881
452.47	50.315
452.83	49.563
453.18	49.905
453.53	50.311
453.88	50.299
454.23	49.395
454.58	52.517
454.93	51.196
455.28	51.370
455.63	50.614
455.98	51.627
456.34	50.762
456.69	51.907
457.04	51.567
457.39	51.914
457.74	50.443
458.09	51.682
458.44	52.598
458.79	50.673
459.14	50.713
459.49	51.273
459.84	50.478
460.19	51.372
460.54	50.393
460.89	51.513
461.24	51.548
461.59	51.583
461.94	52.260
462.29	51.817
462.64	52.108
462.99	51.941
463.34	52.330
463.69	51.718
464.04	49.912
464.39	52.031
464.74	51.596
465.09	50.812
465.44	51.269
465.79	51.551
466.14	52.359
466.49	52.216
466.84	52.581
467.19	52.120
467.54	51.392
467.89	52.898
468.24	52.078
468.59	52.780
468.94	53.569
469.29	50.877
469.64	52.224
469.99	52.600
470.34	54.843
470.68	53.706
471.03	53.544
471.38	53.750
471.73	54.126
472.08	53.815
472.43	53.153
472.78	54.333
473.13	52.750
473.48	53.797
473.83	52.357
474.17	54.013
474.52	53.772
474.87	53.263
475.22	52.861
475.57	53.278
475.92	53.942
476.27	53.371
476.61	52.901
476.96	53.549
477.31	53.498
477.66	53.348
478.01	53.647
478.36	52.436
478.70	54.031
479.05	53.759
479.40	53.731
479.75	54.383
480.10	54.067
480.45	51.741
480.79	53.356
481.14	54.591
481.49	54.163
481.84	52.751
482.19	52.307
482.53	53.504
482.88	53.346
483.23	54.038
483.58	53.793
483.92	53.942
484.27	52.193
484.62	53.391
484.97	51.559
485.31	50.464
485.66	48.556
486.01	49.173
486.36	50.946
486.70	51.808
487.05	51.155
487.40	51.335
487.75	51.600
488.09	50.834
488.44	51.725
488.79	52.883
489.13	52.948
489.48	53.711
489.83	53.275
490.17	53.200
490.52	54.257
490.87	53.903
491.22	53.760
491.56	53.935
491.91	54.676
492.26	53.491
492.60	54.567
492.95	53.498
493.30	54.597
493.64	53.362
493.99	53.920
494.34	53.762
494.68	53.652
495.03	53.681
495.37	55.310
495.72	54.371
496.07	54.341
496.41	55.303
496.76	54.566
497.11	54.969
497.45	53.975
497.80	55.578
498.14	54.175
498.49	54.847
498.84	54.223
499.18	54.581
499.53	54.311
499.87	55.164
500.22	54.657
500.56	53.477
500.91	54.680
501.26	55.556
501.60	53.779
501.95	56.087
502.29	54.606
502.64	53.843
502.98	53.570
503.33	53.759
503.67	54.933
504.02	54.611
504.36	54.706
504.71	55.066
505.06	54.368
505.40	54.990
505.75	54.776
506.09	56.117
506.44	53.935
506.78	54.089
507.13	54.531
507.47	56.129
507.82	54.982
508.16	55.181
508.51	55.384
508.85	54.865
509.19	55.521
509.54	56.025
509.88	56.543
510.23	55.870
510.57	57.725
510.92	55.961
511.26	54.971
511.61	55.400
511.95	55.334
512.30	56.295
512.64	55.871
512.98	55.996
513.33	56.123
513.67	56.281
514.02	55.257
514.36	56.343
514.70	56.876
515.05	55.918
515.39	56.517
515.74	57.941
516.08	55.850
516.42	56.997
516.77	57.019
517.11	55.778
517.46	57.476
517.80	59.507
518.14	58.273
518.49	58.637
518.83	58.101
519.17	58.141
519.52	56.564
519.86	57.706
520.20	59.719
520.55	58.831
520.89	57.358
521.23	58.974
521.58	57.304
521.92	59.848
522.26	58.794
522.61	58.175
522.95	58.264
523.29	57.931
523.64	58.151
523.98	58.116
524.32	58.894
524.66	57.391
525.01	59.088
525.35	59.085
525.69	58.426
526.04	59.008
526.38	59.898
526.72	56.386
527.06	58.919
527.41	58.944
527.75	58.086
528.09	59.563
528.43	59.279
528.78	58.166
529.12	58.707
529.46	59.601
529.80	58.683
530.15	58.339
530.49	57.503
530.83	58.415
531.17	60.202
531.51	59.344
531.86	58.196
532.20	60.256
532.54	58.757
532.88	58.235
533.22	58.289
533.57	58.420
533.91	57.428
534.25	57.134
534.59	56.340
534.93	55.632
535.27	59.660
535.62	58.824
535.96	56.755
536.30	56.675
536.64	57.371
536.98	58.757
537.32	57.360
537.66	58.316
538.01	58.694
538.35	57.230
538.69	56.618
539.03	57.075
539.37	58.084
539.71	55.971
540.05	58.602
540.39	59.280
540.73	58.328
541.07	59.085
541.42	56.651
541.76	57.076
542.10	58.879
542.44	57.828
542.78	58.209
543.12	58.724
543.46	56.438
543.80	57.391
544.14	57.152
544.48	58.268
544.82	58.187
545.16	57.814
545.50	56.326
545.84	57.093
546.18	57.559
546.52	58.819
546.86	57.479
547.20	57.876
547.54	56.474
547.88	55.674
548.22	55.242
548.56	56.446
548.90	57.884
549.24	56.973
549.58	56.669
549.92	56.678
550.26	58.598
550.60	56.828
550.94	58.832
551.28	58.315
551.62	58.198
551.96	57.959
552.30	57.003
552.64	56.791
552.98	56.202
553.32	57.287
553.66	58.399
554.00	57.996
554.34	55.884
554.68	56.506
555.02	58.683
555.36	56.362
555.69	57.163
556.03	56.842
556.37	57.752
556.71	57.838
557.05	58.315
557.39	57.758
557.73	57.622
558.07	58.930
558.41	57.741
558.75	58.783
559.08	58.054
559.42	57.734
559.76	58.282
560.10	58.911
560.44	59.032
560.78	57.829
561.12	56.798
561.45	57.397
561.79	57.840
562.13	57.433
562.47	56.092
562.81	56.436
563.15	55.983
563.48	57.015
563.82	56.389
564.16	55.172
564.50	56.116
564.84	55.952
565.17	56.432
565.51	56.063
565.85	57.674
566.19	56.917
566.52	55.251
566.86	56.005
567.20	57.082
567.54	56.172
567.88	52.596
568.21	54.027
568.55	54.666
568.89	52.535
569.23	53.447
569.56	51.576
569.90	51.810
570.24	51.372
570.57	49.561
570.91	50.119
571.25	49.903
571.59	50.765
571.92	49.345
572.26	49.191
572.60	49.426
572.93	49.489
573.27	48.963
573.61	48.523
573.95	48.696
574.28	48.136
574.62	48.907
574.96	48.230
575.29	48.577
575.63	48.580
575.97	48.220
576.30	48.095
576.64	47.859
576.98	47.176
577.31	48.582
577.65	47.596
577.98	47.229
578.32	48.179
578.66	48.176
578.99	47.982
579.33	47.777
579.67	48.111
580.00	47.941
580.34	48.557
580.67	48.615
581.01	47.395
581.35	47.780
581.68	47.004
582.02	47.531
582.35	47.517
582.69	47.575
583.02	47.900
583.36	48.522
583.70	48.310
584.03	48.087
584.37	48.363
584.70	48.454
585.04	48.380
585.37	47.518
585.71	48.670
586.04	48.328
586.38	48.650
586.72	48.450
587.05	48.995
587.39	48.539
587.72	48.553
588.06	49.216
588.39	47.907
588.73	49.004
589.06	49.329
589.40	50.120
589.73	49.363
590.07	49.745
590.40	49.779
590.73	50.340
591.07	50.492
591.40	50.520
591.74	50.738
592.07	51.126
592.41	51.125
592.74	49.308
593.08	49.399
593.41	48.586
593.75	49.093
594.08	49.856
594.41	49.575
594.75	49.755
595.08	50.338
595.42	50.036
595.75	49.210
596.09	49.942
596.42	49.468
596.75	50.108
597.09	49.777
597.42	50.589
597.75	50.089
598.09	51.378
598.42	50.199
598.76	49.626
599.09	48.895
599.42	49.519
599.76	49.453
600.09	49.733
600.42	50.133
600.76	49.266
601.09	49.753
601.42	49.901
601.76	49.688
602.09	49.898
602.42	49.588
602.76	49.688
603.09	48.911
603.42	50.403
603.76	51.217
604.09	50.581
604.42	48.959
604.76	49.978
605.09	50.136
605.42	50.621
605.75	49.418
606.09	49.191
606.42	49.644
606.75	48.647
607.09	51.390
607.42	49.384
607.75	50.243
608.08	50.249
608.42	51.325
608.75	49.626
609.08	50.706
609.41	50.623
609.75	49.391
610.08	51.863
610.41	51.807
610.74	52.128
611.07	51.572
611.41	50.580
611.74	50.746
612.07	51.719
612.40	51.546
612.73	50.781
613.07	51.073
613.40	52.107
613.73	51.390
614.06	50.741
614.39	52.198
614.72	50.950
615.06	51.250
615.39	49.702
615.72	52.471
616.05	50.911
616.38	52.815
616.71	52.613
617.05	52.413
617.38	52.632
617.71	51.597
618.04	51.988
618.37	52.453
618.70	54.237
619.03	53.148
619.36	53.841
619.69	53.123
620.03	52.548
620.36	54.430
620.69	54.128
621.02	55.632
621.35	54.919
621.68	54.754
622.01	55.744
622.34	55.280
622.67	53.516
623.00	55.318
623.33	54.552
623.66	53.102
623.99	55.188
624.32	54.836
624.65	54.746
624.99	54.444
625.32	53.892
625.65	54.701
625.98	54.147
626.31	54.568
626.64	57.322
626.97	56.336
627.30	54.979
627.63	54.922
627.96	57.093
628.29	58.824
628.62	56.829
628.95	59.449
629.28	56.485
629.61	56.820
629.94	56.522
630.26	58.946
630.59	58.191
630.92	58.458
631.25	58.972
631.58	60.423
631.91	55.745
632.24	59.333
632.57	59.111
632.90	58.966
633.23	60.397
633.56	59.181
633.89	59.788
634.22	58.678
634.55	60.216
634.88	60.701
635.20	59.675
635.53	60.305
635.86	61.461
636.19	57.021
636.52	58.065
636.85	56.799
637.18	60.000
637.51	60.843
637.83	60.586
638.16	61.053
638.49	62.207
638.82	59.202
639.15	61.089
639.48	59.014
639.81	61.272
640.13	59.324
640.46	61.823
640.79	60.924
641.12	59.520
641.45	60.976
641.77	60.629
642.10	61.329
642.43	65.099
642.76	64.724
643.09	62.857
643.41	59.683
643.74	62.321
644.07	64.899
644.40	63.533
644.73	63.861
645.05	61.269
645.38	65.066
645.71	65.636
646.04	64.370
646.36	64.223
646.69	63.841
647.02	67.148
647.35	67.329
647.67	63.869
648.00	65.729
648.33	65.261
648.66	60.000
648.98	62.580
649.31	60.000
649.64	59.687
649.96	59.655
650.29	61.803
650.62	63.855
650.94	63.406
651.27	64.298
651.60	64.533
651.92	62.158
652.25	64.441
652.58	61.329
652.90	62.279
653.23	62.419
653.56	60.535
653.88	59.180
654.21	61.409
654.54	62.791
654.86	60.995
655.19	59.169
655.52	52.305
655.84	46.424
656.17	49.512
656.49	66.661
656.82	68.918
657.15	52.682
657.47	39.012
657.80	30.208
658.13	34.164
658.45	46.379
658.78	46.691
659.10	46.052
659.43	46.418
659.75	47.679
660.08	48.646
660.41	48.576
660.73	54.015
661.06	60.580
661.38	62.500
661.71	63.480
662.03	64.718
662.36	64.819
662.68	65.190
663.01	67.091
663.33	71.882
663.66	64.163
663.98	67.411
664.31	67.785
664.63	68.142
664.96	64.859
665.28	69.414
665.61	65.116
665.93	66.049
666.26	62.753
666.58	64.033
666.91	67.706
667.23	66.228
667.56	66.893
667.88	65.385
668.21	69.355
668.53	65.421
668.86	67.667
669.18	68.493
669.50	64.720
669.83	70.073
670.15	65.022
670.48	65.421
670.80	63.326
671.13	60.497
671.45	61.937
671.77	62.099
672.10	62.327
672.42	57.749
672.75	62.364
673.07	59.459
673.39	60.838
673.72	62.598
674.04	60.722
674.37	62.268
674.69	62.500
675.01	60.213
675.34	64.642
675.66	63.283
675.98	62.555
676.31	65.611
676.63	64.598
676.95	63.053
677.28	63.805
677.60	66.516
677.92	67.181
678.25	61.926
678.57	63.992
678.89	63.522
679.22	63.941
679.54	60.158
679.86	61.600
680.18	60.266
680.51	57.914
680.83	58.857
681.15	59.538
681.48	64.503
681.80	60.685
682.12	61.167
682.44	58.743
682.77	56.926
683.09	60.377
683.41	63.717
683.73	60.959
684.06	62.581
684.38	64.226
684.70	59.671
685.02	58.661
685.34	60.819
685.67	61.174
685.99	56.333
686.31	60.323
686.63	58.865
686.96	58.595
687.28	55.684
687.60	62.305
687.92	59.339
688.24	59.843
688.56	58.918
688.89	59.402
689.21	60.394
689.53	61.609
689.85	61.247
690.17	63.229
690.49	62.587
690.82	65.060
691.14	61.792
691.46	60.310
691.78	61.454
692.10	61.229
692.42	59.556
692.74	59.227
693.06	62.247
693.39	59.060
693.71	62.077
694.03	60.907
694.35	59.819
694.67	58.629
694.99	59.847
695.31	62.245
695.63	58.673
695.95	58.809
696.27	62.594
696.59	62.834
696.91	65.730
697.23	61.198
697.56	58.173
697.88	60.811
698.20	56.317
698.52	57.399
698.84	64.563
699.16	57.381
699.48	53.750
699.80	59.649
700.12	56.927
700.44	63.128
700.76	62.391
701.08	63.081
701.40	63.444
701.72	62.346
702.04	68.269
702.36	62.048
702.68	60.778
703.00	61.159
703.32	58.453
703.64	65.000
703.96	65.988
704.28	61.834
704.60	62.658
704.91	63.492
705.23	64.078
705.55	66.554
705.87	67.918
706.19	64.236
706.51	64.236
706.83	61.967
707.15	63.057
707.47	60.055
707.79	58.505
708.11	54.707
708.43	60.349
708.74	55.584
709.06	57.660
709.38	56.897
709.70	60.625
710.02	64.110
710.34	59.406
710.66	58.730
710.98	62.145
711.29	58.065
711.61	59.105
711.93	59.344
712.25	64.784
712.57	60.976
712.89	68.345
713.20	61.856
713.52	60.448
713.84	58.363
714.16	61.311
714.48	61.587
714.80	58.462
715.11	57.061
715.43	60.241
715.75	58.879
716.07	59.344
716.39	61.204
716.70	59.930
717.02	66.667
717.34	63.740
717.66	67.220
717.97	62.295
718.29	63.445
718.61	69.048
718.93	60.215
719.24	56.985
719.56	59.245
719.88	64.727
720.20	57.678
720.51	62.782
720.83	63.454
721.15	65.984
721.46	60.784
721.78	59.387
722.10	59.600
722.42	58.264
722.73	59.363
723.05	59.036
723.37	61.569
723.68	60.324
724.00	65.041
724.32	64.198
724.63	56.432
724.95	62.397
725.27	58.772
725.58	63.793
725.90	56.746
726.22	62.362
726.53	58.555
726.85	61.569
727.16	62.030
727.48	60.385
727.80	61.066
728.11	57.983
728.43	61.983
728.74	56.250
729.06	64.394
729.38	58.366
729.69	60.630
730.01	59.843
730.32	60.558
730.64	61.905
730.96	60.075
731.27	61.786
731.59	51.447
731.90	53.988
732.22	53.067
732.53	59.603
732.85	51.342
733.16	55.435
733.48	59.930
733.80	58.719
734.11	61.034
734.43	57.823
734.74	55.786
735.06	54.232
735.37	54.128
735.69	53.548
736.00	52.189
736.32	54.305
736.63	55.172
736.95	60.507
737.26	52.649
737.58	58.273
737.89	54.480
738.21	56.391
738.52	56.538
738.83	58.984
739.15	58.547
739.46	58.065
739.78	56.294
740.09	54.895
740.41	54.545
740.72	53.650
741.04	58.730
741.35	59.307
741.66	63.426
741.98	60.952
742.29	61.033
742.61	56.684
742.92	70.093
743.23	58.772
743.55	62.162
743.86	63.111
744.18	57.619
744.49	67.488
744.80	68.528
745.12	70.103
745.43	62.312
745.74	64.078
746.06	58.537
746.37	54.626
746.68	56.219
747.00	60.733
747.31	52.885
747.62	57.143
747.94	55.459
748.25	65.116
748.56	62.857
748.88	63.587
749.19	54.460
749.50	66.667
749.82	60.889
750.13	66.520
750.44	59.756
750.75	64.000
751.07	56.071
751.38	54.982
751.69	55.344
752.01	58.077
752.32	59.922
752.63	53.462
752.94	54.365
753.26	60.435
753.57	61.607
753.88	56.897
754.19	60.996
754.51	56.641
754.82	56.126
755.13	58.436
755.44	55.372
755.75	62.140
756.07	51.004
756.38	58.984
756.69	55.235
757.00	56.794
757.31	58.054
757.63	54.206
757.94	55.780
758.25	52.616
758.56	57.951
758.87	54.545
759.18	55.667
759.50	56.584
759.81	53.650
760.12	55.068
760.43	56.958
760.74	59.062
761.05	56.461
761.36	56.886
761.67	57.692
761.99	54.839
762.30	60.145
762.61	53.962
762.92	62.332
763.23	62.085
763.54	56.889
763.85	58.228
764.16	56.327
764.47	61.864
764.78	58.052
765.10	60.072
765.41	53.226
765.72	51.887
766.03	46.290
766.34	56.391
766.65	55.061
766.96	59.000
767.27	60.417
767.58	59.302
767.89	65.806
768.20	59.509
768.51	59.563
768.82	63.243
769.13	54.500
769.44	54.386
769.75	54.113
770.06	59.174
770.37	59.155
770.68	59.896
770.99	62.376
771.30	52.913
771.61	61.111
771.92	53.247
772.23	57.477
772.54	53.723
772.85	62.722
773.16	62.805
773.47	62.651
773.78	56.593
774.09	63.333
774.39	59.877
774.70	63.758
775.01	56.522
775.32	49.254
775.63	60.331
775.94	49.624
776.25	50.714
776.56	63.115
776.87	62.832
777.18	53.097
777.48	61.818
777.79	47.826
778.10	51.376
778.41	58.475
778.72	55.372
779.03	55.224
779.34	69.173
779.65	64.706
779.95	67.391
780.26	46.939
780.57	59.483
780.88	57.407
781.19	51.515
781.50	47.200
781.80	58.824
782.11	56.410
782.42	50.000
782.73	45.255
783.04	57.432
783.34	55.303
783.65	57.364
783.96	54.472
784.27	62.393
784.57	47.967
784.88	45.528
785.19	61.404
785.50	51.546
785.81	54.286
786.11	52.941
786.42	58.182
786.73	57.658
787.04	76.238
787.34	61.905
787.65	68.571
787.96	58.824
788.26	56.757
788.57	49.194
788.88	53.906
789.19	52.991
789.49	36.975
789.80	63.248
790.11	46.018
790.41	57.576
790.72	52.830
791.03	50.000
791.33	61.842
791.64	48.387
791.95	48.000
792.25	60.000
792.56	59.756
792.87	48.980
793.17	67.105
793.48	45.946
793.79	42.254
794.09	43.038
794.40	45.745
794.70	48.598
795.01	38.596
795.32	49.091
795.62	40.179
795.93	64.948
796.23	43.956
796.54	65.263
796.85	38.356
797.15	40.278
797.46	52.055
797.76	56.338
798.07	52.500
798.37	64.706
798.68	64.286
798.99	58.571
799.29	60.526
799.60	66.667
799.90	47.222
800.21	45.312
800.51	52.381
800.82	49.180
801.12	71.930
801.43	43.662
801.73	35.593
802.04	52.459
802.34	36.364
802.65	55.769
802.95	70.370
803.26	52.500
803.56	57.692
803.87	50.000
804.17	54.839
804.48	47.692
804.78	53.846
805.09	41.860
805.39	50.000
805.70	16.981
806.00	47.368
806.30	50.000
806.61	48.529
806.91	46.914
807.22	38.667
807.52	50.746
807.83	40.323
808.13	36.508
808.43	47.273
808.74	45.455
809.04	58.491
809.35	39.726
809.65	63.158
809.95	57.353
810.26	47.059
810.56	30.000
810.86	46.939
811.17	45.714
811.47	44.231
811.77	83.871
812.08	18.421
812.38	35.714
812.69	28.261
812.99	45.161
813.29	33.333
813.59	0.000
813.90	25.532
814.20	27.907
814.50	58.333
814.81	36.667
815.11	56.098
815.41	76.667
815.72	85.714
816.02	22.222
816.32	51.282
816.62	62.162
816.93	26.471
817.23	34.783
817.53	52.941
817.84	38.235
818.14	25.000
818.44	34.483
818.74	38.710
819.04	44.444
819.35	70.000
819.65	48.000
819.95	46.667
820.25	24.000
820.56	0.000
820.86	25.000
821.16	40.426
821.46	22.414
821.76	17.949
822.07	15.000
822.37	41.860
822.67	33.333
822.97	5.405
823.27	24.324
823.57	64.000
823.88	48.649
824.18	19.048
824.48	30.769
824.78	-38.462
825.08	30.435
825.38	41.667
825.69	58.333
825.99	0.000
826.29	27.027
826.59	-5.882
826.89	108.000
827.19	34.286
827.49	39.474
827.79	6.250
828.09	23.333
828.39	30.435
828.70	44.828
829.00	24.138
829.30	36.111
829.60	65.625
829.90	0.000
830.20	50.000
830.50	-66.667
830.80	3.571
831.10	43.590
831.40	-4.762
831.70	8.824
832.00	62.500
832.30	-36.842
832.60	-6.250
832.90	-25.000
833.20	-52.941
833.50	-20.000
833.80	-73.333
834.10	0.000
834.40	12.500
834.70	55.556
835.00	61.538
835.30	-8.333
835.60	20.690
835.90	-22.222
836.20	63.636
836.50	-91.667
836.80	25.714
837.10	57.143
837.40	17.647
837.70	9.091
838.00	16.667
838.30	75.000
838.60	42.857
838.90	25.000
839.19	-4.348
839.49	-8.696
839.79	-55.556
840.09	8.696
840.39	-27.273
840.69	-25.000
840.99	-21.053
841.29	6.250
841.59	14.286
841.88	-27.778
842.18	8.333
842.48	-52.941
842.78	0.000
843.08	14.286
843.38	7.692
843.68	-122.222
843.97	-115.385
844.27	9.091
844.57	-20.000
844.87	76.000
845.17	40.000
845.47	-35.714
845.76	-33.333
846.06	0.000
846.36	-125.000
846.66	-90.000
846.96	0.000
847.25	20.833
847.55	-100.000
847.85	20.000
848.15	-60.000
848.44	42.308
848.74	26.316
849.04	466.667
849.34	-66.667
849.63	-68.421
849.93	0.000
850.23	-5.000
850.53	52.381
850.82	4.000
851.12	-15.789
851.42	-300.000
851.71	42.857
852.01	-75.000
852.31	-23.529
852.61	20.000
852.90	-14.286
853.20	-116.667
853.50	-22.222
853.79	-52.632
854.09	6.667
854.39	7.143
854.68	-39.130
854.98	-50.000
855.28	13.793
855.57	6.250
855.87	20.000
856.17	-33.333
856.46	37.931
856.76	-20.000
857.05	-29.412
857.35	-107.692
857.65	36.364
857.94	0.000
858.24	-100.000
858.53	-50.000
858.83	-75.000
859.13	-133.333
859.42	42.857
859.72	-75.000
860.01	-266.667
860.31	-87.500
860.60	-440.000
860.90	-122.222
861.20	-200.000
861.49	-185.714
861.79	17.647
862.08	-450.000
862.38	-125.000
862.67	-30.769
862.97	-17.647
863.26	15.000
863.56	-17.647
863.85	-0.000
864.15	-110.000
864.44	-76.923
864.74	30.000
865.03	-125.000
865.33	0.000
865.62	70.588
865.92	-350.000
866.21	-107.143
866.51	-75.000
866.80	-300.000
867.10	-100.000
867.39	-41.176
867.69	30.435
867.98	-85.714
868.27	-260.000
868.57	-62.500
868.86	-90.909
869.16	-29.412
869.45	-150.000
869.75	-128.571
870.04	1600.000
870.33	-33.333
870.63	-220.000
870.92	-122.222
871.22	-175.000
871.51	-72.727
871.80	58.333
872.10	-20.000
>>>>>End Processed Spectral Data<<<<<
