SpectraSuite Data File
++++++++++++++++++++++++++++++++++++
Date: Sat May 16 11:07:29 PDT 2015
User: schluterlab
Dark Spectrum Present: Yes
Reference Spectrum Present: Yes
Number of Sampled Component Spectra: 1
Spectrometers: USB2E3373
Integration Time (usec): 3000 (USB2E3373)
Spectra Averaged: 3 (USB2E3373)
Boxcar Smoothing: 0 (USB2E3373)
Correct for Electrical Dark: No (USB2E3373)
Strobe/Lamp Enabled: No (USB2E3373)
Correct for Detector Non-linearity: No (USB2E3373)
Correct for Stray Light: No (USB2E3373)
Number of Pixels in Processed Spectrum: 2048
>>>>>Begin Processed Spectral Data<<<<<
178.53	0.000
178.91	-26.667
179.29	33.333
179.67	1200.000
180.04	23.077
180.42	-200.000
180.80	-125.000
181.18	50.000
181.56	62.500
181.94	-700.000
182.31	225.000
182.69	76.923
183.07	133.333
183.45	800.000
183.83	-0.000
184.20	0.000
184.58	-12.500
184.96	25.000
185.34	18.750
185.72	-375.000
186.09	133.333
186.47	-75.000
186.85	-100.000
187.23	125.000
187.61	25.000
187.98	-112.500
188.36	75.000
188.74	37.500
189.12	500.000
189.49	128.571
189.87	166.667
190.25	-25.000
190.63	21.429
191.00	-88.889
191.38	240.000
191.76	46.667
192.14	400.000
192.51	80.000
192.89	-200.000
193.27	0.000
193.65	-33.333
194.02	57.143
194.40	400.000
194.78	20.000
195.15	-200.000
195.53	72.727
195.91	-216.667
196.29	-120.000
196.66	-300.000
197.04	500.000
197.42	200.000
197.79	86.667
198.17	-166.667
198.55	-200.000
198.92	1000.000
199.30	87.500
199.68	-200.000
200.05	-11.111
200.43	-55.556
200.81	100.000
201.18	-50.000
201.56	57.143
201.94	-33.333
202.31	72.727
202.69	30.000
203.07	30.000
203.44	-0.000
203.82	-16.667
204.19	-175.000
204.57	125.000
204.95	-600.000
205.32	112.500
205.70	300.000
206.08	-900.000
206.45	22.222
206.83	-650.000
207.20	250.000
207.58	-233.333
207.96	133.333
208.33	87.500
208.71	88.889
209.08	60.000
209.46	57.143
209.84	50.000
210.21	0.000
210.59	65.000
210.96	200.000
211.34	33.333
211.71	100.000
212.09	175.000
212.46	150.000
212.84	-700.000
213.22	66.667
213.59	83.333
213.97	66.667
214.34	110.000
214.72	90.000
215.09	-100.000
215.47	83.333
215.84	-30.000
216.22	-10.000
216.59	100.000
216.97	-225.000
217.34	-250.000
217.72	-14.286
218.09	-66.667
218.47	-42.857
218.84	-42.857
219.22	-71.429
219.59	0.000
219.97	114.286
220.34	150.000
220.72	-12.500
221.09	15.385
221.47	0.000
221.84	433.333
222.22	400.000
222.59	-500.000
222.97	25.000
223.34	0.000
223.72	33.333
224.09	-7.143
224.46	25.000
224.84	-42.857
225.21	-85.714
225.59	-27.273
225.96	25.000
226.34	157.143
226.71	55.556
227.08	65.000
227.46	900.000
227.83	-14.286
228.21	-75.000
228.58	-950.000
228.95	75.000
229.33	-100.000
229.70	-140.000
230.08	-250.000
230.45	83.333
230.82	233.333
231.20	400.000
231.57	300.000
231.95	-400.000
232.32	38.095
232.69	66.667
233.07	-114.286
233.44	-600.000
233.81	13.333
234.19	0.000
234.56	0.000
234.93	37.500
235.31	0.000
235.68	-28.571
236.05	35.294
236.43	-36.364
236.80	38.710
237.17	-12.500
237.55	9.524
237.92	-59.091
238.29	-2.857
238.67	17.647
239.04	13.889
239.41	-25.806
239.79	-15.385
240.16	-9.524
240.53	-1.818
240.91	10.256
241.28	30.909
241.65	15.385
242.02	6.557
242.40	-4.918
242.77	7.576
243.14	8.475
243.51	-2.857
243.89	-10.127
244.26	4.494
244.63	5.263
245.00	6.316
245.38	8.475
245.75	8.850
246.12	3.200
246.49	10.236
246.87	4.065
247.24	-6.780
247.61	-2.542
247.98	5.634
248.36	-1.399
248.73	10.127
249.10	2.548
249.47	4.094
249.84	2.273
250.22	-4.762
250.59	4.520
250.96	11.518
251.33	7.109
251.70	4.808
252.08	10.900
252.45	5.687
252.82	0.476
253.19	6.809
253.56	7.258
253.94	3.797
254.31	3.433
254.68	6.911
255.05	2.016
255.42	6.746
255.79	2.509
256.16	7.451
256.54	5.515
256.91	3.030
257.28	0.000
257.65	3.546
258.02	8.491
258.39	4.013
258.76	4.054
259.14	1.543
259.51	6.885
259.88	4.573
260.25	5.901
260.62	6.431
260.99	6.231
261.36	4.268
261.73	6.358
262.10	5.556
262.47	5.128
262.85	6.000
263.22	4.585
263.59	2.769
263.96	4.638
264.33	7.859
264.70	7.459
265.07	4.396
265.44	6.202
265.81	2.584
266.18	4.304
266.55	4.412
266.92	7.053
267.29	4.358
267.66	3.457
268.03	7.246
268.40	6.573
268.77	3.373
269.14	4.408
269.51	4.138
269.88	4.358
270.25	1.399
270.62	3.890
270.99	6.081
271.36	4.196
271.73	6.054
272.10	3.890
272.47	4.222
272.84	7.556
273.21	5.275
273.58	5.495
273.95	4.605
274.32	4.977
274.69	8.534
275.06	7.771
275.43	2.679
275.80	4.888
276.17	4.812
276.54	6.721
276.91	3.292
277.28	6.085
277.65	6.198
278.02	6.263
278.39	6.287
278.76	4.183
279.13	4.545
279.50	5.567
279.87	4.228
280.23	6.478
280.60	4.175
280.97	3.301
281.34	3.482
281.71	5.000
282.08	4.839
282.45	3.055
282.82	4.070
283.19	6.000
283.56	6.044
283.92	7.774
284.29	3.532
284.66	5.396
285.03	6.061
285.40	5.720
285.77	5.088
286.14	5.235
286.51	5.151
286.87	5.445
287.24	5.461
287.61	5.620
287.98	2.946
288.35	2.479
288.72	4.075
289.08	3.559
289.45	6.566
289.82	2.595
290.19	6.404
290.56	3.802
290.93	4.134
291.29	2.269
291.66	3.704
292.03	6.279
292.40	4.669
292.77	5.124
293.13	4.553
293.50	4.903
293.87	5.521
294.24	3.620
294.60	2.424
294.97	6.677
295.34	3.407
295.71	4.613
296.08	3.226
296.44	4.292
296.81	3.989
297.18	1.972
297.55	4.661
297.91	4.045
298.28	4.521
298.65	3.487
299.02	5.214
299.38	3.342
299.75	3.940
300.12	5.128
300.48	4.987
300.85	3.670
301.22	4.787
301.59	3.901
301.95	5.416
302.32	2.608
302.69	5.630
303.05	3.297
303.42	3.750
303.79	3.708
304.15	4.147
304.52	5.018
304.89	3.542
305.25	4.518
305.62	4.700
305.99	5.300
306.35	4.772
306.72	4.100
307.09	4.881
307.45	4.200
307.82	3.352
308.19	4.139
308.55	4.248
308.92	3.115
309.29	4.108
309.65	3.606
310.02	3.888
310.38	3.135
310.75	4.816
311.12	6.302
311.48	4.697
311.85	5.046
312.22	4.222
312.58	5.900
312.95	4.179
313.31	5.495
313.68	6.131
314.05	5.242
314.41	4.427
314.78	4.396
315.14	5.726
315.51	4.762
315.87	5.808
316.24	6.025
316.61	6.238
316.97	6.269
317.34	6.647
317.70	5.937
318.07	7.090
318.43	6.367
318.80	8.075
319.16	6.848
319.53	7.049
319.89	7.056
320.26	6.863
320.62	6.731
320.99	6.169
321.35	7.882
321.72	7.267
322.08	8.309
322.45	7.327
322.81	7.877
323.18	8.934
323.54	8.041
323.91	9.546
324.27	7.795
324.64	9.232
325.00	7.941
325.37	8.688
325.73	10.936
326.10	7.617
326.46	9.282
326.83	9.277
327.19	9.675
327.56	10.392
327.92	10.365
328.29	9.264
328.65	8.818
329.01	10.689
329.38	9.723
329.74	11.264
330.11	10.698
330.47	9.537
330.84	10.266
331.20	10.108
331.56	9.936
331.93	10.480
332.29	11.598
332.66	10.272
333.02	10.679
333.38	11.290
333.75	11.576
334.11	10.489
334.48	10.503
334.84	11.986
335.20	11.436
335.57	10.018
335.93	11.012
336.29	10.806
336.66	10.661
337.02	11.171
337.38	10.784
337.75	11.677
338.11	11.538
338.47	12.278
338.84	11.706
339.20	11.775
339.56	12.389
339.93	11.552
340.29	10.363
340.65	11.014
341.02	12.479
341.38	11.373
341.74	11.770
342.11	11.177
342.47	10.386
342.83	11.503
343.20	12.041
343.56	10.041
343.92	11.519
344.28	12.952
344.65	11.634
345.01	10.840
345.37	12.209
345.73	11.375
346.10	9.567
346.46	10.885
346.82	11.387
347.19	10.189
347.55	11.798
347.91	10.866
348.27	10.501
348.63	12.359
349.00	12.251
349.36	10.148
349.72	11.943
350.08	12.670
350.45	10.954
350.81	11.943
351.17	11.656
351.53	10.342
351.89	11.156
352.26	11.628
352.62	12.750
352.98	12.184
353.34	12.150
353.70	11.351
354.07	10.543
354.43	11.779
354.79	10.777
355.15	10.623
355.51	10.781
355.87	10.672
356.24	11.358
356.60	12.248
356.96	11.701
357.32	11.797
357.68	12.031
358.04	11.932
358.40	11.292
358.77	10.974
359.13	12.395
359.49	11.640
359.85	11.357
360.21	12.253
360.57	12.349
360.93	11.926
361.29	11.360
361.66	11.280
362.02	11.538
362.38	11.959
362.74	11.355
363.10	11.980
363.46	11.823
363.82	12.172
364.18	11.505
364.54	12.223
364.90	11.461
365.26	11.698
365.62	12.972
365.98	12.589
366.35	12.394
366.71	11.487
367.07	12.703
367.43	12.972
367.79	12.165
368.15	12.233
368.51	12.937
368.87	13.255
369.23	13.263
369.59	12.361
369.95	12.262
370.31	12.588
370.67	11.497
371.03	12.464
371.39	11.952
371.75	12.589
372.11	12.626
372.47	11.641
372.83	13.282
373.19	12.786
373.55	13.160
373.91	12.660
374.27	13.279
374.63	12.836
374.99	13.004
375.35	12.719
375.71	13.639
376.07	12.799
376.42	12.119
376.78	13.203
377.14	13.763
377.50	13.604
377.86	13.979
378.22	13.191
378.58	13.589
378.94	12.762
379.30	14.016
379.66	13.358
380.02	13.072
380.38	13.172
380.74	14.302
381.09	14.470
381.45	14.021
381.81	13.491
382.17	13.659
382.53	14.407
382.89	14.175
383.25	14.088
383.61	13.561
383.97	14.146
384.32	14.268
384.68	15.417
385.04	13.647
385.40	14.181
385.76	14.329
386.12	14.428
386.48	13.800
386.83	15.031
387.19	14.704
387.55	14.537
387.91	14.582
388.27	13.329
388.62	14.603
388.98	14.294
389.34	14.504
389.70	14.982
390.06	14.854
390.42	14.551
390.77	14.385
391.13	15.590
391.49	14.722
391.85	14.090
392.20	14.442
392.56	14.844
392.92	14.661
393.28	14.753
393.64	15.093
393.99	15.938
394.35	15.024
394.71	14.268
395.07	15.380
395.42	14.660
395.78	14.959
396.14	14.766
396.50	15.535
396.85	15.978
397.21	15.371
397.57	15.319
397.92	15.808
398.28	15.111
398.64	15.526
399.00	15.899
399.35	15.896
399.71	16.318
400.07	16.299
400.42	16.363
400.78	15.206
401.14	16.347
401.49	15.448
401.85	15.863
402.21	16.091
402.57	16.383
402.92	16.803
403.28	16.176
403.63	15.099
403.99	16.532
404.35	15.882
404.70	15.799
405.06	16.551
405.42	15.191
405.77	15.667
406.13	15.503
406.49	16.657
406.84	16.077
407.20	16.254
407.55	16.403
407.91	16.127
408.27	17.341
408.62	16.356
408.98	17.829
409.34	15.539
409.69	16.950
410.05	15.949
410.40	16.002
410.76	16.716
411.11	16.584
411.47	16.368
411.83	16.870
412.18	16.708
412.54	16.168
412.89	16.829
413.25	15.466
413.60	15.917
413.96	15.588
414.31	17.125
414.67	16.762
415.03	16.559
415.38	16.851
415.74	17.526
416.09	16.816
416.45	16.270
416.80	16.515
417.16	16.478
417.51	17.334
417.87	16.634
418.22	17.004
418.58	17.137
418.93	16.983
419.29	17.189
419.64	16.583
420.00	17.315
420.35	17.504
420.71	16.927
421.06	17.219
421.42	17.155
421.77	18.146
422.12	17.068
422.48	17.157
422.83	17.369
423.19	16.370
423.54	16.888
423.90	17.351
424.25	17.817
424.61	17.793
424.96	18.198
425.31	17.943
425.67	16.963
426.02	17.097
426.38	17.725
426.73	17.592
427.09	18.260
427.44	18.068
427.79	17.267
428.15	17.475
428.50	18.065
428.85	17.626
429.21	17.100
429.56	17.604
429.92	18.236
430.27	17.149
430.62	17.085
430.98	18.557
431.33	17.716
431.68	17.909
432.04	18.187
432.39	18.177
432.74	18.345
433.10	17.783
433.45	18.192
433.80	17.805
434.16	17.571
434.51	17.808
434.86	18.629
435.22	18.486
435.57	18.605
435.92	18.757
436.28	19.110
436.63	18.146
436.98	17.698
437.34	18.606
437.69	18.203
438.04	18.264
438.39	18.532
438.75	18.393
439.10	18.046
439.45	17.924
439.81	18.373
440.16	18.115
440.51	19.059
440.86	17.525
441.22	18.297
441.57	18.368
441.92	18.517
442.27	18.669
442.63	18.991
442.98	18.059
443.33	18.671
443.68	18.395
444.03	18.762
444.39	18.551
444.74	18.998
445.09	18.640
445.44	18.965
445.79	18.256
446.15	18.729
446.50	18.563
446.85	18.471
447.20	19.254
447.55	18.619
447.91	18.754
448.26	18.827
448.61	18.223
448.96	19.664
449.31	18.658
449.66	19.748
450.02	18.393
450.37	18.783
450.72	18.023
451.07	19.610
451.42	17.658
451.77	18.851
452.12	18.713
452.47	18.703
452.83	18.229
453.18	18.975
453.53	18.657
453.88	19.258
454.23	18.319
454.58	19.267
454.93	19.584
455.28	18.547
455.63	19.595
455.98	19.458
456.34	18.615
456.69	19.387
457.04	18.869
457.39	18.720
457.74	18.901
458.09	18.910
458.44	19.515
458.79	18.722
459.14	19.795
459.49	19.657
459.84	18.606
460.19	19.033
460.54	18.451
460.89	19.395
461.24	19.429
461.59	19.168
461.94	18.587
462.29	19.357
462.64	19.236
462.99	20.147
463.34	18.906
463.69	18.702
464.04	18.746
464.39	18.280
464.74	18.794
465.09	19.062
465.44	18.500
465.79	19.064
466.14	19.333
466.49	18.710
466.84	19.088
467.19	18.392
467.54	18.291
467.89	19.482
468.24	19.359
468.59	18.176
468.94	19.293
469.29	19.298
469.64	19.137
469.99	19.919
470.34	19.372
470.68	20.058
471.03	18.858
471.38	19.167
471.73	19.930
472.08	18.876
472.43	18.533
472.78	20.333
473.13	18.357
473.48	19.209
473.83	19.107
474.17	18.599
474.52	19.629
474.87	19.289
475.22	18.289
475.57	19.778
475.92	18.737
476.27	18.057
476.61	19.380
476.96	18.949
477.31	18.730
477.66	18.539
478.01	19.719
478.36	18.596
478.70	19.274
479.05	19.037
479.40	19.326
479.75	18.909
480.10	18.552
480.45	18.472
480.79	18.707
481.14	19.017
481.49	19.264
481.84	19.001
482.19	18.958
482.53	19.129
482.88	18.510
483.23	18.920
483.58	20.028
483.92	18.872
484.27	18.166
484.62	18.099
484.97	18.940
485.31	18.336
485.66	18.340
486.01	17.923
486.36	18.434
486.70	18.303
487.05	18.536
487.40	18.803
487.75	18.782
488.09	17.789
488.44	18.945
488.79	18.712
489.13	19.551
489.48	19.005
489.83	18.952
490.17	18.720
490.52	19.067
490.87	18.753
491.22	18.543
491.56	18.796
491.91	19.418
492.26	18.396
492.60	18.506
492.95	18.753
493.30	18.676
493.64	18.571
493.99	18.738
494.34	19.714
494.68	19.288
495.03	18.738
495.37	18.682
495.72	18.566
496.07	18.817
496.41	19.222
496.76	18.402
497.11	19.595
497.45	19.397
497.80	18.809
498.14	18.713
498.49	18.634
498.84	18.981
499.18	19.103
499.53	18.802
499.87	18.485
500.22	18.480
500.56	18.559
500.91	18.818
501.26	19.020
501.60	18.729
501.95	19.517
502.29	18.706
502.64	19.095
502.98	18.160
503.33	19.126
503.67	18.295
504.02	18.542
504.36	19.167
504.71	18.997
505.06	18.972
505.40	19.261
505.75	18.394
506.09	19.616
506.44	18.897
506.78	18.414
507.13	18.383
507.47	19.197
507.82	18.585
508.16	18.135
508.51	19.165
508.85	18.892
509.19	18.367
509.54	19.450
509.88	19.681
510.23	18.816
510.57	19.365
510.92	18.851
511.26	18.713
511.61	17.981
511.95	18.642
512.30	18.637
512.64	18.475
512.98	18.592
513.33	19.275
513.67	18.705
514.02	19.463
514.36	18.781
514.70	18.280
515.05	19.554
515.39	19.319
515.74	19.779
516.08	19.308
516.42	18.924
516.77	18.833
517.11	18.707
517.46	19.677
517.80	19.916
518.14	18.780
518.49	19.366
518.83	18.694
519.17	19.361
519.52	18.971
519.86	19.534
520.20	18.949
520.55	19.077
520.89	18.472
521.23	19.170
521.58	18.182
521.92	19.063
522.26	18.540
522.61	19.138
522.95	18.315
523.29	19.060
523.64	19.176
523.98	18.778
524.32	19.359
524.66	18.882
525.01	18.369
525.35	19.394
525.69	18.673
526.04	19.909
526.38	18.523
526.72	18.646
527.06	19.010
527.41	18.812
527.75	18.416
528.09	19.259
528.43	19.541
528.78	18.844
529.12	19.974
529.46	19.459
529.80	18.270
530.15	18.738
530.49	19.599
530.83	19.974
531.17	18.249
531.51	18.285
531.86	20.079
532.20	19.231
532.54	19.920
532.88	19.631
533.22	19.051
533.57	18.407
533.91	18.352
534.25	18.416
534.59	18.926
534.93	18.295
535.27	18.880
535.62	18.862
535.96	19.005
536.30	18.979
536.64	19.522
536.98	19.209
537.32	18.659
537.66	18.601
538.01	20.000
538.35	19.662
538.69	18.717
539.03	19.364
539.37	19.694
539.71	19.213
540.05	18.917
540.39	19.806
540.73	19.005
541.07	19.604
541.42	18.569
541.76	18.073
542.10	20.122
542.44	18.854
542.78	17.978
543.12	18.805
543.46	19.178
543.80	18.194
544.14	18.670
544.48	19.488
544.82	18.742
545.16	18.913
545.50	18.237
545.84	18.985
546.18	19.695
546.52	18.990
546.86	19.373
547.20	19.058
547.54	18.251
547.88	17.983
548.22	18.349
548.56	19.372
548.90	19.609
549.24	19.411
549.58	19.831
549.92	19.505
550.26	19.581
550.60	18.990
550.94	19.489
551.28	20.015
551.62	19.793
551.96	18.234
552.30	18.885
552.64	18.578
552.98	18.220
553.32	19.192
553.66	20.332
554.00	19.616
554.34	18.628
554.68	19.006
555.02	19.103
555.36	19.339
555.69	18.410
556.03	17.474
556.37	18.634
556.71	19.685
557.05	18.847
557.39	18.560
557.73	19.621
558.07	20.121
558.41	18.923
558.75	19.468
559.08	18.054
559.42	19.755
559.76	19.172
560.10	20.134
560.44	19.509
560.78	18.511
561.12	19.186
561.45	19.521
561.79	20.070
562.13	18.583
562.47	19.328
562.81	19.165
563.15	19.104
563.48	19.074
563.82	19.067
564.16	19.540
564.50	19.288
564.84	19.180
565.17	18.302
565.51	18.383
565.85	19.405
566.19	20.026
566.52	19.048
566.86	18.837
567.20	19.492
567.54	19.846
567.88	18.258
568.21	18.400
568.55	19.088
568.89	18.539
569.23	18.556
569.56	18.159
569.90	18.411
570.24	17.775
570.57	18.137
570.91	17.987
571.25	18.320
571.59	18.264
571.92	18.185
572.26	18.514
572.60	18.275
572.93	18.086
573.27	18.354
573.61	17.924
573.95	18.281
574.28	17.711
574.62	17.768
574.96	17.622
575.29	17.708
575.63	18.344
575.97	17.368
576.30	17.676
576.64	17.937
576.98	17.840
577.31	17.735
577.65	17.983
577.98	17.646
578.32	17.807
578.66	17.953
578.99	17.674
579.33	18.036
579.67	18.032
580.00	17.783
580.34	18.053
580.67	17.749
581.01	17.802
581.35	17.926
581.68	17.996
582.02	17.606
582.35	18.168
582.69	18.012
583.02	18.236
583.36	17.993
583.70	17.512
584.03	18.103
584.37	18.512
584.70	18.266
585.04	18.000
585.37	17.757
585.71	17.755
586.04	18.414
586.38	17.535
586.72	18.038
587.05	18.748
587.39	18.328
587.72	18.370
588.06	18.129
588.39	18.285
588.73	18.105
589.06	18.862
589.40	18.688
589.73	18.166
590.07	18.500
590.40	18.635
590.73	18.473
591.07	17.664
591.40	18.977
591.74	18.810
592.07	18.468
592.41	18.259
592.74	18.332
593.08	18.297
593.41	17.895
593.75	17.639
594.08	18.081
594.41	18.299
594.75	19.064
595.08	18.083
595.42	18.605
595.75	18.118
596.09	18.704
596.42	18.781
596.75	17.766
597.09	19.635
597.42	18.813
597.75	18.512
598.09	18.662
598.42	18.427
598.76	17.982
599.09	17.601
599.42	18.378
599.76	18.460
600.09	19.008
600.42	18.382
600.76	18.154
601.09	18.002
601.42	17.847
601.76	18.380
602.09	18.609
602.42	17.737
602.76	18.114
603.09	18.992
603.42	18.695
603.76	19.107
604.09	18.222
604.42	18.276
604.76	18.796
605.09	18.354
605.42	18.528
605.75	18.241
606.09	18.265
606.42	17.930
606.75	18.162
607.09	18.703
607.42	18.398
607.75	18.455
608.08	18.979
608.42	18.780
608.75	18.785
609.08	18.997
609.41	18.435
609.75	18.528
610.08	19.461
610.41	18.699
610.74	18.907
611.07	18.205
611.41	18.608
611.74	19.794
612.07	19.066
612.40	17.644
612.73	18.740
613.07	18.877
613.40	19.212
613.73	19.019
614.06	18.451
614.39	18.715
614.72	18.492
615.06	18.967
615.39	18.177
615.72	18.848
616.05	18.388
616.38	19.617
616.71	18.799
617.05	18.938
617.38	19.319
617.71	18.243
618.04	19.006
618.37	18.176
618.70	19.426
619.03	19.634
619.36	19.873
619.69	19.670
620.03	19.008
620.36	18.354
620.69	19.454
621.02	19.406
621.35	18.306
621.68	19.754
622.01	20.307
622.34	19.953
622.67	19.297
623.00	19.893
623.33	20.075
623.66	18.316
623.99	18.346
624.32	19.420
624.65	17.954
624.99	19.193
625.32	19.162
625.65	19.503
625.98	18.779
626.31	19.494
626.64	19.414
626.97	19.863
627.30	19.574
627.63	18.912
627.96	19.321
628.29	19.210
628.62	19.866
628.95	20.472
629.28	18.515
629.61	19.921
629.94	20.038
630.26	19.781
630.59	20.804
630.92	20.320
631.25	20.968
631.58	19.894
631.91	18.085
632.24	20.222
632.57	21.556
632.90	20.345
633.23	20.210
633.56	20.000
633.89	21.344
634.22	19.717
634.55	19.591
634.88	20.193
635.20	19.600
635.53	19.847
635.86	18.514
636.19	19.658
636.52	18.280
636.85	18.652
637.18	19.000
637.51	20.446
637.83	20.506
638.16	18.158
638.49	18.759
638.82	20.849
639.15	20.882
639.48	19.196
639.81	21.853
640.13	19.459
640.46	22.080
640.79	19.608
641.12	22.426
641.45	20.086
641.77	20.210
642.10	20.393
642.43	22.762
642.76	20.472
643.09	21.270
643.41	21.429
643.74	19.714
644.07	22.621
644.40	20.259
644.73	20.132
645.05	20.200
645.38	21.026
645.71	21.821
646.04	19.832
646.36	19.372
646.69	20.242
647.02	22.383
647.35	19.856
647.67	20.620
648.00	22.144
648.33	23.272
648.66	21.613
648.98	21.019
649.31	18.769
649.64	21.406
649.96	18.681
650.29	18.852
650.62	20.310
650.94	20.911
651.27	19.931
651.60	21.280
651.92	23.801
652.25	22.037
652.58	20.443
652.90	19.422
653.23	19.194
653.56	20.234
653.88	18.361
654.21	22.148
654.54	21.096
654.86	22.311
655.19	20.057
655.52	21.013
655.84	18.150
656.17	19.620
656.49	27.012
656.82	28.309
657.15	21.367
657.47	15.684
657.80	12.201
658.13	13.894
658.45	19.200
658.78	19.006
659.10	19.328
659.43	19.504
659.75	19.748
660.08	20.729
660.41	21.256
660.73	20.792
661.06	22.174
661.38	23.036
661.71	20.459
662.03	23.185
662.36	23.028
662.68	20.675
663.01	24.416
663.33	22.449
663.66	24.464
663.98	22.098
664.31	21.477
664.63	23.673
664.96	22.560
665.28	20.174
665.61	20.930
665.93	20.782
666.26	20.850
666.58	19.958
666.91	17.817
667.23	22.588
667.56	22.676
667.88	23.077
668.21	21.198
668.53	19.393
668.86	22.402
669.18	21.461
669.50	22.897
669.83	20.925
670.15	20.852
670.48	18.925
670.80	20.729
671.13	20.993
671.45	21.171
671.77	21.413
672.10	21.499
672.42	21.587
672.75	20.182
673.07	20.360
673.39	21.858
673.72	20.079
674.04	21.231
674.37	21.031
674.69	20.082
675.01	23.191
675.34	21.258
675.66	22.030
675.98	21.145
676.31	21.267
676.63	22.989
676.95	21.903
677.28	22.042
677.60	21.041
677.92	23.789
678.25	22.101
678.57	22.634
678.89	19.916
679.22	20.335
679.54	21.893
679.86	20.000
680.18	20.722
680.51	19.739
680.83	21.333
681.15	21.965
681.48	22.312
681.80	20.565
682.12	21.529
682.44	21.218
682.77	19.048
683.09	21.174
683.41	24.115
683.73	19.863
684.06	21.935
684.38	22.385
684.70	21.399
685.02	22.441
685.34	23.197
685.67	20.455
685.99	19.282
686.31	21.903
686.63	20.213
686.96	20.887
687.28	22.158
687.60	21.094
687.92	19.650
688.24	22.638
688.56	20.842
688.89	20.726
689.21	22.976
689.53	21.609
689.85	22.940
690.17	19.731
690.49	23.095
690.82	20.964
691.14	21.226
691.46	24.390
691.78	22.907
692.10	21.610
692.42	21.333
692.74	22.961
693.06	23.146
693.39	22.819
693.71	20.767
694.03	21.166
694.35	20.542
694.67	23.404
694.99	20.716
695.31	24.490
695.63	18.622
695.95	23.325
696.27	21.945
696.59	25.134
696.91	22.472
697.23	22.917
697.56	20.913
697.88	20.045
698.20	21.199
698.52	18.610
698.84	23.301
699.16	22.619
699.48	22.250
699.80	24.311
700.12	23.426
700.44	18.156
700.76	23.032
701.08	22.384
701.40	19.335
701.72	21.605
702.04	24.038
702.36	28.012
702.68	21.257
703.00	22.899
703.32	19.484
703.64	27.941
703.96	26.163
704.28	25.148
704.60	24.367
704.91	20.635
705.23	20.712
705.55	19.595
705.87	20.819
706.19	17.708
706.51	21.528
706.83	23.934
707.15	23.248
707.47	26.722
707.79	23.196
708.11	20.102
708.43	23.441
708.74	22.857
709.06	22.006
709.38	22.414
709.70	21.562
710.02	26.994
710.34	21.782
710.66	20.952
710.98	23.344
711.29	17.419
711.61	21.086
711.93	23.279
712.25	22.591
712.57	25.436
712.89	24.460
713.20	27.835
713.52	17.537
713.84	22.776
714.16	21.967
714.48	20.317
714.80	23.692
715.11	26.225
715.43	23.494
715.75	22.430
716.07	23.279
716.39	27.090
716.70	26.829
717.02	21.481
717.34	22.901
717.66	29.461
717.97	23.770
718.29	18.067
718.61	29.365
718.93	24.014
719.24	20.588
719.56	15.849
719.88	20.000
720.20	23.596
720.51	30.827
720.83	22.088
721.15	21.311
721.46	23.922
721.78	25.287
722.10	22.800
722.42	20.661
722.73	20.717
723.05	23.293
723.37	26.275
723.68	22.672
724.00	23.984
724.32	31.687
724.63	21.992
724.95	25.620
725.27	21.930
725.58	19.828
725.90	23.413
726.22	24.723
726.53	23.194
726.85	16.863
727.16	26.692
727.48	22.308
727.80	23.770
728.11	21.849
728.43	21.488
728.74	20.703
729.06	23.864
729.38	22.957
729.69	22.047
730.01	27.559
730.32	16.335
730.64	27.106
730.96	25.000
731.27	25.000
731.59	22.186
731.90	22.393
732.22	19.939
732.53	29.139
732.85	22.148
733.16	26.812
733.48	24.390
733.80	18.861
734.11	23.103
734.43	22.109
734.74	26.706
735.06	22.884
735.37	23.853
735.69	22.258
736.00	22.896
736.32	26.159
736.63	17.931
736.95	22.464
737.26	23.841
737.58	23.381
737.89	26.165
738.21	20.677
738.52	23.462
738.83	23.047
739.15	23.504
739.46	25.403
739.78	23.427
740.09	23.776
740.41	24.825
740.72	25.547
741.04	26.190
741.35	25.108
741.66	21.759
741.98	20.000
742.29	28.638
742.61	22.995
742.92	30.374
743.23	24.561
743.55	30.180
743.86	30.667
744.18	21.429
744.49	27.586
744.80	29.949
745.12	27.320
745.43	27.136
745.74	30.097
746.06	21.951
746.37	25.110
746.68	26.368
747.00	27.225
747.31	22.115
747.62	27.650
747.94	25.328
748.25	26.977
748.56	25.714
748.88	19.565
749.19	29.108
749.50	27.451
749.82	28.000
750.13	28.194
750.44	22.764
750.75	26.000
751.07	26.429
751.38	24.723
751.69	24.427
752.01	23.462
752.32	26.070
752.63	23.462
752.94	23.810
753.26	25.217
753.57	26.786
753.88	21.552
754.19	24.066
754.51	19.922
754.82	22.134
755.13	22.222
755.44	21.074
755.75	28.395
756.07	20.884
756.38	18.750
756.69	24.910
757.00	24.042
757.31	23.826
757.63	26.791
757.94	21.965
758.25	21.512
758.56	26.146
758.87	19.886
759.18	25.667
759.50	27.758
759.81	18.978
760.12	20.608
760.43	27.184
760.74	25.937
761.05	25.562
761.36	26.048
761.67	23.373
761.99	21.290
762.30	26.449
762.61	25.660
762.92	26.009
763.23	26.540
763.54	19.556
763.85	27.848
764.16	24.082
764.47	26.271
764.78	24.345
765.10	21.942
765.41	24.839
765.72	25.157
766.03	17.668
766.34	25.188
766.65	25.506
766.96	22.000
767.27	23.437
767.58	30.233
767.89	20.000
768.20	31.288
768.51	24.590
768.82	25.946
769.13	20.000
769.44	28.070
769.75	25.541
770.06	27.064
770.37	24.413
770.68	28.125
770.99	29.208
771.30	28.641
771.61	24.537
771.92	22.078
772.23	25.234
772.54	23.404
772.85	24.852
773.16	24.390
773.47	26.506
773.78	30.220
774.09	30.000
774.39	24.074
774.70	20.805
775.01	30.435
775.32	22.388
775.63	24.793
775.94	33.835
776.25	27.143
776.56	28.689
776.87	27.434
777.18	26.549
777.48	26.364
777.79	23.478
778.10	16.514
778.41	25.424
778.72	22.314
779.03	23.134
779.34	26.316
779.65	24.837
779.95	23.188
780.26	18.367
780.57	25.000
780.88	29.630
781.19	17.172
781.50	25.600
781.80	24.183
782.11	24.359
782.42	25.301
782.73	22.628
783.04	27.703
783.34	25.000
783.65	30.233
783.96	23.577
784.27	31.624
784.57	31.707
784.88	17.886
785.19	34.211
785.50	22.680
785.81	19.048
786.11	28.431
786.42	18.182
786.73	28.829
787.04	19.802
787.34	28.571
787.65	20.952
787.96	27.451
788.26	25.225
788.57	29.839
788.88	28.125
789.19	25.641
789.49	18.487
789.80	28.205
790.11	30.088
790.41	32.323
790.72	33.019
791.03	13.889
791.33	25.000
791.64	32.258
791.95	26.667
792.25	24.286
792.56	13.415
792.87	33.673
793.17	25.000
793.48	12.162
793.79	11.268
794.09	20.253
794.40	32.979
794.70	20.561
795.01	20.175
795.32	14.545
795.62	30.357
795.93	20.619
796.23	4.396
796.54	30.526
796.85	21.918
797.15	25.000
797.46	36.986
797.76	40.845
798.07	38.750
798.37	36.765
798.68	28.571
798.99	28.571
799.29	32.895
799.60	33.333
799.90	23.611
800.21	34.375
800.51	44.444
800.82	18.033
801.12	19.298
801.43	23.944
801.73	30.508
802.04	39.344
802.34	16.364
802.65	38.462
802.95	44.444
803.26	-12.500
803.56	40.385
803.87	-7.895
804.17	56.452
804.48	29.231
804.78	12.821
805.09	20.930
805.39	-3.125
805.70	-7.547
806.00	52.632
806.30	41.892
806.61	25.000
806.91	30.864
807.22	34.667
807.52	26.866
807.83	29.032
808.13	4.762
808.43	18.182
808.74	21.212
809.04	37.736
809.35	34.247
809.65	50.877
809.95	11.765
810.26	27.451
810.56	8.000
810.86	30.612
811.17	31.429
811.47	34.615
811.77	58.065
812.08	-2.632
812.38	30.952
812.69	28.261
812.99	64.516
813.29	21.429
813.59	-25.926
813.90	40.426
814.20	9.302
814.50	31.250
814.81	21.667
815.11	31.707
815.41	13.333
815.72	68.571
816.02	11.111
816.32	35.897
816.62	16.216
816.93	-23.529
817.23	10.870
817.53	41.176
817.84	11.765
818.14	18.750
818.44	51.724
818.74	3.226
819.04	18.519
819.35	43.333
819.65	32.000
819.95	23.333
820.25	20.000
820.56	34.211
820.86	17.500
821.16	42.553
821.46	31.034
821.76	35.897
822.07	10.000
822.37	27.907
822.67	23.333
822.97	27.027
823.27	16.216
823.57	68.000
823.88	29.730
824.18	23.810
824.48	34.615
824.78	-23.077
825.08	13.043
825.38	25.000
825.69	41.667
825.99	-30.000
826.29	18.919
826.59	38.235
826.89	84.000
827.19	11.429
827.49	36.842
827.79	56.250
828.09	16.667
828.39	21.739
828.70	-34.483
829.00	10.345
829.30	22.222
829.60	87.500
829.90	16.667
830.20	15.385
830.50	-9.524
830.80	10.714
831.10	17.949
831.40	23.810
831.70	50.000
832.00	20.833
832.30	52.632
832.60	6.250
832.90	8.333
833.20	0.000
833.50	-26.667
833.80	20.000
834.10	25.000
834.40	12.500
834.70	44.444
835.00	46.154
835.30	20.833
835.60	10.345
835.90	0.000
836.20	18.182
836.50	-41.667
836.80	25.714
837.10	77.143
837.40	23.529
837.70	27.273
838.00	0.000
838.30	37.500
838.60	42.857
838.90	35.000
839.19	8.696
839.49	52.174
839.79	72.222
840.09	30.435
840.39	9.091
840.69	-37.500
840.99	31.579
841.29	-12.500
841.59	-7.143
841.88	11.111
842.18	62.500
842.48	-11.765
842.78	10.345
843.08	71.429
843.38	53.846
843.68	22.222
843.97	7.692
844.27	-27.273
844.57	-40.000
844.87	68.000
845.17	140.000
845.47	64.286
845.76	77.778
846.06	0.000
846.36	-175.000
846.66	100.000
846.96	52.632
847.25	8.333
847.55	83.333
847.85	93.333
848.15	30.000
848.44	103.846
848.74	26.316
849.04	-66.667
849.34	11.111
849.63	10.526
849.93	0.000
850.23	25.000
850.53	9.524
850.82	56.000
851.12	-15.789
851.42	0.000
851.71	85.714
852.01	-25.000
852.31	52.941
852.61	66.667
852.90	-4.762
853.20	-33.333
853.50	38.889
853.79	15.789
854.09	66.667
854.39	21.429
854.68	8.696
854.98	-75.000
855.28	58.621
855.57	25.000
855.87	30.000
856.17	-20.000
856.46	17.241
856.76	6.667
857.05	23.529
857.35	-30.769
857.65	-9.091
857.94	18.519
858.24	-50.000
858.53	78.571
858.83	-66.667
859.13	-11.111
859.42	38.095
859.72	-62.500
860.01	-166.667
860.31	12.500
860.60	-140.000
860.90	-11.111
861.20	87.500
861.49	-100.000
861.79	11.765
862.08	-150.000
862.38	-75.000
862.67	-15.385
862.97	23.529
863.26	20.000
863.56	5.882
863.85	133.333
864.15	10.000
864.44	7.692
864.74	5.000
865.03	-125.000
865.33	283.333
865.62	0.000
865.92	-100.000
866.21	21.429
866.51	16.667
866.80	-300.000
867.10	-133.333
867.39	70.588
867.69	65.217
867.98	14.286
868.27	80.000
868.57	-18.750
868.86	-45.455
869.16	58.824
869.45	-116.667
869.75	42.857
870.04	400.000
870.33	33.333
870.63	20.000
870.92	111.111
871.22	50.000
871.51	45.455
871.80	33.333
872.10	160.000
>>>>>End Processed Spectral Data<<<<<
