SpectraSuite Data File
++++++++++++++++++++++++++++++++++++
Date: Sat May 16 11:23:22 PDT 2015
User: schluterlab
Dark Spectrum Present: Yes
Reference Spectrum Present: Yes
Number of Sampled Component Spectra: 1
Spectrometers: USB2E3373
Integration Time (usec): 3000 (USB2E3373)
Spectra Averaged: 3 (USB2E3373)
Boxcar Smoothing: 0 (USB2E3373)
Correct for Electrical Dark: No (USB2E3373)
Strobe/Lamp Enabled: No (USB2E3373)
Correct for Detector Non-linearity: No (USB2E3373)
Correct for Stray Light: No (USB2E3373)
Number of Pixels in Processed Spectrum: 2048
>>>>>Begin Processed Spectral Data<<<<<
178.53	0.000
178.91	106.667
179.29	233.333
179.67	-1600.000
180.04	-61.538
180.42	900.000
180.80	375.000
181.18	550.000
181.56	-87.500
181.94	600.000
182.31	275.000
182.69	7.692
183.07	-566.667
183.45	1200.000
183.83	333.333
184.20	-228.571
184.58	-150.000
184.96	-325.000
185.34	87.500
185.72	-400.000
186.09	300.000
186.47	-175.000
186.85	-250.000
187.23	-62.500
187.61	-200.000
187.98	-200.000
188.36	-87.500
188.74	-112.500
189.12	1100.000
189.49	328.571
189.87	16.667
190.25	500.000
190.63	-100.000
191.00	-155.556
191.38	300.000
191.76	-13.333
192.14	540.000
192.51	-240.000
192.89	-366.667
193.27	0.000
193.65	-22.222
194.02	-85.714
194.40	500.000
194.78	-70.000
195.15	-2100.000
195.53	-81.818
195.91	-583.333
196.29	120.000
196.66	-133.333
197.04	1800.000
197.42	-50.000
197.79	-26.667
198.17	-466.667
198.55	-250.000
198.92	-1200.000
199.30	237.500
199.68	-250.000
200.05	-88.889
200.43	-166.667
200.81	-1300.000
201.18	0.000
201.56	157.143
201.94	-40.000
202.31	13.636
202.69	10.000
203.07	-60.000
203.44	300.000
203.82	-250.000
204.19	-275.000
204.57	-250.000
204.95	-1500.000
205.32	6.250
205.70	800.000
206.08	-1800.000
206.45	55.556
206.83	-1300.000
207.20	-50.000
207.58	-533.333
207.96	-466.667
208.33	-150.000
208.71	-211.111
209.08	240.000
209.46	-142.857
209.84	1650.000
210.21	0.000
210.59	65.000
210.96	500.000
211.34	-316.667
211.71	-333.333
212.09	375.000
212.46	1400.000
212.84	-2100.000
213.22	366.667
213.59	125.000
213.97	-11.111
214.34	190.000
214.72	-150.000
215.09	166.667
215.47	-150.000
215.84	-120.000
216.22	-170.000
216.59	-53.333
216.97	-450.000
217.34	400.000
217.72	-157.143
218.09	-66.667
218.47	-228.571
218.84	200.000
219.22	-142.857
219.59	0.000
219.97	228.571
220.34	325.000
220.72	150.000
221.09	0.000
221.47	0.000
221.84	566.667
222.22	-100.000
222.59	1400.000
222.97	-162.500
223.34	-1100.000
223.72	-266.667
224.09	-14.286
224.46	-350.000
224.84	-7.143
225.21	-257.143
225.59	-72.727
225.96	-75.000
226.34	-157.143
226.71	-77.778
227.08	-10.000
227.46	1400.000
227.83	-257.143
228.21	-125.000
228.58	100.000
228.95	-31.250
229.33	-900.000
229.70	-260.000
230.08	-650.000
230.45	-16.667
230.82	-183.333
231.20	-900.000
231.57	-200.000
231.95	700.000
232.32	-19.048
232.69	-200.000
233.07	-71.429
233.44	-1000.000
233.81	-33.333
234.19	-88.889
234.56	-37.500
234.93	-9.375
235.31	-171.429
235.68	-114.286
236.05	-41.176
236.43	-54.545
236.80	-9.677
237.17	-45.833
237.55	-66.667
237.92	-40.909
238.29	-71.429
238.67	-14.706
239.04	-5.556
239.41	-70.968
239.79	-41.026
240.16	-16.667
240.53	-36.364
240.91	-7.692
241.28	-14.545
241.65	1.538
242.02	-1.639
242.40	-26.230
242.77	-3.030
243.14	-10.169
243.51	-24.286
243.89	-8.861
244.26	-19.101
244.63	-4.211
245.00	-2.105
245.38	-3.390
245.75	-5.310
246.12	-0.800
246.49	-4.724
246.87	-12.195
247.24	-9.322
247.61	-9.322
247.98	-5.634
248.36	-9.091
248.73	0.000
249.10	-5.732
249.47	-8.187
249.84	6.250
250.22	-5.952
250.59	-1.130
250.96	-2.618
251.33	2.844
251.70	-1.923
252.08	-1.422
252.45	-1.896
252.82	-6.190
253.19	-4.681
253.56	-5.242
253.94	-4.219
254.31	1.288
254.68	-4.065
255.05	-4.839
255.42	-1.984
255.79	-6.093
256.16	-0.784
256.54	-2.206
256.91	-0.758
257.28	-5.128
257.65	-5.674
258.02	1.572
258.39	-1.672
258.76	-4.392
259.14	-1.852
259.51	0.656
259.88	-0.915
260.25	0.000
260.62	-6.109
260.99	-2.077
261.36	-0.610
261.73	0.289
262.10	0.833
262.47	-1.425
262.85	0.857
263.22	-1.146
263.59	-3.385
263.96	-0.870
264.33	-0.542
264.70	0.276
265.07	-2.747
265.44	-2.067
265.81	0.000
266.18	-0.759
266.55	-2.206
266.92	0.252
267.29	-2.179
267.66	-3.457
268.03	0.000
268.40	0.469
268.77	1.205
269.14	-0.696
269.51	-0.230
269.88	-2.523
270.25	-3.730
270.62	-0.686
270.99	-0.450
271.36	-0.699
271.73	-1.570
272.10	-0.915
272.47	-0.222
272.84	-0.667
273.21	-2.294
273.58	0.879
273.95	-1.316
274.32	0.000
274.69	-0.219
275.06	2.454
275.43	-2.009
275.80	1.018
276.17	-0.628
276.54	2.648
276.91	0.617
277.28	0.000
277.65	-1.653
278.02	0.000
278.39	0.196
278.76	-0.199
279.13	1.383
279.50	0.994
279.87	0.846
280.23	1.619
280.60	-0.199
280.97	-0.194
281.34	0.000
281.71	0.192
282.08	-2.016
282.45	-1.833
282.82	-2.519
283.19	-0.727
283.56	1.099
283.92	0.707
284.29	-1.301
284.66	0.540
285.03	2.139
285.40	1.292
285.77	0.351
286.14	0.181
286.51	-1.421
286.87	-1.270
287.24	0.341
287.61	1.488
287.98	-0.347
288.35	-0.826
288.72	-0.170
289.08	-1.017
289.45	0.505
289.82	-1.730
290.19	1.642
290.56	-1.653
290.93	-1.113
291.29	-3.079
291.66	-0.805
292.03	-0.471
292.40	-0.602
292.77	0.000
293.13	1.301
293.50	0.892
293.87	0.000
294.24	1.207
294.60	0.000
294.97	1.214
295.34	-1.630
295.71	0.893
296.08	-2.611
296.44	-2.146
296.81	0.712
297.18	0.845
297.55	0.706
297.91	1.255
298.28	-1.096
298.65	2.510
299.02	2.005
299.38	1.872
299.75	-0.543
300.12	1.154
300.48	1.279
300.85	1.311
301.22	1.035
301.59	-0.260
301.95	2.897
302.32	-1.173
302.69	1.469
303.05	1.465
303.42	2.125
303.79	0.239
304.15	0.592
304.52	1.517
304.89	2.479
305.25	0.244
305.62	1.175
305.99	2.002
306.35	2.664
306.72	1.139
307.09	3.405
307.45	2.384
307.82	2.123
308.19	2.573
308.55	1.743
308.92	0.859
309.29	1.189
309.65	2.863
310.02	3.024
310.38	3.459
310.75	3.689
311.12	3.926
311.48	4.489
311.85	3.913
312.22	3.399
312.58	4.578
312.95	3.466
313.31	3.796
313.68	5.628
314.05	4.451
314.41	2.716
314.78	4.096
315.14	5.232
315.51	5.066
315.87	5.808
316.24	5.248
316.61	7.198
316.97	7.065
317.34	6.455
317.70	5.844
318.07	6.810
318.43	7.022
318.80	8.638
319.16	6.473
319.53	7.143
319.89	8.090
320.26	8.725
320.62	8.558
320.99	8.856
321.35	8.670
321.72	8.598
322.08	9.891
322.45	9.802
322.81	10.759
323.18	10.471
323.54	10.628
323.91	11.492
324.27	12.262
324.64	13.254
325.00	13.089
325.37	13.756
325.73	14.873
326.10	12.932
326.46	14.361
326.83	14.894
327.19	15.013
327.56	17.973
327.92	16.483
328.29	16.710
328.65	16.636
329.01	18.375
329.38	18.287
329.74	19.872
330.11	19.946
330.47	20.073
330.84	21.082
331.20	21.209
331.56	21.969
331.93	21.492
332.29	21.461
332.66	22.300
333.02	21.538
333.38	22.670
333.75	22.351
334.11	23.022
334.48	22.683
334.84	23.710
335.20	22.872
335.57	23.556
335.93	24.799
336.29	23.206
336.66	24.053
337.02	24.414
337.38	24.421
337.75	23.617
338.11	23.882
338.47	24.555
338.84	23.412
339.20	24.341
339.56	24.332
339.93	23.280
340.29	24.446
340.65	24.126
341.02	23.777
341.38	24.937
341.74	23.709
342.11	23.379
342.47	24.378
342.83	24.265
343.20	23.997
343.56	22.857
343.92	25.209
344.28	23.970
344.65	24.587
345.01	23.529
345.37	24.003
345.73	23.241
346.10	22.731
346.46	24.533
346.82	23.176
347.19	23.254
347.55	23.034
347.91	24.016
348.27	23.150
348.63	25.040
349.00	24.741
349.36	22.639
349.72	25.080
350.08	24.138
350.45	23.719
350.81	24.841
351.17	23.473
351.53	23.071
351.89	24.091
352.26	23.566
352.62	23.963
352.98	24.525
353.34	24.780
353.70	22.625
354.07	23.918
354.43	23.794
354.79	23.296
355.15	23.962
355.51	24.375
355.87	24.269
356.24	23.670
356.60	24.335
356.96	23.865
357.32	23.674
357.68	24.138
358.04	23.711
358.40	24.671
358.77	23.879
359.13	24.254
359.49	23.885
359.85	24.771
360.21	24.353
360.57	24.322
360.93	25.778
361.29	24.066
361.66	23.780
362.02	24.630
362.38	24.725
362.74	25.348
363.10	23.673
363.46	25.783
363.82	24.708
364.18	25.760
364.54	26.519
364.90	25.507
365.26	24.679
365.62	25.731
365.98	25.889
366.35	25.563
366.71	24.806
367.07	25.618
367.43	25.120
367.79	24.605
368.15	25.107
368.51	26.294
368.87	26.648
369.23	25.895
369.59	25.694
369.95	25.722
370.31	26.090
370.67	24.584
371.03	25.802
371.39	24.965
371.75	26.967
372.11	26.686
372.47	27.404
372.83	27.677
373.19	27.357
373.55	28.008
373.91	26.885
374.27	27.515
374.63	26.915
374.99	27.955
375.35	27.793
375.71	28.359
376.07	28.131
376.42	27.881
376.78	28.758
377.14	29.627
377.50	28.562
377.86	28.869
378.22	30.214
378.58	28.660
378.94	28.915
379.30	29.616
379.66	29.508
380.02	28.996
380.38	29.789
380.74	29.777
381.09	30.580
381.45	30.907
381.81	30.369
382.17	30.451
382.53	30.821
382.89	30.742
383.25	31.487
383.61	31.309
383.97	31.537
384.32	32.478
384.68	31.620
385.04	31.341
385.40	32.197
385.76	31.220
386.12	32.792
386.48	32.735
386.83	31.104
387.19	32.098
387.55	32.465
387.91	32.662
388.27	33.715
388.62	32.632
388.98	33.737
389.34	33.782
389.70	33.678
390.06	33.872
390.42	34.103
390.77	34.069
391.13	34.783
391.49	34.623
391.85	33.853
392.20	33.374
392.56	34.270
392.92	35.254
393.28	34.501
393.64	34.877
393.99	35.508
394.35	34.976
394.71	34.157
395.07	34.589
395.42	34.565
395.78	34.632
396.14	35.140
396.50	35.902
396.85	36.212
397.21	35.844
397.57	35.866
397.92	36.007
398.28	36.444
398.64	35.515
399.00	36.461
399.35	35.400
399.71	36.760
400.07	35.104
400.42	35.341
400.78	35.480
401.14	36.407
401.49	35.613
401.85	37.035
402.21	36.889
402.57	36.650
402.92	36.627
403.28	35.907
403.63	34.572
403.99	36.482
404.35	36.836
404.70	36.396
405.06	37.140
405.42	36.224
405.77	36.878
406.13	36.343
406.49	37.148
406.84	36.473
407.20	37.220
407.55	36.732
407.91	36.399
408.27	37.316
408.62	36.861
408.98	35.779
409.34	35.466
409.69	36.232
410.05	35.537
410.40	37.278
410.76	37.996
411.11	37.032
411.47	38.811
411.83	38.509
412.18	38.490
412.54	36.913
412.89	37.910
413.25	36.718
413.60	36.756
413.96	36.476
414.31	38.104
414.67	37.333
415.03	37.904
415.38	38.907
415.74	38.853
416.09	37.724
416.45	36.839
416.80	38.036
417.16	37.342
417.51	39.002
417.87	39.029
418.22	38.559
418.58	39.153
418.93	39.240
419.29	38.582
419.64	37.563
420.00	38.943
420.35	39.385
420.71	39.616
421.06	38.580
421.42	38.700
421.77	39.866
422.12	38.276
422.48	38.536
422.83	38.781
423.19	38.808
423.54	38.329
423.90	38.809
424.25	39.819
424.61	40.591
424.96	40.257
425.31	39.352
425.67	39.140
426.02	38.956
426.38	39.625
426.73	40.444
427.09	39.706
427.44	39.489
427.79	39.767
428.15	40.515
428.50	40.997
428.85	40.947
429.21	40.620
429.56	41.094
429.92	40.681
430.27	39.731
430.62	41.275
430.98	40.355
431.33	41.035
431.68	41.072
432.04	41.746
432.39	41.311
432.74	41.667
433.10	41.981
433.45	41.854
433.80	41.937
434.16	41.376
434.51	42.466
434.86	41.828
435.22	42.094
435.57	42.350
435.92	41.559
436.28	42.433
436.63	42.397
436.98	40.493
437.34	42.646
437.69	42.882
438.04	42.825
438.39	42.419
438.75	42.084
439.10	42.810
439.45	42.728
439.81	42.771
440.16	41.454
440.51	42.412
440.86	43.667
441.22	42.510
441.57	43.579
441.92	42.813
442.27	41.721
442.63	43.723
442.98	43.510
443.33	43.987
443.68	44.085
444.03	43.811
444.39	43.710
444.74	43.722
445.09	43.750
445.44	45.301
445.79	44.212
446.15	44.359
446.50	42.787
446.85	43.920
447.20	43.412
447.55	43.757
447.91	44.919
448.26	43.687
448.61	43.577
448.96	44.706
449.31	44.476
449.66	44.591
450.02	42.825
450.37	42.957
450.72	44.463
451.07	45.317
451.42	43.742
451.77	45.362
452.12	44.458
452.47	43.955
452.83	44.321
453.18	44.782
453.53	45.522
453.88	45.335
454.23	43.833
454.58	45.370
454.93	44.018
455.28	45.315
455.63	44.042
455.98	45.663
456.34	44.917
456.69	45.341
457.04	45.237
457.39	44.498
457.74	44.891
458.09	45.766
458.44	46.247
458.79	44.955
459.14	45.465
459.49	46.063
459.84	44.857
460.19	44.272
460.54	45.856
460.89	45.516
461.24	44.809
461.59	45.193
461.94	45.703
462.29	46.456
462.64	46.311
462.99	45.582
463.34	44.700
463.69	45.165
464.04	45.870
464.39	44.922
464.74	46.099
465.09	44.979
465.44	45.008
465.79	45.911
466.14	47.641
466.49	45.078
466.84	46.399
467.19	47.070
467.54	45.506
467.89	46.486
468.24	44.834
468.59	45.784
468.94	45.981
469.29	45.614
469.64	45.889
469.99	47.400
470.34	46.961
470.68	47.747
471.03	46.387
471.38	46.597
471.73	48.042
472.08	46.519
472.43	45.753
472.78	47.333
473.13	46.587
473.48	47.798
473.83	46.588
474.17	46.306
474.52	48.146
474.87	46.911
475.22	45.841
475.57	46.889
475.92	47.840
476.27	46.686
476.61	46.141
476.96	46.451
477.31	46.555
477.66	46.652
478.01	46.677
478.36	46.255
478.70	47.998
479.05	47.593
479.40	47.617
479.75	46.483
480.10	47.024
480.45	46.663
480.79	47.384
481.14	48.520
481.49	47.435
481.84	47.018
482.19	47.510
482.53	47.348
482.88	47.318
483.23	47.183
483.58	47.364
483.92	48.113
484.27	46.655
484.62	47.127
484.97	45.596
485.31	45.728
485.66	45.621
486.01	46.250
486.36	47.197
486.70	48.480
487.05	47.215
487.40	47.409
487.75	46.519
488.09	46.294
488.44	45.907
488.79	45.738
489.13	47.242
489.48	45.840
489.83	46.681
490.17	47.453
490.52	47.418
490.87	47.667
491.22	46.847
491.56	47.778
491.91	48.616
492.26	47.594
492.60	46.289
492.95	47.311
493.30	46.975
493.64	47.062
493.99	47.658
494.34	48.714
494.68	47.238
495.03	47.419
495.37	48.132
495.72	48.084
496.07	47.818
496.41	48.078
496.76	47.671
497.11	48.846
497.45	48.084
497.80	48.324
498.14	47.397
498.49	48.317
498.84	47.427
499.18	48.782
499.53	48.173
499.87	48.069
500.22	48.873
500.56	47.474
500.91	48.128
501.26	48.083
501.60	47.809
501.95	48.261
502.29	48.418
502.64	48.939
502.98	47.437
503.33	47.932
503.67	47.749
504.02	47.851
504.36	48.186
504.71	47.720
505.06	47.279
505.40	49.152
505.75	47.561
506.09	48.989
506.44	48.070
506.78	47.767
507.13	48.764
507.47	47.835
507.82	47.548
508.16	47.979
508.51	47.604
508.85	47.981
509.19	48.352
509.54	47.780
509.88	47.713
510.23	49.581
510.57	49.153
510.92	48.120
511.26	49.654
511.61	48.542
511.95	47.468
512.30	48.873
512.64	48.303
512.98	48.845
513.33	48.929
513.67	49.079
514.02	49.049
514.36	47.922
514.70	48.783
515.05	48.999
515.39	48.558
515.74	50.204
516.08	49.164
516.42	48.102
516.77	49.451
517.11	48.741
517.46	50.598
517.80	49.880
518.14	49.396
518.49	49.552
518.83	49.377
519.17	49.438
519.52	48.988
519.86	50.956
520.20	50.244
520.55	49.785
520.89	49.593
521.23	49.512
521.58	49.592
521.92	51.298
522.26	51.175
522.61	50.063
522.95	49.075
523.29	49.655
523.64	49.219
523.98	49.459
524.32	50.723
524.66	49.130
525.01	50.096
525.35	49.871
525.69	49.902
526.04	51.697
526.38	50.414
526.72	48.084
527.06	50.130
527.41	49.373
527.75	49.439
528.09	51.489
528.43	50.164
528.78	49.812
529.12	49.552
529.46	50.580
529.80	48.806
530.15	50.612
530.49	49.288
530.83	50.557
531.17	51.111
531.51	51.239
531.86	49.638
532.20	50.405
532.54	49.799
532.88	50.461
533.22	49.599
533.57	51.240
533.91	49.064
534.25	49.466
534.59	47.845
534.93	48.351
535.27	49.150
535.62	50.831
535.96	49.127
536.30	49.804
536.64	49.602
536.98	50.847
537.32	49.689
537.66	49.898
538.01	50.447
538.35	49.324
538.69	50.668
539.03	49.560
539.37	50.166
539.71	50.967
540.05	51.474
540.39	51.662
540.73	50.449
541.07	51.161
541.42	50.101
541.76	48.239
542.10	50.304
542.44	49.700
542.78	49.050
543.12	50.034
543.46	49.589
543.80	49.365
544.14	50.235
544.48	50.984
544.82	50.271
545.16	49.899
545.50	49.192
545.84	49.791
546.18	48.752
546.52	50.356
546.86	50.570
547.20	51.828
547.54	49.105
547.88	49.967
548.22	49.738
548.56	49.299
548.90	49.259
549.24	50.526
549.58	49.188
549.92	50.247
550.26	49.855
550.60	49.004
550.94	49.489
551.28	49.360
551.62	50.148
551.96	49.638
552.30	48.711
552.64	50.457
552.98	50.175
553.32	50.794
553.66	50.973
554.00	48.117
554.34	49.170
554.68	49.488
555.02	49.711
555.36	49.173
555.69	50.430
556.03	48.982
556.37	49.573
556.71	50.752
557.05	50.185
557.39	49.072
557.73	50.839
558.07	50.641
558.41	49.065
558.75	49.658
559.08	48.872
559.42	50.230
559.76	50.307
560.10	51.081
560.44	50.000
560.78	49.826
561.12	49.344
561.45	49.521
561.79	48.990
562.13	50.000
562.47	50.280
562.81	48.868
563.15	49.125
563.48	49.758
563.82	48.952
564.16	49.425
564.50	49.395
564.84	49.471
565.17	50.133
565.51	48.761
565.85	51.318
566.19	49.934
566.52	49.576
566.86	49.115
567.20	49.334
567.54	50.148
567.88	49.358
568.21	49.049
568.55	49.788
568.89	48.658
569.23	48.589
569.56	48.676
569.90	47.797
570.24	48.779
570.57	46.854
570.91	46.923
571.25	48.119
571.59	48.080
571.92	47.113
572.26	46.735
572.60	46.944
572.93	46.702
573.27	46.067
573.61	46.372
573.95	48.270
574.28	46.271
574.62	46.823
574.96	46.211
575.29	46.672
575.63	47.279
575.97	46.467
576.30	46.396
576.64	46.919
576.98	46.629
577.31	46.555
577.65	46.388
577.98	46.419
578.32	47.106
578.66	46.827
578.99	46.788
579.33	46.973
579.67	45.955
580.00	45.957
580.34	46.453
580.67	46.654
581.01	46.275
581.35	47.065
581.68	46.527
582.02	46.925
582.35	46.497
582.69	47.494
583.02	47.502
583.36	46.044
583.70	46.569
584.03	46.121
584.37	46.901
584.70	46.180
585.04	46.127
585.37	45.800
585.71	45.743
586.04	46.555
586.38	46.351
586.72	46.308
587.05	46.984
587.39	46.217
587.72	46.456
588.06	46.713
588.39	46.482
588.73	46.198
589.06	47.315
589.40	47.063
589.73	46.459
590.07	46.140
590.40	46.937
590.73	47.381
591.07	46.803
591.40	48.137
591.74	46.785
592.07	46.486
592.41	47.983
592.74	47.463
593.08	46.413
593.41	47.138
593.75	46.884
594.08	48.347
594.41	47.024
594.75	47.037
595.08	47.744
595.42	46.749
595.75	46.931
596.09	46.993
596.42	48.036
596.75	46.787
597.09	47.240
597.42	46.792
597.75	47.298
598.09	47.854
598.42	47.327
598.76	46.802
599.09	47.316
599.42	46.713
599.76	46.055
600.09	48.282
600.42	46.791
600.76	47.834
601.09	46.753
601.42	46.933
601.76	47.118
602.09	47.444
602.42	46.955
602.76	46.822
603.09	46.774
603.42	47.220
603.76	47.347
604.09	46.856
604.42	46.211
604.76	46.577
605.09	47.288
605.42	47.562
605.75	46.874
606.09	46.409
606.42	45.999
606.75	46.243
607.09	46.670
607.42	47.711
607.75	46.313
608.08	47.854
608.42	46.216
608.75	45.935
609.08	47.053
609.41	46.288
609.75	46.026
610.08	47.402
610.41	47.229
610.74	47.921
611.07	47.972
611.41	46.646
611.74	48.226
612.07	48.443
612.40	46.802
612.73	47.227
613.07	46.835
613.40	49.644
613.73	46.431
614.06	46.568
614.39	48.027
614.72	47.709
615.06	47.772
615.39	47.260
615.72	47.583
616.05	46.770
616.38	47.998
616.71	47.147
617.05	47.648
617.38	47.678
617.71	46.744
618.04	47.702
618.37	48.176
618.70	48.305
619.03	46.852
619.36	48.414
619.69	47.739
620.03	47.865
620.36	48.453
620.69	48.241
621.02	47.565
621.35	48.468
621.68	48.279
622.01	48.867
622.34	48.214
622.67	47.578
623.00	48.432
623.33	47.612
623.66	47.637
623.99	47.444
624.32	48.735
624.65	48.418
624.99	48.021
625.32	47.979
625.65	49.961
625.98	47.887
626.31	49.511
626.64	47.950
626.97	48.716
627.30	48.000
627.63	46.718
627.96	48.042
628.29	49.173
628.62	49.761
628.95	48.130
629.28	47.838
629.61	48.871
629.94	47.353
630.26	50.596
630.59	49.648
630.92	48.749
631.25	49.093
631.58	49.312
631.91	48.298
632.24	50.000
632.57	48.667
632.90	50.230
633.23	48.832
633.56	49.591
633.89	49.292
634.22	49.705
634.55	50.962
634.88	49.335
635.20	50.437
635.53	49.873
635.86	48.615
636.19	47.741
636.52	48.746
636.85	47.653
637.18	49.000
637.51	50.186
637.83	51.132
638.16	50.000
638.49	51.034
638.82	48.777
639.15	49.676
639.48	47.341
639.81	50.207
640.13	50.135
640.46	50.142
640.79	50.980
641.12	50.212
641.45	48.350
641.77	49.401
642.10	47.432
642.43	48.710
642.76	49.921
643.09	49.365
643.41	49.841
643.74	47.218
644.07	50.702
644.40	50.081
644.73	50.990
645.05	46.912
645.38	49.669
645.71	52.749
646.04	49.580
646.36	49.215
646.69	49.481
647.02	51.083
647.35	52.347
647.67	49.453
648.00	49.912
648.33	53.288
648.66	49.355
648.98	50.159
649.31	51.846
649.64	50.469
649.96	48.509
650.29	50.656
650.62	51.979
650.94	50.422
651.27	50.260
651.60	47.924
651.92	51.199
652.25	48.414
652.58	49.063
652.90	49.278
653.23	51.129
653.56	48.997
653.88	48.525
654.21	50.000
654.54	49.834
654.86	49.438
655.19	49.140
655.52	48.753
655.84	46.662
656.17	50.223
656.49	67.123
656.82	68.516
657.15	51.168
657.47	37.805
657.80	29.395
658.13	32.995
658.45	43.946
658.78	42.677
659.10	41.743
659.43	40.845
659.75	40.677
660.08	40.677
660.41	40.029
660.73	42.904
661.06	47.971
661.38	48.214
661.71	46.080
662.03	45.565
662.36	51.599
662.68	48.734
663.01	51.168
663.33	52.608
663.66	50.644
663.98	49.554
664.31	49.888
664.63	51.549
664.96	50.542
665.28	50.542
665.61	46.723
665.93	48.148
666.26	48.178
666.58	46.778
666.91	49.666
667.23	48.246
667.56	48.526
667.88	52.036
668.21	50.230
668.53	49.766
668.86	53.811
669.18	49.772
669.50	50.701
669.83	51.095
670.15	48.655
670.48	51.636
670.80	47.380
671.13	48.533
671.45	51.126
671.77	47.537
672.10	49.704
672.42	47.786
672.75	45.636
673.07	49.009
673.39	48.998
673.72	50.000
674.04	47.983
674.37	46.804
674.69	49.590
675.01	46.596
675.34	46.204
675.66	48.164
675.98	49.339
676.31	47.059
676.63	52.184
676.95	46.903
677.28	48.956
677.60	49.095
677.92	47.357
678.25	48.140
678.57	48.148
678.89	47.799
679.22	47.589
679.54	50.099
679.86	46.000
680.18	48.099
680.51	45.996
680.83	48.381
681.15	47.977
681.48	50.913
681.80	47.379
682.12	47.887
682.44	47.151
682.77	45.455
683.09	46.122
683.41	49.558
683.73	46.575
684.06	45.376
684.38	47.071
684.70	47.942
685.02	47.638
685.34	48.538
685.67	47.727
685.99	45.747
686.31	47.756
686.63	46.631
686.96	45.102
687.28	44.509
687.60	45.703
687.92	43.774
688.24	47.441
688.56	44.689
688.89	43.590
689.21	48.578
689.53	46.897
689.85	44.321
690.17	45.964
690.49	48.268
690.82	45.060
691.14	43.160
691.46	44.124
691.78	48.238
692.10	48.729
692.42	46.667
692.74	45.279
693.06	45.843
693.39	44.519
693.71	47.404
694.03	46.220
694.35	43.792
694.67	44.208
694.99	44.501
695.31	50.255
695.63	42.092
695.95	44.913
696.27	46.384
696.59	50.535
696.91	48.876
697.23	45.573
697.56	45.673
697.88	47.523
698.20	43.469
698.52	44.170
698.84	45.388
699.16	44.286
699.48	46.000
699.80	45.614
700.12	44.081
700.44	47.765
700.76	42.857
701.08	45.349
701.40	45.921
701.72	47.222
702.04	52.244
702.36	46.988
702.68	46.707
703.00	45.217
703.32	43.553
703.64	53.824
703.96	47.384
704.28	45.858
704.60	46.519
704.91	44.127
705.23	47.249
705.55	40.878
705.87	46.075
706.19	40.625
706.51	45.486
706.83	45.902
707.15	46.815
707.47	44.628
707.79	43.299
708.11	42.239
708.43	46.135
708.74	41.818
709.06	44.847
709.38	46.264
709.70	46.250
710.02	45.399
710.34	43.894
710.66	45.714
710.98	45.741
711.29	44.839
711.61	41.214
711.93	46.230
712.25	47.176
712.57	45.296
712.89	48.201
713.20	44.330
713.52	44.030
713.84	45.196
714.16	42.295
714.48	47.302
714.80	43.077
715.11	42.075
715.43	50.301
715.75	47.040
716.07	43.279
716.39	43.478
716.70	46.341
717.02	47.037
717.34	41.985
717.66	50.622
717.97	39.754
718.29	44.118
718.61	48.016
718.93	45.878
719.24	41.544
719.56	42.642
719.88	45.091
720.20	46.067
720.51	45.489
720.83	48.594
721.15	46.721
721.46	49.020
721.78	39.464
722.10	48.000
722.42	44.215
722.73	41.833
723.05	43.775
723.37	40.392
723.68	39.271
724.00	45.528
724.32	43.210
724.63	41.494
724.95	52.066
725.27	43.860
725.58	45.690
725.90	41.667
726.22	45.756
726.53	42.586
726.85	38.431
727.16	43.609
727.48	41.923
727.80	40.574
728.11	42.437
728.43	45.041
728.74	46.094
729.06	40.152
729.38	36.965
729.69	43.307
730.01	40.157
730.32	44.223
730.64	44.322
730.96	42.537
731.27	41.071
731.59	37.942
731.90	40.491
732.22	41.104
732.53	47.351
732.85	41.275
733.16	41.304
733.48	43.206
733.80	43.060
734.11	40.690
734.43	44.558
734.74	40.356
735.06	40.125
735.37	42.202
735.69	40.000
736.00	40.067
736.32	46.358
736.63	38.276
736.95	44.928
737.26	43.709
737.58	42.806
737.89	45.161
738.21	42.481
738.52	43.846
738.83	41.406
739.15	33.761
739.46	45.161
739.78	39.860
740.09	39.510
740.41	39.161
740.72	46.350
741.04	42.460
741.35	38.961
741.66	42.593
741.98	35.238
742.29	41.784
742.61	37.433
742.92	45.794
743.23	42.544
743.55	43.243
743.86	41.333
744.18	48.095
744.49	42.857
744.80	48.223
745.12	47.423
745.43	42.714
745.74	44.175
746.06	44.390
746.37	38.767
746.68	46.766
747.00	43.979
747.31	42.308
747.62	41.935
747.94	41.921
748.25	44.186
748.56	40.952
748.88	42.391
749.19	44.131
749.50	46.569
749.82	45.333
750.13	50.220
750.44	44.309
750.75	47.200
751.07	42.500
751.38	37.638
751.69	43.130
752.01	40.385
752.32	39.689
752.63	36.538
752.94	42.857
753.26	38.261
753.57	44.643
753.88	40.517
754.19	35.685
754.51	36.719
754.82	40.711
755.13	41.564
755.44	37.603
755.75	41.975
756.07	37.349
756.38	40.625
756.69	45.848
757.00	41.812
757.31	40.940
757.63	41.745
757.94	38.728
758.25	42.151
758.56	45.283
758.87	41.193
759.18	37.000
759.50	43.060
759.81	33.942
760.12	35.135
760.43	44.337
760.74	43.125
761.05	40.730
761.36	40.419
761.67	39.941
761.99	35.161
762.30	43.116
762.61	41.509
762.92	41.704
763.23	43.128
763.54	33.333
763.85	43.460
764.16	43.673
764.47	44.492
764.78	40.824
765.10	38.849
765.41	39.032
765.72	40.566
766.03	37.102
766.34	40.226
766.65	34.008
766.96	40.500
767.27	36.458
767.58	43.605
767.89	46.452
768.20	47.239
768.51	34.973
768.82	40.541
769.13	37.000
769.44	42.544
769.75	35.498
770.06	41.743
770.37	33.803
770.68	39.062
770.99	32.178
771.30	41.262
771.61	36.574
771.92	37.229
772.23	36.916
772.54	36.702
772.85	39.645
773.16	36.585
773.47	38.554
773.78	40.110
774.09	40.667
774.39	33.951
774.70	39.597
775.01	37.681
775.32	35.821
775.63	28.099
775.94	37.594
776.25	37.857
776.56	50.820
776.87	38.053
777.18	43.363
777.48	40.909
777.79	31.304
778.10	22.018
778.41	24.576
778.72	35.537
779.03	44.030
779.34	34.586
779.65	43.137
779.95	40.580
780.26	32.653
780.57	27.586
780.88	37.963
781.19	28.283
781.50	30.400
781.80	44.444
782.11	36.538
782.42	34.940
782.73	32.117
783.04	38.514
783.34	28.788
783.65	36.434
783.96	34.146
784.27	41.026
784.57	30.894
784.88	25.203
785.19	30.702
785.50	25.773
785.81	26.667
786.11	32.353
786.42	33.636
786.73	42.342
787.04	31.683
787.34	34.286
787.65	38.095
787.96	43.137
788.26	38.739
788.57	38.710
788.88	32.031
789.19	29.915
789.49	42.017
789.80	28.205
790.11	38.053
790.41	30.303
790.72	41.509
791.03	30.556
791.33	26.316
791.64	30.108
791.95	21.333
792.25	31.429
792.56	39.024
792.87	48.980
793.17	30.263
793.48	20.270
793.79	25.352
794.09	22.785
794.40	37.234
794.70	36.449
795.01	27.193
795.32	26.364
795.62	44.643
795.93	36.082
796.23	21.978
796.54	31.579
796.85	32.877
797.15	13.889
797.46	28.767
797.76	14.085
798.07	26.250
798.37	44.118
798.68	50.000
798.99	30.000
799.29	30.263
799.60	16.667
799.90	4.167
800.21	23.438
800.51	15.873
800.82	16.393
801.12	15.789
801.43	19.718
801.73	3.390
802.04	32.787
802.34	32.727
802.65	42.308
802.95	48.148
803.26	5.000
803.56	21.154
803.87	10.526
804.17	25.806
804.48	41.538
804.78	-10.256
805.09	6.977
805.39	12.500
805.70	0.000
806.00	50.877
806.30	35.135
806.61	27.941
806.91	24.691
807.22	41.333
807.52	19.403
807.83	33.871
808.13	17.460
808.43	14.545
808.74	16.667
809.04	18.868
809.35	26.027
809.65	14.035
809.95	36.765
810.26	25.490
810.56	6.000
810.86	10.204
811.17	22.857
811.47	17.308
811.77	6.452
812.08	-26.316
812.38	21.429
812.69	26.087
812.99	12.903
813.29	16.667
813.59	-37.037
813.90	-2.128
814.20	-30.233
814.50	8.333
814.81	13.333
815.11	0.000
815.41	10.000
815.72	42.857
816.02	-5.556
816.32	20.513
816.62	-8.108
816.93	-35.294
817.23	19.565
817.53	17.647
817.84	0.000
818.14	-40.625
818.44	13.793
818.74	-32.258
819.04	-7.407
819.35	13.333
819.65	-20.000
819.95	36.667
820.25	-8.000
820.56	-26.316
820.86	45.000
821.16	19.149
821.46	24.138
821.76	-7.692
822.07	-5.000
822.37	6.977
822.67	-16.667
822.97	13.514
823.27	0.000
823.57	20.000
823.88	35.135
824.18	-23.810
824.48	-23.077
824.78	-61.538
825.08	-17.391
825.38	41.667
825.69	-33.333
825.99	-60.000
826.29	-18.919
826.59	20.588
826.89	36.000
827.19	11.429
827.49	26.316
827.79	-12.500
828.09	-40.000
828.39	30.435
828.70	-24.138
829.00	-3.448
829.30	19.444
829.60	62.500
829.90	0.000
830.20	3.846
830.50	-47.619
830.80	7.143
831.10	12.821
831.40	-61.905
831.70	-11.765
832.00	-8.333
832.30	-68.421
832.60	-62.500
832.90	-108.333
833.20	-58.824
833.50	-86.667
833.80	-53.333
834.10	-20.000
834.40	12.500
834.70	27.778
835.00	11.538
835.30	-41.667
835.60	-10.345
835.90	-11.111
836.20	-81.818
836.50	-141.667
836.80	20.000
837.10	71.429
837.40	-17.647
837.70	-145.455
838.00	12.500
838.30	-31.250
838.60	9.524
838.90	-5.000
839.19	-21.739
839.49	-8.696
839.79	-61.111
840.09	-52.174
840.39	0.000
840.69	-75.000
840.99	-21.053
841.29	-50.000
841.59	-107.143
841.88	-38.889
842.18	8.333
842.48	-17.647
842.78	-20.690
843.08	14.286
843.38	-15.385
843.68	-77.778
843.97	-138.462
844.27	-72.727
844.57	-160.000
844.87	16.000
845.17	-180.000
845.47	14.286
845.76	-22.222
846.06	0.000
846.36	-500.000
846.66	-200.000
846.96	-57.895
847.25	-20.833
847.55	-108.333
847.85	-46.667
848.15	-170.000
848.44	26.923
848.74	-21.053
849.04	600.000
849.34	-100.000
849.63	-78.947
849.93	0.000
850.23	-55.000
850.53	-23.810
850.82	-36.000
851.12	-42.105
851.42	-1000.000
851.71	14.286
852.01	-50.000
852.31	-47.059
852.61	66.667
852.90	-61.905
853.20	-33.333
853.50	38.889
853.79	-78.947
854.09	-66.667
854.39	-17.857
854.68	-13.043
854.98	-100.000
855.28	10.345
855.57	0.000
855.87	-30.000
856.17	-53.333
856.46	-13.793
856.76	-13.333
857.05	-47.059
857.35	-107.692
857.65	-45.455
857.94	29.630
858.24	-85.714
858.53	-35.714
858.83	8.333
859.13	-66.667
859.42	-4.762
859.72	-37.500
860.01	-566.667
860.31	37.500
860.60	-280.000
860.90	-111.111
861.20	-25.000
861.49	-257.143
861.79	5.882
862.08	-300.000
862.38	-116.667
862.67	-38.462
862.97	0.000
863.26	-10.000
863.56	-58.824
863.85	133.333
864.15	-90.000
864.44	-76.923
864.74	-40.000
865.03	-275.000
865.33	-100.000
865.62	-105.882
865.92	-450.000
866.21	-114.286
866.51	-83.333
866.80	-1800.000
867.10	-600.000
867.39	-70.588
867.69	-21.739
867.98	-114.286
868.27	-340.000
868.57	-56.250
868.86	-154.545
869.16	-23.529
869.45	-100.000
869.75	-257.143
870.04	1400.000
870.33	0.000
870.63	-100.000
870.92	-33.333
871.22	-16.667
871.51	-109.091
871.80	16.667
872.10	0.000
>>>>>End Processed Spectral Data<<<<<
