SpectraSuite Data File
++++++++++++++++++++++++++++++++++++
Date: Sat May 16 11:47:38 PDT 2015
User: schluterlab
Dark Spectrum Present: Yes
Reference Spectrum Present: Yes
Number of Sampled Component Spectra: 1
Spectrometers: USB2E3373
Integration Time (usec): 3000 (USB2E3373)
Spectra Averaged: 3 (USB2E3373)
Boxcar Smoothing: 0 (USB2E3373)
Correct for Electrical Dark: No (USB2E3373)
Strobe/Lamp Enabled: No (USB2E3373)
Correct for Detector Non-linearity: No (USB2E3373)
Correct for Stray Light: No (USB2E3373)
Number of Pixels in Processed Spectrum: 2048
>>>>>Begin Processed Spectral Data<<<<<
178.53	0.000
178.91	40.000
179.29	200.000
179.67	-400.000
180.04	-61.538
180.42	1400.000
180.80	275.000
181.18	400.000
181.56	-37.500
181.94	700.000
182.31	450.000
182.69	-23.077
183.07	-366.667
183.45	1450.000
183.83	566.667
184.20	0.000
184.58	-137.500
184.96	-200.000
185.34	118.750
185.72	-675.000
186.09	166.667
186.47	-25.000
186.85	-162.500
187.23	-162.500
187.61	-175.000
187.98	-275.000
188.36	-87.500
188.74	-87.500
189.12	1200.000
189.49	271.429
189.87	-33.333
190.25	375.000
190.63	-114.286
191.00	-155.556
191.38	120.000
191.76	13.333
192.14	480.000
192.51	-180.000
192.89	-200.000
193.27	0.000
193.65	-188.889
194.02	-228.571
194.40	1000.000
194.78	-50.000
195.15	-1300.000
195.53	-18.182
195.91	-366.667
196.29	420.000
196.66	-366.667
197.04	2500.000
197.42	0.000
197.79	6.667
198.17	-233.333
198.55	-400.000
198.92	-1700.000
199.30	250.000
199.68	-850.000
200.05	-200.000
200.43	-155.556
200.81	-1700.000
201.18	-150.000
201.56	185.714
201.94	-26.667
202.31	13.636
202.69	-120.000
203.07	20.000
203.44	833.333
203.82	-300.000
204.19	-350.000
204.57	-100.000
204.95	-1300.000
205.32	-25.000
205.70	1400.000
206.08	-1200.000
206.45	-55.556
206.83	-1150.000
207.20	50.000
207.58	-366.667
207.96	-433.333
208.33	-212.500
208.71	-188.889
209.08	250.000
209.46	-100.000
209.84	450.000
210.21	0.000
210.59	30.000
210.96	300.000
211.34	-316.667
211.71	-366.667
212.09	75.000
212.46	1000.000
212.84	-2200.000
213.22	700.000
213.59	41.667
213.97	22.222
214.34	-40.000
214.72	-90.000
215.09	-166.667
215.47	-216.667
215.84	-30.000
216.22	-60.000
216.59	33.333
216.97	-550.000
217.34	950.000
217.72	-142.857
218.09	-283.333
218.47	-200.000
218.84	185.714
219.22	-100.000
219.59	0.000
219.97	385.714
220.34	550.000
220.72	225.000
221.09	-92.308
221.47	0.000
221.84	466.667
222.22	-800.000
222.59	1100.000
222.97	-200.000
223.34	-400.000
223.72	-233.333
224.09	-92.857
224.46	-250.000
224.84	-107.143
225.21	-228.571
225.59	-63.636
225.96	-175.000
226.34	-114.286
226.71	-11.111
227.08	-25.000
227.46	1600.000
227.83	-142.857
228.21	-250.000
228.58	150.000
228.95	-43.750
229.33	-2800.000
229.70	-260.000
230.08	-800.000
230.45	-108.333
230.82	83.333
231.20	-1500.000
231.57	-650.000
231.95	2100.000
232.32	14.286
232.69	-100.000
233.07	-314.286
233.44	-1000.000
233.81	-53.333
234.19	-177.778
234.56	-81.250
234.93	53.125
235.31	-314.286
235.68	-171.429
236.05	-76.471
236.43	-63.636
236.80	-35.484
237.17	-20.833
237.55	-100.000
237.92	-77.273
238.29	-40.000
238.67	-44.118
239.04	19.444
239.41	-12.903
239.79	-25.641
240.16	-16.667
240.53	-27.273
240.91	20.513
241.28	0.000
241.65	1.538
242.02	6.557
242.40	6.557
242.77	0.000
243.14	-11.864
243.51	-18.571
243.89	-10.127
244.26	-5.618
244.63	-6.316
245.00	0.000
245.38	-0.847
245.75	3.540
246.12	0.800
246.49	13.386
246.87	0.000
247.24	-0.847
247.61	2.542
247.98	6.338
248.36	3.497
248.73	4.430
249.10	3.822
249.47	7.018
249.84	13.068
250.22	-1.190
250.59	2.825
250.96	6.283
251.33	11.848
251.70	3.846
252.08	4.739
252.45	2.844
252.82	6.190
253.19	8.936
253.56	1.613
253.94	7.595
254.31	9.013
254.68	7.317
255.05	3.226
255.42	8.333
255.79	4.301
256.16	9.412
256.54	7.721
256.91	7.955
257.28	3.663
257.65	5.319
258.02	9.748
258.39	9.365
258.76	3.378
259.14	4.938
259.51	12.459
259.88	5.793
260.25	9.938
260.62	6.752
260.99	4.748
261.36	10.366
261.73	9.538
262.10	10.000
262.47	6.268
262.85	10.857
263.22	4.298
263.59	4.923
263.96	10.435
264.33	8.672
264.70	9.392
265.07	9.341
265.44	8.010
265.81	7.235
266.18	5.823
266.55	6.863
266.92	10.076
267.29	10.169
267.66	9.383
268.03	10.145
268.40	7.512
268.77	8.434
269.14	6.265
269.51	10.115
269.88	7.339
270.25	6.760
270.62	6.636
270.99	9.009
271.36	7.925
271.73	7.399
272.10	6.865
272.47	9.333
272.84	10.444
273.21	7.339
273.58	8.132
273.95	7.456
274.32	8.597
274.69	8.753
275.06	10.225
275.43	7.366
275.80	9.980
276.17	7.113
276.54	11.202
276.91	9.465
277.28	9.128
277.65	9.711
278.02	7.724
278.39	9.430
278.76	8.566
279.13	8.893
279.50	8.748
279.87	6.765
280.23	10.931
280.60	7.356
280.97	7.573
281.34	8.511
281.71	9.231
282.08	9.274
282.45	7.128
282.82	9.690
283.19	8.727
283.56	9.707
283.92	10.071
284.29	8.364
284.66	10.432
285.03	9.804
285.40	8.672
285.77	10.877
286.14	9.928
286.51	7.282
286.87	8.711
287.24	9.386
287.61	10.909
287.98	5.199
288.35	7.934
288.72	5.942
289.08	7.458
289.45	7.071
289.82	7.958
290.19	9.688
290.56	7.934
290.93	6.995
291.29	6.483
291.66	6.119
292.03	8.477
292.40	8.283
292.77	7.453
293.13	8.130
293.50	8.172
293.87	7.822
294.24	8.748
294.60	6.818
294.97	8.194
295.34	6.222
295.71	7.440
296.08	6.759
296.44	7.010
296.81	10.256
297.18	6.620
297.55	6.638
297.91	7.671
298.28	7.671
298.65	7.531
299.02	7.754
299.38	8.289
299.75	6.250
300.12	7.051
300.48	7.033
300.85	6.422
301.22	8.797
301.59	7.022
301.95	9.572
302.32	5.476
302.69	7.589
303.05	7.570
303.42	6.375
303.79	6.938
304.15	7.938
304.52	7.818
304.89	8.264
305.25	8.303
305.62	5.758
305.99	8.481
306.35	6.548
306.72	6.378
307.09	8.286
307.45	6.243
307.82	6.927
308.19	7.830
308.55	6.645
308.92	6.767
309.29	7.135
309.65	7.847
310.02	7.343
310.38	6.486
310.75	8.709
311.12	8.264
311.48	7.933
311.85	8.342
312.22	7.621
312.58	9.563
312.95	6.524
313.31	7.692
313.68	7.940
314.05	7.715
314.41	7.243
314.78	6.993
315.14	7.897
315.51	7.396
315.87	8.035
316.24	7.872
316.61	9.021
316.97	8.358
317.34	8.285
317.70	7.885
318.07	8.116
318.43	7.397
318.80	9.390
319.16	7.223
319.53	7.989
319.89	8.184
320.26	7.745
320.62	7.596
320.99	9.254
321.35	7.389
321.72	8.086
322.08	8.309
322.45	8.317
322.81	8.742
323.18	8.165
323.54	9.797
323.91	8.434
324.27	9.125
324.64	8.044
325.00	9.860
325.37	8.507
325.73	10.324
326.10	8.503
326.46	9.545
326.83	8.766
327.19	10.092
327.56	10.818
327.92	9.431
328.29	10.216
328.65	10.364
329.01	10.247
329.38	9.367
329.74	12.179
330.11	10.154
330.47	10.082
330.84	11.457
331.20	9.025
331.56	9.572
331.93	10.480
332.29	10.411
332.66	11.414
333.02	10.317
333.38	11.649
333.75	11.309
334.11	10.844
334.48	10.150
334.84	11.286
335.20	11.879
335.57	10.740
335.93	11.996
336.29	11.072
336.66	10.661
337.02	11.892
337.38	10.784
337.75	11.414
338.11	10.912
338.47	11.655
338.84	11.615
339.20	11.072
339.56	11.586
339.93	10.847
340.29	11.426
340.65	10.402
341.02	11.551
341.38	10.531
341.74	11.008
342.11	11.433
342.47	10.730
342.83	10.999
343.20	11.358
343.56	10.204
343.92	12.521
344.28	12.700
344.65	10.644
345.01	11.681
345.37	11.960
345.73	10.393
346.10	10.711
346.46	11.292
346.82	11.628
347.19	10.846
347.55	10.995
347.91	11.732
348.27	10.501
348.63	10.985
349.00	12.411
349.36	10.773
349.72	11.704
350.08	11.307
350.45	10.087
350.81	10.908
351.17	9.646
351.53	10.660
351.89	11.641
352.26	12.093
352.62	12.826
352.98	11.551
353.34	12.310
353.70	10.965
354.07	11.880
354.43	10.198
354.79	11.886
355.15	12.141
355.51	10.937
355.87	10.909
356.24	11.597
356.60	12.893
356.96	11.855
357.32	10.926
357.68	11.724
358.04	11.624
358.40	12.142
358.77	11.283
359.13	11.171
359.49	12.018
359.85	11.662
360.21	12.405
360.57	12.199
360.93	12.815
361.29	12.257
361.66	11.280
362.02	12.426
362.38	12.913
362.74	12.088
363.10	11.263
363.46	13.034
363.82	12.755
364.18	12.808
364.54	12.580
364.90	11.950
365.26	11.983
365.62	12.758
365.98	13.016
366.35	12.254
366.71	11.628
367.07	12.562
367.43	13.452
367.79	12.921
368.15	11.664
368.51	12.867
368.87	12.569
369.23	12.702
369.59	12.639
369.95	12.333
370.31	13.221
370.67	13.232
371.03	14.140
371.39	11.810
371.75	13.376
372.11	13.989
372.47	13.160
372.83	14.186
373.19	13.143
373.55	13.723
373.91	14.509
374.27	13.347
374.63	13.596
374.99	13.491
375.35	12.584
375.71	14.517
376.07	13.758
376.42	13.046
376.78	14.183
377.14	13.898
377.50	14.378
377.86	13.849
378.22	14.196
378.58	13.897
378.94	14.427
379.30	14.381
379.66	14.390
380.02	14.023
380.38	14.260
380.74	13.834
381.09	14.880
381.45	14.976
381.81	14.519
382.17	15.038
382.53	14.590
382.89	15.311
383.25	16.135
383.61	15.035
383.97	15.370
384.32	15.457
384.68	14.813
385.04	14.976
385.40	15.581
385.76	16.159
386.12	15.553
386.48	15.780
386.83	15.706
387.19	16.079
387.55	15.566
387.91	16.420
388.27	15.742
388.62	16.346
388.98	16.051
389.34	16.524
389.70	15.773
390.06	16.346
390.42	16.987
390.77	16.215
391.13	17.702
391.49	16.157
391.85	16.272
392.20	16.383
392.56	16.921
392.92	16.657
393.28	16.361
393.64	17.078
393.99	17.538
394.35	17.701
394.71	16.553
395.07	17.514
395.42	16.985
395.78	17.033
396.14	17.570
396.50	16.881
396.85	16.841
397.21	17.193
397.57	18.055
397.92	17.272
398.28	17.389
398.64	17.371
399.00	18.258
399.35	17.024
399.71	18.002
400.07	17.910
400.42	17.762
400.78	17.114
401.14	18.263
401.49	17.276
401.85	17.816
402.21	17.223
402.57	17.718
402.92	19.069
403.28	17.770
403.63	17.436
403.99	18.086
404.35	17.995
404.70	18.315
405.06	17.532
405.42	18.143
405.77	17.873
406.13	17.206
406.49	18.095
406.84	18.176
407.20	18.492
407.55	18.429
407.91	19.041
408.27	19.424
408.62	19.302
408.98	17.647
409.34	18.647
409.69	18.084
410.05	18.314
410.40	18.945
410.76	18.435
411.11	18.392
411.47	18.031
411.83	18.399
412.18	18.317
412.54	18.487
412.89	18.591
413.25	17.769
413.60	18.530
413.96	18.238
414.31	19.266
414.67	18.540
415.03	18.499
415.38	20.169
415.74	19.459
416.09	18.926
416.45	18.915
416.80	18.531
417.16	17.874
417.51	19.829
417.87	20.194
418.22	19.659
418.58	19.576
418.93	19.313
419.29	19.197
419.64	19.284
420.00	19.259
420.35	19.101
420.71	19.268
421.06	19.645
421.42	18.384
421.77	19.319
422.12	19.866
422.48	19.241
422.83	20.103
423.19	18.987
423.54	19.366
423.90	20.069
424.25	19.853
424.61	20.084
424.96	20.070
425.31	20.235
425.67	19.771
426.02	19.793
426.38	20.932
426.73	20.281
427.09	20.772
427.44	20.795
427.79	20.465
428.15	19.808
428.50	20.293
428.85	20.324
429.21	20.089
429.56	20.885
429.92	20.641
430.27	20.289
430.62	20.899
430.98	20.073
431.33	20.544
431.68	20.751
432.04	21.041
432.39	20.684
432.74	20.084
433.10	20.597
433.45	20.841
433.80	20.773
434.16	20.365
434.51	20.877
434.86	22.496
435.22	20.267
435.57	20.441
435.92	20.750
436.28	20.475
436.63	21.085
436.98	20.447
437.34	21.796
437.69	21.820
438.04	20.647
438.39	22.142
438.75	21.595
439.10	21.988
439.45	21.002
439.81	21.627
440.16	21.522
440.51	22.118
440.86	21.168
441.22	20.674
441.57	21.316
441.92	21.688
442.27	21.374
442.63	21.459
442.98	21.219
443.33	21.856
443.68	21.261
444.03	21.758
444.39	21.439
444.74	22.357
445.09	21.217
445.44	22.904
445.79	21.469
446.15	22.399
446.50	21.502
446.85	21.344
447.20	21.399
447.55	22.818
447.91	22.347
448.26	21.620
448.61	21.505
448.96	22.241
449.31	21.984
449.66	23.011
450.02	21.330
450.37	22.435
450.72	21.808
451.07	23.382
451.42	21.871
451.77	22.262
452.12	22.646
452.47	23.048
452.83	22.073
453.18	22.897
453.53	22.326
453.88	22.727
454.23	21.705
454.58	22.498
454.93	22.544
455.28	23.327
455.63	23.833
455.98	23.072
456.34	22.363
456.69	22.326
457.04	23.110
457.39	22.249
457.74	22.623
458.09	23.028
458.44	23.383
458.79	22.646
459.14	23.103
459.49	23.091
459.84	23.609
460.19	22.255
460.54	23.533
460.89	22.309
461.24	22.526
461.59	22.978
461.94	23.616
462.29	23.169
462.64	23.320
462.99	22.825
463.34	22.485
463.69	22.964
464.04	22.554
464.39	22.521
464.74	22.991
465.09	22.610
465.44	22.279
465.79	23.012
466.14	23.245
466.49	22.280
466.84	23.890
467.19	23.691
467.54	22.595
467.89	23.551
468.24	23.872
468.59	23.923
468.94	22.958
469.29	22.807
469.64	23.854
469.99	23.430
470.34	24.716
470.68	24.564
471.03	24.570
471.38	25.139
471.73	24.266
472.08	23.159
472.43	22.716
472.78	24.133
473.13	23.526
473.48	24.442
473.83	23.945
474.17	24.331
474.52	25.512
474.87	24.417
475.22	23.658
475.57	23.889
475.92	23.812
476.27	23.257
476.61	23.549
476.96	24.148
477.31	24.812
477.66	25.125
478.01	24.581
478.36	24.149
478.70	24.079
479.05	24.770
479.40	24.715
479.75	24.312
480.10	23.413
480.45	23.888
480.79	24.284
481.14	24.235
481.49	24.637
481.84	24.873
482.19	24.623
482.53	24.148
482.88	24.110
483.23	24.178
483.58	25.116
483.92	25.131
484.27	23.881
484.62	25.140
484.97	23.928
485.31	23.584
485.66	22.490
486.01	22.868
486.36	23.121
486.70	23.829
487.05	23.668
487.40	23.878
487.75	22.852
488.09	23.749
488.44	23.342
488.79	24.690
489.13	24.838
489.48	25.000
489.83	25.328
490.17	24.597
490.52	24.909
490.87	24.619
491.22	24.988
491.56	24.676
491.91	25.477
492.26	25.189
492.60	24.405
492.95	25.416
493.30	25.012
493.64	24.871
493.99	24.809
494.34	25.286
494.68	25.468
495.03	24.904
495.37	25.172
495.72	25.688
496.07	26.091
496.41	25.706
496.76	25.023
497.11	25.671
497.45	26.197
497.80	25.813
498.14	25.786
498.49	24.912
498.84	24.806
499.18	25.877
499.53	24.890
499.87	25.386
500.22	25.588
500.56	25.313
500.91	25.616
501.26	26.929
501.60	25.036
501.95	25.749
502.29	25.555
502.64	26.308
502.98	26.018
503.33	25.470
503.67	24.952
504.02	25.592
504.36	26.520
504.71	25.329
505.06	25.262
505.40	26.946
505.75	26.118
506.09	26.795
506.44	25.915
506.78	26.994
507.13	26.313
507.47	27.334
507.82	26.433
508.16	27.098
508.51	26.945
508.85	26.087
509.19	26.583
509.54	27.326
509.88	27.287
510.23	26.468
510.57	26.931
510.92	27.981
511.26	26.794
511.61	26.512
511.95	27.586
512.30	26.663
512.64	26.155
512.98	27.558
513.33	27.567
513.67	27.806
514.02	27.237
514.36	28.089
514.70	27.165
515.05	27.902
515.39	27.220
515.74	28.912
516.08	27.839
516.42	27.875
516.77	28.250
517.11	28.318
517.46	29.366
517.80	28.339
518.14	28.804
518.49	29.468
518.83	29.555
519.17	28.538
519.52	28.745
519.86	29.152
520.20	29.340
520.55	29.785
520.89	28.303
521.23	29.915
521.58	28.213
521.92	29.386
522.26	30.159
522.61	28.834
522.95	29.292
523.29	30.157
523.64	28.357
523.98	30.045
524.32	29.981
524.66	29.814
525.01	29.544
525.35	31.186
525.69	29.863
526.04	29.700
526.38	30.299
526.72	29.055
527.06	30.664
527.41	30.165
527.75	29.307
528.09	30.311
528.43	29.770
528.78	30.402
529.12	30.346
529.46	30.284
529.80	29.309
530.15	29.684
530.49	29.884
530.83	30.517
531.17	30.034
531.51	30.007
531.86	30.020
532.20	30.432
532.54	30.949
532.88	30.303
533.22	30.281
533.57	30.352
533.91	28.464
534.25	29.164
534.59	29.294
534.93	29.994
535.27	30.271
535.62	30.243
535.96	29.994
536.30	29.516
536.64	30.677
536.98	31.709
537.32	29.302
537.66	29.735
538.01	30.103
538.35	29.865
538.69	30.214
539.03	29.316
539.37	30.672
539.71	29.820
540.05	29.678
540.39	29.017
540.73	30.270
541.07	30.464
541.42	29.777
541.76	28.173
542.10	30.655
542.44	30.380
542.78	29.783
543.12	30.346
543.46	28.699
543.80	29.030
544.14	29.214
544.48	30.381
544.82	28.755
545.16	30.181
545.50	29.139
545.84	29.764
546.18	30.444
546.52	30.725
546.86	30.698
547.20	30.872
547.54	29.201
547.88	29.330
548.22	28.440
548.56	30.194
548.90	29.447
549.24	30.554
549.58	30.628
549.92	29.965
550.26	29.986
550.60	30.441
550.94	29.781
551.28	30.399
551.62	29.616
551.96	30.391
552.30	29.268
552.64	30.331
552.98	30.484
553.32	30.592
553.66	31.363
554.00	30.490
554.34	30.830
554.68	29.751
555.02	30.318
555.36	29.907
555.69	30.158
556.03	30.596
556.37	30.228
556.71	30.923
557.05	30.229
557.39	30.958
557.73	30.051
558.07	30.746
558.41	30.965
558.75	30.114
559.08	30.817
559.42	31.394
559.76	31.595
560.10	31.022
560.44	31.864
560.78	30.271
561.12	29.952
561.45	29.521
561.79	30.314
562.13	30.014
562.47	30.112
562.81	30.269
563.15	30.301
563.48	30.408
563.82	31.102
564.16	29.344
564.50	29.839
564.84	30.159
565.17	28.249
565.51	29.987
565.85	30.291
566.19	30.567
566.52	30.463
566.86	29.583
567.20	30.085
567.54	30.597
567.88	29.481
568.21	28.579
568.55	29.003
568.89	27.883
569.23	28.690
569.56	28.121
569.90	28.127
570.24	28.523
570.57	26.889
570.91	26.930
571.25	26.978
571.59	26.663
571.92	26.696
572.26	26.393
572.60	26.063
572.93	26.107
573.27	25.915
573.61	25.781
573.95	26.344
574.28	25.660
574.62	26.207
574.96	25.972
575.29	25.889
575.63	25.723
575.97	26.133
576.30	26.035
576.64	25.039
576.98	25.255
577.31	25.101
577.65	25.520
577.98	25.597
578.32	25.510
578.66	25.647
578.99	25.412
579.33	26.049
579.67	25.691
580.00	25.050
580.34	25.563
580.67	25.570
581.01	25.160
581.35	24.700
581.68	25.134
582.02	25.096
582.35	25.212
582.69	25.719
583.02	25.464
583.36	25.715
583.70	25.397
584.03	25.970
584.37	26.035
584.70	25.482
585.04	26.025
585.37	24.988
585.71	25.665
586.04	25.785
586.38	25.742
586.72	25.958
587.05	26.140
587.39	25.813
587.72	26.042
588.06	26.492
588.39	26.004
588.73	26.524
589.06	26.662
589.40	27.001
589.73	26.416
590.07	26.147
590.40	27.122
590.73	27.269
591.07	27.172
591.40	27.686
591.74	27.454
592.07	26.441
592.41	27.219
592.74	27.248
593.08	27.360
593.41	26.184
593.75	25.849
594.08	27.139
594.41	27.357
594.75	26.916
595.08	26.842
595.42	27.276
595.75	26.534
596.09	27.163
596.42	27.496
596.75	27.210
597.09	27.471
597.42	26.713
597.75	27.679
598.09	26.977
598.42	27.265
598.76	26.537
599.09	26.519
599.42	26.836
599.76	27.180
600.09	27.710
600.42	27.193
600.76	26.930
601.09	25.978
601.42	26.553
601.76	26.636
602.09	26.585
602.42	27.037
602.76	25.841
603.09	26.855
603.42	27.156
603.76	27.323
604.09	26.592
604.42	27.019
604.76	27.562
605.09	27.215
605.42	27.172
605.75	26.822
606.09	27.065
606.42	26.770
606.75	26.793
607.09	27.217
607.42	27.201
607.75	26.711
608.08	28.061
608.42	27.389
608.75	27.850
609.08	27.034
609.41	27.603
609.75	27.499
610.08	27.402
610.41	27.036
610.74	27.466
611.07	27.181
611.41	27.635
611.74	28.123
612.07	27.981
612.40	26.972
612.73	28.487
613.07	28.123
613.40	28.845
613.73	29.046
614.06	27.567
614.39	28.129
614.72	28.156
615.06	27.391
615.39	27.021
615.72	28.734
616.05	27.278
616.38	28.787
616.71	28.168
617.05	28.951
617.38	28.359
617.71	27.580
618.04	29.193
618.37	28.302
618.70	28.944
619.03	28.504
619.36	30.162
619.69	29.146
620.03	28.650
620.36	29.536
620.69	30.294
621.02	29.985
621.35	30.645
621.68	30.000
622.01	30.421
622.34	29.348
622.67	29.375
623.00	30.069
623.33	29.552
623.66	28.804
623.99	29.098
624.32	29.315
624.65	29.065
624.99	29.425
625.32	28.967
625.65	30.925
625.98	30.360
626.31	29.935
626.64	30.628
626.97	29.709
627.30	29.106
627.63	29.534
627.96	30.287
628.29	29.871
628.62	29.417
628.95	30.906
629.28	30.451
629.61	31.109
629.94	30.624
630.26	31.113
630.59	30.754
630.92	31.431
631.25	31.351
631.58	31.323
631.91	30.213
632.24	33.111
632.57	31.222
632.90	33.218
633.23	32.243
633.56	30.760
633.89	31.958
634.22	31.287
634.55	31.971
634.88	31.802
635.20	32.584
635.53	32.824
635.86	32.872
636.19	31.380
636.52	31.661
636.85	30.566
637.18	30.125
637.51	33.457
637.83	33.023
638.16	32.763
638.49	33.241
638.82	31.660
639.15	33.333
639.48	31.518
639.81	34.302
640.13	32.838
640.46	31.909
640.79	30.952
641.12	33.286
641.45	32.712
641.77	32.036
642.10	32.779
642.43	32.322
642.76	33.386
643.09	33.016
643.41	33.651
643.74	32.432
644.07	35.257
644.40	31.767
644.73	33.498
645.05	33.222
645.38	34.272
645.71	36.082
646.04	36.134
646.36	34.729
646.69	34.602
647.02	34.657
647.35	32.310
647.67	33.577
648.00	33.216
648.33	35.413
648.66	31.935
648.98	32.166
649.31	32.000
649.64	33.437
649.96	33.752
650.29	33.279
650.62	31.670
650.94	33.895
651.27	33.795
651.60	34.602
651.92	32.534
652.25	32.721
652.58	31.346
652.90	32.905
653.23	32.903
653.56	34.281
653.88	32.131
654.21	33.893
654.54	34.219
654.86	32.745
655.19	31.375
655.52	27.967
655.84	25.127
656.17	26.748
656.49	35.745
656.82	36.911
657.15	28.150
657.47	20.503
657.80	16.012
658.13	18.014
658.45	24.594
658.78	24.409
659.10	23.910
659.43	24.097
659.75	24.784
660.08	25.469
660.41	25.712
660.73	26.953
661.06	30.725
661.38	34.464
661.71	33.843
662.03	35.081
662.36	33.049
662.68	32.911
663.01	36.730
663.33	33.333
663.66	34.549
663.98	32.366
664.31	35.347
664.63	36.726
664.96	34.056
665.28	34.273
665.61	28.330
665.93	34.568
666.26	31.781
666.58	32.225
666.91	35.635
667.23	35.746
667.56	32.880
667.88	34.842
668.21	33.641
668.53	35.981
668.86	36.721
669.18	34.932
669.50	32.477
669.83	33.090
670.15	33.184
670.48	31.776
670.80	32.574
671.13	33.183
671.45	32.658
671.77	34.475
672.10	33.925
672.42	32.103
672.75	30.182
673.07	30.991
673.39	31.694
673.72	30.512
674.04	31.423
674.37	32.577
674.69	33.197
675.01	31.489
675.34	32.538
675.66	32.829
675.98	37.225
676.31	33.710
676.63	34.483
676.95	30.088
677.28	33.643
677.60	33.937
677.92	34.802
678.25	34.792
678.57	34.156
678.89	31.656
679.22	34.172
679.54	33.136
679.86	30.600
680.18	31.369
680.51	28.492
680.83	32.571
681.15	32.563
681.48	31.846
681.80	29.435
682.12	30.785
682.44	33.595
682.77	31.169
683.09	29.769
683.41	33.628
683.73	32.648
684.06	32.688
684.38	32.636
684.70	34.362
685.02	31.890
685.34	31.384
685.67	26.894
685.99	28.544
686.31	29.623
686.63	28.901
686.96	31.054
687.28	31.214
687.60	32.617
687.92	28.794
688.24	27.362
688.56	31.663
688.89	27.564
689.21	32.823
689.53	33.103
689.85	31.626
690.17	30.493
690.49	31.178
690.82	29.639
691.14	30.896
691.46	31.707
691.78	31.718
692.10	32.627
692.42	30.222
692.74	31.116
693.06	32.135
693.39	30.201
693.71	31.377
694.03	32.397
694.35	29.571
694.67	29.314
694.99	28.133
695.31	33.929
695.63	33.163
695.95	36.228
696.27	31.172
696.59	30.481
696.91	32.584
697.23	33.073
697.56	29.327
697.88	26.802
698.20	30.621
698.52	27.578
698.84	30.825
699.16	31.190
699.48	32.250
699.80	29.323
700.12	33.249
700.44	31.285
700.76	33.236
701.08	30.523
701.40	28.097
701.72	32.407
702.04	34.615
702.36	35.241
702.68	29.940
703.00	29.855
703.32	29.226
703.64	35.294
703.96	29.942
704.28	30.178
704.60	29.114
704.91	30.159
705.23	30.744
705.55	29.392
705.87	31.399
706.19	30.556
706.51	31.944
706.83	32.787
707.15	35.032
707.47	28.650
707.79	32.990
708.11	30.534
708.43	32.918
708.74	28.831
709.06	32.312
709.38	27.586
709.70	28.750
710.02	33.129
710.34	30.363
710.66	32.698
710.98	30.599
711.29	29.355
711.61	27.476
711.93	26.230
712.25	33.223
712.57	29.268
712.89	30.576
713.20	32.302
713.52	30.970
713.84	34.164
714.16	27.213
714.48	30.794
714.80	30.462
715.11	29.395
715.43	31.928
715.75	33.022
716.07	25.246
716.39	30.769
716.70	29.268
717.02	31.481
717.34	33.969
717.66	31.535
717.97	29.098
718.29	32.353
718.61	34.524
718.93	30.466
719.24	26.103
719.56	29.057
719.88	30.545
720.20	30.337
720.51	40.602
720.83	30.924
721.15	34.426
721.46	33.725
721.78	27.203
722.10	32.400
722.42	30.165
722.73	27.092
723.05	31.727
723.37	34.118
723.68	28.340
724.00	32.927
724.32	32.922
724.63	29.461
724.95	34.298
725.27	30.263
725.58	26.293
725.90	30.952
726.22	35.793
726.53	31.939
726.85	26.667
727.16	32.331
727.48	28.462
727.80	27.869
728.11	28.992
728.43	33.471
728.74	32.422
729.06	29.545
729.38	28.794
729.69	25.984
730.01	29.528
730.32	25.896
730.64	26.007
730.96	27.985
731.27	29.286
731.59	28.939
731.90	25.767
732.22	26.687
732.53	30.464
732.85	25.839
733.16	27.536
733.48	24.390
733.80	27.758
734.11	27.931
734.43	30.612
734.74	29.674
735.06	29.467
735.37	29.358
735.69	25.484
736.00	29.293
736.32	27.815
736.63	25.172
736.95	28.261
737.26	29.470
737.58	29.856
737.89	26.523
738.21	25.188
738.52	25.385
738.83	33.594
739.15	29.060
739.46	30.645
739.78	29.021
740.09	29.720
740.41	27.622
740.72	30.657
741.04	26.190
741.35	26.407
741.66	28.241
741.98	23.810
742.29	32.864
742.61	29.947
742.92	27.103
743.23	23.684
743.55	36.937
743.86	31.556
744.18	31.429
744.49	32.512
744.80	27.411
745.12	32.474
745.43	27.638
745.74	27.184
746.06	31.707
746.37	34.361
746.68	36.318
747.00	37.173
747.31	30.288
747.62	30.415
747.94	26.201
748.25	28.837
748.56	26.667
748.88	25.543
749.19	27.700
749.50	36.765
749.82	34.222
750.13	31.718
750.44	34.146
750.75	28.800
751.07	25.000
751.38	23.985
751.69	25.954
752.01	28.462
752.32	26.070
752.63	34.231
752.94	24.206
753.26	25.652
753.57	33.036
753.88	28.017
754.19	25.311
754.51	26.562
754.82	31.621
755.13	26.337
755.44	24.793
755.75	28.395
756.07	18.474
756.38	25.781
756.69	32.130
757.00	25.087
757.31	30.872
757.63	25.234
757.94	27.457
758.25	23.547
758.56	29.380
758.87	24.148
759.18	24.667
759.50	32.028
759.81	24.088
760.12	27.365
760.43	25.566
760.74	27.500
761.05	25.562
761.36	28.743
761.67	23.373
761.99	25.161
762.30	29.348
762.61	27.170
762.92	30.493
763.23	30.332
763.54	26.222
763.85	27.848
764.16	26.531
764.47	28.390
764.78	23.596
765.10	25.899
765.41	24.194
765.72	26.415
766.03	20.848
766.34	24.812
766.65	28.340
766.96	25.000
767.27	29.167
767.58	34.302
767.89	29.032
768.20	31.902
768.51	23.497
768.82	26.486
769.13	21.000
769.44	24.123
769.75	25.541
770.06	26.606
770.37	24.883
770.68	19.792
770.99	26.238
771.30	24.757
771.61	30.093
771.92	18.182
772.23	24.766
772.54	27.128
772.85	22.485
773.16	27.439
773.47	28.916
773.78	32.967
774.09	18.000
774.39	22.840
774.70	21.477
775.01	19.565
775.32	26.866
775.63	20.661
775.94	31.579
776.25	25.714
776.56	40.164
776.87	20.354
777.18	28.319
777.48	19.091
777.79	18.261
778.10	15.596
778.41	27.119
778.72	22.314
779.03	29.104
779.34	29.323
779.65	27.451
779.95	30.435
780.26	16.327
780.57	16.379
780.88	21.296
781.19	25.253
781.50	19.200
781.80	25.490
782.11	23.077
782.42	22.289
782.73	16.058
783.04	27.027
783.34	29.545
783.65	25.581
783.96	22.764
784.27	22.222
784.57	22.764
784.88	14.634
785.19	25.439
785.50	8.247
785.81	17.143
786.11	21.569
786.42	21.818
786.73	28.829
787.04	31.683
787.34	15.238
787.65	11.429
787.96	18.627
788.26	28.829
788.57	18.548
788.88	17.969
789.19	25.641
789.49	14.286
789.80	27.350
790.11	34.513
790.41	20.202
790.72	19.811
791.03	23.611
791.33	14.474
791.64	17.204
791.95	22.667
792.25	8.571
792.56	26.829
792.87	22.449
793.17	19.737
793.48	5.405
793.79	1.408
794.09	17.722
794.40	20.213
794.70	25.234
795.01	13.158
795.32	20.909
795.62	21.429
795.93	20.619
796.23	17.582
796.54	35.789
796.85	23.288
797.15	9.722
797.46	28.767
797.76	14.085
798.07	42.500
798.37	26.471
798.68	37.143
798.99	15.714
799.29	10.526
799.60	8.333
799.90	4.167
800.21	20.312
800.51	14.286
800.82	19.672
801.12	7.018
801.43	14.085
801.73	3.390
802.04	32.787
802.34	-1.818
802.65	15.385
802.95	12.963
803.26	-2.500
803.56	28.846
803.87	-5.263
804.17	22.581
804.48	18.462
804.78	-20.513
805.09	37.209
805.39	6.250
805.70	5.660
806.00	33.333
806.30	20.270
806.61	33.824
806.91	24.691
807.22	16.000
807.52	11.940
807.83	20.968
808.13	9.524
808.43	20.000
808.74	15.152
809.04	20.755
809.35	19.178
809.65	10.526
809.95	8.824
810.26	11.765
810.56	14.000
810.86	26.531
811.17	31.429
811.47	19.231
811.77	9.677
812.08	-28.947
812.38	4.762
812.69	0.000
812.99	9.677
813.29	7.143
813.59	7.407
813.90	8.511
814.20	-11.628
814.50	18.750
814.81	18.333
815.11	4.878
815.41	-30.000
815.72	25.714
816.02	-11.111
816.32	12.821
816.62	0.000
816.93	-8.824
817.23	8.696
817.53	17.647
817.84	2.941
818.14	-6.250
818.44	-10.345
818.74	-32.258
819.04	14.815
819.35	6.667
819.65	-28.000
819.95	10.000
820.25	-4.000
820.56	7.895
820.86	0.000
821.16	12.766
821.46	22.414
821.76	15.385
822.07	-22.500
822.37	9.302
822.67	-33.333
822.97	-8.108
823.27	-13.514
823.57	16.000
823.88	21.622
824.18	-14.286
824.48	3.846
824.78	-138.462
825.08	0.000
825.38	-41.667
825.69	8.333
825.99	-45.000
826.29	-2.703
826.59	0.000
826.89	-32.000
827.19	-2.857
827.49	31.579
827.79	-6.250
828.09	-6.667
828.39	30.435
828.70	-41.379
829.00	3.448
829.30	16.667
829.60	-9.375
829.90	16.667
830.20	11.538
830.50	-19.048
830.80	-14.286
831.10	25.641
831.40	-42.857
831.70	-14.706
832.00	16.667
832.30	-47.368
832.60	-56.250
832.90	-141.667
833.20	-94.118
833.50	46.667
833.80	0.000
834.10	-10.000
834.40	-20.833
834.70	11.111
835.00	0.000
835.30	-12.500
835.60	17.241
835.90	-72.222
836.20	-54.545
836.50	-100.000
836.80	8.571
837.10	48.571
837.40	-52.941
837.70	-81.818
838.00	-12.500
838.30	-93.750
838.60	-42.857
838.90	-20.000
839.19	-47.826
839.49	-17.391
839.79	-66.667
840.09	-73.913
840.39	-22.727
840.69	-31.250
840.99	-52.632
841.29	6.250
841.59	0.000
841.88	-77.778
842.18	-50.000
842.48	-76.471
842.78	51.724
843.08	-28.571
843.38	-7.692
843.68	-177.778
843.97	-7.692
844.27	-118.182
844.57	-220.000
844.87	-12.000
845.17	-320.000
845.47	-64.286
845.76	-55.556
846.06	0.000
846.36	-300.000
846.66	-190.000
846.96	15.789
847.25	8.333
847.55	-50.000
847.85	6.667
848.15	-10.000
848.44	19.231
848.74	36.842
849.04	500.000
849.34	-44.444
849.63	-15.789
849.93	0.000
850.23	-20.000
850.53	0.000
850.82	4.000
851.12	-15.789
851.42	-700.000
851.71	-35.714
852.01	-50.000
852.31	5.882
852.61	0.000
852.90	-38.095
853.20	-383.333
853.50	5.556
853.79	-42.105
854.09	-13.333
854.39	-3.571
854.68	-26.087
854.98	-175.000
855.28	6.897
855.57	-62.500
855.87	-30.000
856.17	-160.000
856.46	-20.690
856.76	-46.667
857.05	-11.765
857.35	-169.231
857.65	36.364
857.94	-14.815
858.24	-64.286
858.53	-7.143
858.83	-41.667
859.13	-77.778
859.42	0.000
859.72	-75.000
860.01	-200.000
860.31	-37.500
860.60	-340.000
860.90	-111.111
861.20	-250.000
861.49	-57.143
861.79	-23.529
862.08	-500.000
862.38	-116.667
862.67	-61.538
862.97	-41.176
863.26	15.000
863.56	-70.588
863.85	766.667
864.15	-80.000
864.44	-23.077
864.74	-15.000
865.03	-162.500
865.33	-16.667
865.62	-47.059
865.92	-525.000
866.21	-21.429
866.51	-125.000
866.80	-700.000
867.10	-133.333
867.39	-82.353
867.69	-21.739
867.98	-128.571
868.27	-320.000
868.57	-137.500
868.86	-245.455
869.16	-5.882
869.45	-83.333
869.75	-171.429
870.04	2100.000
870.33	-91.667
870.63	40.000
870.92	-133.333
871.22	33.333
871.51	-100.000
871.80	-16.667
872.10	-30.000
>>>>>End Processed Spectral Data<<<<<
