SpectraSuite Data File
++++++++++++++++++++++++++++++++++++
Date: Sat May 16 11:29:34 PDT 2015
User: schluterlab
Dark Spectrum Present: Yes
Reference Spectrum Present: Yes
Number of Sampled Component Spectra: 1
Spectrometers: USB2E3373
Integration Time (usec): 3000 (USB2E3373)
Spectra Averaged: 3 (USB2E3373)
Boxcar Smoothing: 0 (USB2E3373)
Correct for Electrical Dark: No (USB2E3373)
Strobe/Lamp Enabled: No (USB2E3373)
Correct for Detector Non-linearity: No (USB2E3373)
Correct for Stray Light: No (USB2E3373)
Number of Pixels in Processed Spectrum: 2048
>>>>>Begin Processed Spectral Data<<<<<
178.53	0.000
178.91	100.000
179.29	566.667
179.67	-800.000
180.04	15.385
180.42	2500.000
180.80	425.000
181.18	350.000
181.56	-125.000
181.94	1700.000
182.31	525.000
182.69	-92.308
183.07	-633.333
183.45	1750.000
183.83	600.000
184.20	-242.857
184.58	-225.000
184.96	-300.000
185.34	87.500
185.72	-550.000
186.09	300.000
186.47	-125.000
186.85	-225.000
187.23	-25.000
187.61	-225.000
187.98	-200.000
188.36	-125.000
188.74	-212.500
189.12	1500.000
189.49	271.429
189.87	-83.333
190.25	500.000
190.63	-92.857
191.00	-233.333
191.38	360.000
191.76	-26.667
192.14	560.000
192.51	-240.000
192.89	-700.000
193.27	0.000
193.65	-166.667
194.02	-328.571
194.40	466.667
194.78	-130.000
195.15	-1500.000
195.53	-163.636
195.91	-300.000
196.29	200.000
196.66	-600.000
197.04	3000.000
197.42	-75.000
197.79	-6.667
198.17	-33.333
198.55	-550.000
198.92	-1800.000
199.30	312.500
199.68	-600.000
200.05	-88.889
200.43	-277.778
200.81	-2400.000
201.18	-133.333
201.56	257.143
201.94	-53.333
202.31	40.909
202.69	-20.000
203.07	-150.000
203.44	700.000
203.82	-533.333
204.19	-375.000
204.57	-175.000
204.95	-1700.000
205.32	-37.500
205.70	800.000
206.08	-2400.000
206.45	-33.333
206.83	-900.000
207.20	-200.000
207.58	-666.667
207.96	-800.000
208.33	-100.000
208.71	-88.889
209.08	210.000
209.46	-242.857
209.84	1150.000
210.21	0.000
210.59	25.000
210.96	500.000
211.34	-366.667
211.71	-466.667
212.09	300.000
212.46	950.000
212.84	-2200.000
213.22	533.333
213.59	133.333
213.97	-100.000
214.34	190.000
214.72	-210.000
215.09	-100.000
215.47	-166.667
215.84	-110.000
216.22	-80.000
216.59	0.000
216.97	-325.000
217.34	900.000
217.72	-185.714
218.09	-350.000
218.47	-271.429
218.84	185.714
219.22	-42.857
219.59	0.000
219.97	200.000
220.34	375.000
220.72	62.500
221.09	-123.077
221.47	0.000
221.84	633.333
222.22	-1100.000
222.59	1300.000
222.97	-187.500
223.34	-600.000
223.72	-633.333
224.09	-85.714
224.46	-375.000
224.84	-64.286
225.21	-285.714
225.59	-127.273
225.96	-275.000
226.34	-285.714
226.71	-33.333
227.08	30.000
227.46	1100.000
227.83	-157.143
228.21	-100.000
228.58	200.000
228.95	-81.250
229.33	-1600.000
229.70	-460.000
230.08	-850.000
230.45	-150.000
230.82	-200.000
231.20	-400.000
231.57	-700.000
231.95	1900.000
232.32	-14.286
232.69	-122.222
233.07	-157.143
233.44	-1250.000
233.81	-46.667
234.19	-77.778
234.56	-25.000
234.93	-3.125
235.31	-157.143
235.68	-135.714
236.05	-17.647
236.43	-95.455
236.80	-32.258
237.17	-37.500
237.55	-61.905
237.92	-36.364
238.29	-28.571
238.67	14.706
239.04	-2.778
239.41	-48.387
239.79	-53.846
240.16	-26.190
240.53	-10.909
240.91	-17.949
241.28	-3.636
241.65	3.077
242.02	22.951
242.40	1.639
242.77	-7.576
243.14	-10.169
243.51	-25.714
243.89	2.532
244.26	6.742
244.63	10.526
245.00	18.947
245.38	11.017
245.75	5.310
246.12	7.200
246.49	11.811
246.87	0.000
247.24	-1.695
247.61	7.627
247.98	10.563
248.36	11.888
248.73	6.329
249.10	5.732
249.47	10.526
249.84	10.795
250.22	5.357
250.59	14.689
250.96	12.565
251.33	11.374
251.70	10.577
252.08	10.900
252.45	11.848
252.82	13.333
253.19	8.085
253.56	12.097
253.94	11.814
254.31	12.017
254.68	17.073
255.05	10.484
255.42	14.286
255.79	11.111
256.16	17.255
256.54	11.765
256.91	13.636
257.28	15.018
257.65	15.603
258.02	16.038
258.39	12.040
258.76	10.811
259.14	17.284
259.51	16.721
259.88	14.939
260.25	16.460
260.62	15.434
260.99	12.760
261.36	12.805
261.73	15.607
262.10	15.278
262.47	14.530
262.85	18.000
263.22	13.467
263.59	13.538
263.96	12.174
264.33	14.634
264.70	14.088
265.07	12.363
265.44	15.245
265.81	14.729
266.18	12.405
266.55	12.745
266.92	17.380
267.29	12.107
267.66	16.296
268.03	14.010
268.40	15.962
268.77	13.253
269.14	15.545
269.51	16.322
269.88	11.697
270.25	13.753
270.62	13.501
270.99	13.964
271.36	13.753
271.73	12.108
272.10	13.730
272.47	14.889
272.84	14.667
273.21	15.367
273.58	10.989
273.95	12.719
274.32	16.742
274.69	19.037
275.06	15.951
275.43	12.946
275.80	17.108
276.17	15.481
276.54	15.479
276.91	14.815
277.28	15.822
277.65	14.669
278.02	14.405
278.39	16.503
278.76	15.339
279.13	14.427
279.50	12.922
279.87	12.685
280.23	14.575
280.60	14.712
280.97	14.563
281.34	14.313
281.71	16.346
282.08	15.726
282.45	12.220
282.82	13.372
283.19	15.091
283.56	16.300
283.92	14.841
284.29	14.684
284.66	14.568
285.03	15.865
285.40	14.576
285.77	16.842
286.14	15.162
286.51	15.098
286.87	16.334
287.24	15.358
287.61	16.198
287.98	14.731
288.35	13.388
288.72	14.771
289.08	13.220
289.45	15.152
289.82	14.706
290.19	14.122
290.56	11.901
290.93	13.196
291.29	15.235
291.66	15.298
292.03	14.443
292.40	15.512
292.77	15.062
293.13	14.472
293.50	15.899
293.87	13.957
294.24	14.630
294.60	13.788
294.97	15.326
295.34	12.741
295.71	15.774
296.08	13.210
296.44	14.163
296.81	16.097
297.18	15.211
297.55	15.537
297.91	15.760
298.28	12.740
298.65	14.226
299.02	15.374
299.38	14.840
299.75	14.810
300.12	15.897
300.48	13.555
300.85	14.941
301.22	14.877
301.59	14.174
301.95	16.247
302.32	13.690
302.69	15.177
303.05	14.042
303.42	15.125
303.79	15.789
304.15	15.166
304.52	15.053
304.89	15.702
305.25	14.652
305.62	15.159
305.99	16.019
306.35	14.872
306.72	15.148
307.09	16.686
307.45	15.323
307.82	15.307
308.19	16.219
308.55	14.924
308.92	14.930
309.29	15.243
309.65	14.104
310.02	15.767
310.38	15.027
310.75	16.393
311.12	16.219
311.48	15.031
311.85	16.890
312.22	16.169
312.58	16.582
312.95	15.494
313.31	16.184
313.68	16.281
314.05	17.211
314.41	14.889
314.78	15.684
315.14	16.979
315.51	16.008
315.87	16.263
316.24	16.424
316.61	17.274
316.97	17.612
317.34	15.511
317.70	16.605
318.07	16.698
318.43	16.105
318.80	18.404
319.16	15.947
319.53	16.259
319.89	16.369
320.26	17.353
320.62	17.308
320.99	17.910
321.35	16.847
321.72	17.195
322.08	18.101
322.45	17.228
322.81	19.020
323.18	18.636
323.54	19.501
323.91	18.906
324.27	19.011
324.64	18.282
325.00	19.983
325.37	20.452
325.73	22.397
326.10	19.221
326.46	21.804
326.83	21.106
327.19	20.934
327.56	24.020
327.92	22.770
328.29	22.338
328.65	21.727
329.01	22.880
329.38	23.550
329.74	24.084
330.11	25.385
330.47	24.886
330.84	25.298
331.20	25.903
331.56	25.706
331.93	26.909
332.29	26.849
332.66	26.690
333.02	27.330
333.38	27.151
333.75	26.803
334.11	27.822
334.48	27.361
334.84	29.309
335.20	28.014
335.57	28.971
335.93	30.439
336.29	29.052
336.66	27.489
337.02	29.459
337.38	29.144
337.75	28.534
338.11	30.143
338.47	29.448
338.84	29.673
339.20	29.613
339.56	31.818
339.93	28.660
340.29	29.672
340.65	29.808
341.02	29.258
341.38	28.054
341.74	29.636
342.11	29.949
342.47	28.584
342.83	29.807
343.20	29.633
343.56	28.327
343.92	30.551
344.28	30.866
344.65	29.290
345.01	28.235
345.37	29.485
345.73	30.933
346.10	28.536
346.46	28.595
346.82	29.511
347.19	29.992
347.55	28.331
347.91	29.528
348.27	28.640
348.63	29.321
349.00	29.594
349.36	28.103
349.72	29.777
350.08	29.270
350.45	29.866
350.81	29.140
351.17	29.984
351.53	28.799
351.89	28.941
352.26	28.605
352.62	30.568
352.98	28.797
353.34	29.177
353.70	28.803
354.07	28.718
354.43	29.881
354.79	27.892
355.15	29.393
355.51	28.516
355.87	29.802
356.24	28.594
356.60	29.251
356.96	29.330
357.32	28.583
357.68	29.425
358.04	29.484
358.40	28.848
358.77	29.366
359.13	29.074
359.49	28.874
359.85	30.488
360.21	29.756
360.57	30.497
360.93	29.481
361.29	29.746
361.66	29.040
362.02	28.698
362.38	28.540
362.74	30.256
363.10	29.484
363.46	30.556
363.82	29.519
364.18	29.378
364.54	30.736
364.90	30.259
365.26	29.886
365.62	29.865
365.98	30.725
366.35	30.915
366.71	29.387
367.07	29.711
367.43	30.542
367.79	30.034
368.15	29.801
368.51	30.629
368.87	30.838
369.23	29.404
369.59	31.250
369.95	30.867
370.31	30.942
370.67	30.296
371.03	30.248
371.39	29.562
371.75	30.973
372.11	31.205
372.47	30.513
372.83	30.598
373.19	30.571
373.55	31.597
373.91	30.654
374.27	30.732
374.63	30.918
374.99	31.989
375.35	31.696
375.71	32.613
376.07	32.307
376.42	31.391
376.78	32.484
377.14	32.814
377.50	32.302
377.86	31.990
378.22	33.606
378.58	32.613
378.94	32.244
379.30	32.785
379.66	33.455
380.02	31.313
380.38	34.018
380.74	32.943
381.09	32.572
381.45	34.129
381.81	32.002
382.17	33.647
382.53	33.070
382.89	33.014
383.25	33.775
383.61	34.021
383.97	34.048
384.32	34.418
384.68	33.736
385.04	34.118
385.40	34.814
385.76	34.512
386.12	34.978
386.48	35.953
386.83	33.865
387.19	34.967
387.55	35.494
387.91	34.499
388.27	34.258
388.62	34.615
388.98	33.677
389.34	34.761
389.70	35.140
390.06	34.929
390.42	36.474
390.77	35.331
391.13	36.273
391.49	35.808
391.85	34.850
392.20	35.316
392.56	34.942
392.92	35.767
393.28	35.821
393.64	35.719
393.99	35.262
394.35	36.375
394.71	35.454
395.07	36.660
395.42	35.340
395.78	35.135
396.14	36.199
396.50	36.269
396.85	36.089
397.21	36.330
397.57	36.960
397.92	35.890
398.28	35.611
398.64	35.455
399.00	36.292
399.35	36.246
399.71	35.947
400.07	35.582
400.42	35.706
400.78	35.838
401.14	35.629
401.49	34.788
401.85	36.181
402.21	36.234
402.57	35.740
402.92	36.312
403.28	36.152
403.63	34.691
403.99	35.861
404.35	34.360
404.70	35.518
405.06	36.159
405.42	35.363
405.77	36.086
406.13	34.923
406.49	36.908
406.84	35.513
407.20	36.690
407.55	35.719
407.91	35.816
408.27	36.029
408.62	35.358
408.98	35.779
409.34	35.222
409.69	35.098
410.05	35.901
410.40	35.377
410.76	36.277
411.11	35.287
411.47	35.486
411.83	36.125
412.18	35.644
412.54	35.387
412.89	37.546
413.25	34.770
413.60	35.966
413.96	35.367
414.31	36.330
414.67	35.810
415.03	35.770
415.38	35.979
415.74	37.371
416.09	36.445
416.45	35.185
416.80	35.566
417.16	35.150
417.51	36.507
417.87	35.469
418.22	35.461
418.58	36.585
418.93	36.481
419.29	36.324
419.64	35.113
420.00	36.270
420.35	36.014
420.71	36.975
421.06	36.213
421.42	35.539
421.77	36.013
422.12	37.381
422.48	36.825
422.83	36.560
423.19	36.748
423.54	37.118
423.90	37.247
424.25	36.538
424.61	37.093
424.96	37.975
425.31	38.010
425.67	36.791
426.02	37.292
426.38	38.294
426.73	38.691
427.09	38.113
427.44	36.420
427.79	37.326
428.15	36.445
428.50	37.947
428.85	38.070
429.21	37.797
429.56	37.865
429.92	37.575
430.27	38.485
430.62	36.991
430.98	37.742
431.33	38.047
431.68	37.802
432.04	37.997
432.39	38.519
432.74	38.249
433.10	39.280
433.45	38.745
433.80	39.082
434.16	38.796
434.51	39.342
434.86	39.543
435.22	39.198
435.57	38.372
435.92	37.984
436.28	39.228
436.63	39.288
436.98	38.545
437.34	39.043
437.69	38.798
438.04	38.798
438.39	39.110
438.75	38.882
439.10	39.034
439.45	38.564
439.81	38.494
440.16	39.693
440.51	39.412
440.86	38.693
441.22	37.590
441.57	39.053
441.92	39.693
442.27	39.123
442.63	39.807
442.98	38.939
443.33	39.813
443.68	39.760
444.03	39.833
444.39	40.039
444.74	40.914
445.09	39.912
445.44	40.011
445.79	40.745
446.15	39.595
446.50	38.704
446.85	39.200
447.20	40.552
447.55	40.221
447.91	39.978
448.26	38.939
448.61	39.898
448.96	40.952
449.31	40.586
449.66	40.469
450.02	38.393
450.37	39.710
450.72	40.339
451.07	41.986
451.42	39.033
451.77	41.352
452.12	40.286
452.47	39.169
452.83	40.186
453.18	42.948
453.53	39.988
453.88	41.806
454.23	40.326
454.58	40.833
454.93	40.554
455.28	41.683
455.63	40.909
455.98	41.145
456.34	40.851
456.69	42.276
457.04	41.057
457.39	41.029
457.74	41.229
458.09	40.603
458.44	41.166
458.79	40.919
459.14	41.643
459.49	42.037
459.84	41.653
460.19	39.976
460.54	40.956
460.89	40.639
461.24	41.105
461.59	41.266
461.94	42.330
462.29	42.168
462.64	40.580
462.99	42.102
463.34	41.729
463.69	42.430
464.04	41.359
464.39	39.964
464.74	40.957
465.09	40.168
465.44	41.794
465.79	40.778
466.14	43.728
466.49	41.911
466.84	41.897
467.19	42.145
467.54	42.089
467.89	41.677
468.24	41.449
468.59	41.349
468.94	41.479
469.29	42.430
469.64	42.116
469.99	42.741
470.34	40.949
470.68	41.642
471.03	42.739
471.38	42.292
471.73	43.986
472.08	42.972
472.43	42.149
472.78	42.600
473.13	41.816
473.48	41.863
473.83	41.935
474.17	42.420
474.52	44.246
474.87	41.725
475.22	42.301
475.57	42.000
475.92	43.629
476.27	42.057
476.61	42.254
476.96	42.705
477.31	43.165
477.66	42.225
478.01	43.004
478.36	42.326
478.70	42.819
479.05	42.834
479.40	42.591
479.75	41.437
480.10	42.510
480.45	41.151
480.79	42.744
481.14	42.148
481.49	42.691
481.84	42.811
482.19	42.394
482.53	42.898
482.88	42.288
483.23	42.300
483.58	42.923
483.92	42.953
484.27	42.003
484.62	42.808
484.97	41.270
485.31	40.928
485.66	40.142
486.01	40.533
486.36	41.816
486.70	42.913
487.05	42.058
487.40	41.934
487.75	41.915
488.09	41.291
488.44	41.982
488.79	41.387
489.13	41.993
489.48	42.700
489.83	43.275
490.17	41.881
490.52	44.203
490.87	42.402
491.22	42.737
491.56	43.796
491.91	43.082
492.26	43.491
492.60	42.959
492.95	43.503
493.30	43.116
493.64	42.266
493.99	43.499
494.34	44.143
494.68	44.429
495.03	43.451
495.37	43.265
495.72	44.204
496.07	43.782
496.41	43.817
496.76	42.648
497.11	43.759
497.45	43.822
497.80	44.122
498.14	43.369
498.49	43.697
498.84	43.641
499.18	45.273
499.53	44.228
499.87	43.533
500.22	43.627
500.56	44.472
500.91	44.187
501.26	44.347
501.60	43.813
501.95	44.734
502.29	43.316
502.64	44.083
502.98	43.507
503.33	44.126
503.67	43.487
504.02	44.375
504.36	44.167
504.71	43.414
505.06	44.383
505.40	45.010
505.75	44.004
506.09	44.894
506.44	44.662
506.78	44.405
507.13	44.902
507.47	44.914
507.82	44.863
508.16	45.233
508.51	44.668
508.85	43.271
509.19	44.689
509.54	44.873
509.88	45.798
510.23	44.811
510.57	46.243
510.92	45.972
511.26	45.189
511.61	44.330
511.95	44.450
512.30	45.739
512.64	43.907
512.98	44.719
513.33	44.756
513.67	44.891
514.02	44.519
514.36	44.875
514.70	46.010
515.05	45.340
515.39	44.983
515.74	46.073
516.08	45.591
516.42	45.892
516.77	46.332
517.11	45.195
517.46	46.591
517.80	46.390
518.14	44.626
518.49	45.786
518.83	45.341
519.17	45.944
519.52	44.939
519.86	46.237
520.20	46.822
520.55	46.646
520.89	45.585
521.23	45.910
521.58	45.831
521.92	46.865
522.26	46.286
522.61	46.895
522.95	45.182
523.29	45.831
523.64	45.222
523.98	46.976
524.32	46.009
524.66	45.963
525.01	45.729
525.35	46.907
525.69	44.893
526.04	46.867
526.38	47.804
526.72	45.722
527.06	47.396
527.41	46.667
527.75	46.403
528.09	46.923
528.43	46.230
528.78	46.231
529.12	46.863
529.46	47.229
529.80	45.965
530.15	46.169
530.49	46.119
530.83	47.872
531.17	47.340
531.51	46.952
531.86	47.005
532.20	47.233
532.54	46.858
532.88	47.036
533.22	46.725
533.57	47.258
533.91	44.569
534.25	46.512
534.59	45.472
534.93	46.297
535.27	47.011
535.62	46.547
535.96	45.831
536.30	45.681
536.64	46.680
536.98	46.610
537.32	47.616
537.66	46.096
538.01	46.804
538.35	46.959
538.69	46.725
539.03	45.836
539.37	45.775
539.71	45.964
540.05	46.744
540.39	47.715
540.73	47.063
541.07	46.516
541.42	45.712
541.76	44.718
542.10	47.468
542.44	46.569
542.78	45.387
543.12	46.504
543.46	45.685
543.80	45.284
544.14	44.795
544.48	45.866
544.82	46.820
545.16	46.076
545.50	45.828
545.84	47.705
546.18	45.631
546.52	47.084
546.86	47.009
547.20	47.679
547.54	46.143
547.88	45.587
548.22	44.954
548.56	46.025
548.90	46.226
549.24	46.741
549.58	45.166
549.92	47.915
550.26	47.471
550.60	46.444
550.94	46.423
551.28	48.232
551.62	47.194
551.96	46.310
552.30	46.551
552.64	45.672
552.98	46.251
553.32	45.960
553.66	46.431
554.00	46.553
554.34	46.354
554.68	46.272
555.02	47.106
555.36	47.160
555.69	46.418
556.03	46.175
556.37	47.937
556.71	45.956
557.05	47.376
557.39	46.251
557.73	47.848
558.07	48.003
558.41	47.120
558.75	47.452
559.08	46.304
559.42	46.554
559.76	48.696
560.10	46.980
560.44	48.121
560.78	47.390
561.12	46.101
561.45	45.959
561.79	46.411
562.13	46.774
562.47	46.849
562.81	46.464
563.15	46.326
563.48	47.408
563.82	46.450
564.16	46.856
564.50	46.774
564.84	45.569
565.17	46.883
565.51	46.675
565.85	46.721
566.19	47.628
566.52	47.554
566.86	46.839
567.20	46.731
567.54	47.785
567.88	45.394
568.21	45.973
568.55	45.334
568.89	44.930
569.23	44.887
569.56	44.220
569.90	44.414
570.24	44.795
570.57	43.445
570.91	44.339
571.25	42.996
571.59	44.021
571.92	42.143
572.26	43.259
572.60	43.034
572.93	42.335
573.27	42.226
573.61	42.042
573.95	42.629
574.28	42.828
574.62	42.298
574.96	42.622
575.29	42.099
575.63	42.421
575.97	42.907
576.30	42.450
576.64	41.932
576.98	42.249
577.31	43.027
577.65	42.809
577.98	42.454
578.32	42.770
578.66	42.472
578.99	42.465
579.33	42.753
579.67	42.354
580.00	41.840
580.34	42.368
580.67	42.363
581.01	41.545
581.35	42.689
581.68	41.775
582.02	42.409
582.35	42.398
582.69	42.926
583.02	42.927
583.36	42.731
583.70	43.446
584.03	43.454
584.37	42.219
584.70	43.193
585.04	42.304
585.37	42.029
585.71	41.824
586.04	42.604
586.38	42.181
586.72	42.813
587.05	42.283
587.39	42.010
587.72	42.872
588.06	42.724
588.39	43.065
588.73	42.547
589.06	43.095
589.40	44.040
589.73	43.414
590.07	43.700
590.40	42.878
590.73	43.343
591.07	44.180
591.40	44.021
591.74	43.658
592.07	44.505
592.41	43.057
592.74	42.890
593.08	43.495
593.41	42.928
593.75	42.565
594.08	43.853
594.41	44.473
594.75	43.715
595.08	43.872
595.42	43.497
595.75	43.660
596.09	43.500
596.42	44.435
596.75	44.459
597.09	45.147
597.42	43.736
597.75	44.818
598.09	44.103
598.42	43.924
598.76	43.314
599.09	42.818
599.42	43.137
599.76	43.526
600.09	44.275
600.42	42.993
600.76	44.181
601.09	43.676
601.42	43.134
601.76	44.003
602.09	44.458
602.42	43.745
602.76	43.332
603.09	44.315
603.42	44.682
603.76	44.077
604.09	43.652
604.42	43.797
604.76	44.134
605.09	44.394
605.42	44.592
605.75	44.674
606.09	43.960
606.42	43.821
606.75	43.624
607.09	44.067
607.42	43.662
607.75	43.444
608.08	44.645
608.42	44.324
608.75	43.037
609.08	44.228
609.41	44.893
609.75	44.076
610.08	45.294
610.41	44.193
610.74	44.149
611.07	45.233
611.41	43.671
611.74	44.987
612.07	45.113
612.40	44.136
612.73	44.050
613.07	44.524
613.40	46.360
613.73	45.668
614.06	45.579
614.39	44.983
614.72	45.196
615.06	44.022
615.39	44.221
615.72	45.845
616.05	44.285
616.38	46.140
616.71	45.225
617.05	46.019
617.38	45.882
617.71	45.516
618.04	46.708
618.37	45.660
618.70	47.197
619.03	44.821
619.36	47.075
619.69	47.452
620.03	44.559
620.36	47.257
620.69	46.949
621.02	46.575
621.35	48.145
621.68	47.049
622.01	47.087
622.34	47.360
622.67	46.953
623.00	46.060
623.33	47.239
623.66	45.643
623.99	48.045
624.32	46.949
624.65	46.210
624.99	46.453
625.32	46.407
625.65	47.086
625.98	47.261
626.31	47.471
626.64	46.025
626.97	46.575
627.30	45.787
627.63	46.287
627.96	47.694
628.29	47.610
628.62	48.902
628.95	48.720
629.28	46.617
629.61	46.712
629.94	48.488
630.26	49.205
630.59	48.342
630.92	47.648
631.25	46.774
631.58	47.937
631.91	47.872
632.24	49.667
632.57	50.222
632.90	50.805
633.23	47.897
633.56	49.474
633.89	50.354
634.22	49.469
634.55	49.399
634.88	48.489
635.20	47.316
635.53	50.254
635.86	47.985
636.19	49.451
636.52	48.268
636.85	49.458
637.18	47.375
637.51	52.292
637.83	49.933
638.16	49.211
638.49	52.138
638.82	48.263
639.15	49.157
639.48	47.990
639.81	51.452
640.13	50.135
640.46	52.279
640.79	50.140
641.12	50.494
641.45	49.067
641.77	51.946
642.10	50.906
642.43	51.290
642.76	50.079
643.09	49.841
643.41	50.317
643.74	53.259
644.07	51.014
644.40	52.512
644.73	50.990
645.05	50.918
645.38	52.152
645.71	53.265
646.04	51.933
646.36	51.832
646.69	51.384
647.02	51.444
647.35	49.639
647.67	53.285
648.00	51.670
648.33	52.108
648.66	48.871
648.98	50.318
649.31	48.154
649.64	50.469
649.96	48.980
650.29	50.328
650.62	49.570
650.94	49.410
651.27	48.354
651.60	54.152
651.92	51.712
652.25	50.584
652.58	48.382
652.90	49.278
653.23	48.387
653.56	50.334
653.88	48.689
654.21	49.329
654.54	50.831
654.86	50.241
655.19	46.132
655.52	46.636
655.84	42.546
656.17	44.534
656.49	61.045
656.82	63.029
657.15	47.592
657.47	35.494
657.80	27.220
658.13	30.811
658.45	41.984
658.78	41.875
659.10	41.594
659.43	40.141
659.75	40.755
660.08	42.083
660.41	41.344
660.73	45.105
661.06	48.406
661.38	51.429
661.71	48.566
662.03	52.218
662.36	52.452
662.68	47.890
663.01	51.380
663.33	54.422
663.66	54.721
663.98	53.125
664.31	52.573
664.63	51.327
664.96	50.108
665.28	51.193
665.61	51.163
665.93	51.029
666.26	53.239
666.58	49.480
666.91	50.557
667.23	53.070
667.56	50.340
667.88	53.167
668.21	52.074
668.53	53.037
668.86	51.270
669.18	50.457
669.50	51.168
669.83	53.285
670.15	52.466
670.48	52.570
670.80	50.342
671.13	48.984
671.45	50.901
671.77	50.964
672.10	50.888
672.42	48.524
672.75	48.727
673.07	49.550
673.39	46.812
673.72	48.622
674.04	49.257
674.37	47.010
674.69	49.590
675.01	49.574
675.34	51.193
675.66	48.812
675.98	51.762
676.31	49.095
676.63	52.184
676.95	50.885
677.28	49.420
677.60	50.905
677.92	51.542
678.25	49.891
678.57	48.354
678.89	48.637
679.22	49.266
679.54	48.126
679.86	48.000
680.18	45.627
680.51	48.790
680.83	51.048
681.15	48.555
681.48	49.696
681.80	47.782
682.12	48.089
682.44	47.741
682.77	47.835
683.09	48.637
683.41	51.770
683.73	46.804
684.06	46.452
684.38	47.490
684.70	50.206
685.02	48.622
685.34	48.538
685.67	47.348
685.99	48.960
686.31	45.781
686.63	48.050
686.96	45.841
687.28	46.628
687.60	48.438
687.92	46.887
688.24	48.819
688.56	45.892
688.89	45.299
689.21	51.422
689.53	51.264
689.85	46.548
690.17	47.534
690.49	48.037
690.82	49.639
691.14	50.472
691.46	48.337
691.78	51.101
692.10	49.364
692.42	48.444
692.74	46.996
693.06	47.191
693.39	47.651
693.71	47.856
694.03	46.220
694.35	48.081
694.67	47.281
694.99	46.803
695.31	47.449
695.63	48.469
695.95	48.387
696.27	48.628
696.59	45.989
696.91	51.124
697.23	48.177
697.56	47.115
697.88	47.973
698.20	46.467
698.52	45.964
698.84	46.359
699.16	44.524
699.48	45.000
699.80	48.872
700.12	50.882
700.44	43.575
700.76	49.271
701.08	50.581
701.40	45.015
701.72	50.000
702.04	49.679
702.36	50.301
702.68	47.305
703.00	47.826
703.32	45.272
703.64	50.000
703.96	47.965
704.28	49.704
704.60	47.152
704.91	47.619
705.23	45.631
705.55	48.649
705.87	53.584
706.19	47.569
706.51	48.611
706.83	52.131
707.15	47.134
707.47	49.036
707.79	46.649
708.11	41.730
708.43	46.883
708.74	44.675
709.06	46.797
709.38	48.851
709.70	49.687
710.02	47.546
710.34	48.845
710.66	48.254
710.98	43.533
711.29	47.097
711.61	45.367
711.93	46.230
712.25	47.508
712.57	44.948
712.89	44.964
713.20	46.392
713.52	45.149
713.84	47.331
714.16	46.557
714.48	46.349
714.80	45.231
715.11	44.092
715.43	48.494
715.75	45.171
716.07	42.295
716.39	48.829
716.70	44.948
717.02	44.444
717.34	48.473
717.66	47.303
717.97	46.311
718.29	48.739
718.61	53.571
718.93	46.953
719.24	42.279
719.56	44.151
719.88	47.273
720.20	42.697
720.51	50.376
720.83	47.791
721.15	43.443
721.46	50.980
721.78	45.977
722.10	49.200
722.42	52.479
722.73	47.012
723.05	50.602
723.37	49.412
723.68	44.130
724.00	48.374
724.32	51.029
724.63	40.664
724.95	51.240
725.27	47.368
725.58	44.828
725.90	48.810
726.22	47.232
726.53	44.106
726.85	40.784
727.16	47.744
727.48	42.308
727.80	46.311
728.11	46.639
728.43	45.041
728.74	46.484
729.06	44.318
729.38	42.412
729.69	42.913
730.01	43.701
730.32	40.637
730.64	46.154
730.96	46.642
731.27	39.643
731.59	43.730
731.90	38.957
732.22	44.172
732.53	44.371
732.85	43.624
733.16	46.014
733.48	44.948
733.80	41.281
734.11	43.448
734.43	42.857
734.74	45.697
735.06	45.141
735.37	42.813
735.69	41.935
736.00	40.741
736.32	43.046
736.63	36.897
736.95	38.768
737.26	41.060
737.58	44.964
737.89	47.670
738.21	41.353
738.52	46.154
738.83	44.141
739.15	41.453
739.46	45.968
739.78	39.161
740.09	40.559
740.41	42.308
740.72	46.350
741.04	42.063
741.35	46.753
741.66	45.833
741.98	37.143
742.29	46.009
742.61	43.850
742.92	51.402
743.23	41.228
743.55	46.396
743.86	45.333
744.18	41.905
744.49	47.291
744.80	43.147
745.12	45.876
745.43	47.236
745.74	45.631
746.06	43.415
746.37	42.731
746.68	47.761
747.00	41.361
747.31	40.385
747.62	41.935
747.94	35.808
748.25	47.442
748.56	47.143
748.88	44.022
749.19	44.601
749.50	43.137
749.82	45.333
750.13	51.101
750.44	44.715
750.75	41.600
751.07	47.500
751.38	43.911
751.69	44.275
752.01	42.692
752.32	39.689
752.63	40.000
752.94	41.270
753.26	43.478
753.57	45.089
753.88	43.103
754.19	46.058
754.51	41.797
754.82	43.478
755.13	41.152
755.44	42.149
755.75	48.148
756.07	43.775
756.38	41.406
756.69	44.043
757.00	40.767
757.31	40.940
757.63	45.483
757.94	40.173
758.25	37.791
758.56	47.709
758.87	40.625
759.18	39.000
759.50	41.637
759.81	40.146
760.12	40.541
760.43	44.337
760.74	44.062
761.05	42.135
761.36	41.317
761.67	39.941
761.99	41.290
762.30	42.754
762.61	38.113
762.92	41.256
763.23	48.341
763.54	41.778
763.85	43.038
764.16	42.857
764.47	41.949
764.78	38.202
765.10	42.086
765.41	39.677
765.72	40.881
766.03	33.569
766.34	38.346
766.65	36.842
766.96	38.500
767.27	43.229
767.58	46.512
767.89	48.387
768.20	41.104
768.51	42.623
768.82	44.865
769.13	36.000
769.44	40.789
769.75	43.290
770.06	41.743
770.37	39.437
770.68	44.271
770.99	43.564
771.30	41.262
771.61	41.204
771.92	36.797
772.23	40.187
772.54	38.830
772.85	37.870
773.16	48.780
773.47	45.181
773.78	45.055
774.09	43.333
774.39	41.975
774.70	38.255
775.01	47.101
775.32	42.537
775.63	37.190
775.94	39.098
776.25	39.286
776.56	47.541
776.87	43.363
777.18	40.708
777.48	30.909
777.79	32.174
778.10	40.367
778.41	32.203
778.72	39.669
779.03	33.582
779.34	43.609
779.65	39.216
779.95	42.029
780.26	38.095
780.57	21.552
780.88	38.889
781.19	30.303
781.50	40.800
781.80	41.830
782.11	38.462
782.42	42.771
782.73	32.847
783.04	37.162
783.34	46.970
783.65	36.434
783.96	38.211
784.27	38.462
784.57	30.894
784.88	34.146
785.19	41.228
785.50	15.464
785.81	34.286
786.11	38.235
786.42	39.091
786.73	32.432
787.04	33.663
787.34	26.667
787.65	33.333
787.96	42.157
788.26	41.441
788.57	40.323
788.88	37.500
789.19	29.060
789.49	36.134
789.80	34.188
790.11	39.823
790.41	26.263
790.72	35.849
791.03	31.944
791.33	48.684
791.64	24.731
791.95	30.667
792.25	37.143
792.56	45.122
792.87	38.776
793.17	35.526
793.48	14.865
793.79	21.127
794.09	36.709
794.40	39.362
794.70	34.579
795.01	28.070
795.32	24.545
795.62	33.036
795.93	35.052
796.23	27.473
796.54	36.842
796.85	23.288
797.15	26.389
797.46	28.767
797.76	45.070
798.07	37.500
798.37	29.412
798.68	12.857
798.99	28.571
799.29	32.895
799.60	26.667
799.90	23.611
800.21	25.000
800.51	39.683
800.82	31.148
801.12	28.070
801.43	28.169
801.73	23.729
802.04	31.148
802.34	16.364
802.65	19.231
802.95	29.630
803.26	20.000
803.56	34.615
803.87	21.053
804.17	40.323
804.48	32.308
804.78	33.333
805.09	37.209
805.39	9.375
805.70	15.094
806.00	28.070
806.30	29.730
806.61	22.059
806.91	34.568
807.22	33.333
807.52	32.836
807.83	22.581
808.13	26.984
808.43	14.545
808.74	15.152
809.04	32.075
809.35	31.507
809.65	33.333
809.95	27.941
810.26	33.333
810.56	40.000
810.86	2.041
811.17	14.286
811.47	40.385
811.77	45.161
812.08	-2.632
812.38	7.143
812.69	17.391
812.99	29.032
813.29	11.905
813.59	-29.630
813.90	21.277
814.20	2.326
814.50	14.583
814.81	41.667
815.11	-4.878
815.41	-6.667
815.72	40.000
816.02	0.000
816.32	28.205
816.62	29.730
816.93	-14.706
817.23	32.609
817.53	0.000
817.84	20.588
818.14	-15.625
818.44	3.448
818.74	12.903
819.04	11.111
819.35	36.667
819.65	-32.000
819.95	-6.667
820.25	0.000
820.56	-10.526
820.86	10.000
821.16	29.787
821.46	24.138
821.76	10.256
822.07	7.500
822.37	4.651
822.67	-3.333
822.97	13.514
823.27	24.324
823.57	16.000
823.88	32.432
824.18	-33.333
824.48	-19.231
824.78	-115.385
825.08	-21.739
825.38	-4.167
825.69	-4.167
825.99	-60.000
826.29	-5.405
826.59	-5.882
826.89	44.000
827.19	22.857
827.49	28.947
827.79	9.375
828.09	16.667
828.39	78.261
828.70	-13.793
829.00	24.138
829.30	2.778
829.60	71.875
829.90	33.333
830.20	-23.077
830.50	-80.952
830.80	3.571
831.10	35.897
831.40	-14.286
831.70	29.412
832.00	12.500
832.30	15.789
832.60	-18.750
832.90	-91.667
833.20	-29.412
833.50	-20.000
833.80	-13.333
834.10	-45.000
834.40	-12.500
834.70	-11.111
835.00	-19.231
835.30	-45.833
835.60	0.000
835.90	-27.778
836.20	-90.909
836.50	-108.333
836.80	25.714
837.10	28.571
837.40	41.176
837.70	-109.091
838.00	-41.667
838.30	-50.000
838.60	23.810
838.90	-30.000
839.19	-8.696
839.49	0.000
839.79	-77.778
840.09	-13.043
840.39	-36.364
840.69	-37.500
840.99	26.316
841.29	-43.750
841.59	-85.714
841.88	-27.778
842.18	-33.333
842.48	-35.294
842.78	0.000
843.08	42.857
843.38	-46.154
843.68	-144.444
843.97	-46.154
844.27	36.364
844.57	-220.000
844.87	-12.000
845.17	-260.000
845.47	-42.857
845.76	-255.556
846.06	0.000
846.36	-400.000
846.66	-40.000
846.96	-52.632
847.25	0.000
847.55	-75.000
847.85	-6.667
848.15	-80.000
848.44	0.000
848.74	10.526
849.04	666.667
849.34	11.111
849.63	-105.263
849.93	0.000
850.23	-115.000
850.53	14.286
850.82	-36.000
851.12	-10.526
851.42	-750.000
851.71	21.429
852.01	-141.667
852.31	-82.353
852.61	-93.333
852.90	-38.095
853.20	-133.333
853.50	16.667
853.79	-21.053
854.09	-53.333
854.39	-14.286
854.68	-4.348
854.98	-225.000
855.28	31.034
855.57	-25.000
855.87	-35.000
856.17	-93.333
856.46	10.345
856.76	-26.667
857.05	-70.588
857.35	-153.846
857.65	0.000
857.94	0.000
858.24	-71.429
858.53	-142.857
858.83	-183.333
859.13	-166.667
859.42	33.333
859.72	-200.000
860.01	-566.667
860.31	-37.500
860.60	-340.000
860.90	-155.556
861.20	-75.000
861.49	-228.571
861.79	-23.529
862.08	-700.000
862.38	-16.667
862.67	-84.615
862.97	-17.647
863.26	30.000
863.56	-47.059
863.85	333.333
864.15	-190.000
864.44	-69.231
864.74	25.000
865.03	-225.000
865.33	-233.333
865.62	-64.706
865.92	-500.000
866.21	-64.286
866.51	-175.000
866.80	-1700.000
867.10	-200.000
867.39	-52.941
867.69	-8.696
867.98	-14.286
868.27	-440.000
868.57	-87.500
868.86	-209.091
869.16	23.529
869.45	-83.333
869.75	-242.857
870.04	2000.000
870.33	-8.333
870.63	20.000
870.92	-11.111
871.22	-8.333
871.51	-54.545
871.80	-50.000
872.10	-20.000
>>>>>End Processed Spectral Data<<<<<
