SpectraSuite Data File
++++++++++++++++++++++++++++++++++++
Date: Sat May 16 11:26:55 PDT 2015
User: schluterlab
Dark Spectrum Present: Yes
Reference Spectrum Present: Yes
Number of Sampled Component Spectra: 1
Spectrometers: USB2E3373
Integration Time (usec): 3000 (USB2E3373)
Spectra Averaged: 3 (USB2E3373)
Boxcar Smoothing: 0 (USB2E3373)
Correct for Electrical Dark: No (USB2E3373)
Strobe/Lamp Enabled: No (USB2E3373)
Correct for Detector Non-linearity: No (USB2E3373)
Correct for Stray Light: No (USB2E3373)
Number of Pixels in Processed Spectrum: 2048
>>>>>Begin Processed Spectral Data<<<<<
178.53	0.000
178.91	166.667
179.29	500.000
179.67	-300.000
180.04	-100.000
180.42	400.000
180.80	175.000
181.18	200.000
181.56	-25.000
181.94	600.000
182.31	275.000
182.69	-46.154
183.07	-333.333
183.45	1550.000
183.83	333.333
184.20	-228.571
184.58	-50.000
184.96	-175.000
185.34	75.000
185.72	-575.000
186.09	316.667
186.47	-300.000
186.85	-150.000
187.23	-50.000
187.61	-275.000
187.98	-250.000
188.36	-75.000
188.74	-237.500
189.12	2200.000
189.49	300.000
189.87	25.000
190.25	225.000
190.63	14.286
191.00	-188.889
191.38	400.000
191.76	-33.333
192.14	460.000
192.51	-260.000
192.89	-533.333
193.27	0.000
193.65	-144.444
194.02	-285.714
194.40	733.333
194.78	-40.000
195.15	-1500.000
195.53	-227.273
195.91	-183.333
196.29	360.000
196.66	-766.667
197.04	1900.000
197.42	-225.000
197.79	33.333
198.17	-266.667
198.55	-750.000
198.92	-1000.000
199.30	225.000
199.68	-500.000
200.05	-66.667
200.43	-144.444
200.81	-500.000
201.18	-158.333
201.56	285.714
201.94	-60.000
202.31	4.545
202.69	30.000
203.07	-150.000
203.44	233.333
203.82	-266.667
204.19	-175.000
204.57	-325.000
204.95	-1100.000
205.32	-68.750
205.70	1400.000
206.08	-1800.000
206.45	0.000
206.83	-700.000
207.20	-250.000
207.58	-633.333
207.96	-300.000
208.33	-137.500
208.71	-133.333
209.08	150.000
209.46	-128.571
209.84	350.000
210.21	0.000
210.59	50.000
210.96	1400.000
211.34	-383.333
211.71	-200.000
212.09	425.000
212.46	1200.000
212.84	-1000.000
213.22	566.667
213.59	108.333
213.97	0.000
214.34	210.000
214.72	-130.000
215.09	-500.000
215.47	-100.000
215.84	-170.000
216.22	-120.000
216.59	-20.000
216.97	-425.000
217.34	550.000
217.72	-171.429
218.09	-300.000
218.47	-157.143
218.84	157.143
219.22	-157.143
219.59	0.000
219.97	242.857
220.34	675.000
220.72	162.500
221.09	-69.231
221.47	0.000
221.84	366.667
222.22	-900.000
222.59	400.000
222.97	-237.500
223.34	-1600.000
223.72	-433.333
224.09	-114.286
224.46	-400.000
224.84	-42.857
225.21	-200.000
225.59	-90.909
225.96	-125.000
226.34	-85.714
226.71	-166.667
227.08	-30.000
227.46	1000.000
227.83	-171.429
228.21	-262.500
228.58	150.000
228.95	-56.250
229.33	-2000.000
229.70	-260.000
230.08	-1150.000
230.45	-75.000
230.82	-316.667
231.20	-600.000
231.57	-850.000
231.95	1400.000
232.32	9.524
232.69	-44.444
233.07	-157.143
233.44	-950.000
233.81	-106.667
234.19	-22.222
234.56	-50.000
234.93	9.375
235.31	-200.000
235.68	-207.143
236.05	-64.706
236.43	-45.455
236.80	16.129
237.17	-70.833
237.55	-42.857
237.92	-59.091
238.29	2.857
238.67	23.529
239.04	-5.556
239.41	-51.613
239.79	-25.641
240.16	-7.143
240.53	-16.364
240.91	-5.128
241.28	-1.818
241.65	16.923
242.02	6.557
242.40	-11.475
242.77	0.000
243.14	0.000
243.51	-4.286
243.89	-1.266
244.26	0.000
244.63	14.737
245.00	10.526
245.38	6.780
245.75	5.310
246.12	3.200
246.49	4.724
246.87	3.252
247.24	6.780
247.61	4.237
247.98	7.042
248.36	7.692
248.73	9.494
249.10	1.274
249.47	7.602
249.84	14.205
250.22	0.595
250.59	11.864
250.96	10.471
251.33	16.114
251.70	11.058
252.08	12.796
252.45	13.744
252.82	9.524
253.19	13.617
253.56	8.468
253.94	10.127
254.31	15.451
254.68	17.073
255.05	10.484
255.42	11.508
255.79	12.186
256.16	14.118
256.54	15.074
256.91	9.848
257.28	10.623
257.65	13.475
258.02	15.723
258.39	15.050
258.76	12.838
259.14	12.037
259.51	13.770
259.88	13.720
260.25	13.975
260.62	9.646
260.99	14.837
261.36	12.805
261.73	14.162
262.10	15.556
262.47	11.681
262.85	16.286
263.22	12.607
263.59	11.692
263.96	14.203
264.33	15.176
264.70	14.365
265.07	13.462
265.44	14.987
265.81	11.886
266.18	10.127
266.55	12.500
266.92	14.610
267.29	13.317
267.66	13.580
268.03	14.493
268.40	13.380
268.77	13.012
269.14	14.617
269.51	14.483
269.88	12.615
270.25	14.685
270.62	13.043
270.99	15.090
271.36	13.986
271.73	12.108
272.10	13.959
272.47	12.444
272.84	13.556
273.21	13.532
273.58	11.868
273.95	13.377
274.32	14.480
274.69	15.098
275.06	14.110
275.43	15.402
275.80	14.868
276.17	12.762
276.54	16.701
276.91	14.403
277.28	14.402
277.65	13.430
278.02	12.944
278.39	15.521
278.76	14.343
279.13	15.810
279.50	17.296
279.87	13.319
280.23	17.206
280.60	12.525
280.97	12.039
281.34	13.733
281.71	15.962
282.08	16.129
282.45	12.831
282.82	13.953
283.19	13.091
283.56	16.850
283.92	16.078
284.29	13.383
284.66	11.511
285.03	13.547
285.40	14.945
285.77	14.386
286.14	14.079
286.51	14.742
286.87	13.249
287.24	14.676
287.61	13.388
287.98	12.478
288.35	11.736
288.72	13.922
289.08	11.864
289.45	12.963
289.82	11.073
290.19	14.778
290.56	11.570
290.93	12.242
291.29	11.831
291.66	10.628
292.03	15.542
292.40	14.307
292.77	13.509
293.13	13.821
293.50	13.076
293.87	13.190
294.24	13.876
294.60	9.242
294.97	13.505
295.34	10.519
295.71	11.161
296.08	9.985
296.44	11.159
296.81	12.963
297.18	11.831
297.55	12.288
297.91	11.715
298.28	11.507
298.65	11.158
299.02	12.166
299.38	10.695
299.75	11.413
300.12	13.590
300.48	12.532
300.85	11.009
301.22	10.867
301.59	11.443
301.95	13.350
302.32	9.518
302.69	12.607
303.05	11.722
303.42	11.375
303.79	11.005
304.15	11.019
304.52	11.785
304.89	11.334
305.25	10.745
305.62	11.633
305.99	13.545
306.35	11.654
306.72	9.909
307.09	12.145
307.45	10.556
307.82	10.838
308.19	11.298
308.55	11.438
308.92	9.989
309.29	9.730
309.65	11.559
310.02	10.799
310.38	10.919
310.75	11.066
311.12	10.434
311.48	10.230
311.85	11.329
312.22	10.814
312.58	12.309
312.95	10.499
313.31	11.089
313.68	11.859
314.05	11.771
314.41	11.569
314.78	9.790
315.14	10.958
315.51	12.158
315.87	12.294
316.24	11.176
316.61	11.900
316.97	12.239
317.34	10.983
317.70	10.668
318.07	12.313
318.43	11.610
318.80	14.272
319.16	12.101
319.53	10.902
319.89	12.324
320.26	12.255
320.62	10.865
320.99	12.338
321.35	10.443
321.72	11.054
322.08	11.869
322.45	12.079
322.81	11.623
323.18	12.584
323.54	12.662
323.91	11.770
324.27	11.787
324.64	12.340
325.00	12.216
325.37	12.941
325.73	13.561
326.10	10.540
326.46	12.347
326.83	13.447
327.19	13.011
327.56	14.225
327.92	13.169
328.29	14.286
328.65	12.273
329.01	13.869
329.38	13.381
329.74	14.469
330.11	14.506
330.47	13.170
330.84	15.490
331.20	13.989
331.56	14.768
331.93	14.298
332.29	14.795
332.66	14.486
333.02	13.484
333.38	14.516
333.75	13.891
334.11	13.244
334.48	14.034
334.84	15.136
335.20	14.805
335.57	14.079
335.93	15.219
336.29	14.526
336.66	14.802
337.02	14.775
337.38	13.815
337.75	14.662
338.11	13.775
338.47	14.769
338.84	14.882
339.20	13.708
339.56	15.508
339.93	14.286
340.29	13.995
340.65	14.860
341.02	16.105
341.38	15.417
341.74	15.580
342.11	14.334
342.47	14.077
342.83	14.022
343.20	15.115
343.56	14.449
343.92	15.109
344.28	14.886
344.65	13.696
345.01	15.210
345.37	16.445
345.73	14.894
346.10	13.737
346.46	13.404
346.82	14.836
347.19	13.147
347.55	14.767
347.91	15.118
348.27	14.877
348.63	15.670
349.00	14.638
349.36	14.052
349.72	15.287
350.08	15.156
350.45	13.948
350.81	14.809
351.17	14.469
351.53	13.842
351.89	14.875
352.26	14.884
352.62	15.131
352.98	15.427
353.34	14.468
353.70	13.668
354.07	14.634
354.43	14.941
354.79	15.055
355.15	14.537
355.51	14.141
355.87	14.625
356.24	14.138
356.60	14.827
356.96	15.627
357.32	15.677
357.68	13.257
358.04	14.935
358.40	14.617
358.77	14.297
359.13	14.996
359.49	16.100
359.85	15.015
360.21	15.373
360.57	15.286
360.93	15.778
361.29	14.649
361.66	14.253
362.02	14.719
362.38	15.407
362.74	15.311
363.10	14.778
363.46	15.456
363.82	15.160
364.18	15.123
364.54	16.226
364.90	15.793
365.26	14.907
365.62	16.180
365.98	15.434
366.35	15.704
366.71	14.940
367.07	14.891
367.43	16.266
367.79	15.533
368.15	14.936
368.51	16.154
368.87	16.003
369.23	16.140
369.59	15.903
369.95	15.715
370.31	15.963
370.67	15.618
371.03	15.889
371.39	15.064
371.75	14.950
372.11	15.352
372.47	15.040
372.83	16.273
373.19	16.357
373.55	15.834
373.91	16.145
374.27	16.359
374.63	15.666
374.99	17.455
375.35	15.949
375.71	16.948
376.07	16.427
376.42	15.497
376.78	16.209
377.14	17.153
377.50	16.377
377.86	16.255
378.22	16.960
378.58	15.380
378.94	15.721
379.30	17.063
379.66	16.393
380.02	16.756
380.38	17.100
380.74	16.764
381.09	17.047
381.45	16.110
381.81	16.878
382.17	16.729
382.53	16.839
382.89	17.045
383.25	16.255
383.61	17.807
383.97	17.269
384.32	17.209
384.68	17.715
385.04	16.787
385.40	16.981
385.76	17.683
386.12	16.677
386.48	17.574
386.83	17.178
387.19	17.992
387.55	17.383
387.91	17.427
388.27	16.285
388.62	17.728
388.98	17.020
389.34	17.748
389.70	16.809
390.06	16.905
390.42	17.308
390.77	18.044
391.13	18.323
391.49	17.093
391.85	18.080
392.20	16.383
392.56	17.899
392.92	17.342
393.28	18.083
393.64	17.739
393.99	17.846
394.35	17.032
394.71	17.356
395.07	17.702
395.42	16.687
395.78	17.788
396.14	18.069
396.50	17.676
396.85	17.890
397.21	17.315
397.57	17.751
397.92	17.799
398.28	18.500
398.64	18.025
399.00	18.146
399.35	18.151
399.71	18.699
400.07	18.507
400.42	18.248
400.78	17.770
401.14	18.263
401.49	17.866
401.85	18.060
402.21	18.653
402.57	17.294
402.92	18.943
403.28	17.157
403.63	17.136
403.99	18.334
404.35	17.935
404.70	18.315
405.06	18.858
405.42	18.020
405.77	17.986
406.13	18.001
406.49	18.274
406.84	17.636
407.20	18.021
407.55	17.923
407.91	17.163
408.27	18.199
408.62	17.919
408.98	17.950
409.34	17.611
409.69	18.336
410.05	17.768
410.40	18.148
410.76	18.909
411.11	17.830
411.47	17.967
411.83	17.971
412.18	17.946
412.54	17.084
412.89	18.651
413.25	17.237
413.60	17.679
413.96	18.176
414.31	18.532
414.67	17.524
415.03	18.370
415.38	17.306
415.74	18.621
416.09	18.990
416.45	17.394
416.80	17.880
417.16	17.276
417.51	17.859
417.87	17.605
418.22	18.394
418.58	18.036
418.93	18.516
419.29	17.754
419.64	16.143
420.00	19.198
420.35	17.741
420.71	18.187
421.06	17.988
421.42	17.974
421.77	17.588
422.12	18.691
422.48	18.279
422.83	18.109
423.19	17.762
423.54	17.925
423.90	17.987
424.25	17.590
424.61	18.516
424.96	18.783
425.31	18.781
425.67	17.307
426.02	17.613
426.38	19.298
426.73	18.469
427.09	18.015
427.44	18.466
427.79	17.791
428.15	18.492
428.50	18.710
428.85	17.566
429.21	17.986
429.56	18.958
429.92	18.737
430.27	18.544
430.62	18.809
430.98	18.348
431.33	18.890
431.68	18.445
432.04	18.914
432.39	18.291
432.74	18.645
433.10	18.796
433.45	17.444
433.80	18.701
434.16	17.195
434.51	18.685
434.86	18.688
435.22	18.541
435.57	18.176
435.92	18.464
436.28	17.626
436.63	17.411
436.98	18.270
437.34	18.252
437.69	18.203
438.04	18.434
438.39	18.351
438.75	17.753
439.10	18.323
439.45	17.924
439.81	18.253
440.16	18.228
440.51	18.765
440.86	18.855
441.22	17.745
441.57	18.421
441.92	18.312
442.27	18.506
442.63	17.811
442.98	17.494
443.33	17.957
443.68	18.447
444.03	19.646
444.39	18.845
444.74	18.612
445.09	19.079
445.44	18.908
445.79	19.276
446.15	18.894
446.50	18.617
446.85	19.138
447.20	18.897
447.55	18.453
447.91	19.652
448.26	18.268
448.61	18.223
448.96	18.992
449.31	17.926
449.66	19.061
450.02	18.283
450.37	18.725
450.72	18.588
451.07	18.353
451.42	17.968
451.77	18.372
452.12	19.249
452.47	19.521
452.83	17.938
453.18	18.912
453.53	18.781
453.88	19.498
454.23	18.138
454.58	19.142
454.93	18.829
455.28	18.419
455.63	19.717
455.98	19.217
456.34	18.043
456.69	18.574
457.04	18.869
457.39	18.122
457.74	17.838
458.09	18.503
458.44	19.400
458.79	18.890
459.14	19.681
459.49	18.887
459.84	18.831
460.19	19.511
460.54	18.935
460.89	18.722
461.24	18.397
461.59	18.581
461.94	19.287
462.29	18.702
462.64	18.906
462.99	18.809
463.34	18.569
463.69	19.020
464.04	18.453
464.39	18.638
464.74	19.031
465.09	19.242
465.44	18.951
465.79	19.289
466.14	19.735
466.49	18.595
466.84	18.788
467.19	19.389
467.54	19.051
467.89	18.866
468.24	18.824
468.59	18.551
468.94	17.878
469.29	18.583
469.64	19.811
469.99	19.514
470.34	18.838
470.68	19.041
471.03	18.513
471.38	18.403
471.73	19.021
472.08	19.009
472.43	18.018
472.78	18.333
473.13	19.085
473.48	19.209
473.83	19.851
474.17	19.172
474.52	18.990
474.87	18.823
475.22	18.938
475.57	18.000
475.92	19.438
476.27	18.686
476.61	18.873
476.96	19.285
477.31	18.730
477.66	19.978
478.01	19.827
478.36	19.487
478.70	20.021
479.05	19.524
479.40	19.896
479.75	19.674
480.10	19.841
480.45	18.859
480.79	19.398
481.14	19.167
481.49	19.652
481.84	19.094
482.19	19.415
482.53	20.123
482.88	19.649
483.23	19.484
483.58	19.981
483.92	19.159
484.27	18.520
484.62	19.266
484.97	19.369
485.31	18.976
485.66	18.684
486.01	19.062
486.36	19.250
486.70	20.419
487.05	19.363
487.40	20.032
487.75	20.101
488.09	19.487
488.44	20.196
488.79	19.561
489.13	19.932
489.48	20.147
489.83	18.996
490.17	19.460
490.52	20.335
490.87	19.261
491.22	19.337
491.56	19.537
491.91	19.990
492.26	19.670
492.60	19.886
492.95	19.562
493.30	19.295
493.64	18.712
493.99	19.407
494.34	19.000
494.68	20.225
495.03	19.933
495.37	19.272
495.72	19.450
496.07	19.897
496.41	20.333
496.76	19.680
497.11	20.207
497.45	20.450
497.80	20.310
498.14	20.187
498.49	19.237
498.84	20.000
499.18	19.737
499.53	18.850
499.87	20.463
500.22	19.853
500.56	19.610
500.91	19.261
501.26	20.718
501.60	19.114
501.95	20.628
502.29	19.745
502.64	20.132
502.98	19.502
503.33	20.160
503.67	19.588
504.02	19.652
504.36	20.196
504.71	19.098
505.06	19.071
505.40	20.359
505.75	19.563
506.09	20.324
506.44	19.599
506.78	20.271
507.13	20.031
507.47	20.709
507.82	20.599
508.16	20.415
508.51	19.423
508.85	19.669
509.19	20.147
509.54	20.560
509.88	20.957
510.23	20.126
510.57	21.376
510.92	20.784
511.26	20.893
511.61	19.924
511.95	20.582
512.30	20.781
512.64	20.145
512.98	20.517
513.33	20.593
513.67	20.156
514.02	20.638
514.36	20.499
514.70	22.241
515.05	20.240
515.39	20.992
515.74	21.699
516.08	21.326
516.42	20.510
516.77	20.566
517.11	21.110
517.46	22.189
517.80	21.360
518.14	20.350
518.49	21.638
518.83	20.534
519.17	20.959
519.52	21.284
519.86	21.983
520.20	21.149
520.55	21.908
520.89	20.789
521.23	21.368
521.58	21.693
521.92	22.673
522.26	20.952
522.61	20.786
522.95	21.059
523.29	22.571
523.64	20.675
523.98	22.215
524.32	21.810
524.66	20.932
525.01	21.066
525.35	20.683
525.69	21.470
526.04	21.345
526.38	23.170
526.72	21.648
527.06	22.005
527.41	22.178
527.75	21.254
528.09	21.840
528.43	21.902
528.78	21.608
529.12	22.279
529.46	21.843
529.80	22.208
530.15	21.185
530.49	21.345
530.83	22.921
531.17	21.616
531.51	22.371
531.86	21.725
532.20	22.267
532.54	22.660
532.88	21.212
533.22	21.457
533.57	22.585
533.91	21.598
534.25	22.124
534.59	21.487
534.93	20.722
535.27	22.970
535.62	21.611
535.96	21.784
536.30	21.073
536.64	22.510
536.98	22.316
537.32	21.907
537.66	22.946
538.01	22.337
538.35	22.568
538.69	21.591
539.03	22.207
539.37	22.289
539.71	22.148
540.05	22.687
540.39	22.507
540.73	22.598
541.07	22.746
541.42	20.864
541.76	21.728
542.10	22.215
542.44	22.652
542.78	21.845
543.12	22.132
543.46	21.027
543.80	21.739
544.14	22.163
544.48	22.310
544.82	22.463
545.16	22.133
545.50	21.669
545.84	22.045
546.18	22.607
546.52	22.404
546.86	22.222
547.20	23.629
547.54	21.281
547.88	22.960
548.22	21.494
548.56	21.242
548.90	21.765
549.24	22.214
549.58	22.089
549.92	22.827
550.26	22.905
550.60	21.977
550.94	22.847
551.28	22.423
551.62	20.901
551.96	21.997
552.30	21.394
552.64	22.308
552.98	22.425
553.32	22.439
553.66	22.783
554.00	22.175
554.34	21.155
554.68	22.661
555.02	23.227
555.36	21.711
555.69	21.920
556.03	22.316
556.37	21.977
556.71	22.119
557.05	22.912
557.39	21.084
557.73	21.809
558.07	22.080
558.41	22.064
558.75	21.977
559.08	21.167
559.42	21.975
559.76	22.393
560.10	22.595
560.44	23.121
560.78	21.851
561.12	22.015
561.45	22.329
561.79	22.091
562.13	22.791
562.47	21.289
562.81	21.782
563.15	21.274
563.48	21.907
563.82	21.907
564.16	22.448
564.50	22.043
564.84	22.950
565.17	22.480
565.51	21.382
565.85	22.245
566.19	23.452
566.52	21.461
566.86	22.440
567.20	22.518
567.54	22.977
567.88	22.836
568.21	22.036
568.55	22.110
568.89	22.068
569.23	21.333
569.56	21.396
569.90	21.951
570.24	22.773
570.57	21.828
570.91	21.863
571.25	21.887
571.59	21.761
571.92	21.577
572.26	22.019
572.60	21.316
572.93	21.710
573.27	21.402
573.61	21.193
573.95	21.740
574.28	21.854
574.62	21.861
574.96	21.486
575.29	21.367
575.63	21.954
575.97	21.170
576.30	21.184
576.64	21.984
576.98	21.821
577.31	21.502
577.65	21.270
577.98	21.652
578.32	21.027
578.66	21.468
578.99	21.543
579.33	21.854
579.67	21.709
580.00	21.057
580.34	21.355
580.67	21.598
581.01	21.298
581.35	21.418
581.68	21.164
582.02	21.259
582.35	21.662
582.69	21.513
583.02	21.950
583.36	21.687
583.70	21.531
584.03	22.279
584.37	22.030
584.70	22.125
585.04	21.139
585.37	21.026
585.71	21.287
586.04	22.087
586.38	21.759
586.72	21.590
587.05	21.977
587.39	21.688
587.72	21.476
588.06	21.431
588.39	21.817
588.73	21.967
589.06	21.867
589.40	22.089
589.73	22.415
590.07	21.377
590.40	22.214
590.73	21.551
591.07	21.926
591.40	22.400
591.74	22.068
592.07	21.667
592.41	21.953
592.74	21.560
593.08	22.005
593.41	22.072
593.75	20.706
594.08	21.927
594.41	21.294
594.75	21.971
595.08	21.729
595.42	21.965
595.75	20.617
596.09	21.498
596.42	22.300
596.75	21.734
597.09	22.930
597.42	21.563
597.75	21.479
598.09	22.097
598.42	21.918
598.76	21.595
599.09	21.863
599.42	21.146
599.76	21.442
600.09	22.252
600.42	21.496
600.76	21.620
601.09	21.496
601.42	21.607
601.76	22.469
602.09	21.677
602.42	22.058
602.76	21.728
603.09	21.331
603.42	21.354
603.76	21.859
604.09	21.025
604.42	21.191
604.76	22.024
605.09	21.338
605.42	21.631
605.75	20.655
606.09	21.793
606.42	20.737
606.75	21.683
607.09	21.835
607.42	21.039
607.75	20.971
608.08	21.057
608.42	21.996
608.75	21.121
609.08	21.091
609.41	21.375
609.75	20.429
610.08	22.402
610.41	21.880
610.74	21.180
611.07	22.110
611.41	20.424
611.74	22.365
612.07	22.234
612.40	21.055
612.73	21.863
613.07	21.849
613.40	22.332
613.73	21.471
614.06	21.636
614.39	22.773
614.72	22.011
615.06	21.304
615.39	21.921
615.72	21.836
616.05	20.099
616.38	21.416
616.71	21.321
617.05	22.799
617.38	21.672
617.71	20.516
618.04	22.733
618.37	21.132
618.70	22.360
619.03	22.139
619.36	21.142
619.69	22.111
620.03	22.107
620.36	21.800
620.69	22.613
621.02	22.679
621.35	23.145
621.68	21.311
622.01	22.896
622.34	22.748
622.67	20.781
623.00	21.806
623.33	22.463
623.66	21.640
623.99	21.353
624.32	21.205
624.65	20.677
624.99	21.733
625.32	21.557
625.65	21.756
625.98	20.970
626.31	22.023
626.64	21.674
626.97	21.918
627.30	21.277
627.63	20.984
627.96	22.106
628.29	21.140
628.62	21.108
628.95	21.752
629.28	21.429
629.61	20.707
629.94	23.157
630.26	20.378
630.59	22.211
630.92	19.720
631.25	23.992
631.58	21.693
631.91	21.915
632.24	21.444
632.57	23.222
632.90	21.034
633.23	20.911
633.56	19.883
633.89	21.698
634.22	22.668
634.55	22.356
634.88	19.710
635.20	20.849
635.53	22.392
635.86	21.411
636.19	19.780
636.52	22.581
636.85	21.300
637.18	20.000
637.51	20.818
637.83	19.308
638.16	21.053
638.49	22.207
638.82	20.463
639.15	22.698
639.48	19.585
639.81	22.407
640.13	22.703
640.46	21.225
640.79	21.008
641.12	22.849
641.45	20.947
641.77	20.509
642.10	20.695
642.43	22.914
642.76	20.472
643.09	21.429
643.41	22.857
643.74	20.827
644.07	21.997
644.40	21.394
644.73	21.947
645.05	21.035
645.38	22.682
645.71	24.055
646.04	23.697
646.36	20.942
646.69	22.664
647.02	20.578
647.35	21.661
647.67	22.263
648.00	22.671
648.33	23.777
648.66	19.032
648.98	22.452
649.31	22.154
649.64	23.906
649.96	23.862
650.29	20.656
650.62	22.375
650.94	21.754
651.27	21.664
651.60	21.107
651.92	21.918
652.25	19.199
652.58	22.147
652.90	21.027
653.23	20.968
653.56	21.405
653.88	21.148
654.21	23.490
654.54	22.924
654.86	20.867
655.19	22.779
655.52	20.786
655.84	19.819
656.17	22.070
656.49	30.522
656.82	32.195
657.15	24.677
657.47	18.115
657.80	14.102
658.13	15.996
658.45	22.143
658.78	22.131
659.10	21.918
659.43	22.137
659.75	22.148
660.08	23.281
660.41	21.329
660.73	21.452
661.06	24.203
661.38	22.679
661.71	22.562
662.03	22.782
662.36	20.682
662.68	22.363
663.01	22.081
663.33	20.862
663.66	21.888
663.98	24.107
664.31	19.016
664.63	20.796
664.96	21.258
665.28	21.692
665.61	21.776
665.93	19.342
666.26	21.862
666.58	20.166
666.91	23.608
667.23	23.684
667.56	20.408
667.88	23.303
668.21	20.276
668.53	19.393
668.86	20.554
669.18	22.831
669.50	20.327
669.83	20.438
670.15	20.404
670.48	22.196
670.80	17.540
671.13	21.445
671.45	20.946
671.77	20.557
672.10	23.274
672.42	21.402
672.75	21.273
673.07	19.279
673.39	21.676
673.72	22.047
674.04	22.505
674.37	16.495
674.69	20.287
675.01	21.702
675.34	22.343
675.66	21.598
675.98	21.806
676.31	22.624
676.63	19.310
676.95	21.681
677.28	21.346
677.60	23.303
677.92	22.907
678.25	23.851
678.57	22.428
678.89	20.126
679.22	21.174
679.54	22.485
679.86	19.000
680.18	19.962
680.51	20.857
680.83	22.286
681.15	20.039
681.48	20.690
681.80	19.758
682.12	20.322
682.44	23.772
682.77	21.645
683.09	20.964
683.41	24.115
683.73	18.721
684.06	18.495
684.38	23.849
684.70	21.811
685.02	17.913
685.34	22.027
685.67	19.318
685.99	20.605
686.31	22.262
686.63	20.922
686.96	21.442
687.28	21.195
687.60	19.531
687.92	16.926
688.24	22.047
688.56	20.040
688.89	19.017
689.21	21.444
689.53	19.770
689.85	22.272
690.17	17.713
690.49	24.480
690.82	18.795
691.14	21.698
691.46	21.729
691.78	20.044
692.10	20.975
692.42	21.556
692.74	18.240
693.06	21.348
693.39	19.463
693.71	19.865
694.03	23.974
694.35	21.219
694.67	21.513
694.99	20.460
695.31	21.429
695.63	17.857
695.95	19.851
696.27	20.449
696.59	23.529
696.91	21.629
697.23	20.052
697.56	16.827
697.88	19.820
698.20	17.131
698.52	19.731
698.84	21.359
699.16	21.905
699.48	19.250
699.80	20.551
700.12	22.166
700.44	20.112
700.76	18.659
701.08	20.640
701.40	19.335
701.72	18.827
702.04	16.987
702.36	21.084
702.68	19.162
703.00	20.870
703.32	18.911
703.64	25.294
703.96	25.872
704.28	20.710
704.60	17.405
704.91	18.095
705.23	19.741
705.55	19.932
705.87	24.573
706.19	15.625
706.51	19.444
706.83	21.639
707.15	21.975
707.47	20.661
707.79	19.072
708.11	16.539
708.43	23.441
708.74	21.558
709.06	19.777
709.38	17.816
709.70	19.062
710.02	23.006
710.34	18.152
710.66	17.778
710.98	18.297
711.29	15.484
711.61	22.045
711.93	20.000
712.25	17.608
712.57	24.042
712.89	16.547
713.20	20.962
713.52	17.164
713.84	18.505
714.16	20.328
714.48	20.000
714.80	16.000
715.11	19.020
715.43	20.783
715.75	25.234
716.07	18.361
716.39	21.070
716.70	16.376
717.02	18.148
717.34	19.466
717.66	22.822
717.97	19.672
718.29	21.429
718.61	21.032
718.93	22.581
719.24	17.279
719.56	15.472
719.88	16.364
720.20	16.854
720.51	22.556
720.83	14.458
721.15	20.492
721.46	20.392
721.78	19.157
722.10	21.600
722.42	18.595
722.73	15.936
723.05	18.876
723.37	20.784
723.68	14.980
724.00	19.512
724.32	19.342
724.63	18.672
724.95	21.074
725.27	19.298
725.58	18.103
725.90	14.683
726.22	23.616
726.53	22.433
726.85	16.863
727.16	21.429
727.48	15.385
727.80	16.803
728.11	20.168
728.43	18.182
728.74	23.047
729.06	20.455
729.38	17.510
729.69	17.717
730.01	21.654
730.32	18.725
730.64	21.978
730.96	23.881
731.27	18.929
731.59	22.508
731.90	20.552
732.22	19.325
732.53	21.854
732.85	16.107
733.16	20.652
733.48	19.861
733.80	16.370
734.11	20.345
734.43	20.408
734.74	22.255
735.06	19.749
735.37	19.878
735.69	17.097
736.00	21.212
736.32	19.868
736.63	10.345
736.95	23.551
737.26	21.523
737.58	18.705
737.89	22.939
738.21	17.669
738.52	20.385
738.83	17.578
739.15	19.231
739.46	22.984
739.78	15.734
740.09	18.182
740.41	19.231
740.72	20.073
741.04	17.460
741.35	16.883
741.66	21.759
741.98	14.286
742.29	17.840
742.61	20.856
742.92	18.692
743.23	18.421
743.55	22.072
743.86	25.778
744.18	15.238
744.49	24.138
744.80	21.320
745.12	17.526
745.43	17.085
745.74	21.845
746.06	18.537
746.37	22.467
746.68	19.403
747.00	21.466
747.31	14.904
747.62	17.512
747.94	19.651
748.25	20.930
748.56	24.286
748.88	14.674
749.19	18.310
749.50	23.039
749.82	22.222
750.13	18.062
750.44	18.293
750.75	21.600
751.07	21.429
751.38	19.557
751.69	17.939
752.01	16.538
752.32	15.175
752.63	18.846
752.94	15.079
753.26	21.739
753.57	19.196
753.88	21.983
754.19	17.427
754.51	19.141
754.82	14.625
755.13	14.403
755.44	17.355
755.75	19.753
756.07	14.458
756.38	19.922
756.69	21.300
757.00	22.300
757.31	20.470
757.63	20.249
757.94	16.185
758.25	18.023
758.56	22.102
758.87	19.034
759.18	14.000
759.50	21.708
759.81	16.788
760.12	15.878
760.43	20.712
760.74	20.312
761.05	19.944
761.36	23.353
761.67	18.935
761.99	19.032
762.30	18.841
762.61	21.887
762.92	20.628
763.23	19.431
763.54	14.667
763.85	20.675
764.16	15.510
764.47	21.610
764.78	19.850
765.10	20.504
765.41	20.000
765.72	23.899
766.03	14.841
766.34	20.677
766.65	18.623
766.96	19.500
767.27	19.271
767.58	18.605
767.89	19.355
768.20	16.564
768.51	23.497
768.82	19.459
769.13	13.000
769.44	16.228
769.75	17.749
770.06	22.477
770.37	15.962
770.68	22.396
770.99	19.307
771.30	19.417
771.61	17.130
771.92	13.853
772.23	21.028
772.54	15.426
772.85	18.343
773.16	17.073
773.47	20.482
773.78	18.681
774.09	18.000
774.39	25.926
774.70	14.765
775.01	11.594
775.32	12.687
775.63	17.355
775.94	19.549
776.25	14.286
776.56	18.852
776.87	12.389
777.18	15.929
777.48	12.727
777.79	16.522
778.10	15.596
778.41	11.017
778.72	18.182
779.03	24.627
779.34	18.797
779.65	16.340
779.95	15.217
780.26	5.442
780.57	20.690
780.88	13.889
781.19	2.020
781.50	5.600
781.80	15.686
782.11	16.026
782.42	18.675
782.73	6.569
783.04	19.595
783.34	11.364
783.65	10.078
783.96	17.886
784.27	22.222
784.57	13.008
784.88	15.447
785.19	23.684
785.50	-5.155
785.81	13.333
786.11	11.765
786.42	4.545
786.73	4.505
787.04	24.752
787.34	14.286
787.65	2.857
787.96	11.765
788.26	8.108
788.57	16.935
788.88	14.063
789.19	11.966
789.49	10.084
789.80	11.111
790.11	24.779
790.41	7.071
790.72	15.094
791.03	2.778
791.33	0.000
791.64	16.129
791.95	2.667
792.25	15.714
792.56	14.634
792.87	17.347
793.17	19.737
793.48	9.459
793.79	2.817
794.09	-1.266
794.40	17.021
794.70	19.626
795.01	11.404
795.32	5.455
795.62	22.321
795.93	1.031
796.23	3.297
796.54	15.789
796.85	4.110
797.15	4.167
797.46	4.110
797.76	4.225
798.07	17.500
798.37	-8.824
798.68	10.000
798.99	4.286
799.29	23.684
799.60	-1.667
799.90	-15.278
800.21	-1.563
800.51	12.698
800.82	-1.639
801.12	7.018
801.43	-1.408
801.73	-1.695
802.04	8.197
802.34	9.091
802.65	-5.769
802.95	16.667
803.26	-7.500
803.56	17.308
803.87	-47.368
804.17	3.226
804.48	6.154
804.78	-17.949
805.09	-23.256
805.39	-50.000
805.70	-5.660
806.00	26.316
806.30	16.216
806.61	10.294
806.91	7.407
807.22	20.000
807.52	-4.478
807.83	12.903
808.13	-11.111
808.43	-12.727
808.74	10.606
809.04	-3.774
809.35	-1.370
809.65	12.281
809.95	14.706
810.26	5.882
810.56	2.000
810.86	0.000
811.17	-31.429
811.47	-9.615
811.77	19.355
812.08	-39.474
812.38	-2.381
812.69	-26.087
812.99	-22.581
813.29	-16.667
813.59	-29.630
813.90	-2.128
814.20	-25.581
814.50	-16.667
814.81	13.333
815.11	7.317
815.41	3.333
815.72	11.429
816.02	22.222
816.32	23.077
816.62	0.000
816.93	-44.118
817.23	-6.522
817.53	-26.471
817.84	0.000
818.14	-34.375
818.44	-44.828
818.74	-38.710
819.04	-29.630
819.35	-16.667
819.65	-72.000
819.95	-53.333
820.25	-12.000
820.56	-18.421
820.86	0.000
821.16	17.021
821.46	-1.724
821.76	5.128
822.07	-2.500
822.37	-16.279
822.67	-23.333
822.97	-18.919
823.27	-13.514
823.57	28.000
823.88	8.108
824.18	-28.571
824.48	19.231
824.78	-184.615
825.08	-30.435
825.38	-16.667
825.69	-58.333
825.99	-110.000
826.29	-29.730
826.59	-8.824
826.89	-24.000
827.19	-37.143
827.49	-15.789
827.79	-25.000
828.09	-56.667
828.39	-17.391
828.70	-34.483
829.00	-10.345
829.30	11.111
829.60	15.625
829.90	-5.556
830.20	-53.846
830.50	-66.667
830.80	17.857
831.10	15.385
831.40	-14.286
831.70	-2.941
832.00	-4.167
832.30	-84.211
832.60	-43.750
832.90	-75.000
833.20	-82.353
833.50	-106.667
833.80	-33.333
834.10	-5.000
834.40	-8.333
834.70	-38.889
835.00	-53.846
835.30	0.000
835.60	-34.483
835.90	-66.667
836.20	-145.455
836.50	-200.000
836.80	2.857
837.10	-2.857
837.40	-29.412
837.70	-72.727
838.00	-16.667
838.30	-75.000
838.60	-38.095
838.90	-40.000
839.19	-69.565
839.49	4.348
839.79	-22.222
840.09	-47.826
840.39	-63.636
840.69	-106.250
840.99	-42.105
841.29	-100.000
841.59	7.143
841.88	-66.667
842.18	-70.833
842.48	-70.588
842.78	-24.138
843.08	-78.571
843.38	23.077
843.68	-144.444
843.97	-84.615
844.27	9.091
844.57	-60.000
844.87	-12.000
845.17	-180.000
845.47	-135.714
845.76	-133.333
846.06	0.000
846.36	-500.000
846.66	-240.000
846.96	-73.684
847.25	-8.333
847.55	-58.333
847.85	-53.333
848.15	-100.000
848.44	-7.692
848.74	-31.579
849.04	533.333
849.34	-33.333
849.63	-84.211
849.93	0.000
850.23	-35.000
850.53	4.762
850.82	-56.000
851.12	-42.105
851.42	-1000.000
851.71	-57.143
852.01	-108.333
852.31	-52.941
852.61	-46.667
852.90	-42.857
853.20	-150.000
853.50	-88.889
853.79	-47.368
854.09	-120.000
854.39	-32.143
854.68	4.348
854.98	-133.333
855.28	3.448
855.57	-118.750
855.87	-25.000
856.17	-86.667
856.46	-13.793
856.76	-93.333
857.05	-41.176
857.35	-153.846
857.65	-18.182
857.94	-22.222
858.24	-57.143
858.53	-114.286
858.83	-116.667
859.13	0.000
859.42	23.810
859.72	-125.000
860.01	-233.333
860.31	-62.500
860.60	-460.000
860.90	-77.778
861.20	-100.000
861.49	-271.429
861.79	-70.588
862.08	-900.000
862.38	-91.667
862.67	-107.692
862.97	5.882
863.26	15.000
863.56	17.647
863.85	433.333
864.15	-200.000
864.44	-30.769
864.74	5.000
865.03	-225.000
865.33	-116.667
865.62	-58.824
865.92	-700.000
866.21	-121.429
866.51	-50.000
866.80	-1000.000
867.10	66.667
867.39	11.765
867.69	-13.043
867.98	-71.429
868.27	-220.000
868.57	-56.250
868.86	-136.364
869.16	11.765
869.45	-83.333
869.75	-214.286
870.04	1400.000
870.33	-75.000
870.63	-160.000
870.92	-155.556
871.22	-75.000
871.51	-54.545
871.80	-50.000
872.10	-50.000
>>>>>End Processed Spectral Data<<<<<
