SpectraSuite Data File
++++++++++++++++++++++++++++++++++++
Date: Sat May 16 11:45:56 PDT 2015
User: schluterlab
Dark Spectrum Present: Yes
Reference Spectrum Present: Yes
Number of Sampled Component Spectra: 1
Spectrometers: USB2E3373
Integration Time (usec): 3000 (USB2E3373)
Spectra Averaged: 3 (USB2E3373)
Boxcar Smoothing: 0 (USB2E3373)
Correct for Electrical Dark: No (USB2E3373)
Strobe/Lamp Enabled: No (USB2E3373)
Correct for Detector Non-linearity: No (USB2E3373)
Correct for Stray Light: No (USB2E3373)
Number of Pixels in Processed Spectrum: 2048
>>>>>Begin Processed Spectral Data<<<<<
178.53	0.000
178.91	106.667
179.29	733.333
179.67	-800.000
180.04	-123.077
180.42	800.000
180.80	525.000
181.18	300.000
181.56	-225.000
181.94	1100.000
182.31	625.000
182.69	0.000
183.07	-466.667
183.45	1050.000
183.83	500.000
184.20	-100.000
184.58	-200.000
184.96	-200.000
185.34	125.000
185.72	-575.000
186.09	466.667
186.47	-225.000
186.85	-225.000
187.23	-75.000
187.61	-175.000
187.98	-387.500
188.36	-212.500
188.74	-200.000
189.12	2800.000
189.49	371.429
189.87	-125.000
190.25	575.000
190.63	-7.143
191.00	-211.111
191.38	460.000
191.76	-66.667
192.14	600.000
192.51	-320.000
192.89	-666.667
193.27	0.000
193.65	-77.778
194.02	-171.429
194.40	500.000
194.78	-90.000
195.15	-1000.000
195.53	-100.000
195.91	-483.333
196.29	300.000
196.66	-966.667
197.04	2000.000
197.42	-350.000
197.79	-6.667
198.17	-800.000
198.55	-750.000
198.92	-1500.000
199.30	262.500
199.68	-700.000
200.05	-111.111
200.43	-266.667
200.81	-200.000
201.18	-175.000
201.56	185.714
201.94	-46.667
202.31	18.182
202.69	-70.000
203.07	-130.000
203.44	833.333
203.82	-216.667
204.19	-425.000
204.57	-100.000
204.95	-900.000
205.32	-6.250
205.70	1800.000
206.08	-1500.000
206.45	-83.333
206.83	-900.000
207.20	0.000
207.58	-666.667
207.96	-466.667
208.33	-250.000
208.71	-88.889
209.08	260.000
209.46	-200.000
209.84	600.000
210.21	0.000
210.59	35.000
210.96	700.000
211.34	-300.000
211.71	266.667
212.09	300.000
212.46	800.000
212.84	-1400.000
213.22	500.000
213.59	108.333
213.97	-88.889
214.34	170.000
214.72	-40.000
215.09	-333.333
215.47	-66.667
215.84	-30.000
216.22	-40.000
216.59	6.667
216.97	-350.000
217.34	1050.000
217.72	-214.286
218.09	-300.000
218.47	-185.714
218.84	200.000
219.22	14.286
219.59	0.000
219.97	200.000
220.34	600.000
220.72	300.000
221.09	0.000
221.47	0.000
221.84	433.333
222.22	-600.000
222.59	1500.000
222.97	-237.500
223.34	-700.000
223.72	-633.333
224.09	-35.714
224.46	-225.000
224.84	-35.714
225.21	-214.286
225.59	-72.727
225.96	-262.500
226.34	-71.429
226.71	-100.000
227.08	-65.000
227.46	2700.000
227.83	-214.286
228.21	-262.500
228.58	350.000
228.95	-43.750
229.33	-2500.000
229.70	-300.000
230.08	-500.000
230.45	-33.333
230.82	-66.667
231.20	-1100.000
231.57	-300.000
231.95	1800.000
232.32	-52.381
232.69	-100.000
233.07	-300.000
233.44	-1100.000
233.81	-93.333
234.19	-122.222
234.56	-25.000
234.93	12.500
235.31	-185.714
235.68	-150.000
236.05	-41.176
236.43	-9.091
236.80	3.226
237.17	-12.500
237.55	-47.619
237.92	-45.455
238.29	17.143
238.67	-17.647
239.04	-11.111
239.41	-3.226
239.79	-33.333
240.16	-7.143
240.53	-10.909
240.91	7.692
241.28	12.727
241.65	21.538
242.02	29.508
242.40	24.590
242.77	7.576
243.14	3.390
243.51	0.000
243.89	7.595
244.26	14.607
244.63	25.263
245.00	18.947
245.38	21.186
245.75	15.044
246.12	19.200
246.49	6.299
246.87	12.195
247.24	16.949
247.61	13.559
247.98	12.676
248.36	9.790
248.73	19.620
249.10	22.293
249.47	21.053
249.84	17.045
250.22	11.310
250.59	25.424
250.96	18.848
251.33	27.014
251.70	22.596
252.08	19.431
252.45	14.692
252.82	17.143
253.19	23.830
253.56	23.790
253.94	21.941
254.31	19.313
254.68	22.764
255.05	18.145
255.42	22.222
255.79	20.789
256.16	23.529
256.54	22.059
256.91	23.864
257.28	20.147
257.65	21.986
258.02	26.415
258.39	22.408
258.76	20.946
259.14	21.296
259.51	23.607
259.88	20.732
260.25	22.671
260.62	18.650
260.99	21.365
261.36	25.610
261.73	20.809
262.10	23.889
262.47	22.507
262.85	25.429
263.22	24.642
263.59	17.231
263.96	21.449
264.33	23.035
264.70	22.652
265.07	24.451
265.44	21.189
265.81	24.806
266.18	22.278
266.55	22.059
266.92	24.181
267.29	23.487
267.66	21.975
268.03	25.121
268.40	23.474
268.77	21.205
269.14	22.970
269.51	23.218
269.88	23.394
270.25	18.881
270.62	22.654
270.99	22.748
271.36	26.107
271.73	21.525
272.10	23.799
272.47	23.556
272.84	24.667
273.21	21.789
273.58	21.319
273.95	24.781
274.32	23.756
274.69	24.070
275.06	26.380
275.43	22.768
275.80	23.829
276.17	22.803
276.54	24.440
276.91	21.193
277.28	21.095
277.65	24.174
278.02	24.008
278.39	24.361
278.76	23.108
279.13	23.913
279.50	24.254
279.87	24.313
280.23	23.279
280.60	23.260
280.97	21.942
281.34	21.663
281.71	25.192
282.08	24.798
282.45	19.756
282.82	25.000
283.19	24.364
283.56	26.007
283.92	21.555
284.29	21.933
284.66	20.504
285.03	22.816
285.40	22.140
285.77	25.263
286.14	23.466
286.51	23.268
286.87	22.142
287.24	22.184
287.61	22.314
287.98	21.317
288.35	20.165
288.72	20.713
289.08	21.186
289.45	21.044
289.82	19.031
290.19	21.839
290.56	19.504
290.93	20.986
291.29	19.611
291.66	21.095
292.03	21.350
292.40	19.729
292.77	20.807
293.13	19.187
293.50	21.694
293.87	20.552
294.24	20.362
294.60	17.727
294.97	19.727
295.34	18.074
295.71	19.048
296.08	17.051
296.44	18.598
296.81	18.661
297.18	18.028
297.55	18.503
297.91	19.944
298.28	17.945
298.65	17.713
299.02	19.519
299.38	18.984
299.75	18.750
300.12	18.846
300.48	19.054
300.85	16.776
301.22	17.335
301.59	17.555
301.95	19.144
302.32	16.428
302.69	16.891
303.05	17.582
303.42	17.625
303.79	16.986
304.15	15.640
304.52	17.970
304.89	17.473
305.25	17.460
305.62	15.864
305.99	18.846
306.35	16.759
306.72	16.743
307.09	18.161
307.45	17.026
307.82	16.089
308.19	18.009
308.55	16.340
308.92	14.930
309.29	16.757
309.65	15.164
310.02	15.551
310.38	15.784
310.75	16.393
311.12	17.149
311.48	16.806
311.85	16.478
312.22	15.860
312.58	16.582
312.95	16.412
313.31	17.383
313.68	16.482
314.05	16.518
314.41	16.600
314.78	15.485
315.14	16.881
315.51	16.616
315.87	17.038
316.24	14.869
316.61	16.219
316.97	16.816
317.34	16.281
317.70	15.213
318.07	15.112
318.43	16.199
318.80	16.432
319.16	15.947
319.53	15.695
319.89	15.052
320.26	16.176
320.62	16.635
320.99	16.219
321.35	14.975
321.72	17.195
322.08	16.123
322.45	16.733
322.81	16.619
323.18	16.811
323.54	18.207
323.91	16.311
324.27	16.160
324.64	16.362
325.00	16.056
325.37	18.009
325.73	18.460
326.10	16.740
326.46	17.688
326.83	18.128
327.19	18.599
327.56	18.143
327.92	18.862
328.29	18.268
328.65	16.364
329.01	18.375
329.38	17.306
329.74	19.048
330.11	17.679
330.47	18.710
330.84	19.798
331.20	18.502
331.56	19.599
331.93	18.384
332.29	19.452
332.66	19.579
333.02	18.552
333.38	18.459
333.75	19.590
334.11	18.933
334.48	18.094
334.84	19.948
335.20	19.504
335.57	18.592
335.93	20.859
336.29	19.398
336.66	18.062
337.02	19.189
337.38	18.627
337.75	18.964
338.11	19.499
338.47	19.929
338.84	19.238
339.20	19.156
339.56	19.875
339.93	19.841
340.29	18.335
340.65	19.493
341.02	18.718
341.38	18.618
341.74	19.136
342.11	18.430
342.47	18.798
342.83	18.808
343.20	18.958
343.56	18.776
343.92	19.783
344.28	20.858
344.65	18.894
345.01	18.739
345.37	19.435
345.73	18.167
346.10	17.416
346.46	18.684
346.82	17.883
347.19	18.488
347.55	18.941
347.91	18.268
348.27	18.616
348.63	19.790
349.00	18.377
349.36	18.735
349.72	19.188
350.08	18.605
350.45	18.361
350.81	18.631
351.17	18.408
351.53	18.457
351.89	17.947
352.26	18.372
352.62	19.278
352.98	18.908
353.34	19.265
353.70	17.606
354.07	18.804
354.43	19.605
354.79	19.017
355.15	19.569
355.51	18.359
355.87	18.419
356.24	18.666
356.60	19.984
356.96	19.477
357.32	18.290
357.68	19.464
358.04	19.400
358.40	18.020
358.77	18.006
359.13	18.898
359.49	18.292
359.85	19.436
360.21	19.254
360.57	19.729
360.93	19.333
361.29	19.581
361.66	18.750
362.02	19.083
362.38	19.149
362.74	19.560
363.10	19.512
363.46	20.228
363.82	19.534
364.18	19.175
364.54	20.086
364.90	19.078
365.26	19.044
365.62	19.244
365.98	19.559
366.35	18.662
366.71	18.746
367.07	19.478
367.43	20.933
367.79	19.794
368.15	18.350
368.51	20.000
368.87	19.437
369.23	20.070
369.59	19.792
369.95	20.155
370.31	20.183
370.67	19.667
371.03	19.752
371.39	18.458
371.75	19.671
372.11	21.019
372.47	20.029
372.83	20.515
373.19	20.071
373.55	20.408
373.91	19.915
374.27	20.192
374.63	20.635
374.99	21.210
375.35	20.256
375.71	21.607
376.07	20.602
376.42	19.139
376.78	20.392
377.14	20.610
377.50	20.567
377.86	20.611
378.22	21.043
378.58	20.506
378.94	20.530
379.30	20.902
379.66	20.401
380.02	20.261
380.38	20.906
380.74	20.106
381.09	20.797
381.45	20.346
381.81	20.690
382.17	20.614
382.53	20.486
382.89	21.172
383.25	20.590
383.61	20.637
383.97	20.514
384.32	21.277
384.68	21.403
385.04	19.686
385.40	21.120
385.76	21.280
386.12	21.549
386.48	21.782
386.83	21.534
387.19	21.937
387.55	20.957
387.91	20.925
388.27	20.386
388.62	21.815
388.98	21.563
389.34	21.359
389.70	20.889
390.06	21.193
390.42	21.218
390.77	21.514
391.13	21.801
391.49	20.898
391.85	21.322
392.20	21.481
392.56	20.770
392.92	21.905
393.28	21.929
393.64	21.648
393.99	21.662
394.35	22.080
394.71	22.174
395.07	22.411
395.42	20.679
395.78	20.805
396.14	22.679
396.50	21.713
396.85	22.702
397.21	21.507
397.57	21.824
397.92	21.604
398.28	21.556
398.64	21.416
399.00	22.079
399.35	21.308
399.71	22.764
400.07	23.343
400.42	21.898
400.78	22.302
401.14	21.437
401.49	21.108
401.85	21.843
402.21	22.467
402.57	22.451
402.92	22.215
403.28	22.610
403.63	21.510
403.99	21.690
404.35	21.618
404.70	21.475
405.06	22.780
405.42	22.017
405.77	21.663
406.13	21.749
406.49	22.169
406.84	22.016
407.20	23.086
407.55	22.293
407.91	21.438
408.27	22.794
408.62	22.189
408.98	21.468
409.34	21.572
409.69	23.125
410.05	22.498
410.40	22.624
410.76	23.889
411.11	22.569
411.47	22.315
411.83	23.227
412.18	22.649
412.54	22.026
412.89	23.390
413.25	22.078
413.60	21.750
413.96	21.627
414.31	21.957
414.67	22.159
415.03	22.574
415.38	23.357
415.74	22.874
416.09	22.890
416.45	22.288
416.80	22.432
417.16	22.326
417.51	22.193
417.87	22.460
418.22	22.440
418.58	23.620
418.93	22.134
419.29	22.836
419.64	22.362
420.00	22.965
420.35	22.708
420.71	22.569
421.06	22.899
421.42	22.775
421.77	22.111
422.12	23.111
422.48	22.822
422.83	23.235
423.19	22.160
423.54	23.228
423.90	23.424
424.25	23.190
424.61	24.427
424.96	23.932
425.31	23.868
425.67	23.610
426.02	23.293
426.38	23.775
426.73	24.196
427.09	24.081
427.44	23.580
427.79	24.186
428.15	24.357
428.50	24.575
428.85	24.041
429.21	23.796
429.56	24.375
429.92	24.549
430.27	23.579
430.62	24.608
430.98	23.680
431.33	24.013
431.68	25.255
432.04	24.958
432.39	24.501
432.74	24.161
433.10	24.198
433.45	24.122
433.80	24.524
434.16	24.879
434.51	24.548
434.86	25.542
435.22	25.501
435.57	24.847
435.92	25.205
436.28	25.223
436.63	24.816
436.98	25.601
437.34	25.281
437.69	25.496
438.04	25.355
438.39	25.211
438.75	25.437
439.10	25.264
439.45	24.864
439.81	26.386
440.16	25.099
440.51	25.471
440.86	25.159
441.22	25.428
441.57	25.947
441.92	26.240
442.27	25.162
442.63	25.215
442.98	25.113
443.33	25.920
443.68	25.899
444.03	25.639
444.39	26.481
444.74	26.872
445.09	26.206
445.44	26.055
445.79	26.568
446.15	26.396
446.50	25.204
446.85	26.680
447.20	25.792
447.55	25.746
447.91	26.558
448.26	26.536
448.61	26.259
448.96	26.106
449.31	25.986
449.66	27.132
450.02	25.873
450.37	25.681
450.72	25.763
451.07	27.216
451.42	26.766
451.77	26.332
452.12	27.473
452.47	27.267
452.83	26.907
453.18	26.629
453.53	27.550
453.88	27.392
454.23	25.635
454.58	27.657
454.93	27.078
455.28	26.832
455.63	27.334
455.98	27.108
456.34	26.112
456.69	28.080
457.04	26.859
457.39	26.435
457.74	26.757
458.09	27.726
458.44	27.656
458.79	26.738
459.14	27.153
459.49	27.886
459.84	27.150
460.19	27.148
460.54	26.860
460.89	27.074
461.24	27.626
461.59	27.667
461.94	27.435
462.29	27.576
462.64	28.986
462.99	28.648
463.34	27.279
463.69	27.545
464.04	27.299
464.39	27.479
464.74	28.014
465.09	28.262
465.44	27.862
465.79	27.580
466.14	28.136
466.49	27.001
466.84	27.971
467.19	27.993
467.54	27.215
467.89	28.113
468.24	28.147
468.59	27.733
468.94	28.039
469.29	27.615
469.64	28.504
469.99	29.372
470.34	28.925
470.68	29.433
471.03	28.630
471.38	29.097
471.73	28.811
472.08	29.050
472.43	28.764
472.78	28.200
473.13	27.237
473.48	28.973
473.83	28.474
474.17	28.662
474.52	29.795
474.87	28.030
475.22	27.906
475.57	27.889
475.92	29.482
476.27	28.457
476.61	29.296
476.96	29.122
477.31	28.956
477.66	28.113
478.01	29.173
478.36	28.968
478.70	28.884
479.05	29.313
479.40	29.223
479.75	29.001
480.10	29.663
480.45	28.240
480.79	30.010
481.14	29.854
481.49	29.961
481.84	28.294
482.19	28.141
482.53	29.545
482.88	29.093
483.23	29.531
483.58	29.556
483.92	30.148
484.27	28.578
484.62	29.158
484.97	28.878
485.31	27.840
485.66	27.327
486.01	27.371
486.36	28.676
486.70	28.800
487.05	28.825
487.40	28.526
487.75	29.197
488.09	29.432
488.44	30.413
488.79	29.572
489.13	29.821
489.48	30.098
489.83	30.087
490.17	30.387
490.52	30.480
490.87	30.023
491.22	30.406
491.56	29.769
491.91	30.153
492.26	30.236
492.60	29.686
492.95	30.176
493.30	30.634
493.64	30.371
493.99	29.828
494.34	30.714
494.68	30.805
495.03	30.927
495.37	31.121
495.72	29.961
496.07	31.018
496.41	31.218
496.76	30.411
497.11	30.570
497.45	31.178
497.80	30.115
498.14	31.287
498.49	30.688
498.84	29.854
499.18	30.897
499.53	30.687
499.87	30.985
500.22	31.078
500.56	31.866
500.91	31.232
501.26	31.198
501.60	30.380
501.95	30.870
502.29	31.271
502.64	31.777
502.98	30.810
503.33	30.968
503.67	31.370
504.02	31.048
504.36	30.931
504.71	31.915
505.06	30.954
505.40	32.535
505.75	31.657
506.09	32.154
506.44	32.080
506.78	32.012
507.13	31.823
507.47	32.603
507.82	31.699
508.16	32.850
508.51	31.994
508.85	32.453
509.19	32.025
509.54	33.245
509.88	32.926
510.23	32.652
510.57	32.063
510.92	32.546
511.26	32.536
511.61	32.505
511.95	32.220
512.30	32.930
512.64	32.332
512.98	33.773
513.33	33.443
513.67	33.222
514.02	32.718
514.36	33.186
514.70	32.258
515.05	33.848
515.39	33.564
515.74	34.322
516.08	34.640
516.42	34.108
516.77	33.911
517.11	33.124
517.46	35.048
517.80	34.416
518.14	34.239
518.49	34.549
518.83	34.421
519.17	34.636
519.52	34.008
519.86	34.707
520.20	34.902
520.55	35.385
520.89	33.563
521.23	35.165
521.58	34.984
521.92	35.465
522.26	35.429
522.61	33.904
522.95	34.971
523.29	35.110
523.64	35.290
523.98	35.073
524.32	35.324
524.66	34.596
525.01	34.682
525.35	35.631
525.69	34.483
526.04	35.248
526.38	36.028
526.72	35.313
527.06	34.766
527.41	34.917
527.75	35.380
528.09	36.400
528.43	36.000
528.78	35.239
529.12	35.915
529.46	35.631
529.80	35.378
530.15	35.158
530.49	36.158
530.83	36.215
531.17	35.960
531.51	34.963
531.86	34.496
532.20	36.235
532.54	36.364
532.88	36.430
533.22	35.762
533.57	35.444
533.91	34.270
534.25	34.947
534.59	34.916
534.93	35.532
535.27	36.312
535.62	35.742
535.96	35.876
536.30	35.864
536.64	35.325
536.98	36.935
537.32	36.351
537.66	34.759
538.01	37.045
538.35	35.878
538.69	35.227
539.03	36.154
539.37	35.196
539.71	34.356
540.05	37.012
540.39	37.258
540.73	36.006
541.07	35.587
541.42	35.314
541.76	34.020
542.10	37.272
542.44	35.643
542.78	35.550
543.12	36.320
543.46	35.479
543.80	34.716
544.14	35.662
544.48	36.286
544.82	35.656
545.16	36.016
545.50	35.397
545.84	35.535
546.18	37.171
546.52	36.273
546.86	36.254
547.20	36.779
547.54	35.262
547.88	36.629
548.22	34.666
548.56	35.337
548.90	36.590
549.24	35.809
549.58	37.262
549.92	36.961
550.26	37.211
550.60	36.131
550.94	36.569
551.28	37.622
551.62	35.820
551.96	36.397
552.30	36.585
552.64	36.312
552.98	37.351
553.32	36.869
553.66	37.130
554.00	36.603
554.34	37.401
554.68	36.257
555.02	36.975
555.36	34.795
555.69	37.034
556.03	36.281
556.37	36.273
556.71	37.795
557.05	36.881
557.39	35.412
557.73	37.710
558.07	37.227
558.41	36.874
558.75	36.806
559.08	37.043
559.42	36.830
559.76	37.960
560.10	36.689
560.44	37.861
560.78	36.534
561.12	36.577
561.45	37.603
561.79	36.864
562.13	35.905
562.47	37.395
562.81	35.856
563.15	36.809
563.48	37.664
563.82	37.458
564.16	35.632
564.50	37.030
564.84	36.376
565.17	35.942
565.51	37.288
565.85	38.134
566.19	38.472
566.52	36.791
566.86	35.841
567.20	37.772
567.54	36.976
567.88	35.902
568.21	35.906
568.55	36.214
568.89	34.990
569.23	35.030
569.56	34.090
569.90	35.130
570.24	34.611
570.57	33.392
570.91	33.900
571.25	34.274
571.59	34.124
571.92	33.274
572.26	32.894
572.60	33.137
572.93	32.858
573.27	32.652
573.61	32.722
573.95	32.597
574.28	32.626
574.62	33.299
574.96	32.203
575.29	32.597
575.63	32.652
575.97	32.605
576.30	33.023
576.64	32.559
576.98	32.894
577.31	33.063
577.65	33.214
577.98	32.593
578.32	32.351
578.66	32.943
578.99	32.458
579.33	32.856
579.67	33.097
580.00	32.837
580.34	32.583
580.67	33.440
581.01	32.038
581.35	32.506
581.68	32.156
582.02	32.513
582.35	32.691
582.69	33.387
583.02	33.201
583.36	33.627
583.70	32.770
584.03	33.459
584.37	33.072
584.70	33.016
585.04	33.114
585.37	32.005
585.71	32.801
586.04	33.131
586.38	32.665
586.72	33.512
587.05	33.673
587.39	33.379
587.72	33.369
588.06	33.398
588.39	33.352
588.73	33.524
589.06	34.303
589.40	34.249
589.73	34.525
590.07	34.122
590.40	34.317
590.73	35.106
591.07	34.918
591.40	36.135
591.74	34.622
592.07	34.595
592.41	35.372
592.74	34.051
593.08	33.642
593.41	33.618
593.75	33.432
594.08	34.472
594.41	34.270
594.75	34.126
595.08	34.023
595.42	34.140
595.75	33.921
596.09	34.148
596.42	34.615
596.75	35.015
597.09	35.085
597.42	34.308
597.75	36.005
598.09	35.246
598.42	34.291
598.76	33.970
599.09	34.767
599.42	34.141
599.76	33.786
600.09	34.809
600.42	34.637
600.76	34.501
601.09	34.599
601.42	34.032
601.76	34.424
602.09	34.315
602.42	35.226
602.76	34.441
603.09	35.403
603.42	34.609
603.76	34.942
604.09	34.121
604.42	35.054
604.76	35.325
605.09	35.081
605.42	35.018
605.75	35.144
606.09	34.288
606.42	33.850
606.75	34.951
607.09	35.112
607.42	36.224
607.75	34.349
608.08	35.834
608.42	34.957
608.75	35.000
609.08	35.850
609.41	34.728
609.75	34.812
610.08	36.275
610.41	35.855
610.74	36.074
611.07	35.751
611.41	36.107
611.74	35.835
612.07	36.520
612.40	36.194
612.73	35.703
613.07	35.938
613.40	36.617
613.73	36.512
614.06	35.475
614.39	35.908
614.72	36.257
615.06	35.870
615.39	35.811
615.72	35.198
616.05	35.119
616.38	37.086
616.71	35.976
617.05	36.429
617.38	37.523
617.71	36.302
618.04	37.019
618.37	35.975
618.70	38.266
619.03	37.508
619.36	37.350
619.69	37.401
620.03	36.433
620.36	37.412
620.69	38.622
621.02	37.215
621.35	38.226
621.68	39.426
622.01	37.298
622.34	38.276
622.67	37.188
623.00	38.332
623.33	38.060
623.66	37.518
623.99	36.992
624.32	38.170
624.65	36.718
624.99	37.341
625.32	36.901
625.65	39.705
625.98	37.324
626.31	38.499
626.64	38.577
626.97	37.500
627.30	39.319
627.63	38.169
627.96	39.774
628.29	38.879
628.62	40.019
628.95	40.551
629.28	38.440
629.61	38.763
629.94	39.130
630.26	40.159
630.59	41.106
630.92	40.340
631.25	39.919
631.58	40.106
631.91	39.043
632.24	41.111
632.57	42.444
632.90	40.690
633.23	40.654
633.56	40.819
633.89	42.217
634.22	40.260
634.55	39.183
634.88	41.838
635.20	40.449
635.53	43.130
635.86	40.050
636.19	39.560
636.52	40.980
636.85	40.554
637.18	39.375
637.51	41.512
637.83	41.145
638.16	42.237
638.49	42.621
638.82	41.441
639.15	44.228
639.48	40.597
639.81	42.185
640.13	43.108
640.46	42.023
640.79	41.737
641.12	41.467
641.45	41.033
641.77	42.964
642.10	42.296
642.43	43.096
642.76	42.835
643.09	43.810
643.41	41.746
643.74	43.561
644.07	42.902
644.40	43.112
644.73	43.729
645.05	40.902
645.38	44.205
645.71	45.876
646.04	42.857
646.36	42.583
646.69	43.253
647.02	43.863
647.35	44.765
647.67	44.161
648.00	46.397
648.33	43.508
648.66	40.000
648.98	40.446
649.31	41.538
649.64	42.656
649.96	43.014
650.29	40.492
650.62	45.955
650.94	40.809
651.27	42.461
651.60	42.388
651.92	42.637
652.25	41.736
652.58	42.419
652.90	40.449
653.23	40.806
653.56	42.977
653.88	42.951
654.21	43.456
654.54	43.854
654.86	43.178
655.19	41.404
655.52	36.961
655.84	32.661
656.17	35.084
656.49	48.031
656.82	50.505
657.15	38.568
657.47	28.508
657.80	21.997
658.13	25.038
658.45	34.553
658.78	34.259
659.10	34.545
659.43	34.568
659.75	36.743
660.08	36.510
660.41	36.669
660.73	38.614
661.06	42.754
661.38	43.393
661.71	42.065
662.03	45.565
662.36	45.629
662.68	40.717
663.01	44.586
663.33	48.073
663.66	45.708
663.98	45.536
664.31	44.743
664.63	44.690
664.96	42.082
665.28	45.119
665.61	42.283
665.93	44.033
666.26	42.308
666.58	42.412
666.91	42.762
667.23	44.079
667.56	44.898
667.88	47.285
668.21	46.313
668.53	43.692
668.86	41.570
669.18	44.292
669.50	43.925
669.83	43.309
670.15	42.601
670.48	42.757
670.80	43.052
671.13	42.664
671.45	44.144
671.77	45.610
672.10	39.842
672.42	42.620
672.75	42.000
673.07	42.162
673.39	42.805
673.72	42.126
674.04	44.374
674.37	40.825
674.69	45.697
675.01	40.638
675.34	42.516
675.66	44.924
675.98	44.493
676.31	47.285
676.63	45.287
676.95	40.929
677.28	45.244
677.60	46.380
677.92	46.035
678.25	43.107
678.57	43.621
678.89	41.929
679.22	42.348
679.54	44.181
679.86	40.600
680.18	42.015
680.51	41.341
680.83	40.000
681.15	41.040
681.48	45.639
681.80	43.347
682.12	41.247
682.44	41.061
682.77	40.909
683.09	42.348
683.41	43.584
683.73	41.096
684.06	41.075
684.38	41.004
684.70	41.358
685.02	42.717
685.34	41.326
685.67	39.583
685.99	40.454
686.31	42.190
686.63	41.489
686.96	39.741
687.28	40.655
687.60	41.016
687.92	38.521
688.24	43.307
688.56	40.882
688.89	38.462
689.21	42.888
689.53	44.828
689.85	41.871
690.17	40.807
690.49	41.109
690.82	41.928
691.14	41.274
691.46	42.794
691.78	43.612
692.10	42.797
692.42	41.111
692.74	42.489
693.06	40.449
693.39	42.506
693.71	40.406
694.03	41.469
694.35	40.858
694.67	40.189
694.99	42.967
695.31	41.327
695.63	41.327
695.95	44.417
696.27	40.150
696.59	44.652
696.91	42.416
697.23	45.052
697.56	36.538
697.88	43.694
698.20	39.400
698.52	36.099
698.84	40.534
699.16	41.429
699.48	38.250
699.80	42.857
700.12	44.836
700.44	41.061
700.76	40.525
701.08	39.826
701.40	37.764
701.72	40.123
702.04	47.115
702.36	47.289
702.68	40.120
703.00	40.000
703.32	36.390
703.64	46.176
703.96	42.442
704.28	42.308
704.60	43.038
704.91	41.905
705.23	41.748
705.55	40.878
705.87	44.027
706.19	39.931
706.51	44.444
706.83	40.000
707.15	45.223
707.47	39.945
707.79	42.010
708.11	36.896
708.43	41.397
708.74	38.701
709.06	37.047
709.38	40.805
709.70	40.625
710.02	43.558
710.34	42.574
710.66	38.413
710.98	38.801
711.29	41.613
711.61	36.741
711.93	39.344
712.25	41.860
712.57	37.979
712.89	44.604
713.20	45.361
713.52	41.791
713.84	38.078
714.16	43.607
714.48	41.270
714.80	39.692
715.11	35.159
715.43	40.964
715.75	38.006
716.07	42.623
716.39	38.127
716.70	44.251
717.02	40.741
717.34	46.565
717.66	46.888
717.97	43.443
718.29	42.857
718.61	48.413
718.93	39.068
719.24	40.809
719.56	34.340
719.88	36.727
720.20	43.820
720.51	42.481
720.83	49.398
721.15	41.393
721.46	40.392
721.78	38.314
722.10	41.200
722.42	42.562
722.73	40.239
723.05	40.964
723.37	40.784
723.68	38.462
724.00	42.683
724.32	44.444
724.63	36.515
724.95	38.843
725.27	36.404
725.58	40.948
725.90	40.873
726.22	40.959
726.53	41.065
726.85	42.745
727.16	36.842
727.48	42.308
727.80	32.377
728.11	43.277
728.43	41.322
728.74	43.359
729.06	43.939
729.38	36.576
729.69	41.339
730.01	39.764
730.32	39.841
730.64	42.491
730.96	45.522
731.27	37.500
731.59	35.370
731.90	35.890
732.22	35.583
732.53	40.728
732.85	39.597
733.16	39.855
733.48	39.373
733.80	35.943
734.11	37.931
734.43	40.816
734.74	39.466
735.06	36.050
735.37	39.144
735.69	36.452
736.00	36.027
736.32	38.079
736.63	36.207
736.95	35.145
737.26	37.748
737.58	37.410
737.89	39.785
738.21	31.203
738.52	34.615
738.83	39.062
739.15	38.889
739.46	39.113
739.78	34.615
740.09	37.762
740.41	38.811
740.72	37.956
741.04	38.492
741.35	36.797
741.66	38.426
741.98	34.762
742.29	43.662
742.61	38.503
742.92	44.860
743.23	34.211
743.55	35.135
743.86	44.889
744.18	41.429
744.49	40.887
744.80	44.670
745.12	42.268
745.43	42.714
745.74	43.204
746.06	36.585
746.37	44.493
746.68	40.796
747.00	41.361
747.31	36.058
747.62	36.866
747.94	36.681
748.25	38.140
748.56	35.714
748.88	38.043
749.19	39.437
749.50	46.569
749.82	41.778
750.13	42.291
750.44	42.683
750.75	38.800
751.07	38.214
751.38	38.376
751.69	36.641
752.01	38.462
752.32	37.354
752.63	33.077
752.94	38.492
753.26	42.174
753.57	41.964
753.88	40.517
754.19	36.100
754.51	35.937
754.82	34.783
755.13	39.506
755.44	37.603
755.75	38.683
756.07	34.940
756.38	36.328
756.69	42.238
757.00	34.495
757.31	35.235
757.63	39.564
757.94	35.838
758.25	37.791
758.56	36.388
758.87	38.352
759.18	32.000
759.50	39.502
759.81	38.321
760.12	37.162
760.43	39.159
760.74	38.750
761.05	35.393
761.36	37.425
761.67	36.391
761.99	35.806
762.30	35.870
762.61	34.717
762.92	36.771
763.23	40.758
763.54	36.444
763.85	39.241
764.16	38.776
764.47	38.136
764.78	37.079
765.10	35.252
765.41	36.774
765.72	38.050
766.03	33.216
766.34	34.211
766.65	41.700
766.96	35.500
767.27	36.979
767.58	40.116
767.89	38.065
768.20	40.491
768.51	40.984
768.82	43.784
769.13	31.500
769.44	36.842
769.75	35.498
770.06	33.945
770.37	33.333
770.68	36.458
770.99	33.663
771.30	38.835
771.61	35.648
771.92	30.303
772.23	39.720
772.54	37.234
772.85	33.136
773.16	43.902
773.47	39.759
773.78	41.209
774.09	34.667
774.39	33.333
774.70	34.899
775.01	34.783
775.32	33.582
775.63	34.711
775.94	49.624
776.25	31.429
776.56	36.885
776.87	51.327
777.18	38.053
777.48	35.455
777.79	25.217
778.10	30.275
778.41	31.356
778.72	28.926
779.03	34.328
779.34	39.098
779.65	34.641
779.95	38.406
780.26	30.612
780.57	24.138
780.88	28.704
781.19	29.293
781.50	36.800
781.80	27.451
782.11	28.205
782.42	33.735
782.73	37.226
783.04	35.811
783.34	29.545
783.65	37.209
783.96	43.089
784.27	36.752
784.57	38.211
784.88	30.081
785.19	35.965
785.50	22.680
785.81	30.476
786.11	23.529
786.42	22.727
786.73	36.937
787.04	44.554
787.34	35.238
787.65	31.429
787.96	25.490
788.26	42.342
788.57	41.129
788.88	25.781
789.19	28.205
789.49	24.370
789.80	33.333
790.11	38.053
790.41	28.283
790.72	31.132
791.03	25.000
791.33	30.263
791.64	40.860
791.95	53.333
792.25	28.571
792.56	34.146
792.87	26.531
793.17	39.474
793.48	21.622
793.79	14.085
794.09	25.316
794.40	26.596
794.70	19.626
795.01	21.930
795.32	34.545
795.62	29.464
795.93	26.804
796.23	17.582
796.54	46.316
796.85	30.137
797.15	37.500
797.46	36.986
797.76	40.845
798.07	32.500
798.37	52.941
798.68	32.857
798.99	17.143
799.29	39.474
799.60	25.000
799.90	9.722
800.21	23.438
800.51	30.159
800.82	27.869
801.12	17.544
801.43	26.761
801.73	1.695
802.04	14.754
802.34	23.636
802.65	25.000
802.95	31.481
803.26	17.500
803.56	17.308
803.87	10.526
804.17	25.806
804.48	23.077
804.78	20.513
805.09	20.930
805.39	18.750
805.70	0.000
806.00	52.632
806.30	28.378
806.61	36.765
806.91	29.630
807.22	33.333
807.52	41.791
807.83	22.581
808.13	14.286
808.43	5.455
808.74	25.758
809.04	15.094
809.35	31.507
809.65	31.579
809.95	36.765
810.26	15.686
810.56	22.000
810.86	2.041
811.17	0.000
811.47	17.308
811.77	38.710
812.08	-34.211
812.38	21.429
812.69	23.913
812.99	64.516
813.29	11.905
813.59	-37.037
813.90	-2.128
814.20	-18.605
814.50	35.417
814.81	10.000
815.11	21.951
815.41	40.000
815.72	17.143
816.02	5.556
816.32	12.821
816.62	5.405
816.93	2.941
817.23	17.391
817.53	29.412
817.84	-8.824
818.14	12.500
818.44	-10.345
818.74	-29.032
819.04	-3.704
819.35	20.000
819.65	-12.000
819.95	-3.333
820.25	44.000
820.56	-2.632
820.86	0.000
821.16	10.638
821.46	17.241
821.76	0.000
822.07	0.000
822.37	-2.326
822.67	-23.333
822.97	-18.919
823.27	0.000
823.57	28.000
823.88	13.514
824.18	-33.333
824.48	7.692
824.78	-146.154
825.08	-13.043
825.38	16.667
825.69	12.500
825.99	-5.000
826.29	-8.108
826.59	-17.647
826.89	4.000
827.19	-2.857
827.49	31.579
827.79	-18.750
828.09	0.000
828.39	34.783
828.70	-34.483
829.00	31.034
829.30	5.556
829.60	53.125
829.90	5.556
830.20	-26.923
830.50	-66.667
830.80	-14.286
831.10	17.949
831.40	-38.095
831.70	2.941
832.00	16.667
832.30	0.000
832.60	-106.250
832.90	-66.667
833.20	-47.059
833.50	-53.333
833.80	-53.333
834.10	5.000
834.40	25.000
834.70	-16.667
835.00	0.000
835.30	-41.667
835.60	-3.448
835.90	-55.556
836.20	-136.364
836.50	-125.000
836.80	28.571
837.10	34.286
837.40	-41.176
837.70	-118.182
838.00	4.167
838.30	-56.250
838.60	-23.810
838.90	35.000
839.19	-21.739
839.49	-26.087
839.79	-22.222
840.09	-52.174
840.39	27.273
840.69	18.750
840.99	21.053
841.29	-62.500
841.59	14.286
841.88	11.111
842.18	8.333
842.48	-76.471
842.78	-10.345
843.08	-28.571
843.38	-38.462
843.68	-100.000
843.97	-130.769
844.27	-109.091
844.57	-100.000
844.87	-8.000
845.17	-140.000
845.47	-14.286
845.76	-111.111
846.06	0.000
846.36	-200.000
846.66	-120.000
846.96	-36.842
847.25	12.500
847.55	-58.333
847.85	46.667
848.15	-160.000
848.44	38.462
848.74	21.053
849.04	433.333
849.34	-55.556
849.63	-78.947
849.93	0.000
850.23	-35.000
850.53	-4.762
850.82	20.000
851.12	-47.368
851.42	-300.000
851.71	14.286
852.01	-33.333
852.31	-88.235
852.61	0.000
852.90	-4.762
853.20	-66.667
853.50	-16.667
853.79	-36.842
854.09	-60.000
854.39	7.143
854.68	-13.043
854.98	-191.667
855.28	13.793
855.57	-43.750
855.87	-10.000
856.17	-40.000
856.46	13.793
856.76	-40.000
857.05	-41.176
857.35	-161.538
857.65	-90.909
857.94	-37.037
858.24	-78.571
858.53	-71.429
858.83	-133.333
859.13	-88.889
859.42	19.048
859.72	-125.000
860.01	-266.667
860.31	-25.000
860.60	-500.000
860.90	-144.444
861.20	-162.500
861.49	-185.714
861.79	23.529
862.08	-750.000
862.38	-166.667
862.67	-84.615
862.97	-5.882
863.26	-10.000
863.56	-29.412
863.85	400.000
864.15	60.000
864.44	-123.077
864.74	-20.000
865.03	-275.000
865.33	-183.333
865.62	-47.059
865.92	-550.000
866.21	-71.429
866.51	-66.667
866.80	-300.000
867.10	-300.000
867.39	-11.765
867.69	-21.739
867.98	-28.571
868.27	-200.000
868.57	-62.500
868.86	-118.182
869.16	-52.941
869.45	-183.333
869.75	-328.571
870.04	1300.000
870.33	-16.667
870.63	-220.000
870.92	-111.111
871.22	-116.667
871.51	-172.727
871.80	-75.000
872.10	-30.000
>>>>>End Processed Spectral Data<<<<<
