SpectraSuite Data File
++++++++++++++++++++++++++++++++++++
Date: Sat May 16 11:17:25 PDT 2015
User: schluterlab
Dark Spectrum Present: Yes
Reference Spectrum Present: Yes
Number of Sampled Component Spectra: 1
Spectrometers: USB2E3373
Integration Time (usec): 3000 (USB2E3373)
Spectra Averaged: 3 (USB2E3373)
Boxcar Smoothing: 0 (USB2E3373)
Correct for Electrical Dark: No (USB2E3373)
Strobe/Lamp Enabled: No (USB2E3373)
Correct for Detector Non-linearity: No (USB2E3373)
Correct for Stray Light: No (USB2E3373)
Number of Pixels in Processed Spectrum: 2048
>>>>>Begin Processed Spectral Data<<<<<
178.53	0.000
178.91	80.000
179.29	333.333
179.67	-1400.000
180.04	15.385
180.42	1000.000
180.80	225.000
181.18	425.000
181.56	-100.000
181.94	-500.000
182.31	475.000
182.69	69.231
183.07	-366.667
183.45	1400.000
183.83	333.333
184.20	-185.714
184.58	12.500
184.96	-100.000
185.34	100.000
185.72	-400.000
186.09	33.333
186.47	-75.000
186.85	-150.000
187.23	50.000
187.61	-200.000
187.98	-237.500
188.36	-125.000
188.74	-37.500
189.12	1000.000
189.49	285.714
189.87	-16.667
190.25	125.000
190.63	0.000
191.00	-33.333
191.38	320.000
191.76	40.000
192.14	460.000
192.51	-100.000
192.89	-300.000
193.27	0.000
193.65	-155.556
194.02	-100.000
194.40	366.667
194.78	10.000
195.15	-1500.000
195.53	-118.182
195.91	-300.000
196.29	20.000
196.66	-466.667
197.04	2600.000
197.42	-350.000
197.79	60.000
198.17	-300.000
198.55	-600.000
198.92	-900.000
199.30	212.500
199.68	-300.000
200.05	-111.111
200.43	-111.111
200.81	-1200.000
201.18	-83.333
201.56	157.143
201.94	-73.333
202.31	81.818
202.69	30.000
203.07	-100.000
203.44	466.667
203.82	-200.000
204.19	-275.000
204.57	-75.000
204.95	-1700.000
205.32	-12.500
205.70	300.000
206.08	-1500.000
206.45	-16.667
206.83	-1100.000
207.20	350.000
207.58	-866.667
207.96	-433.333
208.33	-100.000
208.71	-122.222
209.08	80.000
209.46	-28.571
209.84	750.000
210.21	0.000
210.59	45.000
210.96	100.000
211.34	-83.333
211.71	0.000
212.09	275.000
212.46	950.000
212.84	-1600.000
213.22	600.000
213.59	75.000
213.97	44.444
214.34	110.000
214.72	-120.000
215.09	-266.667
215.47	-250.000
215.84	-70.000
216.22	-90.000
216.59	33.333
216.97	-225.000
217.34	650.000
217.72	-157.143
218.09	-216.667
218.47	-171.429
218.84	-28.571
219.22	85.714
219.59	0.000
219.97	200.000
220.34	225.000
220.72	87.500
221.09	-46.154
221.47	0.000
221.84	466.667
222.22	-300.000
222.59	-0.000
222.97	-112.500
223.34	-800.000
223.72	100.000
224.09	-85.714
224.46	-400.000
224.84	-57.143
225.21	-128.571
225.59	-63.636
225.96	-250.000
226.34	100.000
226.71	-200.000
227.08	55.000
227.46	800.000
227.83	57.143
228.21	-162.500
228.58	550.000
228.95	18.750
229.33	-800.000
229.70	-200.000
230.08	-800.000
230.45	-25.000
230.82	150.000
231.20	-600.000
231.57	-600.000
231.95	1900.000
232.32	90.476
232.69	-66.667
233.07	-71.429
233.44	-1050.000
233.81	-13.333
234.19	-88.889
234.56	-6.250
234.93	21.875
235.31	-171.429
235.68	-142.857
236.05	-88.235
236.43	-31.818
236.80	-12.903
237.17	25.000
237.55	-42.857
237.92	-68.182
238.29	-14.286
238.67	5.882
239.04	16.667
239.41	-35.484
239.79	-25.641
240.16	-26.190
240.53	-9.091
240.91	-12.821
241.28	14.545
241.65	3.077
242.02	-8.197
242.40	-4.918
242.77	12.121
243.14	-22.034
243.51	-15.714
243.89	0.000
244.26	-1.124
244.63	12.632
245.00	8.421
245.38	3.390
245.75	7.080
246.12	4.800
246.49	5.512
246.87	0.813
247.24	0.000
247.61	-1.695
247.98	8.451
248.36	4.196
248.73	1.266
249.10	-3.185
249.47	8.772
249.84	6.818
250.22	0.595
250.59	7.345
250.96	2.094
251.33	8.057
251.70	2.404
252.08	4.265
252.45	6.635
252.82	2.857
253.19	5.106
253.56	6.855
253.94	5.063
254.31	3.863
254.68	6.504
255.05	7.661
255.42	5.952
255.79	5.735
256.16	5.098
256.54	10.662
256.91	9.091
257.28	6.227
257.65	3.546
258.02	11.635
258.39	9.699
258.76	3.041
259.14	7.716
259.51	5.902
259.88	6.098
260.25	6.522
260.62	6.109
260.99	5.935
261.36	9.146
261.73	10.116
262.10	10.833
262.47	9.402
262.85	9.429
263.22	10.029
263.59	8.923
263.96	8.406
264.33	9.485
264.70	10.221
265.07	7.418
265.44	8.010
265.81	9.302
266.18	9.114
266.55	10.049
266.92	9.320
267.29	7.022
267.66	7.407
268.03	10.870
268.40	10.094
268.77	9.639
269.14	8.817
269.51	9.655
269.88	5.734
270.25	8.392
270.62	6.407
270.99	10.135
271.36	9.557
271.73	7.623
272.10	8.924
272.47	7.333
272.84	9.778
273.21	10.780
273.58	8.132
273.95	6.798
274.32	7.240
274.69	10.503
275.06	10.429
275.43	6.920
275.80	11.405
276.17	9.414
276.54	10.794
276.91	8.848
277.28	11.765
277.65	7.851
278.02	7.307
278.39	9.234
278.76	7.570
279.13	8.696
279.50	8.549
279.87	7.822
280.23	8.907
280.60	9.742
280.97	7.767
281.34	6.576
281.71	7.692
282.08	10.484
282.45	7.536
282.82	9.884
283.19	8.182
283.56	11.538
283.92	8.834
284.29	9.108
284.66	8.273
285.03	8.734
285.40	10.886
285.77	9.825
286.14	9.747
286.51	7.460
286.87	9.074
287.24	11.945
287.61	8.099
287.98	6.239
288.35	7.107
288.72	8.829
289.08	6.780
289.45	7.744
289.82	7.093
290.19	9.852
290.56	7.769
290.93	8.903
291.29	8.914
291.66	8.374
292.03	8.477
292.40	8.886
292.77	7.298
293.13	10.081
293.50	9.064
293.87	8.129
294.24	7.843
294.60	7.727
294.97	10.319
295.34	9.185
295.71	9.077
296.08	7.680
296.44	6.724
296.81	7.407
297.18	6.338
297.55	10.876
297.91	9.344
298.28	7.671
298.65	7.531
299.02	8.289
299.38	8.422
299.75	8.152
300.12	7.949
300.48	10.358
300.85	8.650
301.22	7.633
301.59	9.233
301.95	10.076
302.32	5.606
302.69	8.201
303.05	8.547
303.42	7.875
303.79	8.971
304.15	8.531
304.52	8.168
304.89	8.619
305.25	6.960
305.62	9.166
305.99	9.776
306.35	8.657
306.72	8.542
307.09	9.421
307.45	9.308
307.82	8.603
308.19	7.494
308.55	7.734
308.92	7.519
309.29	8.757
309.65	6.893
310.02	7.775
310.38	7.784
310.75	7.582
311.12	7.851
311.48	8.977
311.85	8.136
312.22	9.063
312.58	9.868
312.95	8.869
313.31	8.492
313.68	9.548
314.05	8.111
314.41	7.646
314.78	7.393
315.14	8.786
315.51	8.207
315.87	7.067
316.24	8.066
316.61	7.678
316.97	8.358
317.34	8.189
317.70	7.885
318.07	8.862
318.43	8.708
318.80	9.390
319.16	7.223
319.53	8.083
319.89	8.184
320.26	8.431
320.62	7.692
320.99	8.657
321.35	6.798
321.72	6.755
322.08	8.408
322.45	7.129
322.81	6.820
323.18	9.606
323.54	9.335
323.91	8.804
324.27	8.460
324.64	7.861
325.00	8.988
325.37	8.326
325.73	9.449
326.10	6.820
326.46	8.144
326.83	7.830
327.19	8.424
327.56	8.773
327.92	8.496
328.29	9.004
328.65	8.455
329.01	7.951
329.38	8.385
329.74	9.615
330.11	7.616
330.47	7.902
330.84	9.441
331.20	8.574
331.56	8.478
331.93	8.437
332.29	9.589
332.66	8.516
333.02	8.597
333.38	9.140
333.75	8.638
334.11	9.244
334.48	8.297
334.84	10.324
335.20	9.663
335.57	9.296
335.93	10.474
336.29	9.035
336.66	8.194
337.02	9.459
337.38	8.378
337.75	9.833
338.11	9.571
338.47	9.875
338.84	9.256
339.20	9.490
339.56	10.071
339.93	8.995
340.29	8.857
340.65	8.916
341.02	7.841
341.38	9.688
341.74	9.738
342.11	9.130
342.47	8.841
342.83	8.396
343.20	9.564
343.56	9.551
343.92	9.516
344.28	9.420
344.65	8.911
345.01	8.739
345.37	10.465
345.73	9.002
346.10	8.831
346.46	9.504
346.82	7.939
347.19	9.532
347.55	9.631
347.91	10.079
348.27	8.433
348.63	9.935
349.00	8.990
349.36	7.884
349.72	10.589
350.08	8.982
350.45	9.614
350.81	10.111
351.17	8.762
351.53	8.512
351.89	8.731
352.26	10.310
352.62	10.676
352.98	8.703
353.34	8.873
353.70	9.575
354.07	9.363
354.43	10.119
354.79	9.509
355.15	9.425
355.51	8.516
355.87	8.538
356.24	9.055
356.60	10.153
356.96	9.315
357.32	9.105
357.68	9.732
358.04	9.777
358.40	9.899
358.77	9.892
359.13	9.181
359.49	8.768
359.85	9.985
360.21	9.665
360.57	9.639
360.93	10.296
361.29	9.716
361.66	9.375
362.02	9.467
362.38	9.171
362.74	8.718
363.10	9.182
363.46	9.687
363.82	9.329
364.18	10.492
364.54	9.650
364.90	8.735
365.26	9.558
365.62	9.694
365.98	10.100
366.35	9.859
366.71	9.020
367.07	9.104
367.43	9.746
367.79	10.447
368.15	9.886
368.51	10.210
368.87	10.577
369.23	10.526
369.59	10.278
369.95	10.289
370.31	9.986
370.67	9.834
371.03	9.694
371.39	8.911
371.75	9.800
372.11	10.976
372.47	9.328
372.83	10.223
373.19	9.643
373.55	11.260
373.91	10.171
374.27	10.335
374.63	10.214
374.99	10.709
375.35	10.296
375.71	10.939
376.07	10.815
376.42	9.536
376.78	10.588
377.14	10.237
377.50	10.638
377.86	10.338
378.22	10.364
378.58	9.697
378.94	10.604
379.30	11.335
379.66	10.747
380.02	9.804
380.38	10.937
380.74	10.668
381.09	11.482
381.45	11.277
381.81	10.950
382.17	10.464
382.53	10.334
382.89	10.885
383.25	11.198
383.61	10.377
383.97	11.023
384.32	11.702
384.68	11.669
385.04	10.870
385.40	10.043
385.76	10.915
386.12	11.305
386.48	11.200
386.83	11.534
387.19	11.237
387.55	11.387
387.91	11.085
388.27	10.374
388.62	11.358
388.98	10.600
389.34	11.261
389.70	11.145
390.06	10.503
390.42	11.923
390.77	11.104
391.13	12.236
391.49	11.291
391.85	11.284
392.20	11.104
392.56	10.751
392.92	11.409
393.28	12.227
393.64	11.365
393.99	11.077
394.35	12.287
394.71	10.624
395.07	12.680
395.42	10.727
395.78	10.748
396.14	12.150
396.50	11.437
396.85	11.351
397.21	11.908
397.57	11.733
397.92	11.710
398.28	11.944
398.64	12.017
399.00	12.247
399.35	11.274
399.71	11.847
400.07	11.582
400.42	11.740
400.78	11.091
401.14	11.796
401.49	11.733
401.85	11.348
402.21	12.098
402.57	11.954
402.92	11.894
403.28	11.213
403.63	11.264
403.99	12.057
404.35	11.171
404.70	12.171
405.06	12.630
405.42	10.824
405.77	11.369
406.13	11.868
406.49	11.324
406.84	10.918
407.20	11.896
407.55	11.083
407.91	11.528
408.27	12.806
408.62	11.545
408.98	12.250
409.34	11.578
409.69	11.972
410.05	10.734
410.40	11.895
410.76	12.152
411.11	11.845
411.47	12.276
411.83	12.469
412.18	10.705
412.54	11.287
412.89	11.482
413.25	11.452
413.60	10.996
413.96	11.645
414.31	11.376
414.67	11.492
415.03	12.484
415.38	11.646
415.74	11.534
416.09	11.381
416.45	10.384
416.80	11.508
417.16	12.093
417.51	12.278
417.87	11.327
418.22	11.441
418.58	12.195
418.93	11.404
419.29	11.982
419.64	12.312
420.00	12.454
420.35	12.064
420.71	11.945
421.06	12.367
421.42	10.714
421.77	11.614
422.12	11.807
422.48	12.079
422.83	12.187
423.19	11.748
423.54	12.046
423.90	11.857
424.25	12.387
424.61	12.244
424.96	12.580
425.31	12.409
425.67	11.691
426.02	11.589
426.38	12.946
426.73	11.981
427.09	12.500
427.44	12.614
427.79	12.035
428.15	12.687
428.50	12.669
428.85	12.350
429.21	11.345
429.56	11.927
429.92	12.325
430.27	12.313
430.62	12.957
430.98	12.389
431.33	12.113
431.68	12.386
432.04	12.647
432.39	12.707
432.74	12.110
433.10	12.493
433.45	11.802
433.80	12.374
434.16	12.520
434.51	12.329
434.86	13.240
435.22	11.860
435.57	12.056
435.92	12.837
436.28	12.404
436.63	12.154
436.98	12.371
437.34	12.995
437.69	12.894
438.04	12.762
438.39	13.418
438.75	12.573
439.10	12.604
439.45	12.191
439.81	12.229
440.16	12.663
440.51	12.706
440.86	12.724
441.22	12.327
441.57	12.421
441.92	12.072
442.27	12.284
442.63	12.554
442.98	12.190
443.33	12.795
443.68	12.038
444.03	12.328
444.39	12.922
444.74	12.390
445.09	12.336
445.44	13.393
445.79	12.443
446.15	13.198
446.50	12.085
446.85	12.827
447.20	13.075
447.55	12.983
447.91	12.746
448.26	12.793
448.61	12.168
448.96	13.333
449.31	12.740
449.66	12.707
450.02	12.410
450.37	12.580
450.72	12.542
451.07	13.011
451.42	12.206
451.77	13.345
452.12	12.396
452.47	13.224
452.83	12.871
453.18	13.915
453.53	12.749
453.88	12.679
454.23	11.971
454.58	13.673
454.93	13.035
455.28	12.237
455.63	13.084
455.98	13.313
456.34	12.516
456.69	13.508
457.04	12.846
457.39	13.278
457.74	13.113
458.09	13.225
458.44	13.799
458.79	12.892
459.14	12.550
459.49	13.677
459.84	12.760
460.19	12.709
460.54	13.551
460.89	12.668
461.24	13.722
461.59	13.306
461.94	12.985
462.29	13.818
462.64	13.175
462.99	12.851
463.34	12.897
463.69	13.422
464.04	12.419
464.39	12.545
464.74	14.421
465.09	12.989
465.44	13.254
465.79	14.157
466.14	13.521
466.49	12.263
466.84	13.385
467.19	13.342
467.54	12.975
467.89	13.132
468.24	13.064
468.59	13.242
468.94	13.183
469.29	12.930
469.64	13.342
469.99	14.585
470.34	14.295
470.68	14.099
471.03	13.765
471.38	12.639
471.73	13.497
472.08	13.119
472.43	13.578
472.78	13.800
473.13	12.525
473.48	13.465
473.83	13.648
474.17	13.631
474.52	15.090
474.87	13.753
475.22	13.215
475.57	12.778
475.92	14.201
476.27	13.600
476.61	13.465
476.96	14.198
477.31	14.047
477.66	13.448
478.01	14.046
478.36	14.877
478.70	14.042
479.05	14.062
479.40	14.041
479.75	13.965
480.10	13.492
480.45	13.733
480.79	14.265
481.14	13.949
481.49	13.988
481.84	14.424
482.19	14.710
482.53	14.489
482.88	14.048
483.23	14.742
483.58	14.524
483.92	13.903
484.27	13.691
484.62	13.607
484.97	13.523
485.31	13.152
485.66	13.549
486.01	13.272
486.36	13.765
486.70	14.236
487.05	13.792
487.40	14.049
487.75	13.616
488.09	13.156
488.44	14.208
488.79	13.796
489.13	14.150
489.48	14.723
489.83	14.192
490.17	14.062
490.52	14.176
490.87	13.764
491.22	14.526
491.56	14.306
491.91	14.790
492.26	14.057
492.60	13.463
492.95	14.422
493.30	14.817
493.64	14.339
493.99	14.149
494.34	14.238
494.68	14.934
495.03	14.723
495.37	13.913
495.72	13.949
496.07	14.313
496.41	15.053
496.76	14.292
497.11	14.649
497.45	14.655
497.80	13.857
498.14	14.538
498.49	14.515
498.84	14.563
499.18	15.595
499.53	14.613
499.87	14.044
500.22	14.853
500.56	14.607
500.91	15.320
501.26	15.041
501.60	14.829
501.95	14.638
502.29	14.832
502.64	14.663
502.98	14.902
503.33	14.286
503.67	14.607
504.02	14.679
504.36	14.363
504.71	14.640
505.06	14.678
505.40	15.569
505.75	15.600
506.09	14.712
506.44	15.188
506.78	15.354
507.13	15.294
507.47	15.597
507.82	15.075
508.16	15.130
508.51	14.529
508.85	15.528
509.19	14.547
509.54	15.592
509.88	15.372
510.23	15.671
510.57	16.243
510.92	15.789
511.26	15.577
511.61	15.281
511.95	15.733
512.30	15.283
512.64	15.415
512.98	16.007
513.33	15.596
513.67	15.745
514.02	15.213
514.36	15.956
514.70	16.016
515.05	16.238
515.39	15.975
515.74	16.754
516.08	16.427
516.42	16.317
516.77	16.869
517.11	16.819
517.46	15.909
517.80	16.306
518.14	16.304
518.49	16.079
518.83	16.439
519.17	15.986
519.52	16.831
519.86	16.726
520.20	16.687
520.55	16.062
520.89	16.281
521.23	18.254
521.58	17.116
521.92	18.239
522.26	17.524
522.61	16.920
522.95	16.209
523.29	16.740
523.64	16.427
523.98	17.059
524.32	17.159
524.66	16.708
525.01	16.121
525.35	16.881
525.69	16.786
526.04	17.755
526.38	16.932
526.72	16.858
527.06	17.839
527.41	17.030
527.75	17.228
528.09	16.810
528.43	16.721
528.78	17.525
529.12	17.414
529.46	16.881
529.80	17.495
530.15	17.708
530.49	16.818
530.83	18.140
531.17	17.306
531.51	17.482
531.86	18.236
532.20	17.409
532.54	17.112
532.88	17.852
533.22	17.848
533.57	18.342
533.91	16.167
534.25	16.656
534.59	16.677
534.93	16.553
535.27	16.740
535.62	17.967
535.96	17.582
536.30	16.819
536.64	17.928
536.98	18.715
537.32	17.623
537.66	17.379
538.01	16.976
538.35	17.432
538.69	17.380
539.03	17.671
539.37	18.031
539.71	17.478
540.05	17.478
540.39	18.075
540.73	18.106
541.07	17.896
541.42	16.813
541.76	17.542
542.10	18.096
542.44	18.854
542.78	18.250
543.12	17.855
543.46	15.822
543.80	16.321
544.14	17.529
544.48	18.766
544.82	18.200
545.16	17.840
545.50	16.083
545.84	16.968
546.18	18.377
546.52	18.421
546.86	17.379
547.20	17.440
547.54	16.873
547.88	17.916
548.22	16.252
548.56	16.633
548.90	17.318
549.24	17.029
549.58	17.078
549.92	17.951
550.26	19.003
550.60	17.639
550.94	17.372
551.28	17.908
551.62	17.651
551.96	17.511
552.30	17.003
552.64	16.819
552.98	17.870
553.32	16.811
553.66	17.880
554.00	17.839
554.34	17.256
554.68	18.202
555.02	18.234
555.36	17.613
555.69	17.550
556.03	17.754
556.37	17.710
556.71	17.895
557.05	17.664
557.39	17.966
557.73	18.673
558.07	17.558
558.41	17.651
558.75	17.871
559.08	16.809
559.42	17.994
559.76	18.635
560.10	18.568
560.44	17.919
560.78	17.328
561.12	17.736
561.45	18.288
561.79	17.282
562.13	16.830
562.47	17.157
562.81	17.680
563.15	17.915
563.48	17.830
563.82	17.647
564.16	17.241
564.50	17.608
564.84	17.460
565.17	17.507
565.51	17.340
565.85	18.120
566.19	17.984
566.52	17.939
566.86	17.636
567.20	18.160
567.54	18.252
567.88	16.918
568.21	17.729
568.55	16.808
568.89	16.799
569.23	17.029
569.56	16.688
569.90	16.719
570.24	16.836
570.57	16.063
570.91	15.811
571.25	16.634
571.59	15.829
571.92	16.548
572.26	16.627
572.60	16.382
572.93	15.887
573.27	15.793
573.61	15.629
573.95	16.126
574.28	16.002
574.62	16.116
574.96	15.753
575.29	15.701
575.63	16.220
575.97	15.804
576.30	15.840
576.64	16.057
576.98	15.725
577.31	16.019
577.65	15.835
577.98	15.902
578.32	15.870
578.66	15.786
578.99	15.787
579.33	15.499
579.67	15.851
580.00	15.650
580.34	15.802
580.67	15.519
581.01	15.494
581.35	15.569
581.68	15.592
582.02	15.917
582.35	15.524
582.69	15.798
583.02	16.202
583.36	15.729
583.70	15.975
584.03	16.433
584.37	15.751
584.70	15.623
585.04	15.544
585.37	15.609
585.71	16.038
586.04	15.704
586.38	15.958
586.72	16.263
587.05	16.029
587.39	15.406
587.72	15.981
588.06	15.763
588.39	15.750
588.73	15.691
589.06	16.113
589.40	16.214
589.73	16.466
590.07	15.732
590.40	16.494
590.73	16.393
591.07	16.311
591.40	16.291
591.74	16.377
592.07	16.441
592.41	17.197
592.74	16.218
593.08	16.375
593.41	15.888
593.75	15.595
594.08	15.780
594.41	16.821
594.75	16.270
595.08	16.353
595.42	15.607
595.75	16.759
596.09	16.104
596.42	16.776
596.75	16.085
597.09	16.741
597.42	15.932
597.75	16.076
598.09	16.674
598.42	16.483
598.76	16.030
599.09	15.746
599.42	16.109
599.76	16.119
600.09	16.260
600.42	16.255
600.76	16.347
601.09	15.344
601.42	16.146
601.76	16.394
602.09	16.564
602.42	15.720
602.76	15.455
603.09	15.968
603.42	16.116
603.76	16.035
604.09	16.059
604.42	16.320
604.76	16.790
605.09	16.772
605.42	17.021
605.75	16.343
606.09	16.978
606.42	16.129
606.75	16.058
607.09	16.542
607.42	16.109
607.75	15.541
608.08	17.533
608.42	16.367
608.75	16.402
609.08	16.269
609.41	16.492
609.75	16.675
610.08	17.157
610.41	16.434
610.74	16.925
611.07	16.684
611.41	15.431
611.74	17.326
612.07	16.864
612.40	17.271
612.73	16.747
613.07	16.236
613.40	17.898
613.73	16.294
614.06	16.255
614.39	17.024
614.72	15.698
615.06	16.033
615.39	15.952
615.72	16.839
616.05	16.400
616.38	16.715
616.71	16.517
617.05	16.586
617.38	17.214
617.71	15.909
618.04	16.646
618.37	16.730
618.70	17.601
619.03	17.739
619.36	17.548
619.69	17.516
620.03	16.736
620.36	17.722
620.69	17.803
621.02	16.819
621.35	16.613
621.68	16.885
622.01	17.233
622.34	17.236
622.67	17.422
623.00	17.445
623.33	17.090
623.66	16.322
623.99	16.241
624.32	17.113
624.65	16.409
624.99	16.953
625.32	17.665
625.65	17.405
625.98	16.588
626.31	17.781
626.64	18.159
626.97	17.808
627.30	17.277
627.63	17.358
627.96	18.625
628.29	16.728
628.62	16.619
628.95	17.618
629.28	17.669
629.61	16.879
629.94	17.486
630.26	18.191
630.59	18.693
630.92	17.918
631.25	18.145
631.58	17.778
631.91	16.277
632.24	17.889
632.57	17.667
632.90	18.276
633.23	19.159
633.56	17.778
633.89	17.807
634.22	17.828
634.55	18.389
634.88	16.324
635.20	16.355
635.53	18.575
635.86	17.254
636.19	16.606
636.52	17.802
636.85	17.208
637.18	16.500
637.51	19.083
637.83	17.177
638.16	17.763
638.49	17.931
638.82	18.404
639.15	18.677
639.48	16.991
639.81	18.811
640.13	20.811
640.46	18.234
640.79	19.888
641.12	17.630
641.45	17.791
641.77	16.617
642.10	18.580
642.43	19.272
642.76	16.693
643.09	19.048
643.41	19.524
643.74	19.714
644.07	19.033
644.40	18.476
644.73	21.122
645.05	16.361
645.38	20.199
645.71	21.649
646.04	20.168
646.36	16.056
646.69	19.550
647.02	20.939
647.35	19.675
647.67	19.343
648.00	21.090
648.33	21.248
648.66	18.065
648.98	18.312
649.31	18.462
649.64	18.438
649.96	18.524
650.29	18.033
650.62	20.654
650.94	19.056
651.27	16.984
651.60	19.550
651.92	19.692
652.25	18.865
652.58	18.228
652.90	18.459
653.23	17.903
653.56	19.900
653.88	18.689
654.21	18.960
654.54	19.601
654.86	18.780
655.19	18.481
655.52	17.309
655.84	14.828
656.17	15.798
656.49	21.670
656.82	22.488
657.15	17.116
657.47	12.833
657.80	9.650
658.13	11.474
658.45	15.277
658.78	15.253
659.10	15.467
659.43	15.524
659.75	16.050
660.08	16.302
660.41	17.093
660.73	16.942
661.06	18.841
661.38	19.643
661.71	18.738
662.03	20.968
662.36	20.896
662.68	21.308
663.01	19.745
663.33	19.955
663.66	19.528
663.98	16.295
664.31	18.792
664.63	23.009
664.96	18.438
665.28	18.438
665.61	18.605
665.93	20.782
666.26	18.623
666.58	17.256
666.91	18.040
667.23	19.079
667.56	18.594
667.88	18.326
668.21	17.972
668.53	18.692
668.86	20.092
669.18	18.950
669.50	18.692
669.83	18.005
670.15	17.040
670.48	16.355
670.80	17.084
671.13	19.187
671.45	16.216
671.77	16.488
672.10	17.949
672.42	18.266
672.75	16.364
673.07	18.378
673.39	18.033
673.72	18.898
674.04	18.684
674.37	17.526
674.69	18.648
675.01	17.660
675.34	17.354
675.66	19.438
675.98	17.621
676.31	17.195
676.63	19.540
676.95	16.372
677.28	17.865
677.60	17.873
677.92	18.722
678.25	18.162
678.57	20.370
678.89	17.820
679.22	16.771
679.54	19.921
679.86	17.600
680.18	16.730
680.51	14.711
680.83	17.143
681.15	18.690
681.48	18.458
681.80	19.153
682.12	15.493
682.44	17.878
682.77	16.017
683.09	21.803
683.41	16.593
683.73	18.721
684.06	15.699
684.38	19.665
684.70	15.638
685.02	18.898
685.34	15.789
685.67	14.205
685.99	16.068
686.31	16.158
686.63	18.085
686.96	17.190
687.28	15.222
687.60	16.992
687.92	14.397
688.24	16.339
688.56	17.435
688.89	19.872
689.21	18.162
689.53	18.161
689.85	16.258
690.17	17.040
690.49	16.166
690.82	16.867
691.14	17.217
691.46	19.956
691.78	18.062
692.10	19.492
692.42	16.222
692.74	17.597
693.06	16.404
693.39	17.450
693.71	17.607
694.03	15.551
694.35	16.027
694.67	15.366
694.99	14.834
695.31	18.112
695.63	15.816
695.95	18.114
696.27	19.701
696.59	20.053
696.91	15.730
697.23	15.885
697.56	18.029
697.88	16.441
698.20	15.846
698.52	15.022
698.84	19.417
699.16	17.143
699.48	16.750
699.80	16.541
700.12	19.395
700.44	15.922
700.76	13.703
701.08	17.442
701.40	13.595
701.72	19.444
702.04	20.192
702.36	20.181
702.68	15.868
703.00	13.623
703.32	14.327
703.64	20.588
703.96	16.860
704.28	18.047
704.60	15.190
704.91	15.556
705.23	21.683
705.55	14.865
705.87	19.113
706.19	19.444
706.51	15.625
706.83	17.705
707.15	17.516
707.47	17.080
707.79	19.330
708.11	15.267
708.43	19.950
708.74	15.065
709.06	14.763
709.38	17.241
709.70	14.687
710.02	16.258
710.34	13.861
710.66	17.143
710.98	15.457
711.29	13.871
711.61	13.419
711.93	15.410
712.25	17.940
712.57	19.164
712.89	15.827
713.20	21.306
713.52	14.552
713.84	17.438
714.16	17.705
714.48	15.556
714.80	15.385
715.11	17.579
715.43	16.566
715.75	19.315
716.07	14.098
716.39	17.726
716.70	19.164
717.02	18.519
717.34	17.557
717.66	19.087
717.97	16.393
718.29	17.227
718.61	15.079
718.93	17.921
719.24	15.441
719.56	13.962
719.88	14.909
720.20	15.356
720.51	19.173
720.83	16.064
721.15	16.803
721.46	21.569
721.78	17.241
722.10	24.800
722.42	15.289
722.73	16.335
723.05	17.671
723.37	14.118
723.68	17.814
724.00	20.732
724.32	20.988
724.63	17.012
724.95	15.289
725.27	18.860
725.58	14.224
725.90	16.667
726.22	19.926
726.53	15.209
726.85	12.157
727.16	18.421
727.48	13.846
727.80	15.574
728.11	12.605
728.43	20.661
728.74	21.875
729.06	17.424
729.38	15.564
729.69	14.961
730.01	13.780
730.32	15.936
730.64	15.018
730.96	19.030
731.27	17.143
731.59	17.685
731.90	17.178
732.22	16.564
732.53	17.550
732.85	18.121
733.16	11.957
733.48	14.286
733.80	14.591
734.11	15.517
734.43	19.388
734.74	15.134
735.06	16.614
735.37	18.043
735.69	15.161
736.00	13.805
736.32	16.225
736.63	10.345
736.95	13.043
737.26	15.563
737.58	15.468
737.89	18.996
738.21	10.150
738.52	12.692
738.83	19.531
739.15	19.658
739.46	16.532
739.78	15.385
740.09	16.084
740.41	16.434
740.72	17.518
741.04	14.286
741.35	11.255
741.66	18.056
741.98	13.333
742.29	15.493
742.61	12.299
742.92	18.692
743.23	14.474
743.55	18.468
743.86	22.222
744.18	10.952
744.49	14.778
744.80	17.766
745.12	18.557
745.43	19.598
745.74	16.505
746.06	15.122
746.37	18.062
746.68	18.408
747.00	14.660
747.31	19.231
747.62	15.668
747.94	16.157
748.25	17.674
748.56	16.667
748.88	5.435
749.19	17.371
749.50	18.627
749.82	15.556
750.13	19.383
750.44	10.163
750.75	18.000
751.07	17.857
751.38	18.450
751.69	11.069
752.01	16.154
752.32	10.506
752.63	10.385
752.94	16.270
753.26	16.087
753.57	18.750
753.88	14.655
754.19	11.203
754.51	14.453
754.82	13.834
755.13	14.815
755.44	12.397
755.75	16.461
756.07	9.639
756.38	14.062
756.69	14.801
757.00	10.801
757.31	18.121
757.63	18.069
757.94	13.584
758.25	13.953
758.56	20.216
758.87	17.045
759.18	13.000
759.50	16.726
759.81	10.949
760.12	9.797
760.43	17.152
760.74	16.250
761.05	15.169
761.36	16.168
761.67	15.089
761.99	12.581
762.30	17.754
762.61	16.981
762.92	17.040
763.23	16.114
763.54	17.778
763.85	16.878
764.16	12.245
764.47	23.305
764.78	14.607
765.10	20.144
765.41	9.677
765.72	15.409
766.03	10.247
766.34	12.782
766.65	14.980
766.96	15.500
767.27	14.583
767.58	11.628
767.89	16.774
768.20	11.656
768.51	19.126
768.82	15.135
769.13	15.000
769.44	14.912
769.75	15.584
770.06	14.679
770.37	12.676
770.68	16.146
770.99	12.871
771.30	14.563
771.61	16.204
771.92	12.554
772.23	15.421
772.54	14.362
772.85	13.018
773.16	18.902
773.47	13.855
773.78	21.429
774.09	16.000
774.39	14.815
774.70	15.436
775.01	15.942
775.32	15.672
775.63	8.264
775.94	16.541
776.25	19.286
776.56	19.672
776.87	17.699
777.18	17.699
777.48	9.091
777.79	1.739
778.10	19.266
778.41	16.102
778.72	14.876
779.03	17.910
779.34	14.286
779.65	17.647
779.95	15.217
780.26	12.925
780.57	-1.724
780.88	12.963
781.19	-5.051
781.50	8.000
781.80	14.379
782.11	14.103
782.42	12.048
782.73	9.489
783.04	16.216
783.34	15.909
783.65	10.853
783.96	14.634
784.27	9.402
784.57	4.878
784.88	8.130
785.19	22.807
785.50	8.247
785.81	5.714
786.11	8.824
786.42	7.273
786.73	19.820
787.04	9.901
787.34	11.429
787.65	4.762
787.96	8.824
788.26	7.207
788.57	21.774
788.88	17.187
789.19	10.256
789.49	8.403
789.80	9.402
790.11	15.044
790.41	16.162
790.72	17.925
791.03	1.389
791.33	17.105
791.64	16.129
791.95	2.667
792.25	14.286
792.56	19.512
792.87	18.367
793.17	2.632
793.48	-4.054
793.79	-4.225
794.09	5.063
794.40	19.149
794.70	10.280
795.01	1.754
795.32	5.455
795.62	11.607
795.93	-4.124
796.23	0.000
796.54	20.000
796.85	4.110
797.15	-6.944
797.46	9.589
797.76	14.085
798.07	23.750
798.37	16.176
798.68	4.286
798.99	14.286
799.29	14.474
799.60	5.000
799.90	-4.167
800.21	0.000
800.51	14.286
800.82	9.836
801.12	5.263
801.43	14.085
801.73	-10.169
802.04	24.590
802.34	16.364
802.65	0.000
802.95	24.074
803.26	0.000
803.56	15.385
803.87	-31.579
804.17	24.194
804.48	20.000
804.78	-2.564
805.09	9.302
805.39	-46.875
805.70	-13.208
806.00	-1.754
806.30	21.622
806.61	2.941
806.91	8.642
807.22	5.333
807.52	4.478
807.83	-1.613
808.13	-1.587
808.43	-16.364
808.74	21.212
809.04	9.434
809.35	27.397
809.65	15.789
809.95	17.647
810.26	3.922
810.56	-10.000
810.86	18.367
811.17	-2.857
811.47	-1.923
811.77	-3.226
812.08	0.000
812.38	14.286
812.69	-15.217
812.99	-22.581
813.29	7.143
813.59	-51.852
813.90	-4.255
814.20	-25.581
814.50	18.750
814.81	-1.667
815.11	-9.756
815.41	-26.667
815.72	20.000
816.02	-11.111
816.32	28.205
816.62	-10.811
816.93	-20.588
817.23	19.565
817.53	-26.471
817.84	0.000
818.14	-50.000
818.44	-17.241
818.74	-12.903
819.04	-44.444
819.35	3.333
819.65	-28.000
819.95	-6.667
820.25	12.000
820.56	2.632
820.86	5.000
821.16	23.404
821.46	13.793
821.76	0.000
822.07	-45.000
822.37	-2.326
822.67	-13.333
822.97	-8.108
823.27	10.811
823.57	20.000
823.88	10.811
824.18	-61.905
824.48	-23.077
824.78	-100.000
825.08	4.348
825.38	-54.167
825.69	-12.500
825.99	-60.000
826.29	-51.351
826.59	11.765
826.89	-32.000
827.19	-25.714
827.49	7.895
827.79	31.250
828.09	-36.667
828.39	60.870
828.70	-37.931
829.00	6.897
829.30	-16.667
829.60	12.500
829.90	5.556
830.20	-7.692
830.50	-19.048
830.80	-57.143
831.10	5.128
831.40	-9.524
831.70	0.000
832.00	16.667
832.30	-47.368
832.60	-25.000
832.90	-166.667
833.20	-94.118
833.50	-13.333
833.80	-13.333
834.10	-20.000
834.40	16.667
834.70	-11.111
835.00	15.385
835.30	-70.833
835.60	44.828
835.90	-72.222
836.20	-127.273
836.50	-66.667
836.80	8.571
837.10	48.571
837.40	-29.412
837.70	-100.000
838.00	-16.667
838.30	-50.000
838.60	-23.810
838.90	-20.000
839.19	-26.087
839.49	8.696
839.79	-72.222
840.09	-34.783
840.39	-36.364
840.69	-43.750
840.99	-52.632
841.29	-100.000
841.59	-57.143
841.88	-16.667
842.18	-33.333
842.48	-100.000
842.78	41.379
843.08	-42.857
843.38	-46.154
843.68	-211.111
843.97	-69.231
844.27	-72.727
844.57	-100.000
844.87	16.000
845.17	-140.000
845.47	-100.000
845.76	-100.000
846.06	0.000
846.36	-200.000
846.66	-60.000
846.96	-21.053
847.25	-16.667
847.55	-75.000
847.85	-46.667
848.15	-180.000
848.44	53.846
848.74	15.789
849.04	800.000
849.34	-133.333
849.63	-36.842
849.93	0.000
850.23	-35.000
850.53	-42.857
850.82	-4.000
851.12	-42.105
851.42	-800.000
851.71	-7.143
852.01	-125.000
852.31	17.647
852.61	-40.000
852.90	-61.905
853.20	-216.667
853.50	-11.111
853.79	-57.895
854.09	-66.667
854.39	17.857
854.68	-8.696
854.98	-183.333
855.28	6.897
855.57	-62.500
855.87	-40.000
856.17	-173.333
856.46	-37.931
856.76	-33.333
857.05	-76.471
857.35	-223.077
857.65	-54.545
857.94	3.704
858.24	-64.286
858.53	-142.857
858.83	-91.667
859.13	-155.556
859.42	52.381
859.72	-87.500
860.01	-300.000
860.31	37.500
860.60	-380.000
860.90	-144.444
861.20	-150.000
861.49	-214.286
861.79	-29.412
862.08	-600.000
862.38	-91.667
862.67	-46.154
862.97	-11.765
863.26	-25.000
863.56	-82.353
863.85	233.333
864.15	-160.000
864.44	-15.385
864.74	20.000
865.03	-162.500
865.33	-200.000
865.62	-64.706
865.92	-150.000
866.21	-78.571
866.51	-50.000
866.80	-1400.000
867.10	-66.667
867.39	5.882
867.69	-21.739
867.98	-157.143
868.27	-280.000
868.57	-62.500
868.86	-72.727
869.16	-41.176
869.45	0.000
869.75	-114.286
870.04	1700.000
870.33	-8.333
870.63	-140.000
870.92	-11.111
871.22	0.000
871.51	27.273
871.80	25.000
872.10	110.000
>>>>>End Processed Spectral Data<<<<<
