SpectraSuite Data File
++++++++++++++++++++++++++++++++++++
Date: Sat May 16 11:08:22 PDT 2015
User: schluterlab
Dark Spectrum Present: Yes
Reference Spectrum Present: Yes
Number of Sampled Component Spectra: 1
Spectrometers: USB2E3373
Integration Time (usec): 3000 (USB2E3373)
Spectra Averaged: 3 (USB2E3373)
Boxcar Smoothing: 0 (USB2E3373)
Correct for Electrical Dark: No (USB2E3373)
Strobe/Lamp Enabled: No (USB2E3373)
Correct for Detector Non-linearity: No (USB2E3373)
Correct for Stray Light: No (USB2E3373)
Number of Pixels in Processed Spectrum: 2048
>>>>>Begin Processed Spectral Data<<<<<
178.53	0.000
178.91	6.667
179.29	300.000
179.67	-200.000
180.04	23.077
180.42	-800.000
180.80	75.000
181.18	-0.000
181.56	62.500
181.94	-1000.000
182.31	300.000
182.69	76.923
183.07	-200.000
183.45	650.000
183.83	133.333
184.20	100.000
184.58	62.500
184.96	0.000
185.34	93.750
185.72	-25.000
186.09	16.667
186.47	37.500
186.85	-25.000
187.23	137.500
187.61	350.000
187.98	-162.500
188.36	37.500
188.74	-25.000
189.12	100.000
189.49	42.857
189.87	66.667
190.25	50.000
190.63	42.857
191.00	-77.778
191.38	260.000
191.76	73.333
192.14	440.000
192.51	120.000
192.89	-166.667
193.27	0.000
193.65	55.556
194.02	71.429
194.40	66.667
194.78	70.000
195.15	-200.000
195.53	18.182
195.91	-200.000
196.29	100.000
196.66	-166.667
197.04	800.000
197.42	-50.000
197.79	106.667
198.17	66.667
198.55	500.000
198.92	-400.000
199.30	137.500
199.68	350.000
200.05	-66.667
200.43	-77.778
200.81	-500.000
201.18	-58.333
201.56	114.286
201.94	20.000
202.31	36.364
202.69	240.000
203.07	80.000
203.44	200.000
203.82	-266.667
204.19	-100.000
204.57	275.000
204.95	400.000
205.32	62.500
205.70	200.000
206.08	-700.000
206.45	33.333
206.83	-50.000
207.20	150.000
207.58	100.000
207.96	-33.333
208.33	100.000
208.71	22.222
209.08	210.000
209.46	-185.714
209.84	100.000
210.21	0.000
210.59	65.000
210.96	-500.000
211.34	-50.000
211.71	0.000
212.09	-200.000
212.46	300.000
212.84	300.000
213.22	-0.000
213.59	-0.000
213.97	88.889
214.34	100.000
214.72	50.000
215.09	166.667
215.47	50.000
215.84	100.000
216.22	110.000
216.59	66.667
216.97	-125.000
217.34	400.000
217.72	-14.286
218.09	-116.667
218.47	-100.000
218.84	28.571
219.22	142.857
219.59	0.000
219.97	57.143
220.34	175.000
220.72	-0.000
221.09	0.000
221.47	0.000
221.84	166.667
222.22	-50.000
222.59	-200.000
222.97	25.000
223.34	-300.000
223.72	-133.333
224.09	28.571
224.46	-150.000
224.84	21.429
225.21	0.000
225.59	72.727
225.96	50.000
226.34	285.714
226.71	-177.778
227.08	30.000
227.46	900.000
227.83	128.571
228.21	-62.500
228.58	150.000
228.95	50.000
229.33	-800.000
229.70	80.000
230.08	-400.000
230.45	83.333
230.82	-33.333
231.20	-700.000
231.57	-150.000
231.95	1200.000
232.32	66.667
232.69	11.111
233.07	-100.000
233.44	-150.000
233.81	-73.333
234.19	22.222
234.56	-137.500
234.93	40.625
235.31	85.714
235.68	-50.000
236.05	-35.294
236.43	-9.091
236.80	16.129
237.17	41.667
237.55	14.286
237.92	-13.636
238.29	22.857
238.67	58.824
239.04	16.667
239.41	35.484
239.79	-5.128
240.16	19.048
240.53	21.818
240.91	35.897
241.28	56.364
241.65	33.846
242.02	32.787
242.40	19.672
242.77	30.303
243.14	23.729
243.51	10.000
243.89	22.785
244.26	22.472
244.63	28.421
245.00	25.263
245.38	29.661
245.75	26.549
246.12	24.000
246.49	29.921
246.87	21.951
247.24	25.424
247.61	33.898
247.98	24.648
248.36	22.378
248.73	30.380
249.10	29.299
249.47	31.579
249.84	32.955
250.22	24.405
250.59	36.158
250.96	27.225
251.33	31.754
251.70	22.115
252.08	32.227
252.45	22.749
252.82	23.333
253.19	24.255
253.56	22.177
253.94	25.738
254.31	28.326
254.68	27.236
255.05	25.806
255.42	35.714
255.79	24.014
256.16	29.412
256.54	30.147
256.91	27.652
257.28	25.641
257.65	26.596
258.02	28.931
258.39	24.415
258.76	26.689
259.14	26.852
259.51	27.541
259.88	28.354
260.25	33.230
260.62	26.367
260.99	25.816
261.36	31.098
261.73	28.035
262.10	30.278
262.47	27.350
262.85	33.143
263.22	28.367
263.59	28.000
263.96	29.565
264.33	32.249
264.70	25.691
265.07	30.220
265.44	25.581
265.81	26.357
266.18	26.329
266.55	27.451
266.92	28.212
267.29	29.298
267.66	27.654
268.03	29.952
268.40	26.761
268.77	27.470
269.14	27.146
269.51	30.115
269.88	26.147
270.25	29.138
270.62	26.545
270.99	28.378
271.36	29.604
271.73	27.130
272.10	26.545
272.47	27.111
272.84	30.667
273.21	29.817
273.58	25.714
273.95	26.535
274.32	26.018
274.69	29.103
275.06	28.221
275.43	24.330
275.80	29.328
276.17	28.661
276.54	26.884
276.91	27.778
277.28	29.006
277.65	27.479
278.02	28.601
278.39	25.540
278.76	26.693
279.13	26.285
279.50	28.628
279.87	26.216
280.23	27.935
280.60	28.628
280.97	24.854
281.34	29.981
281.71	29.615
282.08	28.427
282.45	26.069
282.82	27.326
283.19	28.909
283.56	29.487
283.92	27.562
284.29	23.978
284.66	26.619
285.03	28.520
285.40	27.306
285.77	27.719
286.14	26.354
286.51	27.531
286.87	28.494
287.24	27.645
287.61	27.107
287.98	26.170
288.35	23.306
288.72	25.637
289.08	25.932
289.45	24.747
289.82	25.606
290.19	27.094
290.56	25.124
290.93	24.165
291.29	26.256
291.66	25.926
292.03	24.333
292.40	24.699
292.77	24.845
293.13	26.179
293.50	23.774
293.87	23.926
294.24	25.038
294.60	23.636
294.97	24.734
295.34	23.111
295.71	25.149
296.08	23.195
296.44	24.464
296.81	23.077
297.18	21.831
297.55	25.000
297.91	23.989
298.28	23.699
298.65	24.268
299.02	23.930
299.38	21.925
299.75	21.603
300.12	21.026
300.48	23.529
300.85	23.329
301.22	21.087
301.59	23.537
301.95	24.181
302.32	20.600
302.69	23.256
303.05	20.879
303.42	20.750
303.79	23.086
304.15	22.156
304.52	23.221
304.89	21.960
305.25	22.833
305.62	22.679
305.99	23.086
306.35	21.310
306.72	22.096
307.09	22.361
307.45	22.020
307.82	21.006
308.19	21.029
308.55	21.024
308.92	21.805
309.29	22.054
309.65	22.906
310.02	22.138
310.38	21.838
310.75	22.541
311.12	21.901
311.48	21.921
311.85	21.730
312.22	22.451
312.58	22.075
312.95	22.120
313.31	23.277
313.68	22.513
314.05	23.640
314.41	22.435
314.78	21.878
315.14	23.692
315.51	21.175
315.87	22.168
316.24	21.769
316.61	23.608
316.97	23.184
317.34	22.254
317.70	21.707
318.07	22.668
318.43	23.034
318.80	22.911
319.16	22.326
319.53	22.462
319.89	23.236
320.26	23.725
320.62	22.308
320.99	23.085
321.35	21.773
321.72	21.392
322.08	24.530
322.45	22.970
322.81	24.592
323.18	23.823
323.54	24.399
323.91	23.540
324.27	24.430
324.64	24.589
325.00	23.647
325.37	24.615
325.73	24.934
326.10	22.321
326.46	24.168
326.83	25.106
327.19	24.354
327.56	26.150
327.92	24.554
328.29	25.455
328.65	23.727
329.01	25.530
329.38	25.067
329.74	26.007
330.11	24.388
330.47	25.341
330.84	27.406
331.20	25.632
331.56	25.068
331.93	25.488
332.29	27.580
332.66	26.602
333.02	25.792
333.38	26.792
333.75	26.002
334.11	25.689
334.48	24.625
334.84	26.859
335.20	26.152
335.57	26.895
335.93	27.126
336.29	26.041
336.66	26.608
337.02	26.216
337.38	26.292
337.75	25.900
338.11	26.744
338.47	26.779
338.84	27.042
339.20	26.714
339.56	28.520
339.93	25.661
340.29	27.104
340.65	26.399
341.02	26.981
341.38	26.285
341.74	27.773
342.11	27.474
342.47	26.953
342.83	25.525
343.20	26.473
343.56	25.714
343.92	26.544
344.28	26.493
344.65	25.990
345.01	26.975
345.37	27.741
345.73	24.386
346.10	24.857
346.46	25.508
346.82	25.662
347.19	25.965
347.55	25.602
347.91	25.591
348.27	26.412
348.63	26.414
349.00	27.128
349.36	24.824
349.72	27.787
350.08	26.624
350.45	25.847
350.81	25.796
351.17	25.884
351.53	25.776
351.89	25.627
352.26	27.519
352.62	26.498
352.98	26.345
353.34	26.859
353.70	25.637
354.07	26.357
354.43	27.273
354.79	27.258
355.15	26.757
355.51	26.875
355.87	25.850
356.24	26.926
356.60	28.122
356.96	27.252
357.32	26.445
357.68	25.824
358.04	26.405
358.40	25.986
358.77	26.739
359.13	25.096
359.49	26.077
359.85	25.152
360.21	25.951
360.57	27.410
360.93	27.630
361.29	26.233
361.66	26.067
362.02	26.036
362.38	26.779
362.74	26.960
363.10	26.901
363.46	27.422
363.82	27.624
364.18	26.845
364.54	28.234
364.90	27.044
365.26	26.248
365.62	27.512
365.98	26.600
366.35	27.324
366.71	25.863
367.07	27.100
367.43	27.385
367.79	26.117
368.15	27.169
368.51	28.252
368.87	27.541
369.23	28.281
369.59	26.875
369.95	27.696
370.31	27.637
370.67	26.030
371.03	26.968
371.39	24.894
371.75	27.396
372.11	28.049
372.47	27.838
372.83	27.538
373.19	28.000
373.55	27.234
373.91	27.809
374.27	27.447
374.63	29.055
374.99	28.581
375.35	27.052
375.71	28.292
376.07	27.652
376.42	26.093
376.78	27.320
377.14	28.000
377.50	27.466
377.86	27.113
378.22	27.324
378.58	28.042
378.94	27.682
379.30	28.215
379.66	27.322
380.02	28.164
380.38	27.674
380.74	26.788
381.09	28.061
381.45	27.864
381.81	26.860
382.17	27.694
382.53	27.660
382.89	27.811
383.25	28.417
383.61	27.417
383.97	29.026
384.32	27.972
384.68	28.476
385.04	27.597
385.40	27.815
385.76	27.744
386.12	28.545
386.48	28.713
386.83	27.914
387.19	28.751
387.55	27.983
387.91	28.156
388.27	27.865
388.62	28.245
388.98	28.286
389.34	27.785
389.70	26.979
390.06	27.843
390.42	27.885
390.77	27.066
391.13	27.205
391.49	27.885
391.85	28.741
392.20	27.913
392.56	27.123
392.92	28.637
393.28	27.095
393.64	27.601
393.99	28.308
394.35	28.589
394.71	27.363
395.07	28.562
395.42	27.116
395.78	27.593
396.14	27.539
396.50	28.012
396.85	27.822
397.21	28.676
397.57	28.571
397.92	27.635
398.28	28.111
398.64	27.960
399.00	28.596
399.35	28.354
399.71	28.688
400.07	28.418
400.42	28.406
400.78	27.490
401.14	28.024
401.49	27.889
401.85	27.944
402.21	27.592
402.57	27.670
402.92	28.823
403.28	28.615
403.63	27.621
403.99	28.030
404.35	27.959
404.70	27.618
405.06	29.296
405.42	27.245
405.77	26.980
406.13	27.257
406.49	26.783
406.84	27.055
407.20	29.034
407.55	28.499
407.91	26.813
408.27	28.064
408.62	28.322
408.98	27.592
409.34	26.813
409.69	27.536
410.05	27.047
410.40	27.713
410.76	27.860
411.11	27.681
411.47	27.877
411.83	26.956
412.18	27.723
412.54	26.907
412.89	28.311
413.25	26.919
413.60	27.096
413.96	27.295
414.31	28.257
414.67	27.429
415.03	27.749
415.38	28.042
415.74	28.028
416.09	27.046
416.45	27.183
416.80	28.869
417.16	27.375
417.51	27.905
417.87	28.479
418.22	27.939
418.58	28.177
418.93	27.958
419.29	27.666
419.64	27.575
420.00	27.582
420.35	28.740
420.71	28.451
421.06	27.456
421.42	27.927
421.77	28.699
422.12	28.092
422.48	27.846
422.83	28.132
423.19	28.285
423.54	28.703
423.90	27.530
424.25	28.224
424.61	28.709
424.96	29.198
425.31	28.731
425.67	28.539
426.02	28.112
426.38	28.191
426.73	27.878
427.09	29.350
427.44	28.636
427.79	29.593
428.15	28.965
428.50	29.619
428.85	29.197
429.21	28.224
429.56	28.906
429.92	28.607
430.27	28.863
430.62	27.743
430.98	28.542
431.33	28.815
431.68	30.188
432.04	28.763
432.39	28.718
432.74	29.616
433.10	29.375
433.45	29.419
433.80	29.283
434.16	29.608
434.51	29.315
434.86	29.525
435.22	29.454
435.57	28.335
435.92	29.191
436.28	30.089
436.63	29.112
436.98	28.923
437.34	29.474
437.69	29.813
438.04	29.949
438.39	30.445
438.75	29.162
439.10	29.428
439.45	29.632
439.81	30.843
440.16	29.358
440.51	30.471
440.86	29.728
441.22	29.243
441.57	30.000
441.92	29.668
442.27	29.329
442.63	29.882
442.98	29.289
443.33	28.830
443.68	30.172
444.03	29.912
444.39	29.760
444.74	30.837
445.09	29.715
445.44	31.064
445.79	30.342
446.15	31.051
446.50	29.450
446.85	30.067
447.20	30.899
447.55	31.050
447.91	30.769
448.26	30.168
448.61	30.164
448.96	30.980
449.31	29.707
449.66	30.567
450.02	30.249
450.37	30.493
450.72	29.944
451.07	30.610
451.42	30.112
451.77	30.760
452.12	31.228
452.47	30.605
452.83	30.460
453.18	31.436
453.53	30.286
453.88	31.758
454.23	29.988
454.58	32.194
454.93	31.738
455.28	30.848
455.63	30.405
455.98	31.807
456.34	30.877
456.69	31.457
457.04	31.407
457.39	30.921
457.74	31.128
458.09	31.497
458.44	31.178
458.79	30.661
459.14	32.402
459.49	31.676
459.84	31.366
460.19	31.504
460.54	30.913
460.89	31.614
461.24	31.755
461.59	31.008
461.94	31.954
462.29	32.102
462.64	31.159
462.99	31.995
463.34	31.870
463.69	32.443
464.04	30.463
464.39	31.481
464.74	31.501
465.09	31.449
465.44	31.134
465.79	31.754
466.14	32.394
466.49	30.915
466.84	32.353
467.19	31.920
467.54	31.709
467.89	31.813
468.24	33.729
468.59	31.668
468.94	32.797
469.29	31.449
469.64	31.604
469.99	32.816
470.34	32.265
470.68	33.648
471.03	33.310
471.38	31.528
471.73	33.986
472.08	32.798
472.43	32.432
472.78	33.533
473.13	32.604
473.48	32.929
473.83	33.002
474.17	32.866
474.52	34.015
474.87	32.925
475.22	32.035
475.57	32.611
475.92	32.829
476.27	33.600
476.61	33.408
476.96	32.812
477.31	32.723
477.66	32.429
478.01	33.657
478.36	32.111
478.70	34.490
479.05	33.207
479.40	33.575
479.75	32.569
480.10	33.234
480.45	32.350
480.79	33.761
481.14	33.567
481.49	34.124
481.84	33.148
482.19	33.760
482.53	34.138
482.88	33.033
483.23	33.850
483.58	33.858
483.92	34.591
484.27	33.407
484.62	33.477
484.97	32.931
485.31	32.320
485.66	31.637
486.01	31.342
486.36	31.748
486.70	31.532
487.05	31.404
487.40	32.212
487.75	32.229
488.09	32.427
488.44	32.848
488.79	33.286
489.13	33.815
489.48	34.706
489.83	34.017
490.17	34.175
490.52	34.284
490.87	34.827
491.22	33.676
491.56	34.120
491.91	34.590
492.26	34.670
492.60	33.682
492.95	34.888
493.30	34.064
493.64	34.744
493.99	33.748
494.34	34.667
494.68	35.346
495.03	34.799
495.37	34.759
495.72	34.578
496.07	35.617
496.41	35.016
496.76	34.886
497.11	35.186
497.45	35.920
497.80	35.218
498.14	35.167
498.49	34.857
498.84	35.194
499.18	35.380
499.53	35.314
499.87	34.749
500.22	35.539
500.56	34.667
500.91	35.468
501.26	35.323
501.60	35.002
501.95	36.087
502.29	35.050
502.64	36.162
502.98	35.122
503.33	35.808
503.67	35.536
504.02	35.828
504.36	36.569
504.71	36.778
505.06	35.347
505.40	36.327
505.75	36.941
506.09	36.148
506.44	36.541
506.78	36.829
507.13	36.200
507.47	37.246
507.82	36.345
508.16	36.580
508.51	36.115
508.85	36.387
509.19	36.839
509.54	37.368
509.88	37.713
510.23	37.369
510.57	38.360
510.92	38.561
511.26	36.576
511.61	37.365
511.95	38.578
512.30	38.758
512.64	37.229
512.98	37.569
513.33	38.276
513.67	38.582
514.02	38.982
514.36	38.393
514.70	38.370
515.05	38.994
515.39	38.408
515.74	40.198
516.08	39.654
516.42	38.924
516.77	40.208
517.11	39.130
517.46	40.371
517.80	40.674
518.14	40.217
518.49	40.347
518.83	40.712
519.17	39.964
519.52	39.734
519.86	40.562
520.20	41.381
520.55	41.292
520.89	40.451
521.23	41.209
521.58	40.752
521.92	41.735
522.26	41.587
522.61	40.494
522.95	41.608
523.29	42.571
523.64	41.786
523.98	41.630
524.32	41.420
524.66	41.056
525.01	41.683
525.35	42.397
525.69	42.290
526.04	42.820
526.38	43.666
526.72	42.018
527.06	42.318
527.41	42.970
527.75	42.046
528.09	42.488
528.43	42.098
528.78	42.525
529.12	43.086
529.46	42.784
529.80	42.479
530.15	42.563
530.49	41.850
530.83	43.418
531.17	43.838
531.51	43.202
531.86	43.252
532.20	42.038
532.54	43.650
532.88	43.281
533.22	43.182
533.57	44.321
533.91	41.823
534.25	43.180
534.59	41.661
534.93	42.439
535.27	42.794
535.62	43.734
535.96	42.599
536.30	42.997
536.64	42.829
536.98	44.703
537.32	43.746
537.66	43.449
538.01	43.918
538.35	43.311
538.69	42.848
539.03	44.888
539.37	42.382
539.71	43.095
540.05	44.208
540.39	44.737
540.73	43.124
541.07	44.877
541.42	43.552
541.76	43.322
542.10	44.024
542.44	43.504
542.78	44.573
543.12	43.992
543.46	42.671
543.80	43.211
544.14	43.721
544.48	44.423
544.82	44.723
545.16	43.192
545.50	43.742
545.84	44.298
546.18	44.799
546.52	44.168
546.86	43.590
547.20	44.585
547.54	44.766
547.88	43.663
548.22	43.381
548.56	44.756
548.90	44.609
549.24	45.340
549.58	43.825
549.92	44.664
550.26	44.220
550.60	44.523
550.94	44.453
551.28	44.620
551.62	44.830
551.96	45.731
552.30	44.530
552.64	45.179
552.98	44.359
553.32	44.733
553.66	44.412
554.00	46.340
554.34	43.249
554.68	45.249
555.02	45.514
555.36	44.788
555.69	44.628
556.03	45.825
556.37	45.021
556.71	45.956
557.05	44.863
557.39	44.989
557.73	45.222
558.07	46.194
558.41	46.073
558.75	46.236
559.08	46.226
559.42	46.095
559.76	46.166
560.10	46.458
560.44	45.882
560.78	44.537
561.12	45.963
561.45	45.342
561.79	45.017
562.13	45.302
562.47	45.728
562.81	45.474
563.15	45.346
563.48	45.335
563.82	45.504
564.16	44.490
564.50	45.161
564.84	45.238
565.17	44.761
565.51	44.785
565.85	45.639
566.19	45.784
566.52	45.010
566.86	43.932
567.20	44.552
567.54	45.009
567.88	42.602
568.21	44.016
568.55	42.577
568.89	42.793
569.23	43.313
569.56	40.731
569.90	40.755
570.24	41.000
570.57	40.000
570.91	39.714
571.25	39.948
571.59	39.588
571.92	38.929
572.26	39.395
572.60	39.187
572.93	39.455
573.27	39.207
573.61	38.744
573.95	39.383
574.28	38.555
574.62	39.629
574.96	38.559
575.29	39.050
575.63	39.289
575.97	38.619
576.30	39.381
576.64	39.347
576.98	38.741
577.31	38.856
577.65	38.314
577.98	38.572
578.32	38.287
578.66	38.492
578.99	38.882
579.33	38.709
579.67	39.386
580.00	38.765
580.34	38.405
580.67	39.421
581.01	38.163
581.35	38.860
581.68	37.366
582.02	38.260
582.35	37.885
582.69	38.599
583.02	38.992
583.36	38.847
583.70	38.710
584.03	40.275
584.37	40.000
584.70	39.545
585.04	40.177
585.37	38.640
585.71	38.679
586.04	39.260
586.38	38.733
586.72	39.938
587.05	39.564
587.39	39.224
587.72	39.474
588.06	39.615
588.39	39.419
588.73	39.378
589.06	40.473
589.40	40.261
589.73	41.112
590.07	41.406
590.40	40.258
590.73	42.103
591.07	41.680
591.40	42.418
591.74	42.137
592.07	42.477
592.41	41.146
592.74	40.507
593.08	40.268
593.41	40.066
593.75	39.268
594.08	40.474
594.41	40.961
594.75	40.921
595.08	41.165
595.42	40.968
595.75	39.949
596.09	41.482
596.42	41.899
596.75	42.173
597.09	41.719
597.42	42.034
597.75	41.320
598.09	41.979
598.42	41.803
598.76	40.822
599.09	41.239
599.42	40.292
599.76	40.695
600.09	41.450
600.42	41.018
600.76	41.356
601.09	40.144
601.42	40.918
601.76	40.849
602.09	41.063
602.42	41.029
602.76	40.715
603.09	42.218
603.42	41.539
603.76	42.601
604.09	41.810
604.42	41.632
604.76	41.779
605.09	42.676
605.42	41.977
605.75	41.699
606.09	42.300
606.42	41.391
606.75	41.821
607.09	42.655
607.42	41.945
607.75	41.148
608.08	42.476
608.42	43.283
608.75	42.477
609.08	43.497
609.41	42.750
609.75	41.394
610.08	43.333
610.41	42.940
610.74	42.456
611.07	43.205
611.41	42.511
611.74	42.776
612.07	44.522
612.40	43.017
612.73	42.811
613.07	43.643
613.40	44.937
613.73	44.360
614.06	43.877
614.39	44.419
614.72	43.743
615.06	42.174
615.39	43.190
615.72	43.292
616.05	43.125
616.38	43.819
616.71	45.105
617.05	43.908
617.38	44.149
617.71	44.963
618.04	45.280
618.37	44.591
618.70	45.111
619.03	44.550
619.36	46.300
619.69	45.800
620.03	45.110
620.36	45.710
620.69	46.662
621.02	46.499
621.35	48.871
621.68	47.131
622.01	47.168
622.34	47.283
622.67	47.656
623.00	46.748
623.33	46.418
623.66	45.199
623.99	47.293
624.32	45.089
624.65	46.505
624.99	46.079
625.32	46.856
625.65	47.164
625.98	46.557
626.31	47.879
626.64	46.611
626.97	48.288
627.30	47.915
627.63	46.805
627.96	49.086
628.29	48.438
628.62	49.857
628.95	49.114
629.28	49.436
629.61	48.479
629.94	49.905
630.26	50.000
630.59	51.357
630.92	49.950
631.25	49.496
631.58	49.735
631.91	50.213
632.24	51.778
632.57	51.889
632.90	51.954
633.23	52.453
633.56	52.281
633.89	50.708
634.22	52.656
634.55	53.365
634.88	53.204
635.20	51.561
635.53	52.290
635.86	52.519
636.19	51.648
636.52	51.016
636.85	50.421
637.18	51.625
637.51	52.045
637.83	53.928
638.16	51.974
638.49	52.966
638.82	51.866
639.15	55.253
639.48	53.178
639.81	53.804
640.13	52.973
640.46	52.991
640.79	54.202
641.12	54.866
641.45	53.802
641.77	56.287
642.10	54.079
642.43	53.263
642.76	56.063
643.09	53.968
643.41	57.460
643.74	56.121
644.07	56.942
644.40	57.212
644.73	57.756
645.05	55.593
645.38	55.629
645.71	58.935
646.04	56.975
646.36	57.592
646.69	56.055
647.02	59.747
647.35	56.859
647.67	59.124
648.00	57.821
648.33	57.841
648.66	52.258
648.98	53.981
649.31	53.692
649.64	53.281
649.96	54.945
650.29	52.459
650.62	56.971
650.94	54.975
651.27	57.366
651.60	55.709
651.92	57.021
652.25	53.923
652.58	55.196
652.90	51.846
653.23	54.194
653.56	53.846
653.88	53.115
654.21	54.530
654.54	56.811
654.86	55.056
655.19	51.862
655.52	44.671
655.84	38.207
656.17	40.721
656.49	54.974
656.82	57.199
657.15	43.743
657.47	32.917
657.80	25.319
658.13	29.772
658.45	40.456
658.78	41.072
659.10	41.893
659.43	42.284
659.75	43.863
660.08	45.260
660.41	45.215
660.73	51.155
661.06	55.652
661.38	56.429
661.71	55.832
662.03	57.258
662.36	57.143
662.68	58.017
663.01	59.448
663.33	62.132
663.66	59.442
663.98	58.929
664.31	59.508
664.63	62.832
664.96	57.918
665.28	58.568
665.61	58.140
665.93	57.407
666.26	58.502
666.58	57.588
666.91	61.247
667.23	61.404
667.56	57.596
667.88	61.086
668.21	58.065
668.53	59.346
668.86	60.508
669.18	57.991
669.50	60.981
669.83	61.314
670.15	57.848
670.48	60.981
670.80	57.859
671.13	57.336
671.45	55.405
671.77	57.602
672.10	56.410
672.42	53.137
672.75	53.818
673.07	52.613
673.39	55.191
673.72	58.661
674.04	60.085
674.37	56.907
674.69	57.582
675.01	56.170
675.34	57.484
675.66	55.940
675.98	58.370
676.31	58.824
676.63	60.920
676.95	56.416
677.28	57.773
677.60	60.860
677.92	60.132
678.25	55.580
678.57	56.790
678.89	57.233
679.22	58.700
679.54	56.213
679.86	56.200
680.18	53.422
680.51	51.583
680.83	58.095
681.15	55.491
681.48	58.012
681.80	56.452
682.12	56.137
682.44	56.778
682.77	56.710
683.09	55.556
683.41	59.071
683.73	55.251
684.06	58.925
684.38	55.649
684.70	54.527
685.02	54.331
685.34	54.581
685.67	55.303
685.99	54.064
686.31	51.167
686.63	51.596
686.96	53.050
687.28	52.987
687.60	54.883
687.92	51.556
688.24	55.315
688.56	55.311
688.89	57.906
689.21	56.893
689.53	54.713
689.85	58.129
690.17	55.605
690.49	55.196
690.82	58.554
691.14	58.726
691.46	57.871
691.78	53.965
692.10	55.508
692.42	57.556
692.74	54.292
693.06	58.427
693.39	53.244
693.71	56.433
694.03	60.043
694.35	54.853
694.67	55.556
694.99	54.220
695.31	57.653
695.63	54.847
695.95	58.809
696.27	59.850
696.59	57.487
696.91	59.270
697.23	55.729
697.56	55.769
697.88	52.703
698.20	53.533
698.52	51.794
698.84	57.524
699.16	55.476
699.48	57.500
699.80	54.637
700.12	57.179
700.44	58.101
700.76	57.143
701.08	55.814
701.40	57.704
701.72	58.951
702.04	63.782
702.36	62.048
702.68	55.988
703.00	60.000
703.32	55.014
703.64	58.824
703.96	57.849
704.28	55.030
704.60	57.911
704.91	57.460
705.23	60.194
705.55	61.486
705.87	60.751
706.19	60.069
706.51	59.028
706.83	59.344
707.15	59.873
707.47	59.229
707.79	52.062
708.11	50.891
708.43	56.608
708.74	55.844
709.06	55.989
709.38	52.586
709.70	56.563
710.02	60.123
710.34	59.406
710.66	57.143
710.98	54.574
711.29	53.871
711.61	57.508
711.93	55.410
712.25	57.807
712.57	58.188
712.89	59.353
713.20	57.045
713.52	57.463
713.84	61.566
714.16	58.033
714.48	56.508
714.80	56.615
715.11	55.331
715.43	56.024
715.75	59.190
716.07	54.098
716.39	61.204
716.70	57.143
717.02	65.556
717.34	55.344
717.66	63.485
717.97	61.066
718.29	62.605
718.61	65.873
718.93	54.839
719.24	57.721
719.56	52.830
719.88	57.818
720.20	56.554
720.51	57.143
720.83	57.430
721.15	59.016
721.46	58.431
721.78	54.789
722.10	59.200
722.42	59.504
722.73	55.378
723.05	57.831
723.37	56.471
723.68	55.061
724.00	58.537
724.32	57.613
724.63	56.432
724.95	60.744
725.27	57.456
725.58	64.224
725.90	51.984
726.22	54.613
726.53	60.837
726.85	54.902
727.16	57.895
727.48	53.462
727.80	55.328
728.11	58.824
728.43	58.678
728.74	57.422
729.06	58.333
729.38	53.307
729.69	55.118
730.01	58.268
730.32	53.785
730.64	58.974
730.96	56.716
731.27	54.643
731.59	51.447
731.90	47.546
732.22	52.454
732.53	55.298
732.85	50.336
733.16	54.348
733.48	51.916
733.80	50.178
734.11	56.552
734.43	53.741
734.74	49.852
735.06	52.665
735.37	51.376
735.69	48.065
736.00	47.475
736.32	50.662
736.63	46.207
736.95	54.710
737.26	54.967
737.58	55.755
737.89	55.197
738.21	47.744
738.52	56.923
738.83	54.297
739.15	54.701
739.46	56.452
739.78	52.098
740.09	52.797
740.41	50.699
740.72	54.380
741.04	57.143
741.35	53.680
741.66	61.574
741.98	52.857
742.29	56.338
742.61	58.289
742.92	56.075
743.23	56.579
743.55	54.955
743.86	55.556
744.18	57.143
744.49	62.069
744.80	59.391
745.12	59.794
745.43	56.281
745.74	56.311
746.06	60.000
746.37	59.471
746.68	60.697
747.00	59.162
747.31	56.250
747.62	55.760
747.94	56.332
748.25	58.140
748.56	54.762
748.88	58.152
749.19	53.991
749.50	66.667
749.82	54.222
750.13	55.066
750.44	55.691
750.75	57.200
751.07	52.500
751.38	50.923
751.69	48.855
752.01	50.769
752.32	50.973
752.63	53.846
752.94	49.206
753.26	61.304
753.57	53.571
753.88	53.879
754.19	51.867
754.51	54.297
754.82	49.407
755.13	54.321
755.44	52.066
755.75	58.848
756.07	52.209
756.38	53.125
756.69	53.791
757.00	53.659
757.31	56.040
757.63	52.336
757.94	48.266
758.25	48.256
758.56	51.213
758.87	47.443
759.18	45.667
759.50	53.381
759.81	47.080
760.12	48.986
760.43	47.573
760.74	51.875
761.05	48.034
761.36	51.796
761.67	46.746
761.99	46.129
762.30	52.536
762.61	49.811
762.92	56.951
763.23	57.346
763.54	50.222
763.85	49.789
764.16	50.204
764.47	59.746
764.78	49.813
765.10	56.475
765.41	45.806
765.72	47.484
766.03	47.703
766.34	50.000
766.65	50.607
766.96	52.000
767.27	59.896
767.58	63.372
767.89	58.065
768.20	61.350
768.51	46.995
768.82	51.892
769.13	50.000
769.44	46.930
769.75	52.814
770.06	53.211
770.37	49.765
770.68	52.083
770.99	46.535
771.30	56.311
771.61	51.389
771.92	45.887
772.23	51.869
772.54	57.447
772.85	56.213
773.16	56.707
773.47	63.855
773.78	60.989
774.09	51.333
774.39	59.259
774.70	53.020
775.01	57.246
775.32	51.493
775.63	50.413
775.94	69.173
776.25	55.714
776.56	58.197
776.87	67.257
777.18	69.027
777.48	54.545
777.79	59.130
778.10	53.211
778.41	49.153
778.72	57.025
779.03	60.448
779.34	54.135
779.65	48.366
779.95	58.696
780.26	48.299
780.57	55.172
780.88	54.630
781.19	58.586
781.50	59.200
781.80	48.366
782.11	50.000
782.42	54.217
782.73	57.664
783.04	49.324
783.34	56.061
783.65	54.264
783.96	55.285
784.27	54.701
784.57	51.220
784.88	43.089
785.19	56.140
785.50	31.959
785.81	57.143
786.11	50.980
786.42	43.636
786.73	55.856
787.04	65.347
787.34	62.857
787.65	41.905
787.96	71.569
788.26	58.559
788.57	64.516
788.88	42.188
789.19	58.120
789.49	48.739
789.80	52.991
790.11	51.327
790.41	69.697
790.72	61.321
791.03	54.167
791.33	57.895
791.64	61.290
791.95	64.000
792.25	61.429
792.56	54.878
792.87	61.224
793.17	52.632
793.48	47.297
793.79	49.296
794.09	55.696
794.40	61.702
794.70	51.402
795.01	42.105
795.32	44.545
795.62	49.107
795.93	51.546
796.23	50.549
796.54	68.421
796.85	63.014
797.15	58.333
797.46	49.315
797.76	66.197
798.07	55.000
798.37	67.647
798.68	55.714
798.99	61.429
799.29	56.579
799.60	48.333
799.90	52.778
800.21	53.125
800.51	44.444
800.82	68.852
801.12	49.123
801.43	50.704
801.73	49.153
802.04	55.738
802.34	63.636
802.65	59.615
802.95	74.074
803.26	75.000
803.56	73.077
803.87	50.000
804.17	51.613
804.48	58.462
804.78	43.590
805.09	55.814
805.39	40.625
805.70	45.283
806.00	78.947
806.30	59.459
806.61	58.824
806.91	56.790
807.22	54.667
807.52	61.194
807.83	53.226
808.13	52.381
808.43	40.000
808.74	66.667
809.04	49.057
809.35	45.205
809.65	63.158
809.95	57.353
810.26	54.902
810.56	48.000
810.86	63.265
811.17	48.571
811.47	57.692
811.77	64.516
812.08	15.789
812.38	71.429
812.69	60.870
812.99	54.839
813.29	59.524
813.59	29.630
813.90	61.702
814.20	34.884
814.50	47.917
814.81	38.333
815.11	60.976
815.41	70.000
815.72	74.286
816.02	50.000
816.32	66.667
816.62	37.838
816.93	32.353
817.23	39.130
817.53	88.235
817.84	44.118
818.14	37.500
818.44	62.069
818.74	41.935
819.04	40.741
819.35	70.000
819.65	40.000
819.95	83.333
820.25	92.000
820.56	50.000
820.86	45.000
821.16	57.447
821.46	62.069
821.76	61.538
822.07	17.500
822.37	46.512
822.67	40.000
822.97	72.973
823.27	81.081
823.57	104.000
823.88	56.757
824.18	52.381
824.48	19.231
824.78	61.538
825.08	69.565
825.38	58.333
825.69	41.667
825.99	40.000
826.29	29.730
826.59	41.176
826.89	80.000
827.19	45.714
827.49	63.158
827.79	37.500
828.09	46.667
828.39	95.652
828.70	10.345
829.00	65.517
829.30	50.000
829.60	109.375
829.90	122.222
830.20	26.923
830.50	52.381
830.80	14.286
831.10	48.718
831.40	71.429
831.70	44.118
832.00	58.333
832.30	57.895
832.60	68.750
832.90	16.667
833.20	52.941
833.50	20.000
833.80	86.667
834.10	50.000
834.40	66.667
834.70	33.333
835.00	34.615
835.30	95.833
835.60	62.069
835.90	27.778
836.20	-27.273
836.50	83.333
836.80	34.286
837.10	100.000
837.40	70.588
837.70	18.182
838.00	62.500
838.30	37.500
838.60	80.952
838.90	65.000
839.19	30.435
839.49	52.174
839.79	16.667
840.09	13.043
840.39	18.182
840.69	-6.250
840.99	52.632
841.29	-31.250
841.59	21.429
841.88	77.778
842.18	29.167
842.48	41.176
842.78	24.138
843.08	50.000
843.38	84.615
843.68	22.222
843.97	30.769
844.27	90.909
844.57	160.000
844.87	28.000
845.17	360.000
845.47	-35.714
845.76	88.889
846.06	0.000
846.36	75.000
846.66	60.000
846.96	47.368
847.25	33.333
847.55	-8.333
847.85	86.667
848.15	-100.000
848.44	100.000
848.74	115.789
849.04	166.667
849.34	0.000
849.63	-15.789
849.93	0.000
850.23	40.000
850.53	80.952
850.82	32.000
851.12	73.684
851.42	200.000
851.71	64.286
852.01	-25.000
852.31	0.000
852.61	160.000
852.90	9.524
853.20	33.333
853.50	38.889
853.79	21.053
854.09	20.000
854.39	17.857
854.68	21.739
854.98	41.667
855.28	51.724
855.57	56.250
855.87	15.000
856.17	6.667
856.46	58.621
856.76	113.333
857.05	58.824
857.35	-46.154
857.65	45.455
857.94	48.148
858.24	-21.429
858.53	64.286
858.83	66.667
859.13	-33.333
859.42	71.429
859.72	50.000
860.01	33.333
860.31	75.000
860.60	-100.000
860.90	133.333
861.20	100.000
861.49	14.286
861.79	70.588
862.08	200.000
862.38	58.333
862.67	23.077
862.97	82.353
863.26	65.000
863.56	5.882
863.85	-100.000
864.15	50.000
864.44	38.462
864.74	55.000
865.03	50.000
865.33	66.667
865.62	11.765
865.92	-225.000
866.21	42.857
866.51	8.333
866.80	800.000
867.10	66.667
867.39	35.294
867.69	60.870
867.98	157.143
868.27	-20.000
868.57	6.250
868.86	9.091
869.16	0.000
869.45	116.667
869.75	57.143
870.04	100.000
870.33	8.333
870.63	80.000
870.92	122.222
871.22	50.000
871.51	45.455
871.80	58.333
872.10	70.000
>>>>>End Processed Spectral Data<<<<<
