SpectraSuite Data File
++++++++++++++++++++++++++++++++++++
Date: Sat May 16 11:20:36 PDT 2015
User: schluterlab
Dark Spectrum Present: Yes
Reference Spectrum Present: Yes
Number of Sampled Component Spectra: 1
Spectrometers: USB2E3373
Integration Time (usec): 3000 (USB2E3373)
Spectra Averaged: 3 (USB2E3373)
Boxcar Smoothing: 0 (USB2E3373)
Correct for Electrical Dark: No (USB2E3373)
Strobe/Lamp Enabled: No (USB2E3373)
Correct for Detector Non-linearity: No (USB2E3373)
Correct for Stray Light: No (USB2E3373)
Number of Pixels in Processed Spectrum: 2048
>>>>>Begin Processed Spectral Data<<<<<
178.53	0.000
178.91	86.667
179.29	266.667
179.67	-400.000
180.04	-61.538
180.42	700.000
180.80	200.000
181.18	225.000
181.56	50.000
181.94	1100.000
182.31	375.000
182.69	-92.308
183.07	-500.000
183.45	900.000
183.83	233.333
184.20	-128.571
184.58	-162.500
184.96	-100.000
185.34	93.750
185.72	-225.000
186.09	133.333
186.47	-137.500
186.85	-200.000
187.23	25.000
187.61	-275.000
187.98	-162.500
188.36	-62.500
188.74	12.500
189.12	1500.000
189.49	342.857
189.87	-125.000
190.25	375.000
190.63	-50.000
191.00	-266.667
191.38	260.000
191.76	-13.333
192.14	500.000
192.51	-180.000
192.89	-500.000
193.27	0.000
193.65	-122.222
194.02	-242.857
194.40	666.667
194.78	-50.000
195.15	300.000
195.53	-54.545
195.91	-383.333
196.29	360.000
196.66	-500.000
197.04	1500.000
197.42	-275.000
197.79	6.667
198.17	-533.333
198.55	-250.000
198.92	-100.000
199.30	237.500
199.68	-250.000
200.05	-133.333
200.43	-77.778
200.81	-2300.000
201.18	-100.000
201.56	128.571
201.94	-40.000
202.31	27.273
202.69	50.000
203.07	-40.000
203.44	433.333
203.82	-216.667
204.19	-200.000
204.57	-175.000
204.95	-1600.000
205.32	25.000
205.70	200.000
206.08	-1600.000
206.45	16.667
206.83	-950.000
207.20	-100.000
207.58	-600.000
207.96	-466.667
208.33	-175.000
208.71	-122.222
209.08	130.000
209.46	-185.714
209.84	450.000
210.21	0.000
210.59	-5.000
210.96	-100.000
211.34	-150.000
211.71	-233.333
212.09	250.000
212.46	1250.000
212.84	-2200.000
213.22	466.667
213.59	125.000
213.97	0.000
214.34	110.000
214.72	-170.000
215.09	-233.333
215.47	-116.667
215.84	-60.000
216.22	-50.000
216.59	-13.333
216.97	-425.000
217.34	1050.000
217.72	-157.143
218.09	-300.000
218.47	-214.286
218.84	257.143
219.22	0.000
219.59	0.000
219.97	142.857
220.34	150.000
220.72	200.000
221.09	-7.692
221.47	0.000
221.84	233.333
222.22	-900.000
222.59	300.000
222.97	-187.500
223.34	-400.000
223.72	-733.333
224.09	-64.286
224.46	-275.000
224.84	-71.429
225.21	-171.429
225.59	-127.273
225.96	-50.000
226.34	-128.571
226.71	-100.000
227.08	-20.000
227.46	1100.000
227.83	-200.000
228.21	-112.500
228.58	700.000
228.95	-50.000
229.33	-1300.000
229.70	-180.000
230.08	-700.000
230.45	-16.667
230.82	-133.333
231.20	-500.000
231.57	-350.000
231.95	600.000
232.32	-19.048
232.69	-100.000
233.07	-242.857
233.44	-950.000
233.81	-120.000
234.19	-100.000
234.56	-87.500
234.93	0.000
235.31	-271.429
235.68	-121.429
236.05	-35.294
236.43	-109.091
236.80	-45.161
237.17	-4.167
237.55	-71.429
237.92	-63.636
238.29	-14.286
238.67	-23.529
239.04	16.667
239.41	-25.806
239.79	-33.333
240.16	-30.952
240.53	-9.091
240.91	-20.513
241.28	-5.455
241.65	4.615
242.02	-19.672
242.40	-4.918
242.77	-6.061
243.14	-15.254
243.51	-11.429
243.89	-10.127
244.26	-4.494
244.63	1.053
245.00	-7.368
245.38	0.847
245.75	-1.770
246.12	0.800
246.49	5.512
246.87	4.065
247.24	-15.254
247.61	-10.169
247.98	4.930
248.36	-12.587
248.73	-4.430
249.10	-5.096
249.47	-2.339
249.84	1.705
250.22	-10.119
250.59	5.650
250.96	-3.665
251.33	6.635
251.70	1.923
252.08	0.948
252.45	5.213
252.82	-6.667
253.19	0.000
253.56	0.403
253.94	-2.110
254.31	-3.004
254.68	-1.626
255.05	-1.613
255.42	1.984
255.79	3.226
256.16	-4.706
256.54	2.574
256.91	-3.030
257.28	-0.366
257.65	1.064
258.02	4.403
258.39	-1.338
258.76	-0.676
259.14	2.160
259.51	1.311
259.88	2.439
260.25	3.416
260.62	-0.643
260.99	1.484
261.36	-1.220
261.73	-1.156
262.10	3.056
262.47	0.285
262.85	4.857
263.22	-0.573
263.59	-3.077
263.96	4.928
264.33	-0.271
264.70	2.486
265.07	0.000
265.44	-0.775
265.81	1.809
266.18	-1.013
266.55	1.961
266.92	1.763
267.29	0.726
267.66	0.988
268.03	3.140
268.40	1.408
268.77	-0.482
269.14	1.392
269.51	2.989
269.88	-2.064
270.25	-0.932
270.62	3.204
270.99	-0.450
271.36	1.166
271.73	4.036
272.10	0.915
272.47	-1.111
272.84	2.667
273.21	2.294
273.58	1.978
273.95	0.219
274.32	2.036
274.69	4.814
275.06	3.272
275.43	2.232
275.80	2.648
276.17	1.883
276.54	3.462
276.91	-0.206
277.28	0.811
277.65	1.653
278.02	0.835
278.39	0.982
278.76	1.594
279.13	1.779
279.50	2.584
279.87	1.268
280.23	1.619
280.60	1.789
280.97	0.777
281.34	1.741
281.71	3.269
282.08	2.016
282.45	-1.018
282.82	1.550
283.19	0.364
283.56	3.114
283.92	3.004
284.29	2.602
284.66	2.518
285.03	2.317
285.40	2.952
285.77	2.105
286.14	0.542
286.51	1.421
286.87	4.719
287.24	1.365
287.61	3.802
287.98	2.253
288.35	1.653
288.72	0.170
289.08	0.169
289.45	3.199
289.82	1.557
290.19	2.791
290.56	-0.992
290.93	0.636
291.29	1.783
291.66	0.644
292.03	2.198
292.40	3.163
292.77	2.329
293.13	1.301
293.50	0.892
293.87	2.607
294.24	3.318
294.60	1.212
294.97	2.883
295.34	1.037
295.71	1.637
296.08	1.229
296.44	0.715
296.81	3.704
297.18	2.254
297.55	1.977
297.91	3.905
298.28	2.055
298.65	0.976
299.02	2.273
299.38	1.471
299.75	1.902
300.12	3.333
300.48	2.174
300.85	1.704
301.22	2.975
301.59	1.560
301.95	2.267
302.32	1.173
302.69	1.958
303.05	2.198
303.42	2.625
303.79	2.153
304.15	1.659
304.52	2.334
304.89	2.597
305.25	1.587
305.62	3.643
305.99	3.769
306.35	2.442
306.72	3.303
307.09	4.086
307.45	2.951
307.82	2.011
308.19	3.244
308.55	3.704
308.92	2.578
309.29	3.351
309.65	4.242
310.02	3.024
310.38	2.162
310.75	3.586
311.12	4.545
311.48	5.115
311.85	4.119
312.22	5.149
312.58	4.273
312.95	3.568
313.31	4.396
313.68	6.332
314.05	6.528
314.41	4.628
314.78	4.196
315.14	5.232
315.51	5.674
315.87	6.099
316.24	6.317
316.61	6.430
316.97	6.468
317.34	7.322
317.70	5.844
318.07	7.836
318.43	7.491
318.80	8.075
319.16	6.754
319.53	7.143
319.89	7.714
320.26	9.216
320.62	8.173
320.99	9.453
321.35	8.177
321.72	7.881
322.08	9.199
322.45	8.713
322.81	9.318
323.18	9.606
323.54	9.704
323.91	11.029
324.27	11.122
324.64	10.603
325.00	11.518
325.37	11.674
325.73	12.248
326.10	11.160
326.46	13.135
326.83	13.106
327.19	13.428
327.56	14.225
327.92	14.104
328.29	14.026
328.65	14.364
329.01	15.018
329.38	15.879
329.74	16.941
330.11	15.775
330.47	16.258
330.84	16.590
331.20	16.516
331.56	17.685
331.93	17.229
332.29	18.904
332.66	18.174
333.02	17.919
333.38	18.459
333.75	18.700
334.11	18.133
334.48	18.094
334.84	19.248
335.20	18.972
335.57	18.412
335.93	21.038
336.29	19.398
336.66	18.855
337.02	19.099
337.38	19.786
337.75	18.876
338.11	19.589
338.47	18.772
338.84	19.691
339.20	20.123
339.56	21.123
339.93	18.695
340.29	18.246
340.65	19.930
341.02	19.815
341.38	19.966
341.74	19.390
342.11	20.648
342.47	19.914
342.83	19.312
343.20	19.641
343.56	18.122
343.92	21.119
344.28	20.269
344.65	20.215
345.01	20.252
345.37	20.349
345.73	19.804
346.10	19.460
346.46	19.821
346.82	19.086
347.19	19.721
347.55	18.860
347.91	20.079
348.27	19.809
348.63	21.002
349.00	20.207
349.36	19.594
349.72	21.576
350.08	20.690
350.45	20.016
350.81	20.541
351.17	21.061
351.53	19.650
351.89	19.563
352.26	21.085
352.62	21.198
352.98	20.332
353.34	20.544
353.70	19.691
354.07	20.614
354.43	21.265
354.79	20.761
355.15	20.447
355.51	21.484
355.87	21.423
356.24	19.698
356.60	22.482
356.96	21.093
357.32	20.665
357.68	21.456
358.04	21.555
358.40	22.506
358.77	21.484
359.13	21.653
359.49	22.600
359.85	21.951
360.21	21.918
360.57	21.611
360.93	22.222
361.29	22.795
361.66	21.951
362.02	22.781
362.38	22.157
362.74	21.465
363.10	22.238
363.46	23.789
363.82	22.886
364.18	23.300
364.54	24.303
364.90	23.270
365.26	23.324
365.62	24.305
365.98	23.969
366.35	24.085
366.71	22.833
367.07	23.783
367.43	24.022
367.79	24.605
368.15	22.617
368.51	23.566
368.87	24.038
369.23	24.491
369.59	24.306
369.95	24.524
370.31	25.105
370.67	23.717
371.03	24.854
371.39	23.904
371.75	25.179
372.11	25.968
372.47	25.163
372.83	25.313
373.19	25.429
373.55	26.531
373.91	25.676
374.27	25.325
374.63	26.225
374.99	26.565
375.35	25.370
375.71	27.279
376.07	26.899
376.42	24.967
376.78	25.948
377.14	26.712
377.50	26.692
377.86	26.723
378.22	27.387
378.58	27.054
378.94	27.065
379.30	26.996
379.66	26.776
380.02	26.916
380.38	27.311
380.74	27.198
381.09	28.237
381.45	28.580
381.81	28.433
382.17	27.945
382.53	28.267
382.89	27.632
383.25	27.875
383.61	28.125
383.97	28.965
384.32	27.847
384.68	28.960
385.04	29.227
385.40	27.815
385.76	29.573
386.12	28.482
386.48	30.260
386.83	29.509
387.19	29.348
387.55	28.952
387.91	29.046
388.27	28.709
388.62	29.147
388.98	29.740
389.34	29.376
389.70	29.963
390.06	29.459
390.42	30.192
390.77	30.536
391.13	31.366
391.49	30.443
391.85	29.863
392.20	29.794
392.56	29.688
392.92	30.177
393.28	30.367
393.64	30.607
393.99	30.708
394.35	30.231
394.71	30.698
395.07	30.320
395.42	30.095
395.78	30.295
396.14	31.277
396.50	31.560
396.85	30.537
397.21	30.437
397.57	30.821
397.92	31.382
398.28	30.944
398.64	30.577
399.00	32.191
399.35	31.003
399.71	31.823
400.07	31.821
400.42	30.839
400.78	30.948
401.14	31.317
401.49	31.132
401.85	32.093
402.21	32.181
402.57	31.311
402.92	31.655
403.28	30.699
403.63	31.995
403.99	31.759
404.35	30.676
404.70	30.895
405.06	30.854
405.42	31.242
405.77	30.204
406.13	31.005
406.49	30.377
406.84	30.894
407.20	31.861
407.55	31.222
407.91	31.736
408.27	30.944
408.62	32.291
408.98	31.474
409.34	31.018
409.69	30.498
410.05	31.534
410.40	31.330
410.76	32.484
411.11	31.359
411.47	31.394
411.83	31.846
412.18	31.621
412.54	31.544
412.89	32.017
413.25	31.346
413.60	30.984
413.96	30.746
414.31	32.661
414.67	32.127
415.03	31.759
415.38	32.206
415.74	32.732
416.09	31.586
416.45	31.349
416.80	31.664
417.16	31.761
417.51	31.779
417.87	31.909
418.22	32.870
418.58	32.542
418.93	32.618
419.29	32.183
419.64	31.658
420.00	34.690
420.35	32.762
420.71	32.113
421.06	32.959
421.42	32.728
421.77	33.892
422.12	33.688
422.48	33.298
422.83	33.542
423.19	32.795
423.54	33.372
423.90	33.083
424.25	32.353
424.61	34.138
424.96	34.582
425.31	33.930
425.67	34.097
426.02	33.563
426.38	34.846
426.73	33.898
427.09	35.355
427.44	35.227
427.79	34.186
428.15	34.949
428.50	34.956
428.85	35.252
429.21	35.695
429.56	35.625
429.92	35.020
430.27	35.593
430.62	35.737
430.98	35.128
431.33	35.539
431.68	36.193
432.04	36.150
432.39	36.524
432.74	36.631
433.10	35.622
433.45	35.694
433.80	36.674
434.16	36.378
434.51	37.151
434.86	38.079
435.22	37.639
435.57	35.924
435.92	36.694
436.28	37.982
436.63	36.970
436.98	36.197
437.34	37.862
437.69	37.515
438.04	36.699
438.39	37.485
438.75	37.660
439.10	37.146
439.45	37.296
439.81	37.349
440.16	37.024
440.51	38.941
440.86	37.363
441.22	37.922
441.57	37.579
441.92	37.698
442.27	37.121
442.63	39.163
442.98	37.754
443.33	38.056
443.68	39.291
444.03	38.409
444.39	38.522
444.74	38.932
445.09	38.268
445.44	38.492
445.79	39.113
446.15	39.157
446.50	38.813
446.85	37.814
447.20	37.743
447.55	39.558
447.91	39.023
448.26	38.268
448.61	39.445
448.96	39.832
449.31	39.064
449.66	38.924
450.02	37.784
450.37	38.667
450.72	39.548
451.07	39.032
451.42	38.786
451.77	38.899
452.12	38.915
452.47	39.610
452.83	39.313
453.18	39.658
453.53	39.055
453.88	40.072
454.23	38.996
454.58	40.584
454.93	39.673
455.28	39.898
455.63	39.251
455.98	39.819
456.34	39.136
456.69	40.275
457.04	39.951
457.39	39.653
457.74	40.579
458.09	40.139
458.44	40.127
458.79	39.854
459.14	39.076
459.49	40.971
459.84	39.741
460.19	40.394
460.54	40.109
460.89	40.247
461.24	40.376
461.59	40.680
461.94	40.802
462.29	39.726
462.64	40.250
462.99	41.499
463.34	39.365
463.69	39.758
464.04	39.836
464.39	40.203
464.74	40.603
465.09	39.146
465.44	39.820
465.79	40.102
466.14	40.219
466.49	40.299
466.84	40.156
467.19	41.085
467.54	39.747
467.89	39.951
468.24	39.667
468.59	40.475
468.94	40.772
469.29	39.376
469.64	40.566
469.99	41.391
470.34	40.481
470.68	41.352
471.03	40.330
471.38	40.625
471.73	41.678
472.08	40.763
472.43	39.961
472.78	40.267
473.13	40.888
473.48	40.906
473.83	39.888
474.17	40.382
474.52	41.304
474.87	40.618
475.22	39.705
475.57	41.444
475.92	40.929
476.27	39.714
476.61	40.901
476.96	40.973
477.31	41.281
477.66	40.288
478.01	40.681
478.36	40.859
478.70	40.844
479.05	40.022
479.40	40.518
479.75	40.010
480.10	39.931
480.45	39.023
480.79	40.030
481.14	40.140
481.49	40.561
481.84	40.268
482.19	41.160
482.53	40.909
482.88	39.487
483.23	40.188
483.58	41.027
483.92	40.038
484.27	39.256
484.62	40.259
484.97	39.127
485.31	38.592
485.66	37.735
486.01	37.868
486.36	39.281
486.70	39.770
487.05	39.261
487.40	39.343
487.75	38.349
488.09	39.160
488.44	39.411
488.79	38.203
489.13	39.254
489.48	39.886
489.83	40.480
490.17	40.531
490.52	40.489
490.87	38.938
491.22	40.168
491.56	39.306
491.91	41.651
492.26	39.764
492.60	39.724
492.95	40.029
493.30	39.686
493.64	40.386
493.99	40.535
494.34	40.810
494.68	40.730
495.03	40.296
495.37	41.150
495.72	40.029
496.07	39.840
496.41	41.223
496.76	40.365
497.11	40.226
497.45	39.990
497.80	40.670
498.14	40.717
498.49	39.930
498.84	40.097
499.18	40.595
499.53	41.062
499.87	40.203
500.22	40.294
500.56	40.670
500.91	40.788
501.26	40.757
501.60	40.250
501.95	41.208
502.29	40.198
502.64	41.018
502.98	40.105
503.33	39.850
503.67	40.374
504.02	40.415
504.36	40.098
504.71	40.122
505.06	39.840
505.40	40.469
505.75	41.768
506.09	40.950
506.44	40.852
506.78	40.743
507.13	40.783
507.47	41.471
507.82	41.456
508.16	42.021
508.51	40.701
508.85	40.942
509.19	41.183
509.54	41.596
509.88	41.170
510.23	41.562
510.57	41.587
510.92	41.407
511.26	40.670
511.61	40.983
511.95	40.463
512.30	40.462
512.64	40.512
512.98	41.914
513.33	42.010
513.67	40.983
514.02	41.331
514.36	41.330
514.70	41.653
515.05	41.052
515.39	40.427
515.74	42.874
516.08	42.421
516.42	42.153
516.77	41.190
517.11	42.963
517.46	43.002
517.80	43.622
518.14	41.787
518.49	42.917
518.83	41.484
519.17	41.800
519.52	41.758
519.86	42.174
520.20	42.787
520.55	42.585
520.89	42.455
521.23	42.308
521.58	41.944
521.92	43.699
522.26	42.159
522.61	42.522
522.95	42.119
523.29	42.821
523.64	41.724
523.98	42.775
524.32	42.803
524.66	41.863
525.01	42.839
525.35	41.430
525.69	43.006
526.04	42.493
526.38	43.730
526.72	41.507
527.06	42.839
527.41	42.244
527.75	41.914
528.09	43.415
528.43	42.623
528.78	41.834
529.12	43.022
529.46	42.075
529.80	42.414
530.15	43.142
530.49	41.979
530.83	43.615
531.17	42.424
531.51	43.336
531.86	41.277
532.20	42.982
532.54	43.382
532.88	43.215
533.22	42.380
533.57	43.277
533.91	41.011
534.25	41.483
534.59	42.099
534.93	41.755
535.27	42.417
535.62	42.072
535.96	41.952
536.30	42.147
536.64	42.032
536.98	43.291
537.32	41.880
537.66	41.819
538.01	43.299
538.35	41.622
538.69	42.112
539.03	41.368
539.37	42.448
539.71	42.295
540.05	41.947
540.39	41.551
540.73	43.193
541.07	41.257
541.42	40.851
541.76	40.864
542.10	42.606
542.44	41.572
542.78	42.062
543.12	41.141
543.46	40.890
543.80	40.669
544.14	41.303
544.48	41.929
544.82	41.340
545.16	41.247
545.50	40.579
545.84	42.003
546.18	42.718
546.52	41.252
546.86	42.236
547.20	42.897
547.54	41.322
547.88	41.141
548.22	40.760
548.56	40.013
548.90	42.183
549.24	41.836
549.58	42.202
549.92	42.473
550.26	43.064
550.60	41.038
550.94	41.825
551.28	42.137
551.62	42.762
551.96	41.968
552.30	42.718
552.64	42.435
552.98	42.747
553.32	42.063
553.66	43.764
554.00	42.431
554.34	41.661
554.68	42.544
555.02	42.764
555.36	41.912
555.69	42.550
556.03	41.614
556.37	41.181
556.71	43.021
557.05	43.089
557.39	42.390
557.73	42.597
558.07	43.255
558.41	42.408
558.75	41.901
559.08	42.802
559.42	42.190
559.76	42.868
560.10	42.729
560.44	43.497
560.78	42.867
561.12	41.546
561.45	42.397
561.79	42.369
562.13	43.268
562.47	41.387
562.81	41.443
563.15	41.568
563.48	43.262
563.82	41.988
564.16	41.447
564.50	41.935
564.84	41.799
565.17	40.981
565.51	42.112
565.85	42.664
566.19	42.622
566.52	42.661
566.86	42.162
567.20	42.554
567.54	42.705
567.88	41.094
568.21	41.946
568.55	40.456
568.89	39.662
569.23	39.796
569.56	39.596
569.90	39.890
570.24	40.023
570.57	37.680
570.91	38.626
571.25	38.748
571.59	39.026
571.92	38.690
572.26	38.286
572.60	38.070
572.93	38.247
573.27	37.378
573.61	37.310
573.95	38.026
574.28	37.338
574.62	38.510
574.96	37.438
575.29	37.246
575.63	38.174
575.97	37.217
576.30	37.654
576.64	38.225
576.98	37.348
577.31	37.116
577.65	37.956
577.98	37.596
578.32	38.034
578.66	37.829
578.99	37.999
579.33	37.654
579.67	37.459
580.00	37.773
580.34	37.158
580.67	37.681
581.01	36.472
581.35	37.387
581.68	37.290
582.02	37.140
582.35	37.507
582.69	38.177
583.02	37.997
583.36	38.227
583.70	37.890
584.03	38.147
584.37	38.322
584.70	38.488
585.04	37.392
585.37	36.969
585.71	38.316
586.04	38.095
586.38	38.038
586.72	38.360
587.05	38.601
587.39	37.749
587.72	38.041
588.06	38.872
588.39	39.163
588.73	38.473
589.06	38.651
589.40	38.578
589.73	39.200
590.07	38.929
590.40	39.742
590.73	38.984
591.07	39.139
591.40	39.081
591.74	39.401
592.07	39.189
592.41	39.703
592.74	39.277
593.08	39.272
593.41	38.454
593.75	38.477
594.08	40.367
594.41	40.370
594.75	39.789
595.08	39.662
595.42	38.909
595.75	39.618
596.09	39.503
596.42	39.771
596.75	39.155
597.09	40.160
597.42	39.110
597.75	39.460
598.09	39.991
598.42	39.063
598.76	38.870
599.09	38.753
599.42	39.754
599.76	39.109
600.09	39.427
600.42	39.309
600.76	38.945
601.09	39.271
601.42	38.979
601.76	38.512
602.09	39.427
602.42	39.588
602.76	39.884
603.09	39.516
603.42	40.411
603.76	40.128
604.09	39.367
604.42	39.301
604.76	40.209
605.09	39.602
605.42	40.691
605.75	39.888
606.09	39.352
606.42	40.134
606.75	40.232
607.09	39.965
607.42	39.525
607.75	40.706
608.08	40.127
608.42	39.640
608.75	39.252
609.08	40.770
609.41	39.462
609.75	39.298
610.08	40.245
610.41	40.289
610.74	41.103
611.07	40.365
611.41	40.343
611.74	41.388
612.07	40.977
612.40	40.192
612.73	40.118
613.07	41.222
613.40	41.762
613.73	39.946
614.06	40.362
614.39	41.714
614.72	40.279
615.06	41.141
615.39	39.881
615.72	40.630
616.05	39.205
616.38	41.439
616.71	39.820
617.05	41.677
617.38	41.486
617.71	40.909
618.04	42.050
618.37	41.761
618.70	41.591
619.03	40.555
619.36	42.213
619.69	41.565
620.03	40.634
620.36	40.858
620.69	42.283
621.02	41.324
621.35	42.903
621.68	43.443
622.01	43.770
622.34	41.149
622.67	42.813
623.00	41.928
623.33	42.910
623.66	42.319
623.99	41.805
624.32	41.295
624.65	42.458
624.99	42.046
625.32	42.141
625.65	43.357
625.98	40.767
626.31	42.577
626.64	42.845
626.97	41.866
627.30	43.660
627.63	43.696
627.96	42.646
628.29	43.199
628.62	41.834
628.95	45.276
629.28	44.079
629.61	42.983
629.94	42.911
630.26	44.235
630.59	44.925
630.92	43.043
631.25	44.052
631.58	43.598
631.91	43.085
632.24	46.444
632.57	46.889
632.90	44.138
633.23	44.626
633.56	45.029
633.89	45.637
634.22	45.573
634.55	44.471
634.88	43.652
635.20	42.821
635.53	45.293
635.86	44.458
636.19	43.590
636.52	45.161
636.85	42.720
637.18	43.250
637.51	45.601
637.83	46.072
638.16	46.053
638.49	46.759
638.82	45.560
639.15	46.693
639.48	43.061
639.81	46.058
640.13	43.243
640.46	46.581
640.79	44.678
641.12	44.429
641.45	45.911
641.77	47.156
642.10	44.411
642.43	46.282
642.76	46.299
643.09	45.079
643.41	48.571
643.74	48.331
644.07	46.802
644.40	48.298
644.73	48.020
645.05	46.745
645.38	46.523
645.71	49.141
646.04	45.042
646.36	46.946
646.69	47.751
647.02	47.834
647.35	48.736
647.67	48.358
648.00	48.506
648.33	46.037
648.66	44.677
648.98	46.178
649.31	46.000
649.64	45.781
649.96	46.625
650.29	45.902
650.62	45.783
650.94	45.025
651.27	45.754
651.60	47.232
651.92	47.432
652.25	47.078
652.58	44.974
652.90	44.623
653.23	46.774
653.56	44.314
653.88	45.246
654.21	46.812
654.54	45.847
654.86	46.388
655.19	44.986
655.52	41.345
655.84	38.239
656.17	41.004
656.49	55.599
656.82	57.927
657.15	43.375
657.47	32.249
657.80	25.062
658.13	28.285
658.45	37.608
658.78	37.340
659.10	36.862
659.43	36.528
659.75	36.743
660.08	36.667
660.41	36.742
660.73	39.934
661.06	43.623
661.38	45.357
661.71	45.507
662.03	47.581
662.36	48.614
662.68	45.992
663.01	48.195
663.33	49.433
663.66	48.069
663.98	46.652
664.31	48.098
664.63	51.327
664.96	44.902
665.28	47.939
665.61	45.666
665.93	47.737
666.26	47.166
666.58	46.154
666.91	49.443
667.23	46.053
667.56	47.619
667.88	47.964
668.21	48.387
668.53	49.065
668.86	50.577
669.18	50.000
669.50	48.598
669.83	50.608
670.15	46.637
670.48	46.729
670.80	47.153
671.13	43.567
671.45	46.171
671.77	48.822
672.10	45.759
672.42	48.893
672.75	45.455
673.07	44.144
673.39	43.898
673.72	46.457
674.04	43.312
674.37	43.093
674.69	47.746
675.01	44.894
675.34	45.770
675.66	46.220
675.98	47.357
676.31	46.833
676.63	48.506
676.95	44.248
677.28	47.332
677.60	49.321
677.92	47.357
678.25	46.171
678.57	44.444
678.89	47.379
679.22	45.493
679.54	46.351
679.86	45.000
680.18	46.768
680.51	44.879
680.83	48.000
681.15	45.279
681.48	49.696
681.80	46.371
682.12	43.662
682.44	45.580
682.77	45.455
683.09	46.331
683.41	47.566
683.73	45.205
684.06	45.376
684.38	44.979
684.70	44.856
685.02	45.472
685.34	46.004
685.67	43.561
685.99	40.643
686.31	44.165
686.63	45.745
686.96	41.959
687.28	44.123
687.60	44.922
687.92	42.996
688.24	43.504
688.56	42.285
688.89	42.735
689.21	46.608
689.53	45.287
689.85	46.325
690.17	45.291
690.49	45.958
690.82	46.747
691.14	44.575
691.46	47.450
691.78	46.256
692.10	48.093
692.42	43.778
692.74	44.635
693.06	43.371
693.39	44.295
693.71	45.147
694.03	48.380
694.35	40.406
694.67	46.336
694.99	45.524
695.31	45.153
695.63	40.816
695.95	48.139
696.27	45.636
696.59	47.326
696.91	48.315
697.23	47.135
697.56	45.192
697.88	43.919
698.20	41.756
698.52	43.722
698.84	46.845
699.16	40.714
699.48	45.000
699.80	42.607
700.12	43.325
700.44	45.531
700.76	47.813
701.08	47.674
701.40	46.224
701.72	46.296
702.04	50.641
702.36	45.482
702.68	46.707
703.00	44.638
703.32	41.261
703.64	47.647
703.96	46.802
704.28	49.704
704.60	43.038
704.91	43.175
705.23	48.220
705.55	47.297
705.87	46.416
706.19	42.708
706.51	46.181
706.83	45.902
707.15	44.904
707.47	43.802
707.79	45.619
708.11	40.967
708.43	44.888
708.74	42.338
709.06	41.226
709.38	45.402
709.70	44.375
710.02	46.319
710.34	47.195
710.66	44.127
710.98	44.164
711.29	39.355
711.61	44.089
711.93	44.262
712.25	42.193
712.57	43.206
712.89	49.281
713.20	49.485
713.52	47.015
713.84	45.907
714.16	47.869
714.48	42.222
714.80	42.769
715.11	41.210
715.43	43.675
715.75	44.860
716.07	43.607
716.39	44.147
716.70	44.599
717.02	45.556
717.34	47.710
717.66	51.867
717.97	47.951
718.29	45.378
718.61	46.825
718.93	46.237
719.24	41.176
719.56	44.528
719.88	43.636
720.20	46.442
720.51	47.744
720.83	43.373
721.15	44.262
721.46	46.667
721.78	44.061
722.10	44.000
722.42	41.322
722.73	40.637
723.05	46.185
723.37	45.098
723.68	44.534
724.00	50.813
724.32	42.798
724.63	38.589
724.95	45.455
725.27	43.860
725.58	45.690
725.90	43.651
726.22	46.125
726.53	44.487
726.85	41.176
727.16	39.850
727.48	35.769
727.80	40.984
728.11	42.857
728.43	48.347
728.74	39.844
729.06	43.561
729.38	40.467
729.69	42.913
730.01	46.850
730.32	44.223
730.64	48.352
730.96	46.269
731.27	43.571
731.59	44.051
731.90	41.104
732.22	41.718
732.53	44.040
732.85	39.262
733.16	39.855
733.48	42.509
733.80	38.078
734.11	38.276
734.43	40.816
734.74	40.356
735.06	42.006
735.37	45.566
735.69	37.097
736.00	39.394
736.32	43.046
736.63	39.310
736.95	40.217
737.26	42.384
737.58	41.367
737.89	46.237
738.21	39.850
738.52	43.077
738.83	41.406
739.15	39.744
739.46	43.952
739.78	40.909
740.09	41.608
740.41	38.112
740.72	43.066
741.04	46.032
741.35	38.961
741.66	42.130
741.98	39.524
742.29	45.540
742.61	40.642
742.92	46.729
743.23	38.596
743.55	40.991
743.86	44.889
744.18	40.000
744.49	49.754
744.80	43.655
745.12	46.907
745.43	40.704
745.74	48.058
746.06	40.488
746.37	44.934
746.68	39.303
747.00	41.885
747.31	44.231
747.62	42.396
747.94	41.485
748.25	48.837
748.56	41.905
748.88	36.413
749.19	40.845
749.50	46.078
749.82	41.778
750.13	47.137
750.44	41.057
750.75	43.200
751.07	42.143
751.38	39.114
751.69	40.840
752.01	44.615
752.32	43.580
752.63	40.385
752.94	42.063
753.26	43.913
753.57	38.839
753.88	41.379
754.19	38.589
754.51	42.188
754.82	42.688
755.13	40.741
755.44	41.322
755.75	44.856
756.07	36.546
756.38	35.547
756.69	40.072
757.00	38.676
757.31	37.248
757.63	40.810
757.94	39.017
758.25	35.756
758.56	41.779
758.87	37.784
759.18	42.000
759.50	41.281
759.81	35.401
760.12	38.514
760.43	38.835
760.74	39.688
761.05	41.854
761.36	40.120
761.67	37.574
761.99	37.097
762.30	41.304
762.61	40.755
762.92	40.359
763.23	41.706
763.54	39.556
763.85	42.194
764.16	36.735
764.47	42.797
764.78	40.824
765.10	42.446
765.41	37.419
765.72	38.994
766.03	36.749
766.34	35.338
766.65	36.032
766.96	40.000
767.27	43.750
767.58	32.558
767.89	50.323
768.20	42.945
768.51	38.798
768.82	46.486
769.13	34.500
769.44	37.281
769.75	41.558
770.06	38.991
770.37	26.291
770.68	39.583
770.99	33.168
771.30	40.777
771.61	40.278
771.92	37.229
772.23	37.383
772.54	42.553
772.85	35.503
773.16	48.780
773.47	45.181
773.78	40.659
774.09	47.333
774.39	37.654
774.70	37.584
775.01	42.754
775.32	34.328
775.63	38.843
775.94	35.338
776.25	37.143
776.56	47.541
776.87	40.708
777.18	41.593
777.48	34.545
777.79	34.783
778.10	34.862
778.41	33.898
778.72	37.190
779.03	44.776
779.34	48.120
779.65	37.255
779.95	34.058
780.26	30.612
780.57	34.483
780.88	48.148
781.19	40.404
781.50	24.800
781.80	35.294
782.11	45.513
782.42	38.554
782.73	35.766
783.04	35.135
783.34	22.727
783.65	41.085
783.96	32.520
784.27	36.752
784.57	25.203
784.88	30.081
785.19	35.088
785.50	21.649
785.81	20.952
786.11	39.216
786.42	31.818
786.73	27.928
787.04	45.545
787.34	27.619
787.65	20.952
787.96	36.275
788.26	32.432
788.57	41.935
788.88	25.781
789.19	31.624
789.49	40.336
789.80	30.769
790.11	31.858
790.41	26.263
790.72	31.132
791.03	31.944
791.33	27.632
791.64	37.634
791.95	33.333
792.25	24.286
792.56	29.268
792.87	28.571
793.17	19.737
793.48	25.676
793.79	35.211
794.09	32.911
794.40	34.043
794.70	43.925
795.01	22.807
795.32	29.091
795.62	20.536
795.93	25.773
796.23	34.066
796.54	49.474
796.85	10.959
797.15	29.167
797.46	35.616
797.76	47.887
798.07	32.500
798.37	42.647
798.68	34.286
798.99	44.286
799.29	15.789
799.60	46.667
799.90	11.111
800.21	15.625
800.51	23.810
800.82	27.869
801.12	12.281
801.43	29.577
801.73	22.034
802.04	32.787
802.34	5.455
802.65	5.769
802.95	31.481
803.26	-12.500
803.56	19.231
803.87	10.526
804.17	16.129
804.48	40.000
804.78	17.949
805.09	18.605
805.39	0.000
805.70	13.208
806.00	40.351
806.30	31.081
806.61	35.294
806.91	28.395
807.22	36.000
807.52	28.358
807.83	40.323
808.13	30.159
808.43	21.818
808.74	30.303
809.04	43.396
809.35	32.877
809.65	42.105
809.95	38.235
810.26	31.373
810.56	14.000
810.86	16.327
811.17	25.714
811.47	13.462
811.77	61.290
812.08	-5.263
812.38	45.238
812.69	17.391
812.99	38.710
813.29	16.667
813.59	14.815
813.90	4.255
814.20	-18.605
814.50	10.417
814.81	26.667
815.11	26.829
815.41	10.000
815.72	54.286
816.02	0.000
816.32	10.256
816.62	29.730
816.93	-11.765
817.23	15.217
817.53	47.059
817.84	20.588
818.14	15.625
818.44	0.000
818.74	-19.355
819.04	0.000
819.35	16.667
819.65	-32.000
819.95	23.333
820.25	8.000
820.56	13.158
820.86	17.500
821.16	25.532
821.46	15.517
821.76	12.821
822.07	12.500
822.37	23.256
822.67	26.667
822.97	16.216
823.27	-8.108
823.57	44.000
823.88	18.919
824.18	-42.857
824.48	0.000
824.78	-115.385
825.08	17.391
825.38	8.333
825.69	12.500
825.99	-30.000
826.29	-2.703
826.59	0.000
826.89	32.000
827.19	5.714
827.49	21.053
827.79	15.625
828.09	0.000
828.39	13.043
828.70	-51.724
829.00	20.690
829.30	11.111
829.60	53.125
829.90	11.111
830.20	7.692
830.50	-28.571
830.80	-28.571
831.10	7.692
831.40	-9.524
831.70	-5.882
832.00	4.167
832.30	-10.526
832.60	-25.000
832.90	-50.000
833.20	-35.294
833.50	-66.667
833.80	-33.333
834.10	5.000
834.40	12.500
834.70	11.111
835.00	15.385
835.30	0.000
835.60	20.690
835.90	-44.444
836.20	-81.818
836.50	-66.667
836.80	11.429
837.10	37.143
837.40	-76.471
837.70	-72.727
838.00	12.500
838.30	-18.750
838.60	4.762
838.90	15.000
839.19	0.000
839.49	0.000
839.79	-66.667
840.09	-47.826
840.39	13.636
840.69	-12.500
840.99	-36.842
841.29	-75.000
841.59	14.286
841.88	-27.778
842.18	-12.500
842.48	-47.059
842.78	13.793
843.08	-28.571
843.38	-23.077
843.68	-122.222
843.97	-100.000
844.27	-63.636
844.57	-200.000
844.87	44.000
845.17	-160.000
845.47	-35.714
845.76	77.778
846.06	0.000
846.36	-425.000
846.66	-30.000
846.96	-10.526
847.25	16.667
847.55	-100.000
847.85	53.333
848.15	-40.000
848.44	15.385
848.74	36.842
849.04	600.000
849.34	-22.222
849.63	-42.105
849.93	0.000
850.23	-30.000
850.53	19.048
850.82	8.000
851.12	-5.263
851.42	-900.000
851.71	-28.571
852.01	-16.667
852.31	11.765
852.61	26.667
852.90	-42.857
853.20	-133.333
853.50	16.667
853.79	-36.842
854.09	-80.000
854.39	7.143
854.68	0.000
854.98	-158.333
855.28	-3.448
855.57	-56.250
855.87	-10.000
856.17	-60.000
856.46	0.000
856.76	-13.333
857.05	-17.647
857.35	-92.308
857.65	36.364
857.94	-33.333
858.24	-64.286
858.53	-85.714
858.83	-50.000
859.13	-133.333
859.42	-9.524
859.72	-150.000
860.01	-233.333
860.31	-112.500
860.60	20.000
860.90	-188.889
861.20	-100.000
861.49	-214.286
861.79	29.412
862.08	-650.000
862.38	-133.333
862.67	-46.154
862.97	17.647
863.26	30.000
863.56	0.000
863.85	100.000
864.15	20.000
864.44	-84.615
864.74	5.000
865.03	-137.500
865.33	-66.667
865.62	-41.176
865.92	-250.000
866.21	-50.000
866.51	-200.000
866.80	-500.000
867.10	-133.333
867.39	17.647
867.69	4.348
867.98	-214.286
868.27	-360.000
868.57	-106.250
868.86	-100.000
869.16	-23.529
869.45	-33.333
869.75	-128.571
870.04	400.000
870.33	-8.333
870.63	-60.000
870.92	-100.000
871.22	-16.667
871.51	-36.364
871.80	-100.000
872.10	90.000
>>>>>End Processed Spectral Data<<<<<
