SpectraSuite Data File
++++++++++++++++++++++++++++++++++++
Date: Sat May 16 11:11:52 PDT 2015
User: schluterlab
Dark Spectrum Present: Yes
Reference Spectrum Present: Yes
Number of Sampled Component Spectra: 1
Spectrometers: USB2E3373
Integration Time (usec): 3000 (USB2E3373)
Spectra Averaged: 3 (USB2E3373)
Boxcar Smoothing: 0 (USB2E3373)
Correct for Electrical Dark: No (USB2E3373)
Strobe/Lamp Enabled: No (USB2E3373)
Correct for Detector Non-linearity: No (USB2E3373)
Correct for Stray Light: No (USB2E3373)
Number of Pixels in Processed Spectrum: 2048
>>>>>Begin Processed Spectral Data<<<<<
178.53	0.000
178.91	100.000
179.29	33.333
179.67	-600.000
180.04	-7.692
180.42	-100.000
180.80	-0.000
181.18	175.000
181.56	25.000
181.94	1100.000
182.31	375.000
182.69	15.385
183.07	-66.667
183.45	1250.000
183.83	266.667
184.20	-85.714
184.58	12.500
184.96	-250.000
185.34	100.000
185.72	-325.000
186.09	16.667
186.47	-75.000
186.85	-175.000
187.23	75.000
187.61	-175.000
187.98	-125.000
188.36	-12.500
188.74	-75.000
189.12	-300.000
189.49	257.143
189.87	66.667
190.25	125.000
190.63	-42.857
191.00	-166.667
191.38	120.000
191.76	73.333
192.14	120.000
192.51	-220.000
192.89	200.000
193.27	0.000
193.65	-100.000
194.02	-57.143
194.40	500.000
194.78	-50.000
195.15	-900.000
195.53	-54.545
195.91	-216.667
196.29	200.000
196.66	-366.667
197.04	1800.000
197.42	-25.000
197.79	53.333
198.17	33.333
198.55	-650.000
198.92	-600.000
199.30	25.000
199.68	-400.000
200.05	0.000
200.43	-77.778
200.81	-400.000
201.18	-58.333
201.56	14.286
201.94	40.000
202.31	50.000
202.69	80.000
203.07	-30.000
203.44	100.000
203.82	-150.000
204.19	-325.000
204.57	-50.000
204.95	-1400.000
205.32	-6.250
205.70	100.000
206.08	-2700.000
206.45	-33.333
206.83	-750.000
207.20	250.000
207.58	-500.000
207.96	200.000
208.33	37.500
208.71	-11.111
209.08	80.000
209.46	-114.286
209.84	600.000
210.21	0.000
210.59	25.000
210.96	-0.000
211.34	-50.000
211.71	33.333
212.09	25.000
212.46	700.000
212.84	-900.000
213.22	-33.333
213.59	41.667
213.97	55.556
214.34	80.000
214.72	0.000
215.09	-500.000
215.47	-183.333
215.84	-60.000
216.22	40.000
216.59	60.000
216.97	-25.000
217.34	500.000
217.72	0.000
218.09	-283.333
218.47	-142.857
218.84	42.857
219.22	28.571
219.59	0.000
219.97	185.714
220.34	250.000
220.72	287.500
221.09	-15.385
221.47	0.000
221.84	66.667
222.22	50.000
222.59	600.000
222.97	-75.000
223.34	50.000
223.72	-633.333
224.09	28.571
224.46	-150.000
224.84	35.714
225.21	-257.143
225.59	54.545
225.96	-112.500
226.34	71.429
226.71	-100.000
227.08	50.000
227.46	900.000
227.83	-157.143
228.21	-37.500
228.58	50.000
228.95	93.750
229.33	-1500.000
229.70	0.000
230.08	-1100.000
230.45	16.667
230.82	33.333
231.20	900.000
231.57	-450.000
231.95	200.000
232.32	95.238
232.69	-77.778
233.07	-128.571
233.44	-450.000
233.81	-20.000
234.19	-100.000
234.56	-12.500
234.93	40.625
235.31	-157.143
235.68	-71.429
236.05	-11.765
236.43	-36.364
236.80	-19.355
237.17	33.333
237.55	-9.524
237.92	-45.455
238.29	-11.429
238.67	-2.941
239.04	11.111
239.41	-6.452
239.79	-25.641
240.16	-4.762
240.53	0.000
240.91	15.385
241.28	7.273
241.65	23.077
242.02	-9.836
242.40	6.557
242.77	1.515
243.14	-3.390
243.51	-4.286
243.89	12.658
244.26	0.000
244.63	9.474
245.00	13.684
245.38	6.780
245.75	3.540
246.12	8.000
246.49	14.173
246.87	0.000
247.24	2.542
247.61	0.847
247.98	2.817
248.36	3.497
248.73	1.266
249.10	-0.637
249.47	9.942
249.84	13.068
250.22	-5.952
250.59	20.339
250.96	4.188
251.33	11.374
251.70	10.096
252.08	8.057
252.45	8.531
252.82	7.143
253.19	8.085
253.56	6.452
253.94	7.173
254.31	7.725
254.68	9.756
255.05	8.065
255.42	11.111
255.79	7.527
256.16	10.588
256.54	6.250
256.91	9.091
257.28	4.396
257.65	10.993
258.02	11.006
258.39	8.361
258.76	7.432
259.14	10.494
259.51	12.459
259.88	8.537
260.25	10.248
260.62	6.109
260.99	8.309
261.36	8.537
261.73	10.694
262.10	11.944
262.47	7.407
262.85	9.714
263.22	8.596
263.59	7.077
263.96	8.116
264.33	12.466
264.70	6.354
265.07	9.615
265.44	8.527
265.81	9.302
266.18	6.076
266.55	8.333
266.92	7.557
267.29	9.685
267.66	8.148
268.03	10.386
268.40	8.920
268.77	6.988
269.14	8.585
269.51	9.655
269.88	6.651
270.25	9.790
270.62	11.213
270.99	9.459
271.36	10.723
271.73	6.726
272.10	10.297
272.47	9.333
272.84	11.111
273.21	9.404
273.58	9.011
273.95	8.333
274.32	12.896
274.69	12.473
275.06	9.407
275.43	8.705
275.80	10.998
276.17	10.042
276.54	9.572
276.91	9.053
277.28	9.128
277.65	10.537
278.02	8.977
278.39	9.430
278.76	8.964
279.13	9.881
279.50	9.940
279.87	8.457
280.23	9.717
280.60	7.356
280.97	7.184
281.34	9.865
281.71	9.423
282.08	9.476
282.45	5.703
282.82	6.008
283.19	9.818
283.56	11.355
283.92	7.951
284.29	7.249
284.66	8.273
285.03	9.982
285.40	8.672
285.77	9.825
286.14	9.928
286.51	8.526
286.87	10.526
287.24	9.215
287.61	10.579
287.98	7.972
288.35	8.760
288.72	9.508
289.08	7.627
289.45	8.418
289.82	6.055
290.19	11.166
290.56	7.934
290.93	9.062
291.29	6.807
291.66	7.246
292.03	9.890
292.40	9.639
292.77	9.783
293.13	9.431
293.50	9.361
293.87	7.669
294.24	9.201
294.60	7.273
294.97	9.560
295.34	7.407
295.71	8.631
296.08	5.530
296.44	6.438
296.81	7.550
297.18	7.887
297.55	8.475
297.91	11.715
298.28	7.534
298.65	7.950
299.02	9.225
299.38	7.353
299.75	7.745
300.12	8.333
300.48	9.079
300.85	6.291
301.22	9.573
301.59	7.802
301.95	9.446
302.32	7.562
302.69	8.690
303.05	7.937
303.42	7.250
303.79	8.612
304.15	8.412
304.52	7.701
304.89	9.799
305.25	6.838
305.62	8.696
305.99	10.012
306.35	7.880
306.72	7.973
307.09	8.627
307.45	7.605
307.82	6.927
308.19	7.606
308.55	7.952
308.92	6.122
309.29	8.108
309.65	8.059
310.02	7.775
310.38	8.432
310.75	8.197
311.12	10.124
311.48	8.351
311.85	8.651
312.22	7.724
312.58	9.868
312.95	8.257
313.31	9.291
313.68	9.849
314.05	9.100
314.41	7.847
314.78	7.293
315.14	10.563
315.51	9.422
315.87	9.874
316.24	9.621
316.61	10.749
316.97	10.348
317.34	8.863
317.70	9.555
318.07	10.728
318.43	10.112
318.80	10.892
319.16	9.287
319.53	10.056
319.89	10.724
320.26	11.471
320.62	10.000
320.99	11.542
321.35	10.443
321.72	10.850
322.08	12.463
322.45	10.792
322.81	12.872
323.18	13.160
323.54	12.662
323.91	13.624
324.27	12.738
324.64	13.985
325.00	14.311
325.37	13.394
325.73	15.486
326.10	14.615
326.46	15.061
326.83	16.085
327.19	16.430
327.56	18.143
327.92	16.398
328.29	18.528
328.65	15.273
329.01	17.933
329.38	17.395
329.74	19.505
330.11	18.404
330.47	18.529
330.84	19.982
331.20	18.592
331.56	20.328
331.93	20.249
332.29	21.370
332.66	20.632
333.02	22.353
333.38	22.760
333.75	22.351
334.11	21.511
334.48	22.507
334.84	22.485
335.20	22.872
335.57	22.292
335.93	25.336
336.29	22.498
336.66	23.877
337.02	24.955
337.38	22.816
337.75	23.968
338.11	24.419
338.47	25.000
338.84	24.138
339.20	24.077
339.56	26.203
339.93	24.339
340.29	24.269
340.65	24.825
341.02	24.705
341.38	24.600
341.74	25.148
342.11	25.683
342.47	23.948
342.83	24.265
343.20	25.278
343.56	23.347
343.92	25.710
344.28	25.063
344.65	25.330
345.01	25.126
345.37	25.166
345.73	24.714
346.10	25.102
346.46	24.289
346.82	25.421
347.19	24.979
347.55	25.281
347.91	26.378
348.27	24.185
348.63	26.010
349.00	25.855
349.36	23.497
349.72	26.274
350.08	26.303
350.45	24.901
350.81	25.876
351.17	25.000
351.53	24.503
351.89	26.192
352.26	26.202
352.62	26.037
352.98	25.712
353.34	26.459
353.70	25.560
354.07	26.515
354.43	25.929
354.79	26.149
355.15	25.799
355.51	25.547
355.87	24.822
356.24	25.258
356.60	27.881
356.96	26.790
357.32	26.287
357.68	25.670
358.04	26.559
358.40	26.837
358.77	26.043
359.13	25.478
359.49	27.135
359.85	27.591
360.21	27.397
360.57	26.883
360.93	27.778
361.29	26.233
361.66	26.753
362.02	26.036
362.38	26.339
362.74	27.033
363.10	26.112
363.46	27.208
363.82	26.531
364.18	26.556
364.54	27.663
364.90	26.834
365.26	26.248
365.62	28.582
365.98	27.169
366.35	26.620
366.71	26.850
367.07	27.946
367.43	27.522
367.79	27.010
368.15	26.529
368.51	28.112
368.87	27.679
369.23	27.509
369.59	27.153
369.95	27.837
370.31	28.622
370.67	27.404
371.03	28.061
371.39	27.086
371.75	27.969
372.11	28.336
372.47	28.272
372.83	28.651
373.19	28.643
373.55	29.346
373.91	28.094
374.27	28.337
374.63	29.124
374.99	29.068
375.35	28.197
375.71	30.047
376.07	29.637
376.42	28.146
376.78	29.869
377.14	30.644
377.50	29.465
377.86	29.194
378.22	30.779
378.58	28.783
378.94	30.395
379.30	29.860
379.66	29.812
380.02	30.065
380.38	30.453
380.74	29.777
381.09	30.873
381.45	30.967
381.81	29.583
382.17	31.266
382.53	29.787
382.89	30.323
383.25	31.005
383.61	30.425
383.97	30.374
384.32	31.101
384.68	31.560
385.04	31.763
385.40	32.015
385.76	30.976
386.12	31.418
386.48	32.673
386.83	32.209
387.19	32.277
387.55	32.223
387.91	32.306
388.27	31.604
388.62	30.950
388.98	30.890
389.34	32.497
389.70	32.400
390.06	32.443
390.42	33.205
390.77	31.798
391.13	33.602
391.49	32.626
391.85	32.731
392.20	31.796
392.56	32.743
392.92	31.888
393.28	33.238
393.64	33.193
393.99	34.092
394.35	33.637
394.71	32.427
395.07	33.459
395.42	32.777
395.78	32.684
396.14	32.960
396.50	33.150
396.85	34.176
397.21	34.022
397.57	33.495
397.92	34.309
398.28	33.944
398.64	33.135
399.00	34.888
399.35	34.498
399.71	33.508
400.07	34.507
400.42	35.280
400.78	33.512
401.14	34.790
401.49	34.021
401.85	33.862
402.21	33.909
402.57	34.830
402.92	34.739
403.28	34.436
403.63	33.613
403.99	34.307
404.35	33.092
404.70	34.465
405.06	34.717
405.42	34.133
405.77	33.145
406.13	34.242
406.49	34.092
406.84	34.433
407.20	34.865
407.55	34.769
407.91	33.873
408.27	34.926
408.62	34.636
408.98	33.839
409.34	33.760
409.69	33.270
410.05	33.475
410.40	34.948
410.76	34.381
411.11	33.791
411.47	33.887
411.83	34.841
412.18	34.777
412.54	34.533
412.89	34.994
413.25	34.357
413.60	33.718
413.96	34.442
414.31	35.291
414.67	33.270
415.03	33.247
415.38	34.808
415.74	35.889
416.09	35.102
416.45	34.325
416.80	36.086
417.16	35.083
417.51	36.047
417.87	35.534
418.22	36.030
418.58	36.008
418.93	35.009
419.29	36.512
419.64	35.427
420.00	36.695
420.35	36.665
420.71	35.834
421.06	36.568
421.42	36.358
421.77	36.404
422.12	36.318
422.48	36.024
422.83	36.503
423.19	36.860
423.54	36.311
423.90	36.726
424.25	34.729
424.61	36.972
424.96	37.566
425.31	37.731
425.67	37.135
426.02	37.177
426.38	38.234
426.73	37.230
427.09	38.419
427.44	37.216
427.79	38.372
428.15	38.360
428.50	38.886
428.85	37.950
429.21	37.244
429.56	37.292
429.92	38.026
430.27	37.338
430.62	37.618
430.98	37.271
431.33	37.994
431.68	38.338
432.04	38.388
432.39	39.202
432.74	38.189
433.10	39.167
433.45	37.939
433.80	38.970
434.16	38.420
434.51	38.740
434.86	39.250
435.22	39.365
435.57	39.290
435.92	40.035
436.28	39.881
436.63	39.062
436.98	39.633
437.34	40.165
437.69	38.681
438.04	40.783
438.39	40.193
438.75	39.406
439.10	40.144
439.45	39.288
439.81	41.024
440.16	39.182
440.51	40.588
440.86	40.949
441.22	39.746
441.57	40.000
441.92	40.563
442.27	40.152
442.63	40.880
442.98	40.293
443.33	40.253
443.68	40.177
444.03	40.226
444.39	39.990
444.74	41.630
445.09	40.789
445.44	40.968
445.79	40.948
446.15	42.169
446.50	40.773
446.85	40.790
447.20	41.318
447.55	41.657
447.91	41.101
448.26	40.559
448.61	39.898
448.96	40.728
449.31	41.770
449.66	42.187
450.02	40.942
450.37	41.913
450.72	42.373
451.07	41.169
451.42	41.264
451.77	42.130
452.12	42.908
452.47	41.688
452.83	41.468
453.18	43.137
453.53	42.848
453.88	43.122
454.23	41.657
454.58	43.319
454.93	41.751
455.28	42.192
455.63	42.752
455.98	43.735
456.34	42.884
456.69	43.465
457.04	43.393
457.39	42.524
457.74	42.351
458.09	43.503
458.44	44.226
458.79	42.769
459.14	42.898
459.49	42.984
459.84	43.058
460.19	43.735
460.54	42.771
460.89	42.489
461.24	42.805
461.59	42.790
461.94	43.221
462.29	43.121
462.64	44.137
462.99	44.511
463.34	44.429
463.69	43.702
464.04	42.882
464.39	43.787
464.74	43.026
465.09	44.317
465.44	43.768
465.79	43.598
466.14	43.613
466.49	42.948
466.84	44.418
467.19	44.950
467.54	43.608
467.89	44.821
468.24	43.646
468.59	44.097
468.94	45.145
469.29	43.860
469.64	44.474
469.99	44.632
470.34	45.424
470.68	45.276
471.03	45.354
471.38	45.069
471.73	45.245
472.08	44.846
472.43	44.659
472.78	45.067
473.13	44.599
473.48	43.842
473.83	44.789
474.17	45.478
474.52	45.460
474.87	44.872
475.22	45.015
475.57	43.889
475.92	44.924
476.27	43.886
476.61	44.225
476.96	44.271
477.31	45.318
477.66	45.766
478.01	45.975
478.36	44.159
478.70	46.396
479.05	45.484
479.40	44.560
479.75	44.954
480.10	44.395
480.45	43.230
480.79	45.706
481.14	45.760
481.49	44.579
481.84	44.984
482.19	44.632
482.53	45.455
482.88	45.183
483.23	45.117
483.58	45.791
483.92	45.246
484.27	43.465
484.62	44.492
484.97	44.934
485.31	43.840
485.66	43.031
486.01	42.739
486.36	43.100
486.70	43.406
487.05	43.882
487.40	43.643
487.75	43.908
488.09	43.731
488.44	44.520
488.79	44.782
489.13	44.960
489.48	46.574
489.83	45.415
490.17	45.494
490.52	45.924
490.87	45.681
491.22	46.380
491.56	46.065
491.91	45.992
492.26	45.849
492.60	45.528
492.95	45.550
493.30	44.545
493.64	44.805
493.99	46.558
494.34	46.190
494.68	47.285
495.03	46.080
495.37	46.608
495.72	47.004
496.07	46.316
496.41	47.290
496.76	45.753
497.11	47.244
497.45	46.600
497.80	47.374
498.14	46.562
498.49	46.308
498.84	46.408
499.18	46.150
499.53	46.858
499.87	46.332
500.22	46.716
500.56	47.274
500.91	46.700
501.26	46.725
501.60	45.883
501.95	47.053
502.29	46.575
502.64	47.572
502.98	46.287
503.33	46.100
503.67	46.743
504.02	46.451
504.36	47.304
504.71	46.505
505.06	46.081
505.40	47.405
505.75	46.951
506.09	47.472
506.44	46.967
506.78	46.513
507.13	47.271
507.47	47.261
507.82	47.651
508.16	48.135
508.51	47.038
508.85	47.412
509.19	46.259
509.54	47.146
509.88	47.606
510.23	47.327
510.57	48.360
510.92	47.637
511.26	46.837
511.61	47.192
511.95	46.983
512.30	47.883
512.64	48.414
512.98	47.910
513.33	48.435
513.67	48.130
514.02	47.875
514.36	48.033
514.70	47.991
515.05	48.199
515.39	48.443
515.74	49.447
516.08	47.550
516.42	47.932
516.77	49.105
517.11	48.169
517.46	48.624
517.80	48.977
518.14	48.611
518.49	47.938
518.83	48.012
519.17	48.135
519.52	47.137
519.86	50.060
520.20	49.939
520.55	48.554
520.89	48.591
521.23	48.230
521.58	49.906
521.92	50.728
522.26	49.714
522.61	48.859
522.95	49.011
523.29	49.091
523.64	49.656
523.98	50.796
524.32	48.334
524.66	47.516
525.01	49.775
525.35	49.420
525.69	49.057
526.04	49.282
526.38	49.714
526.72	49.170
527.06	49.089
527.41	49.241
527.75	48.383
528.09	49.570
528.43	49.836
528.78	48.618
529.12	49.552
529.46	49.098
529.80	48.612
530.15	50.032
530.49	49.353
530.83	50.164
531.17	48.956
531.51	49.431
531.86	48.782
532.20	48.650
532.54	49.198
532.88	48.880
533.22	49.064
533.57	49.608
533.91	47.690
534.25	48.586
534.59	48.032
534.93	47.666
535.27	49.025
535.62	49.680
535.96	48.546
536.30	48.037
536.64	49.801
536.98	49.223
537.32	48.030
537.66	49.423
538.01	49.347
538.35	49.730
538.69	47.995
539.03	49.898
539.37	48.836
539.71	48.699
540.05	49.212
540.39	49.584
540.73	49.689
541.07	49.795
541.42	47.806
541.76	47.110
542.10	50.236
542.44	49.234
542.78	49.932
543.12	49.627
543.46	50.205
543.80	47.826
544.14	48.690
544.48	49.803
544.82	48.444
545.16	49.698
545.50	47.241
545.84	49.096
546.18	50.485
546.52	49.147
546.86	49.430
547.20	49.930
547.54	46.832
547.88	48.441
548.22	46.986
548.56	49.098
548.90	48.854
549.24	50.736
549.58	48.906
549.92	49.611
550.26	49.711
550.60	48.009
550.94	49.343
551.28	50.790
551.62	50.812
551.96	48.915
552.30	48.850
552.64	48.768
552.98	49.124
553.32	49.928
553.66	49.099
554.00	49.112
554.34	49.242
554.68	50.146
555.02	49.349
555.36	49.605
555.69	50.215
556.03	48.632
556.37	50.640
556.71	49.964
557.05	50.111
557.39	49.295
557.73	49.745
558.07	49.736
558.41	49.738
558.75	49.506
559.08	50.350
559.42	49.464
559.76	50.767
560.10	51.603
560.44	49.277
560.78	49.548
561.12	50.932
561.45	49.178
561.79	49.826
562.13	49.229
562.47	49.230
562.81	48.515
563.15	48.845
563.48	49.482
563.82	49.020
564.16	48.208
564.50	48.589
564.84	50.066
565.17	47.878
565.51	48.631
565.85	50.304
566.19	49.341
566.52	48.728
566.86	49.115
567.20	49.516
567.54	48.494
567.88	47.013
568.21	47.819
568.55	48.038
568.89	46.968
569.23	46.414
569.56	45.481
569.90	45.437
570.24	46.411
570.57	44.218
570.91	44.883
571.25	44.942
571.59	45.176
571.92	44.881
572.26	44.308
572.60	44.524
572.93	43.945
573.27	44.299
573.61	44.049
573.95	44.572
574.28	43.786
574.62	44.408
574.96	43.320
575.29	43.826
575.63	44.120
575.97	44.067
576.30	44.341
576.64	44.465
576.98	43.568
577.31	44.148
577.65	44.039
577.98	43.326
578.32	43.801
578.66	43.511
578.99	44.328
579.33	43.708
579.67	44.027
580.00	43.874
580.34	43.713
580.67	44.104
581.01	42.779
581.35	43.972
581.68	43.130
582.02	43.620
582.35	43.267
582.69	43.792
583.02	44.805
583.36	43.923
583.70	44.342
584.03	44.774
584.37	44.276
584.70	44.383
585.04	44.076
585.37	43.365
585.71	43.082
586.04	44.377
586.38	43.812
586.72	43.489
587.05	43.982
587.39	43.786
587.72	43.669
588.06	44.154
588.39	44.774
588.73	44.599
589.06	45.045
589.40	45.929
589.73	45.290
590.07	45.412
590.40	44.096
590.73	46.661
591.07	45.574
591.40	46.967
591.74	45.743
592.07	46.171
592.41	45.902
592.74	45.273
593.08	44.936
593.41	44.572
593.75	43.950
594.08	45.723
594.41	46.285
594.75	45.111
595.08	44.699
595.42	45.412
595.75	45.277
596.09	45.828
596.42	45.949
596.75	45.106
597.09	47.284
597.42	45.439
597.75	46.590
598.09	45.865
598.42	46.266
598.76	45.058
599.09	44.396
599.42	44.252
599.76	45.074
600.09	45.840
600.42	45.196
600.76	44.633
601.09	45.841
601.42	45.509
601.76	45.327
602.09	45.726
602.42	46.008
602.76	45.160
603.09	45.766
603.42	45.205
603.76	45.632
604.09	45.294
604.42	45.462
604.76	45.966
605.09	45.570
605.42	45.745
605.75	45.882
606.09	45.372
606.42	45.413
606.75	45.213
607.09	45.523
607.42	45.951
607.75	45.342
608.08	47.447
608.42	46.783
608.75	44.673
609.08	46.663
609.41	46.089
609.75	46.563
610.08	45.735
610.41	46.554
610.74	46.567
611.07	47.819
611.41	46.243
611.74	46.324
612.07	47.100
612.40	46.375
612.73	47.765
613.07	47.111
613.40	47.291
613.73	47.302
614.06	47.227
614.39	47.802
614.72	45.642
615.06	47.120
615.39	46.283
615.72	47.474
616.05	46.273
616.38	47.011
616.71	47.447
617.05	48.191
617.38	48.173
617.71	48.710
618.04	48.571
618.37	48.679
618.70	48.761
619.03	48.747
619.36	50.458
619.69	50.682
620.03	48.140
620.36	49.789
620.69	49.677
621.02	50.381
621.35	51.129
621.68	49.180
622.01	51.214
622.34	50.621
622.67	50.078
623.00	50.115
623.33	49.776
623.66	47.784
623.99	50.977
624.32	48.810
624.65	48.933
624.99	48.768
625.32	49.251
625.65	50.039
625.98	49.139
626.31	51.468
626.64	51.548
626.97	51.884
627.30	51.830
627.63	50.259
627.96	50.827
628.29	52.757
628.62	52.340
628.95	52.362
629.28	50.940
629.61	50.736
629.94	51.512
630.26	52.087
630.59	53.970
630.92	52.753
631.25	51.815
631.58	53.651
631.91	51.383
632.24	53.444
632.57	53.333
632.90	54.483
633.23	54.907
633.56	52.164
633.89	56.132
634.22	53.837
634.55	53.966
634.88	53.688
635.20	54.182
635.53	54.326
635.86	53.778
636.19	55.433
636.52	52.688
636.85	52.948
637.18	54.125
637.51	56.010
637.83	55.659
638.16	54.342
638.49	54.759
638.82	54.955
639.15	54.604
639.48	52.789
639.81	55.878
640.13	54.189
640.46	54.843
640.79	55.742
641.12	56.700
641.45	54.232
641.77	56.886
642.10	55.740
642.43	54.628
642.76	57.008
643.09	55.238
643.41	57.619
643.74	58.029
644.07	56.630
644.40	56.888
644.73	55.446
645.05	55.927
645.38	56.457
645.71	60.825
646.04	59.160
646.36	56.195
646.69	56.747
647.02	58.123
647.35	59.567
647.67	57.117
648.00	58.172
648.33	57.336
648.66	53.065
648.98	56.688
649.31	55.692
649.64	56.563
649.96	56.986
650.29	56.066
650.62	58.348
650.94	56.492
651.27	56.153
651.60	55.536
651.92	59.247
652.25	55.760
652.58	57.411
652.90	56.019
653.23	54.032
653.56	55.853
653.88	55.410
654.21	58.054
654.54	56.478
654.86	55.859
655.19	52.149
655.52	49.433
655.84	43.500
656.17	45.776
656.49	61.978
656.82	64.578
657.15	48.773
657.47	36.461
657.80	28.273
658.13	32.357
658.45	44.757
658.78	45.194
659.10	45.131
659.43	45.989
659.75	47.679
660.08	49.115
660.41	48.722
660.73	52.365
661.06	56.522
661.38	59.286
661.71	58.700
662.03	63.306
662.36	57.783
662.68	57.595
663.01	60.934
663.33	62.132
663.66	60.086
663.98	57.143
664.31	58.837
664.63	62.389
664.96	57.050
665.28	59.002
665.61	54.123
665.93	58.436
666.26	56.275
666.58	59.252
666.91	62.806
667.23	57.895
667.56	58.503
667.88	61.312
668.21	57.604
668.53	62.850
668.86	60.970
669.18	61.872
669.50	57.944
669.83	60.341
670.15	60.314
670.48	58.645
670.80	58.998
671.13	56.885
671.45	55.180
671.77	59.101
672.10	57.988
672.42	59.410
672.75	55.455
673.07	54.234
673.39	55.191
673.72	58.465
674.04	57.325
674.37	57.732
674.69	59.221
675.01	56.170
675.34	58.351
675.66	59.827
675.98	59.692
676.31	59.729
676.63	59.080
676.95	55.752
677.28	56.613
677.60	58.371
677.92	59.692
678.25	61.269
678.57	58.642
678.89	56.604
679.22	58.281
679.54	56.607
679.86	54.600
680.18	54.373
680.51	51.955
680.83	55.429
681.15	55.684
681.48	58.215
681.80	57.258
682.12	54.930
682.44	53.831
682.77	54.329
683.09	57.652
683.41	55.973
683.73	56.393
684.06	56.774
684.38	55.858
684.70	57.202
685.02	57.480
685.34	56.530
685.67	55.114
685.99	53.497
686.31	56.194
686.63	53.014
686.96	53.420
687.28	54.143
687.60	54.492
687.92	55.253
688.24	54.331
688.56	56.313
688.89	54.274
689.21	57.768
689.53	58.391
689.85	56.793
690.17	55.830
690.49	59.122
690.82	54.940
691.14	56.604
691.46	56.541
691.78	56.828
692.10	55.508
692.42	53.333
692.74	54.077
693.06	60.449
693.39	56.823
693.71	53.273
694.03	53.132
694.35	53.499
694.67	56.265
694.99	58.824
695.31	53.316
695.63	55.102
695.95	56.079
696.27	56.359
696.59	59.893
696.91	63.202
697.23	58.333
697.56	55.529
697.88	53.604
698.20	51.820
698.52	54.484
698.84	58.252
699.16	56.667
699.48	54.500
699.80	53.383
700.12	55.668
700.44	57.821
700.76	58.017
701.08	59.884
701.40	58.006
701.72	59.877
702.04	62.821
702.36	60.542
702.68	55.988
703.00	57.101
703.32	57.880
703.64	61.471
703.96	58.430
704.28	55.621
704.60	60.443
704.91	55.238
705.23	60.518
705.55	56.081
705.87	59.044
706.19	62.153
706.51	59.028
706.83	62.295
707.15	59.236
707.47	57.300
707.79	56.443
708.11	52.163
708.43	55.112
708.74	52.727
709.06	52.368
709.38	57.759
709.70	60.625
710.02	60.429
710.34	57.756
710.66	55.238
710.98	57.413
711.29	55.806
711.61	55.911
711.93	58.361
712.25	57.475
712.57	56.794
712.89	62.950
713.20	60.825
713.52	60.075
713.84	59.786
714.16	59.016
714.48	52.698
714.80	57.231
715.11	54.179
715.43	55.120
715.75	56.075
716.07	53.770
716.39	62.542
716.70	56.794
717.02	55.926
717.34	62.977
717.66	67.635
717.97	57.787
718.29	63.445
718.61	60.714
718.93	52.688
719.24	51.838
719.56	50.566
719.88	60.364
720.20	59.551
720.51	64.286
720.83	64.257
721.15	61.885
721.46	59.216
721.78	56.705
722.10	61.200
722.42	59.917
722.73	58.964
723.05	61.044
723.37	57.255
723.68	55.061
724.00	63.008
724.32	63.374
724.63	59.336
724.95	54.959
725.27	49.561
725.58	59.483
725.90	57.540
726.22	57.934
726.53	57.414
726.85	56.471
727.16	52.256
727.48	53.462
727.80	52.459
728.11	56.723
728.43	56.198
728.74	55.078
729.06	58.333
729.38	53.696
729.69	60.236
730.01	64.961
730.32	53.785
730.64	58.974
730.96	58.209
731.27	57.143
731.59	53.055
731.90	52.454
732.22	57.055
732.53	58.940
732.85	54.362
733.16	55.072
733.48	51.916
733.80	52.669
734.11	55.172
734.43	57.823
734.74	51.039
735.06	53.292
735.37	51.988
735.69	48.065
736.00	49.158
736.32	48.675
736.63	52.759
736.95	57.971
737.26	53.642
737.58	55.036
737.89	54.839
738.21	55.263
738.52	55.000
738.83	58.984
739.15	57.692
739.46	52.016
739.78	54.545
740.09	52.448
740.41	52.098
740.72	56.204
741.04	56.746
741.35	54.113
741.66	62.963
741.98	53.810
742.29	58.685
742.61	60.428
742.92	59.346
743.23	52.193
743.55	59.009
743.86	59.556
744.18	56.667
744.49	59.113
744.80	68.528
745.12	63.402
745.43	61.809
745.74	59.709
746.06	56.098
746.37	56.828
746.68	57.711
747.00	69.634
747.31	54.808
747.62	59.447
747.94	52.402
748.25	62.791
748.56	60.476
748.88	53.804
749.19	52.582
749.50	69.118
749.82	57.778
750.13	60.793
750.44	58.943
750.75	51.200
751.07	55.357
751.38	50.185
751.69	48.855
752.01	58.846
752.32	50.973
752.63	50.000
752.94	53.968
753.26	62.609
753.57	58.036
753.88	54.310
754.19	53.527
754.51	58.203
754.82	54.150
755.13	60.494
755.44	54.132
755.75	60.494
756.07	54.217
756.38	53.906
756.69	54.874
757.00	54.704
757.31	52.349
757.63	54.517
757.94	50.000
758.25	50.581
758.56	56.065
758.87	48.295
759.18	50.667
759.50	56.228
759.81	52.190
760.12	50.676
760.43	49.515
760.74	55.000
761.05	54.213
761.36	51.198
761.67	52.663
761.99	48.387
762.30	57.609
762.61	50.943
762.92	56.054
763.23	54.976
763.54	53.778
763.85	54.008
764.16	53.061
764.47	61.864
764.78	55.056
765.10	53.957
765.41	43.226
765.72	51.258
766.03	49.470
766.34	53.008
766.65	49.798
766.96	58.000
767.27	56.771
767.58	66.279
767.89	58.710
768.20	56.442
768.51	54.098
768.82	60.541
769.13	56.000
769.44	53.947
769.75	50.649
770.06	55.046
770.37	55.399
770.68	57.292
770.99	57.426
771.30	58.252
771.61	53.241
771.92	45.887
772.23	54.673
772.54	48.936
772.85	48.521
773.16	63.415
773.47	66.265
773.78	63.736
774.09	60.667
774.39	59.259
774.70	57.718
775.01	58.696
775.32	51.493
775.63	52.893
775.94	66.917
776.25	62.143
776.56	64.754
776.87	64.602
777.18	62.832
777.48	51.818
777.79	56.522
778.10	51.376
778.41	61.864
778.72	57.851
779.03	64.179
779.34	59.398
779.65	53.595
779.95	63.768
780.26	48.980
780.57	59.483
780.88	57.407
781.19	59.596
781.50	52.000
781.80	50.327
782.11	56.410
782.42	48.193
782.73	48.905
783.04	58.108
783.34	57.576
783.65	54.264
783.96	56.911
784.27	58.120
784.57	56.911
784.88	52.033
785.19	54.386
785.50	35.052
785.81	57.143
786.11	56.863
786.42	50.909
786.73	62.162
787.04	64.356
787.34	51.429
787.65	54.286
787.96	50.980
788.26	54.054
788.57	55.645
788.88	46.875
789.19	49.573
789.49	50.420
789.80	46.154
790.11	54.867
790.41	44.444
790.72	49.057
791.03	55.556
791.33	53.947
791.64	44.086
791.95	65.333
792.25	65.714
792.56	58.537
792.87	55.102
793.17	46.053
793.48	31.081
793.79	42.254
794.09	50.633
794.40	62.766
794.70	56.075
795.01	48.246
795.32	46.364
795.62	48.214
795.93	53.608
796.23	56.044
796.54	61.053
796.85	60.274
797.15	43.056
797.46	46.575
797.76	59.155
798.07	56.250
798.37	58.824
798.68	65.714
798.99	67.143
799.29	60.526
799.60	70.000
799.90	36.111
800.21	59.375
800.51	42.857
800.82	57.377
801.12	42.105
801.43	39.437
801.73	49.153
802.04	72.131
802.34	40.000
802.65	51.923
802.95	57.407
803.26	50.000
803.56	71.154
803.87	60.526
804.17	79.032
804.48	63.077
804.78	79.487
805.09	58.140
805.39	75.000
805.70	37.736
806.00	68.421
806.30	48.649
806.61	69.118
806.91	58.025
807.22	45.333
807.52	61.194
807.83	43.548
808.13	38.095
808.43	54.545
808.74	51.515
809.04	64.151
809.35	49.315
809.65	78.947
809.95	50.000
810.26	62.745
810.56	50.000
810.86	55.102
811.17	51.429
811.47	55.769
811.77	90.323
812.08	28.947
812.38	50.000
812.69	15.217
812.99	77.419
813.29	30.952
813.59	37.037
813.90	40.426
814.20	34.884
814.50	64.583
814.81	55.000
815.11	58.537
815.41	10.000
815.72	82.857
816.02	63.889
816.32	82.051
816.62	70.270
816.93	14.706
817.23	47.826
817.53	67.647
817.84	70.588
818.14	40.625
818.44	20.690
818.74	51.613
819.04	62.963
819.35	70.000
819.65	44.000
819.95	50.000
820.25	64.000
820.56	60.526
820.86	30.000
821.16	57.447
821.46	39.655
821.76	35.897
822.07	22.500
822.37	51.163
822.67	50.000
822.97	27.027
823.27	56.757
823.57	84.000
823.88	24.324
824.18	52.381
824.48	57.692
824.78	30.769
825.08	26.087
825.38	41.667
825.69	58.333
825.99	80.000
826.29	40.541
826.59	35.294
826.89	88.000
827.19	54.286
827.49	73.684
827.79	40.625
828.09	63.333
828.39	39.130
828.70	6.897
829.00	31.034
829.30	50.000
829.60	103.125
829.90	77.778
830.20	61.538
830.50	23.810
830.80	0.000
831.10	64.103
831.40	61.905
831.70	67.647
832.00	79.167
832.30	21.053
832.60	31.250
832.90	83.333
833.20	58.824
833.50	26.667
833.80	-26.667
834.10	35.000
834.40	45.833
834.70	77.778
835.00	50.000
835.30	33.333
835.60	75.862
835.90	27.778
836.20	100.000
836.50	-33.333
836.80	34.286
837.10	77.143
837.40	47.059
837.70	-63.636
838.00	79.167
838.30	43.750
838.60	80.952
838.90	75.000
839.19	43.478
839.49	21.739
839.79	77.778
840.09	-13.043
840.39	4.545
840.69	37.500
840.99	52.632
841.29	56.250
841.59	35.714
841.88	-16.667
842.18	45.833
842.48	23.529
842.78	20.690
843.08	28.571
843.38	69.231
843.68	-66.667
843.97	100.000
844.27	27.273
844.57	120.000
844.87	20.000
845.17	180.000
845.47	57.143
845.76	22.222
846.06	0.000
846.36	-300.000
846.66	-30.000
846.96	78.947
847.25	29.167
847.55	58.333
847.85	53.333
848.15	60.000
848.44	69.231
848.74	36.842
849.04	66.667
849.34	-33.333
849.63	26.316
849.93	0.000
850.23	-20.000
850.53	19.048
850.82	52.000
851.12	26.316
851.42	-150.000
851.71	57.143
852.01	33.333
852.31	29.412
852.61	-6.667
852.90	42.857
853.20	200.000
853.50	61.111
853.79	0.000
854.09	-60.000
854.39	10.714
854.68	43.478
854.98	-66.667
855.28	51.724
855.57	6.250
855.87	40.000
856.17	53.333
856.46	44.828
856.76	-33.333
857.05	35.294
857.35	-61.538
857.65	81.818
857.94	18.519
858.24	21.429
858.53	7.143
858.83	33.333
859.13	-33.333
859.42	76.190
859.72	100.000
860.01	0.000
860.31	0.000
860.60	0.000
860.90	-66.667
861.20	-112.500
861.49	-14.286
861.79	5.882
862.08	50.000
862.38	-83.333
862.67	53.846
862.97	41.176
863.26	65.000
863.56	29.412
863.85	100.000
864.15	60.000
864.44	15.385
864.74	45.000
865.03	37.500
865.33	-83.333
865.62	23.529
865.92	25.000
866.21	-35.714
866.51	8.333
866.80	-300.000
867.10	-66.667
867.39	11.765
867.69	69.565
867.98	42.857
868.27	-200.000
868.57	50.000
868.86	-100.000
869.16	35.294
869.45	-133.333
869.75	-71.429
870.04	100.000
870.33	-25.000
870.63	20.000
870.92	-22.222
871.22	41.667
871.51	18.182
871.80	33.333
872.10	30.000
>>>>>End Processed Spectral Data<<<<<
