SpectraSuite Data File
++++++++++++++++++++++++++++++++++++
Date: Sat May 16 11:11:37 PDT 2015
User: schluterlab
Dark Spectrum Present: Yes
Reference Spectrum Present: Yes
Number of Sampled Component Spectra: 1
Spectrometers: USB2E3373
Integration Time (usec): 3000 (USB2E3373)
Spectra Averaged: 3 (USB2E3373)
Boxcar Smoothing: 0 (USB2E3373)
Correct for Electrical Dark: No (USB2E3373)
Strobe/Lamp Enabled: No (USB2E3373)
Correct for Detector Non-linearity: No (USB2E3373)
Correct for Stray Light: No (USB2E3373)
Number of Pixels in Processed Spectrum: 2048
>>>>>Begin Processed Spectral Data<<<<<
178.53	0.000
178.91	86.667
179.29	300.000
179.67	-700.000
180.04	-23.077
180.42	-900.000
180.80	50.000
181.18	300.000
181.56	137.500
181.94	200.000
182.31	-25.000
182.69	69.231
183.07	-300.000
183.45	600.000
183.83	-133.333
184.20	-128.571
184.58	12.500
184.96	-250.000
185.34	93.750
185.72	-250.000
186.09	66.667
186.47	-112.500
186.85	-62.500
187.23	37.500
187.61	150.000
187.98	-100.000
188.36	37.500
188.74	-187.500
189.12	1000.000
189.49	200.000
189.87	41.667
190.25	125.000
190.63	-14.286
191.00	-11.111
191.38	220.000
191.76	53.333
192.14	620.000
192.51	-100.000
192.89	-133.333
193.27	0.000
193.65	44.444
194.02	-71.429
194.40	200.000
194.78	-160.000
195.15	-400.000
195.53	-45.455
195.91	-316.667
196.29	40.000
196.66	-233.333
197.04	2400.000
197.42	250.000
197.79	153.333
198.17	-200.000
198.55	150.000
198.92	-400.000
199.30	112.500
199.68	-550.000
200.05	-22.222
200.43	-133.333
200.81	-1100.000
201.18	-16.667
201.56	-0.000
201.94	-13.333
202.31	59.091
202.69	100.000
203.07	-40.000
203.44	300.000
203.82	-200.000
204.19	-275.000
204.57	-175.000
204.95	-200.000
205.32	0.000
205.70	-0.000
206.08	-1000.000
206.45	-44.444
206.83	-800.000
207.20	200.000
207.58	-466.667
207.96	200.000
208.33	-12.500
208.71	22.222
209.08	150.000
209.46	-185.714
209.84	200.000
210.21	0.000
210.59	30.000
210.96	600.000
211.34	16.667
211.71	-166.667
212.09	100.000
212.46	700.000
212.84	-600.000
213.22	200.000
213.59	41.667
213.97	155.556
214.34	-40.000
214.72	-30.000
215.09	-333.333
215.47	-183.333
215.84	-50.000
216.22	60.000
216.59	-13.333
216.97	-100.000
217.34	500.000
217.72	85.714
218.09	-66.667
218.47	-142.857
218.84	71.429
219.22	71.429
219.59	0.000
219.97	185.714
220.34	175.000
220.72	162.500
221.09	-46.154
221.47	0.000
221.84	366.667
222.22	-250.000
222.59	-300.000
222.97	-50.000
223.34	-400.000
223.72	0.000
224.09	-28.571
224.46	-250.000
224.84	35.714
225.21	-114.286
225.59	-72.727
225.96	-100.000
226.34	100.000
226.71	-33.333
227.08	50.000
227.46	1300.000
227.83	-114.286
228.21	-162.500
228.58	100.000
228.95	31.250
229.33	-700.000
229.70	-40.000
230.08	-600.000
230.45	41.667
230.82	-16.667
231.20	0.000
231.57	-300.000
231.95	-100.000
232.32	-9.524
232.69	-100.000
233.07	-128.571
233.44	-350.000
233.81	6.667
234.19	44.444
234.56	-50.000
234.93	50.000
235.31	-57.143
235.68	-42.857
236.05	17.647
236.43	-9.091
236.80	9.677
237.17	8.333
237.55	-23.810
237.92	-27.273
238.29	8.571
238.67	17.647
239.04	11.111
239.41	0.000
239.79	2.564
240.16	0.000
240.53	12.727
240.91	33.333
241.28	20.000
241.65	23.077
242.02	31.148
242.40	19.672
242.77	21.212
243.14	10.169
243.51	12.857
243.89	16.456
244.26	30.337
244.63	28.421
245.00	15.789
245.38	22.881
245.75	23.009
246.12	17.600
246.49	28.346
246.87	16.260
247.24	16.102
247.61	16.949
247.98	19.014
248.36	20.979
248.73	24.051
249.10	15.287
249.47	23.392
249.84	25.568
250.22	19.643
250.59	24.859
250.96	26.702
251.33	24.171
251.70	24.038
252.08	27.962
252.45	19.431
252.82	26.667
253.19	25.957
253.56	20.161
253.94	21.519
254.31	17.597
254.68	28.455
255.05	26.613
255.42	27.381
255.79	21.864
256.16	27.059
256.54	29.412
256.91	22.348
257.28	20.879
257.65	24.823
258.02	27.044
258.39	22.742
258.76	22.297
259.14	25.617
259.51	27.213
259.88	25.610
260.25	26.708
260.62	26.367
260.99	24.332
261.36	25.610
261.73	28.324
262.10	28.611
262.47	24.501
262.85	29.143
263.22	23.209
263.59	26.154
263.96	26.957
264.33	24.661
264.70	24.862
265.07	25.000
265.44	22.739
265.81	25.581
266.18	24.810
266.55	26.225
266.92	25.693
267.29	28.329
267.66	24.691
268.03	25.362
268.40	23.709
268.77	26.024
269.14	25.290
269.51	25.057
269.88	24.083
270.25	24.009
270.62	24.256
270.99	23.649
271.36	27.040
271.73	25.336
272.10	26.316
272.47	24.889
272.84	27.778
273.21	26.376
273.58	26.374
273.95	24.561
274.32	27.828
274.69	26.915
275.06	26.789
275.43	24.554
275.80	26.273
276.17	26.987
276.54	24.236
276.91	25.309
277.28	25.558
277.65	24.174
278.02	26.096
278.39	24.558
278.76	25.697
279.13	23.913
279.50	23.260
279.87	24.524
280.23	25.709
280.60	24.254
280.97	25.825
281.34	24.758
281.71	24.423
282.08	29.032
282.45	24.440
282.82	25.194
283.19	24.727
283.56	25.275
283.92	27.032
284.29	22.862
284.66	24.281
285.03	25.847
285.40	24.908
285.77	23.860
286.14	25.632
286.51	23.979
286.87	25.590
287.24	25.768
287.61	23.636
287.98	23.744
288.35	23.471
288.72	25.297
289.08	20.508
289.45	23.737
289.82	22.837
290.19	21.511
290.56	21.322
290.93	20.986
291.29	22.042
291.66	23.027
292.03	22.763
292.40	22.289
292.77	22.671
293.13	22.114
293.50	20.505
293.87	21.319
294.24	20.211
294.60	18.788
294.97	21.700
295.34	20.000
295.71	19.940
296.08	19.355
296.44	19.456
296.81	20.940
297.18	19.014
297.55	20.056
297.91	21.199
298.28	20.137
298.65	21.897
299.02	20.321
299.38	19.118
299.75	19.429
300.12	20.769
300.48	18.542
300.85	18.480
301.22	17.982
301.59	17.555
301.95	19.647
302.32	16.037
302.69	19.339
303.05	17.827
303.42	17.750
303.79	18.421
304.15	18.128
304.52	18.436
304.89	19.599
305.25	18.071
305.62	17.626
305.99	19.317
306.35	18.202
306.72	18.565
307.09	18.842
307.45	16.005
307.82	18.547
308.19	16.890
308.55	17.429
308.92	16.327
309.29	17.514
309.65	18.558
310.02	17.495
310.38	16.216
310.75	19.262
311.12	16.012
311.48	18.163
311.85	17.714
312.22	17.714
312.58	18.413
312.95	15.902
313.31	17.083
313.68	17.186
314.05	18.200
314.41	17.103
314.78	17.383
315.14	17.572
315.51	16.413
315.87	15.876
316.24	17.590
316.61	19.002
316.97	18.209
317.34	16.667
317.70	15.492
318.07	17.537
318.43	16.760
318.80	18.028
319.16	16.698
319.53	17.293
319.89	16.745
320.26	16.863
320.62	16.635
320.99	16.617
321.35	16.059
321.72	15.763
322.08	16.914
322.45	16.139
322.81	16.619
323.18	16.523
323.54	17.006
323.91	16.960
324.27	18.156
324.64	17.916
325.00	16.579
325.37	17.557
325.73	17.848
326.10	15.766
326.46	17.601
326.83	16.936
327.19	16.597
327.56	17.973
327.92	17.757
328.29	16.537
328.65	15.091
329.01	16.873
329.38	15.879
329.74	17.033
330.11	16.591
330.47	16.621
330.84	17.049
331.20	15.884
331.56	15.406
331.93	16.252
332.29	16.986
332.66	15.803
333.02	16.018
333.38	17.204
333.75	16.028
334.11	16.622
334.48	15.269
334.84	17.235
335.20	16.401
335.57	16.877
335.93	17.816
336.29	16.829
336.66	15.683
337.02	16.847
337.38	13.993
337.75	15.891
338.11	15.742
338.47	15.658
338.84	16.788
339.20	16.872
339.56	16.221
339.93	15.608
340.29	16.120
340.65	15.559
341.02	17.201
341.38	15.922
341.74	15.834
342.11	15.785
342.47	15.536
342.83	15.617
343.20	15.115
343.56	15.020
343.92	16.444
344.28	17.578
344.65	15.264
345.01	15.042
345.37	16.362
345.73	14.403
346.10	15.209
346.46	15.110
346.82	14.836
347.19	15.612
347.55	15.169
347.91	15.276
348.27	14.638
348.63	15.267
349.00	15.752
349.36	15.457
349.72	16.003
350.08	15.798
350.45	15.366
350.81	16.561
351.17	14.630
351.53	14.081
351.89	15.036
352.26	15.194
352.62	16.359
352.98	14.953
353.34	14.948
353.70	14.672
354.07	16.286
354.43	14.308
354.79	14.976
355.15	14.058
355.51	15.391
355.87	14.862
356.24	14.376
356.60	17.083
356.96	15.473
357.32	14.568
357.68	14.943
358.04	15.012
358.40	15.004
358.77	15.301
359.13	15.914
359.49	14.890
359.85	15.473
360.21	15.221
360.57	15.286
360.93	14.815
361.29	15.546
361.66	13.796
362.02	14.349
362.38	15.260
362.74	14.725
363.10	13.415
363.46	15.670
363.82	15.087
364.18	14.906
364.54	15.654
364.90	14.186
365.26	14.337
365.62	15.895
365.98	14.865
366.35	14.366
366.71	14.658
367.07	14.608
367.43	15.580
367.79	14.227
368.15	13.798
368.51	14.545
368.87	16.346
369.23	15.158
369.59	14.236
369.95	15.222
370.31	16.245
370.67	14.172
371.03	15.306
371.39	14.922
371.75	15.665
372.11	14.275
372.47	15.546
372.83	15.577
373.19	15.786
373.55	15.764
373.91	14.438
374.27	14.990
374.63	14.286
374.99	14.673
375.35	15.612
375.71	16.003
376.07	15.332
376.42	15.166
376.78	14.641
377.14	14.644
377.50	15.152
377.86	15.605
378.22	15.327
378.58	15.812
378.94	14.982
379.30	15.600
379.66	16.090
380.02	15.152
380.38	15.831
380.74	14.713
381.09	16.286
381.45	15.513
381.81	15.789
382.17	14.662
382.53	15.076
382.89	15.431
383.25	15.954
383.61	15.389
383.97	15.615
384.32	16.145
384.68	16.808
385.04	15.580
385.40	16.312
385.76	16.098
386.12	15.990
386.48	17.203
386.83	16.810
387.19	16.079
387.55	16.051
387.91	15.708
388.27	15.320
388.62	16.406
388.98	16.657
389.34	16.340
389.70	16.504
390.06	15.973
390.42	17.179
390.77	16.909
391.13	16.957
391.49	16.968
391.85	16.895
392.20	16.505
392.56	16.982
392.92	15.973
393.28	16.762
393.64	16.957
393.99	16.800
394.35	16.667
394.71	16.368
395.07	17.702
395.42	16.806
395.78	16.153
396.14	16.573
396.50	17.554
396.85	16.595
397.21	18.044
397.57	17.447
397.92	17.506
398.28	17.722
398.64	17.014
399.00	17.809
399.35	17.306
399.71	17.189
400.07	17.612
400.42	18.127
400.78	17.412
401.14	16.168
401.49	16.568
401.85	17.816
402.21	18.653
402.57	17.597
402.92	17.369
403.28	16.483
403.63	17.136
403.99	18.148
404.35	17.391
404.70	16.852
405.06	17.705
405.42	17.282
405.77	17.025
406.13	16.752
406.49	17.256
406.84	17.457
407.20	18.375
407.55	17.479
407.91	16.710
408.27	18.505
408.62	17.378
408.98	17.223
409.34	17.002
409.69	17.706
410.05	16.919
410.40	17.106
410.76	16.894
411.11	17.145
411.47	17.455
411.83	17.910
412.18	16.213
412.54	17.206
412.89	17.618
413.25	17.001
413.60	16.829
413.96	16.513
414.31	17.064
414.67	16.762
415.03	17.335
415.38	17.111
415.74	17.848
416.09	17.519
416.45	17.725
416.80	17.815
417.16	17.209
417.51	18.056
417.87	17.411
418.22	17.004
418.58	17.779
418.93	17.597
419.29	17.691
419.64	16.520
420.00	19.198
420.35	17.209
420.71	17.767
421.06	17.929
421.42	17.623
421.77	18.481
422.12	18.411
422.48	17.691
422.83	17.768
423.19	17.372
423.54	18.156
423.90	17.582
424.25	18.100
424.61	18.637
424.96	18.373
425.31	17.943
425.67	17.536
426.02	17.613
426.38	18.814
426.73	17.475
427.09	17.892
427.44	17.784
427.79	17.558
428.15	17.534
428.50	18.416
428.85	18.705
429.21	18.152
429.56	18.490
429.92	18.788
430.27	18.146
430.62	17.973
430.98	17.773
431.33	18.303
431.68	19.142
432.04	18.075
432.39	17.778
432.74	18.405
433.10	18.796
433.45	17.444
433.80	17.973
434.16	17.947
434.51	19.397
434.86	18.512
435.22	17.873
435.57	18.421
435.92	18.347
436.28	18.220
436.63	18.485
436.98	17.984
437.34	18.547
437.69	18.203
438.04	18.321
438.39	18.592
438.75	18.917
439.10	18.545
439.45	18.467
439.81	19.819
440.16	18.966
440.51	18.588
440.86	18.508
441.22	18.463
441.57	18.737
441.92	19.079
442.27	18.236
442.63	18.455
442.98	18.623
443.33	19.165
443.68	18.656
444.03	18.713
444.39	18.747
444.74	18.722
445.09	18.805
445.44	18.627
445.79	18.511
446.15	18.839
446.50	18.236
446.85	18.214
447.20	18.846
447.55	18.453
447.91	19.876
448.26	18.659
448.61	18.506
448.96	19.608
449.31	17.926
449.66	19.233
450.02	17.618
450.37	18.377
450.72	18.418
451.07	19.422
451.42	18.278
451.77	19.390
452.12	19.249
452.47	19.144
452.83	18.637
453.18	19.481
453.53	19.527
453.88	19.019
454.23	18.561
454.58	20.447
454.93	19.458
455.28	17.527
455.63	19.165
455.98	19.940
456.34	18.107
456.69	19.199
457.04	20.406
457.39	19.617
457.74	19.138
458.09	19.316
458.44	19.457
458.79	18.610
459.14	19.395
459.49	19.893
459.84	19.618
460.19	19.391
460.54	18.996
460.89	19.114
461.24	19.247
461.59	19.578
461.94	20.242
462.29	19.714
462.64	19.697
462.99	20.415
463.34	18.906
463.69	19.466
464.04	18.453
464.39	19.235
464.74	19.563
465.09	18.521
465.44	19.064
465.79	19.515
466.14	19.735
466.49	20.150
466.84	19.568
467.19	20.636
467.54	19.241
467.89	19.729
468.24	19.121
468.59	19.176
468.94	19.164
469.29	19.948
469.64	19.677
469.99	20.257
470.34	20.040
470.68	19.985
471.03	20.578
471.38	18.472
471.73	20.000
472.08	19.813
472.43	19.820
472.78	20.667
473.13	19.417
473.48	19.209
473.83	20.161
474.17	20.127
474.52	20.652
474.87	19.406
475.22	19.823
475.57	19.333
475.92	19.654
476.27	19.029
476.61	19.662
476.96	19.843
477.31	19.806
477.66	20.144
478.01	19.665
478.36	20.063
478.70	20.448
479.05	20.119
479.40	19.845
479.75	19.623
480.10	18.750
480.45	18.810
480.79	19.941
481.14	19.819
481.49	19.845
481.84	19.834
482.19	20.146
482.53	19.744
482.88	19.079
483.23	19.671
483.58	20.768
483.92	20.162
484.27	19.052
484.62	19.741
484.97	19.369
485.31	19.520
485.66	18.799
486.01	18.640
486.36	19.181
486.70	19.228
487.05	19.241
487.40	19.257
487.75	19.175
488.09	18.499
488.44	19.012
488.79	19.420
489.13	19.057
489.48	19.617
489.83	19.913
490.17	19.591
490.52	20.426
490.87	19.815
491.22	19.337
491.56	20.000
491.91	20.706
492.26	20.142
492.60	19.363
492.95	20.038
493.30	19.533
493.64	19.605
493.99	19.407
494.34	20.238
494.68	20.740
495.03	20.841
495.37	19.666
495.72	20.580
496.07	20.648
496.41	20.287
496.76	20.365
497.11	21.291
497.45	21.216
497.80	20.760
498.14	20.088
498.49	19.890
498.84	20.049
499.18	20.565
499.53	20.653
499.87	20.608
500.22	19.755
500.56	20.560
500.91	20.148
501.26	20.621
501.60	20.029
501.95	21.014
502.29	20.406
502.64	20.509
502.98	20.029
503.33	20.160
503.67	20.307
504.02	20.666
504.36	20.392
504.71	20.365
505.06	19.820
505.40	20.808
505.75	20.833
506.09	21.082
506.44	20.602
506.78	20.873
507.13	20.906
507.47	21.388
507.82	20.341
508.16	21.244
508.51	20.556
508.85	20.756
509.19	21.298
509.54	21.036
509.88	21.649
510.23	21.384
510.57	22.381
510.92	21.375
511.26	20.999
511.61	20.194
511.95	21.336
512.30	21.165
512.64	19.922
512.98	20.792
513.33	21.362
513.67	21.106
514.02	20.805
514.36	21.607
514.70	21.109
515.05	20.926
515.39	20.415
515.74	22.222
516.08	20.980
516.42	22.266
516.77	22.241
517.11	21.281
517.46	22.189
517.80	21.300
518.14	22.645
518.49	21.996
518.83	20.475
519.17	22.025
519.52	20.763
519.86	22.043
520.20	21.333
520.55	21.908
520.89	21.102
521.23	21.368
521.58	21.567
521.92	22.039
522.26	22.413
522.61	21.736
522.95	21.315
523.29	22.320
523.64	21.549
523.98	21.579
524.32	21.747
524.66	20.497
525.01	20.938
525.35	23.196
525.69	21.340
526.04	21.736
526.38	21.833
526.72	21.584
527.06	22.526
527.41	21.518
527.75	21.584
528.09	21.244
528.43	22.492
528.78	22.487
529.12	22.407
529.46	21.585
529.80	21.885
530.15	22.537
530.49	22.186
530.83	22.986
531.17	22.088
531.51	21.768
531.86	22.515
532.20	21.795
532.54	22.594
532.88	21.278
533.22	21.457
533.57	21.410
533.91	21.099
534.25	22.062
534.59	21.861
534.93	20.224
535.27	21.775
535.62	21.739
535.96	20.944
536.30	21.204
536.64	21.580
536.98	21.893
537.32	21.562
537.66	22.743
538.01	21.581
538.35	22.230
538.69	20.856
539.03	22.207
539.37	22.156
539.71	22.148
540.05	21.385
540.39	21.676
540.73	21.838
541.07	21.038
541.42	20.662
541.76	21.262
542.10	22.822
542.44	22.252
542.78	21.167
543.12	22.267
543.46	20.822
543.80	21.003
544.14	20.215
544.48	22.244
544.82	21.922
545.16	22.267
545.50	20.525
545.84	22.045
546.18	21.498
546.52	20.839
546.86	20.940
547.20	22.433
547.54	21.625
547.88	22.230
548.22	21.101
548.56	21.643
548.90	21.631
549.24	22.214
549.58	22.865
549.92	22.403
550.26	23.049
550.60	22.262
550.94	22.628
551.28	21.369
551.62	20.975
551.96	22.214
552.30	22.509
552.64	21.182
552.98	22.285
553.32	21.068
553.66	21.341
554.00	22.957
554.34	20.722
554.68	22.661
555.02	22.359
555.36	21.208
555.69	21.418
556.03	22.105
556.37	21.835
556.71	22.763
557.05	22.099
557.39	21.307
557.73	23.049
558.07	23.361
558.41	21.092
558.75	21.825
559.08	21.790
559.42	22.971
559.76	22.239
560.10	22.893
560.44	23.266
560.78	21.364
561.12	22.774
561.45	22.397
561.79	22.021
562.13	21.108
562.47	22.409
562.81	21.429
563.15	21.554
563.48	21.424
563.82	22.380
564.16	21.298
564.50	21.371
564.84	21.627
565.17	20.955
565.51	21.447
565.85	21.771
566.19	21.607
566.52	21.005
566.86	21.492
567.20	22.397
567.54	21.855
567.88	21.050
568.21	21.644
568.55	20.785
568.89	20.974
569.23	20.731
569.56	20.261
569.90	20.574
570.24	20.707
570.57	19.859
570.91	20.231
571.25	20.298
571.59	19.856
571.92	20.327
572.26	19.682
572.60	20.664
572.93	19.573
573.27	19.543
573.61	19.816
573.95	19.691
574.28	19.420
574.62	19.548
574.96	19.691
575.29	19.182
575.63	19.326
575.97	19.525
576.30	19.649
576.64	19.321
576.98	19.308
577.31	19.571
577.65	19.772
577.98	19.535
578.32	19.596
578.66	19.124
578.99	19.369
579.33	19.467
579.67	19.427
580.00	19.668
580.34	18.982
580.67	19.294
581.01	18.944
581.35	19.230
581.68	18.912
582.02	19.368
582.35	18.867
582.69	18.897
583.02	19.894
583.36	19.495
583.70	19.636
584.03	19.666
584.37	19.702
584.70	18.953
585.04	19.443
585.37	19.093
585.71	19.303
586.04	19.377
586.38	19.460
586.72	19.109
587.05	19.570
587.39	19.694
587.72	19.220
588.06	19.670
588.39	19.339
588.73	19.734
589.06	19.693
589.40	20.199
589.73	19.724
590.07	19.956
590.40	21.181
590.73	19.352
591.07	20.246
591.40	20.624
591.74	20.374
592.07	19.550
592.41	20.127
592.74	20.407
593.08	20.151
593.41	20.099
593.75	19.519
594.08	20.417
594.41	20.739
594.75	20.423
595.08	19.925
595.42	20.014
595.75	19.368
596.09	19.752
596.42	20.540
596.75	19.836
597.09	20.926
597.42	19.598
597.75	19.929
598.09	20.108
598.42	20.150
598.76	19.643
599.09	20.284
599.42	20.338
599.76	20.008
600.09	20.382
600.42	19.977
600.76	19.736
601.09	19.901
601.42	20.340
601.76	20.483
602.09	19.714
602.42	19.630
602.76	20.274
603.09	20.161
603.42	20.508
603.76	20.263
604.09	20.425
604.42	19.484
604.76	19.887
605.09	20.163
605.42	20.833
605.75	20.354
606.09	20.714
606.42	19.816
606.75	19.751
607.09	19.938
607.42	20.026
607.75	20.353
608.08	20.334
608.42	20.482
608.75	20.140
609.08	19.971
609.41	19.831
609.75	19.649
610.08	20.392
610.41	19.952
610.74	20.793
611.07	20.335
611.41	20.020
611.74	20.566
612.07	20.892
612.40	20.416
612.73	20.625
613.07	20.253
613.40	21.128
613.73	19.837
614.06	19.879
614.39	20.519
614.72	19.777
615.06	20.652
615.39	19.588
615.72	20.858
616.05	19.492
616.38	21.300
616.71	20.841
617.05	20.507
617.38	20.372
617.71	20.332
618.04	20.311
618.37	19.937
618.70	20.926
619.03	20.988
619.36	20.437
619.69	22.039
620.03	20.592
620.36	21.167
620.69	21.464
621.02	21.005
621.35	21.613
621.68	21.148
622.01	21.602
622.34	21.894
622.67	22.109
623.00	20.581
623.33	21.791
623.66	20.310
623.99	21.278
624.32	20.387
624.65	21.339
624.99	20.986
625.32	19.835
625.65	21.368
625.98	20.814
626.31	21.289
626.64	21.004
626.97	20.976
627.30	20.511
627.63	20.639
627.96	21.323
628.29	21.783
628.62	22.541
628.95	22.343
629.28	21.992
629.61	21.786
629.94	21.267
630.26	22.565
630.59	22.412
630.92	21.822
631.25	21.875
631.58	21.270
631.91	19.255
632.24	22.778
632.57	22.778
632.90	22.069
633.23	21.729
633.56	21.053
633.89	21.462
634.22	21.842
634.55	21.875
634.88	21.403
635.20	22.222
635.53	21.374
635.86	22.544
636.19	21.245
636.52	22.820
636.85	21.901
637.18	20.625
637.51	22.429
637.83	21.438
638.16	21.316
638.49	22.207
638.82	22.780
639.15	23.087
639.48	22.568
639.81	21.992
640.13	23.378
640.46	21.652
640.79	21.289
641.12	21.439
641.45	22.669
641.77	20.958
642.10	22.356
642.43	22.914
642.76	22.205
643.09	23.016
643.41	22.857
643.74	22.893
644.07	23.245
644.40	22.042
644.73	22.442
645.05	22.371
645.38	24.007
645.71	23.368
646.04	22.521
646.36	22.862
646.69	23.010
647.02	23.466
647.35	21.480
647.67	23.175
648.00	23.374
648.33	24.452
648.66	21.129
648.98	22.930
649.31	20.154
649.64	21.250
649.96	21.193
650.29	22.131
650.62	22.203
650.94	21.417
651.27	23.397
651.60	21.453
651.92	23.288
652.25	23.038
652.58	20.613
652.90	21.830
653.23	22.903
653.56	20.401
653.88	20.984
654.21	22.148
654.54	22.425
654.86	21.188
655.19	22.350
655.52	20.181
655.84	18.945
656.17	20.322
656.49	27.680
656.82	28.257
657.15	20.811
657.47	15.264
657.80	11.748
658.13	13.222
658.45	17.861
658.78	17.336
659.10	17.161
659.43	16.718
659.75	17.231
660.08	17.187
660.41	17.458
660.73	17.822
661.06	21.449
661.38	23.929
661.71	22.562
662.03	22.782
662.36	21.109
662.68	23.629
663.01	22.505
663.33	21.315
663.66	23.605
663.98	19.643
664.31	22.148
664.63	25.000
664.96	22.777
665.28	21.692
665.61	21.142
665.93	22.222
666.26	25.304
666.58	24.324
666.91	22.049
667.23	22.588
667.56	21.769
667.88	22.624
668.21	23.963
668.53	21.495
668.86	22.171
669.18	21.461
669.50	22.897
669.83	18.978
670.15	17.937
670.48	21.028
670.80	20.501
671.13	21.219
671.45	21.847
671.77	22.270
672.10	23.866
672.42	22.878
672.75	19.091
673.07	19.279
673.39	22.040
673.72	23.031
674.04	20.807
674.37	18.351
674.69	22.746
675.01	19.787
675.34	21.041
675.66	23.542
675.98	24.890
676.31	23.303
676.63	24.598
676.95	20.354
677.28	21.578
677.60	24.661
677.92	24.449
678.25	22.101
678.57	22.840
678.89	20.545
679.22	19.078
679.54	22.288
679.86	20.400
680.18	21.483
680.51	19.553
680.83	22.286
681.15	21.387
681.48	22.515
681.80	21.774
682.12	18.109
682.44	23.183
682.77	17.749
683.09	19.916
683.41	20.796
683.73	20.548
684.06	19.355
684.38	21.757
684.70	21.605
685.02	20.079
685.34	20.078
685.67	19.318
685.99	16.257
686.31	21.364
686.63	21.454
686.96	19.963
687.28	18.882
687.60	21.875
687.92	19.650
688.24	20.669
688.56	21.242
688.89	17.735
689.21	18.162
689.53	21.839
689.85	22.272
690.17	18.161
690.49	19.861
690.82	19.518
691.14	18.632
691.46	22.395
691.78	20.925
692.10	24.788
692.42	19.778
692.74	21.888
693.06	21.124
693.39	19.016
693.71	22.348
694.03	20.518
694.35	19.865
694.67	23.877
694.99	17.136
695.31	21.173
695.63	17.857
695.95	22.581
696.27	19.202
696.59	21.658
696.91	21.910
697.23	23.438
697.56	19.952
697.88	19.820
698.20	17.987
698.52	19.955
698.84	22.087
699.16	18.571
699.48	21.500
699.80	22.306
700.12	23.174
700.44	17.039
700.76	18.950
701.08	20.058
701.40	17.523
701.72	21.605
702.04	23.397
702.36	18.976
702.68	19.162
703.00	20.000
703.32	18.911
703.64	21.176
703.96	20.930
704.28	21.006
704.60	20.253
704.91	15.556
705.23	23.948
705.55	21.622
705.87	20.137
706.19	21.181
706.51	19.444
706.83	20.984
707.15	22.611
707.47	20.937
707.79	19.588
708.11	17.303
708.43	20.200
708.74	17.403
709.06	15.877
709.38	20.977
709.70	15.312
710.02	23.006
710.34	16.832
710.66	14.921
710.98	19.558
711.29	17.419
711.61	16.933
711.93	20.328
712.25	21.262
712.57	20.557
712.89	23.741
713.20	23.024
713.52	16.418
713.84	18.149
714.16	23.607
714.48	18.413
714.80	16.308
715.11	17.579
715.43	23.193
715.75	19.938
716.07	13.443
716.39	18.729
716.70	18.815
717.02	17.407
717.34	19.466
717.66	22.822
717.97	18.443
718.29	21.008
718.61	21.825
718.93	18.280
719.24	19.118
719.56	19.623
719.88	21.818
720.20	21.348
720.51	24.812
720.83	14.859
721.15	20.492
721.46	22.353
721.78	21.073
722.10	21.200
722.42	19.008
722.73	16.335
723.05	20.482
723.37	21.569
723.68	19.433
724.00	18.293
724.32	22.634
724.63	22.407
724.95	22.314
725.27	18.421
725.58	22.845
725.90	18.651
726.22	25.461
726.53	17.490
726.85	12.941
727.16	18.421
727.48	17.692
727.80	13.934
728.11	19.748
728.43	21.901
728.74	20.313
729.06	25.379
729.38	16.732
729.69	19.685
730.01	18.110
730.32	19.920
730.64	18.315
730.96	24.627
731.27	21.429
731.59	18.971
731.90	18.712
732.22	18.712
732.53	21.192
732.85	18.792
733.16	18.841
733.48	16.725
733.80	18.149
734.11	15.517
734.43	20.748
734.74	18.694
735.06	17.555
735.37	18.043
735.69	14.839
736.00	16.498
736.32	17.550
736.63	14.483
736.95	17.029
737.26	22.848
737.58	19.065
737.89	19.355
738.21	15.789
738.52	20.385
738.83	18.750
739.15	20.513
739.46	15.726
739.78	19.231
740.09	16.783
740.41	19.580
740.72	20.073
741.04	15.873
741.35	16.450
741.66	17.593
741.98	18.571
742.29	18.779
742.61	20.321
742.92	20.093
743.23	11.842
743.55	22.523
743.86	22.667
744.18	20.000
744.49	16.749
744.80	23.350
745.12	22.165
745.43	22.111
745.74	20.874
746.06	16.098
746.37	22.467
746.68	15.423
747.00	15.183
747.31	18.750
747.62	16.590
747.94	19.214
748.25	23.721
748.56	20.476
748.88	16.304
749.19	23.005
749.50	26.471
749.82	21.778
750.13	23.348
750.44	17.886
750.75	16.000
751.07	23.571
751.38	19.926
751.69	17.939
752.01	18.846
752.32	18.677
752.63	13.846
752.94	17.857
753.26	20.435
753.57	24.554
753.88	20.259
754.19	12.033
754.51	19.141
754.82	17.391
755.13	17.695
755.44	19.421
755.75	20.988
756.07	17.671
756.38	12.891
756.69	18.412
757.00	20.209
757.31	18.121
757.63	22.741
757.94	15.318
758.25	16.860
758.56	21.024
758.87	18.466
759.18	14.667
759.50	12.811
759.81	13.139
760.12	12.838
760.43	21.359
760.74	21.875
761.05	18.820
761.36	20.359
761.67	18.047
761.99	15.806
762.30	16.667
762.61	14.717
762.92	19.283
763.23	15.166
763.54	18.667
763.85	20.253
764.16	20.000
764.47	17.797
764.78	17.978
765.10	21.942
765.41	15.484
765.72	15.723
766.03	13.428
766.34	13.534
766.65	17.409
766.96	11.500
767.27	22.396
767.58	15.698
767.89	14.194
768.20	15.337
768.51	21.311
768.82	12.973
769.13	21.000
769.44	19.298
769.75	18.182
770.06	16.514
770.37	13.146
770.68	16.667
770.99	12.376
771.30	20.874
771.61	18.981
771.92	14.719
772.23	14.486
772.54	15.957
772.85	15.385
773.16	21.341
773.47	28.313
773.78	20.330
774.09	20.000
774.39	16.049
774.70	16.107
775.01	14.493
775.32	8.955
775.63	13.223
775.94	27.068
776.25	20.714
776.56	25.410
776.87	19.469
777.18	26.549
777.48	7.273
777.79	10.435
778.10	9.174
778.41	18.644
778.72	14.876
779.03	17.910
779.34	18.045
779.65	22.876
779.95	17.391
780.26	17.007
780.57	14.655
780.88	9.259
781.19	10.101
781.50	12.000
781.80	16.340
782.11	20.513
782.42	16.265
782.73	18.978
783.04	8.108
783.34	17.424
783.65	21.705
783.96	20.325
784.27	24.786
784.57	13.821
784.88	20.325
785.19	27.193
785.50	3.093
785.81	9.524
786.11	16.667
786.42	0.909
786.73	25.225
787.04	18.812
787.34	17.143
787.65	12.381
787.96	18.627
788.26	9.910
788.57	22.581
788.88	14.844
789.19	21.368
789.49	15.966
789.80	14.530
790.11	22.124
790.41	10.101
790.72	25.472
791.03	5.556
791.33	23.684
791.64	19.355
791.95	4.000
792.25	24.286
792.56	8.537
792.87	15.306
793.17	25.000
793.48	4.054
793.79	4.225
794.09	7.595
794.40	23.404
794.70	18.692
795.01	4.386
795.32	14.545
795.62	9.821
795.93	21.649
796.23	8.791
796.54	25.263
796.85	12.329
797.15	26.389
797.46	17.808
797.76	9.859
798.07	18.750
798.37	7.353
798.68	21.429
798.99	15.714
799.29	1.316
799.60	16.667
799.90	5.556
800.21	9.375
800.51	6.349
800.82	31.148
801.12	5.263
801.43	22.535
801.73	6.780
802.04	27.869
802.34	3.636
802.65	32.692
802.95	11.111
803.26	-15.000
803.56	7.692
803.87	-5.263
804.17	20.968
804.48	7.692
804.78	33.333
805.09	18.605
805.39	-37.500
805.70	-1.887
806.00	8.772
806.30	33.784
806.61	17.647
806.91	11.111
807.22	10.667
807.52	5.970
807.83	-4.839
808.13	7.937
808.43	3.636
808.74	27.273
809.04	16.981
809.35	10.959
809.65	22.807
809.95	23.529
810.26	13.725
810.56	10.000
810.86	18.367
811.17	25.714
811.47	19.231
811.77	6.452
812.08	-21.053
812.38	30.952
812.69	4.348
812.99	32.258
813.29	26.190
813.59	3.704
813.90	-2.128
814.20	-16.279
814.50	10.417
814.81	13.333
815.11	26.829
815.41	20.000
815.72	37.143
816.02	-41.667
816.32	7.692
816.62	10.811
816.93	-26.471
817.23	-4.348
817.53	17.647
817.84	-5.882
818.14	-15.625
818.44	-10.345
818.74	-12.903
819.04	3.704
819.35	-13.333
819.65	-24.000
819.95	40.000
820.25	-8.000
820.56	5.263
820.86	-7.500
821.16	-8.511
821.46	3.448
821.76	2.564
822.07	0.000
822.37	13.953
822.67	-3.333
822.97	-5.405
823.27	37.838
823.57	40.000
823.88	40.541
824.18	-85.714
824.48	-7.692
824.78	-61.538
825.08	-8.696
825.38	-12.500
825.69	-20.833
825.99	-45.000
826.29	13.514
826.59	32.353
826.89	44.000
827.19	11.429
827.49	18.421
827.79	6.250
828.09	0.000
828.39	30.435
828.70	-10.345
829.00	-6.897
829.30	2.778
829.60	53.125
829.90	-38.889
830.20	11.538
830.50	-52.381
830.80	-14.286
831.10	23.077
831.40	-33.333
831.70	8.824
832.00	25.000
832.30	-57.895
832.60	6.250
832.90	-25.000
833.20	-11.765
833.50	-60.000
833.80	-46.667
834.10	30.000
834.40	20.833
834.70	-11.111
835.00	26.923
835.30	-8.333
835.60	20.690
835.90	-38.889
836.20	-81.818
836.50	-58.333
836.80	25.714
837.10	42.857
837.40	11.765
837.70	-118.182
838.00	12.500
838.30	-31.250
838.60	-9.524
838.90	20.000
839.19	-4.348
839.49	34.783
839.79	-11.111
840.09	-47.826
840.39	54.545
840.69	-43.750
840.99	10.526
841.29	6.250
841.59	7.143
841.88	-5.556
842.18	12.500
842.48	-29.412
842.78	-6.897
843.08	-14.286
843.38	7.692
843.68	-111.111
843.97	-15.385
844.27	-18.182
844.57	-100.000
844.87	44.000
845.17	20.000
845.47	-78.571
845.76	-11.111
846.06	0.000
846.36	-225.000
846.66	-50.000
846.96	31.579
847.25	-12.500
847.55	-8.333
847.85	80.000
848.15	-20.000
848.44	26.923
848.74	47.368
849.04	400.000
849.34	-55.556
849.63	-63.158
849.93	0.000
850.23	-5.000
850.53	-28.571
850.82	-4.000
851.12	15.789
851.42	-400.000
851.71	-7.143
852.01	41.667
852.31	-23.529
852.61	-20.000
852.90	-47.619
853.20	83.333
853.50	-5.556
853.79	-36.842
854.09	-13.333
854.39	7.143
854.68	-8.696
854.98	-158.333
855.28	41.379
855.57	-6.250
855.87	-35.000
856.17	-86.667
856.46	0.000
856.76	13.333
857.05	-70.588
857.35	-176.923
857.65	36.364
857.94	0.000
858.24	-42.857
858.53	0.000
858.83	-75.000
859.13	-100.000
859.42	71.429
859.72	0.000
860.01	-166.667
860.31	37.500
860.60	-320.000
860.90	-111.111
861.20	50.000
861.49	-157.143
861.79	17.647
862.08	-150.000
862.38	-41.667
862.67	-69.231
862.97	-17.647
863.26	0.000
863.56	-41.176
863.85	233.333
864.15	20.000
864.44	-84.615
864.74	50.000
865.03	-175.000
865.33	-133.333
865.62	-82.353
865.92	-550.000
866.21	0.000
866.51	-50.000
866.80	-200.000
867.10	-33.333
867.39	64.706
867.69	43.478
867.98	85.714
868.27	0.000
868.57	0.000
868.86	-109.091
869.16	17.647
869.45	-133.333
869.75	-100.000
870.04	100.000
870.33	-8.333
870.63	-80.000
870.92	33.333
871.22	25.000
871.51	45.455
871.80	-25.000
872.10	10.000
>>>>>End Processed Spectral Data<<<<<
