SpectraSuite Data File
++++++++++++++++++++++++++++++++++++
Date: Sat May 16 11:41:27 PDT 2015
User: schluterlab
Dark Spectrum Present: Yes
Reference Spectrum Present: Yes
Number of Sampled Component Spectra: 1
Spectrometers: USB2E3373
Integration Time (usec): 3000 (USB2E3373)
Spectra Averaged: 3 (USB2E3373)
Boxcar Smoothing: 0 (USB2E3373)
Correct for Electrical Dark: No (USB2E3373)
Strobe/Lamp Enabled: No (USB2E3373)
Correct for Detector Non-linearity: No (USB2E3373)
Correct for Stray Light: No (USB2E3373)
Number of Pixels in Processed Spectrum: 2048
>>>>>Begin Processed Spectral Data<<<<<
178.53	0.000
178.91	146.667
179.29	966.667
179.67	-1600.000
180.04	-15.385
180.42	1200.000
180.80	375.000
181.18	425.000
181.56	-100.000
181.94	800.000
182.31	400.000
182.69	-123.077
183.07	-600.000
183.45	1200.000
183.83	666.667
184.20	-157.143
184.58	-187.500
184.96	-300.000
185.34	137.500
185.72	-425.000
186.09	266.667
186.47	-225.000
186.85	-137.500
187.23	-137.500
187.61	-300.000
187.98	-275.000
188.36	-175.000
188.74	-187.500
189.12	1800.000
189.49	371.429
189.87	-116.667
190.25	450.000
190.63	-28.571
191.00	-177.778
191.38	300.000
191.76	-20.000
192.14	480.000
192.51	-300.000
192.89	-600.000
193.27	0.000
193.65	-222.222
194.02	-257.143
194.40	466.667
194.78	-160.000
195.15	-600.000
195.53	-109.091
195.91	-350.000
196.29	260.000
196.66	-300.000
197.04	1800.000
197.42	-125.000
197.79	40.000
198.17	-600.000
198.55	-900.000
198.92	-1300.000
199.30	212.500
199.68	-700.000
200.05	-166.667
200.43	-100.000
200.81	-1700.000
201.18	-141.667
201.56	300.000
201.94	-86.667
202.31	-27.273
202.69	-20.000
203.07	-70.000
203.44	433.333
203.82	-450.000
204.19	-575.000
204.57	-350.000
204.95	-1000.000
205.32	-6.250
205.70	600.000
206.08	-1100.000
206.45	-66.667
206.83	-1300.000
207.20	150.000
207.58	-1000.000
207.96	-400.000
208.33	-112.500
208.71	-77.778
209.08	150.000
209.46	-314.286
209.84	1050.000
210.21	0.000
210.59	15.000
210.96	700.000
211.34	-166.667
211.71	-266.667
212.09	375.000
212.46	850.000
212.84	-1300.000
213.22	500.000
213.59	183.333
213.97	-77.778
214.34	150.000
214.72	-100.000
215.09	-200.000
215.47	-66.667
215.84	-100.000
216.22	-70.000
216.59	-33.333
216.97	-300.000
217.34	750.000
217.72	-128.571
218.09	-266.667
218.47	-14.286
218.84	228.571
219.22	0.000
219.59	0.000
219.97	328.571
220.34	200.000
220.72	350.000
221.09	-61.538
221.47	0.000
221.84	366.667
222.22	-750.000
222.59	1200.000
222.97	-162.500
223.34	-700.000
223.72	-333.333
224.09	-100.000
224.46	-225.000
224.84	0.000
225.21	-300.000
225.59	-36.364
225.96	-262.500
226.34	-14.286
226.71	-33.333
227.08	-5.000
227.46	1900.000
227.83	-114.286
228.21	-150.000
228.58	800.000
228.95	-37.500
229.33	-1300.000
229.70	-400.000
230.08	-800.000
230.45	25.000
230.82	-216.667
231.20	-1700.000
231.57	-500.000
231.95	2200.000
232.32	-9.524
232.69	-77.778
233.07	-300.000
233.44	-1200.000
233.81	-126.667
234.19	-88.889
234.56	-43.750
234.93	25.000
235.31	-257.143
235.68	-92.857
236.05	-64.706
236.43	-90.909
236.80	-32.258
237.17	-29.167
237.55	-38.095
237.92	-104.545
238.29	-20.000
238.67	-26.471
239.04	-16.667
239.41	6.452
239.79	-30.769
240.16	-35.714
240.53	-21.818
240.91	-20.513
241.28	0.000
241.65	4.615
242.02	-8.197
242.40	-13.115
242.77	-12.121
243.14	0.000
243.51	-7.143
243.89	-5.063
244.26	-5.618
244.63	8.421
245.00	0.000
245.38	9.322
245.75	12.389
246.12	9.600
246.49	12.598
246.87	1.626
247.24	-4.237
247.61	0.000
247.98	5.634
248.36	4.895
248.73	9.494
249.10	14.013
249.47	3.509
249.84	11.932
250.22	7.143
250.59	14.689
250.96	8.377
251.33	16.588
251.70	10.577
252.08	12.322
252.45	9.479
252.82	10.952
253.19	13.617
253.56	6.048
253.94	10.127
254.31	15.021
254.68	11.382
255.05	8.065
255.42	12.302
255.79	12.545
256.16	11.373
256.54	8.456
256.91	9.470
257.28	8.059
257.65	10.993
258.02	15.723
258.39	11.706
258.76	9.122
259.14	10.185
259.51	13.443
259.88	9.756
260.25	14.596
260.62	12.862
260.99	9.199
261.36	15.549
261.73	11.272
262.10	13.889
262.47	9.687
262.85	14.000
263.22	10.029
263.59	12.923
263.96	14.493
264.33	11.111
264.70	14.365
265.07	8.242
265.44	8.527
265.81	10.078
266.18	12.911
266.55	12.990
266.92	13.602
267.29	10.654
267.66	12.346
268.03	13.285
268.40	11.033
268.77	11.084
269.14	12.529
269.51	11.494
269.88	9.174
270.25	10.490
270.62	13.043
270.99	12.162
271.36	11.422
271.73	10.987
272.10	10.526
272.47	11.111
272.84	14.222
273.21	12.615
273.58	12.088
273.95	12.719
274.32	11.991
274.69	13.786
275.06	13.906
275.43	10.045
275.80	14.257
276.17	10.879
276.54	13.238
276.91	11.934
277.28	12.576
277.65	11.983
278.02	12.317
278.39	13.556
278.76	11.155
279.13	12.846
279.50	14.513
279.87	10.571
280.23	13.765
280.60	12.525
280.97	10.291
281.34	11.219
281.71	12.885
282.08	9.274
282.45	9.980
282.82	12.016
283.19	11.455
283.56	13.736
283.92	13.428
284.29	11.710
284.66	10.791
285.03	12.478
285.40	11.255
285.77	14.035
286.14	12.274
286.51	10.124
286.87	11.797
287.24	12.799
287.61	12.397
287.98	9.879
288.35	10.083
288.72	10.866
289.08	9.153
289.45	12.963
289.82	10.035
290.19	11.987
290.56	11.405
290.93	10.493
291.29	8.428
291.66	9.501
292.03	10.832
292.40	9.187
292.77	10.870
293.13	9.593
293.50	11.738
293.87	9.663
294.24	10.256
294.60	7.879
294.97	10.774
295.34	8.593
295.71	11.905
296.08	8.602
296.44	8.011
296.81	9.402
297.18	10.282
297.55	11.158
297.91	12.134
298.28	9.589
298.65	10.460
299.02	8.824
299.38	10.963
299.75	9.647
300.12	10.000
300.48	10.742
300.85	7.864
301.22	8.279
301.59	9.883
301.95	9.572
302.32	7.562
302.69	9.670
303.05	9.402
303.42	9.500
303.79	9.569
304.15	10.190
304.52	9.102
304.89	8.028
305.25	8.791
305.62	8.578
305.99	11.307
306.35	9.767
306.72	8.428
307.09	9.194
307.45	9.081
307.82	7.486
308.19	8.725
308.55	10.566
308.92	8.163
309.29	8.108
309.65	8.696
310.02	8.747
310.38	9.081
310.75	9.016
311.12	10.950
311.48	9.916
311.85	9.681
312.22	9.475
312.58	10.275
312.95	10.194
313.31	10.490
313.68	10.251
314.05	10.485
314.41	9.457
314.78	9.890
315.14	10.563
315.51	10.537
315.87	12.004
316.24	11.079
316.61	12.284
316.97	11.741
317.34	11.368
317.70	11.874
318.07	11.847
318.43	12.266
318.80	15.117
319.16	13.133
319.53	12.688
319.89	12.794
320.26	14.510
320.62	14.423
320.99	13.632
321.35	13.596
321.72	14.432
322.08	16.024
322.45	14.356
322.81	15.658
323.18	17.195
323.54	17.468
323.91	16.867
324.27	17.871
324.64	17.824
325.00	18.586
325.37	16.923
325.73	20.735
326.10	18.069
326.46	18.739
326.83	19.915
327.19	20.767
327.56	21.891
327.92	20.646
328.29	21.212
328.65	21.273
329.01	21.908
329.38	23.550
329.74	23.901
330.11	22.756
330.47	23.433
330.84	24.381
331.20	24.639
331.56	25.068
331.93	25.044
332.29	26.027
332.66	26.163
333.02	25.611
333.38	26.523
333.75	27.427
334.11	27.467
334.48	26.302
334.84	27.997
335.20	26.773
335.57	27.076
335.93	29.275
336.29	27.369
336.66	27.577
337.02	29.009
337.38	28.431
337.75	28.797
338.11	28.354
338.47	29.448
338.84	29.401
339.20	28.032
339.56	30.214
339.93	29.012
340.29	29.318
340.65	29.283
341.02	30.860
341.38	29.992
341.74	28.112
342.11	28.925
342.47	29.013
342.83	29.219
343.20	29.804
343.56	27.837
343.92	29.215
344.28	31.791
344.65	29.208
345.01	30.336
345.37	30.648
345.73	28.478
346.10	28.536
346.46	29.245
346.82	29.350
347.19	29.417
347.55	29.615
347.91	28.740
348.27	29.912
348.63	29.160
349.00	29.435
349.36	27.791
349.72	29.857
350.08	30.233
350.45	29.393
350.81	30.892
351.17	29.984
351.53	29.515
351.89	29.507
352.26	29.767
352.62	31.413
352.98	30.222
353.34	30.136
353.70	29.344
354.07	29.740
354.43	30.040
354.79	30.745
355.15	29.952
355.51	31.328
355.87	29.565
356.24	30.421
356.60	31.426
356.96	31.255
357.32	30.325
357.68	31.954
358.04	30.947
358.40	30.626
358.77	30.835
359.13	30.681
359.49	32.048
359.85	31.555
360.21	31.735
360.57	33.057
360.93	30.889
361.29	32.362
361.66	32.241
362.02	31.065
362.38	31.695
362.74	31.648
363.10	31.707
363.46	32.051
363.82	33.017
364.18	32.417
364.54	34.239
364.90	32.984
365.26	31.526
365.62	33.856
365.98	33.642
366.35	32.817
366.71	33.545
367.07	34.651
367.43	34.454
367.79	34.639
368.15	33.428
368.51	34.755
368.87	35.440
369.23	35.018
369.59	34.444
369.95	34.743
370.31	34.951
370.67	33.839
371.03	35.058
371.39	35.502
371.75	35.837
372.11	35.653
372.47	36.226
372.83	36.300
373.19	36.429
373.55	36.453
373.91	36.842
374.27	37.235
374.63	37.060
374.99	35.814
375.35	36.743
375.71	36.867
376.07	37.577
376.42	36.159
376.78	38.889
377.14	38.237
377.50	38.749
377.86	38.362
378.22	39.573
378.58	38.481
378.94	39.642
379.30	39.122
379.66	40.012
380.02	39.097
380.38	40.363
380.74	39.156
381.09	40.246
381.45	40.036
381.81	40.411
382.17	40.789
382.53	40.729
382.89	40.311
383.25	41.120
383.61	42.217
383.97	41.825
384.32	42.428
384.68	43.108
385.04	42.331
385.40	44.127
385.76	43.537
386.12	42.973
386.48	44.245
386.83	43.436
387.19	44.351
387.55	44.640
387.91	44.043
388.27	44.089
388.62	44.171
388.98	45.003
389.34	44.920
389.70	44.884
390.06	44.251
390.42	45.705
390.77	45.300
391.13	47.019
391.49	46.413
391.85	45.511
392.20	45.328
392.56	45.449
392.92	46.492
393.28	47.187
393.64	46.723
393.99	47.569
394.35	47.141
394.71	46.757
395.07	47.520
395.42	46.663
395.78	46.260
396.14	48.287
396.50	48.318
396.85	47.810
397.21	47.023
397.57	47.112
397.92	47.600
398.28	47.444
398.64	46.996
399.00	49.551
399.35	48.309
399.71	48.722
400.07	47.642
400.42	48.236
400.78	48.539
401.14	48.144
401.49	48.231
401.85	48.505
402.21	48.451
402.57	48.544
402.92	50.094
403.28	48.958
403.63	47.873
403.99	47.856
404.35	49.517
404.70	49.093
405.06	49.423
405.42	49.016
405.77	48.247
406.13	49.688
406.49	49.910
406.84	49.370
407.20	49.117
407.55	48.638
407.91	48.575
408.27	50.061
408.62	50.331
408.98	50.030
409.34	49.604
409.69	48.960
410.05	49.727
410.40	49.847
410.76	49.793
411.11	51.309
411.47	50.128
411.83	50.856
412.18	50.371
412.54	49.786
412.89	50.668
413.25	48.996
413.60	49.089
413.96	50.339
414.31	51.315
414.67	50.349
415.03	50.259
415.38	51.269
415.74	51.095
416.09	50.703
416.45	49.405
416.80	51.430
417.16	51.561
417.51	51.412
417.87	51.003
418.22	51.454
418.58	50.963
418.93	51.257
419.29	51.129
419.64	50.314
420.00	51.337
420.35	51.567
420.71	51.200
421.06	50.828
421.42	50.703
421.77	50.586
422.12	51.763
422.48	51.416
422.83	50.513
423.19	51.169
423.54	51.643
423.90	51.822
424.25	50.905
424.61	53.498
424.96	51.668
425.31	50.978
425.67	51.347
426.02	51.348
426.38	53.418
426.73	52.601
427.09	52.512
427.44	51.705
427.79	52.558
428.15	52.184
428.50	52.903
428.85	52.878
429.21	52.739
429.56	52.292
429.92	52.004
430.27	52.493
430.62	53.866
430.98	51.072
431.33	53.629
431.68	53.137
432.04	53.050
432.39	52.991
432.74	52.938
433.10	53.461
433.45	52.504
433.80	53.527
434.16	53.842
434.51	53.699
434.86	54.189
435.22	53.675
435.57	53.550
435.92	53.927
436.28	54.362
436.63	52.685
436.98	53.322
437.34	52.924
437.69	52.684
438.04	53.829
438.39	53.851
438.75	53.143
439.10	53.748
439.45	54.134
439.81	54.277
440.16	53.663
440.51	53.647
440.86	54.135
441.22	54.118
441.57	54.632
441.92	54.731
442.27	53.301
442.63	53.755
442.98	54.233
443.33	54.091
443.68	53.986
444.03	53.733
444.39	53.500
444.74	56.112
445.09	54.770
445.44	53.967
445.79	55.788
446.15	54.545
446.50	53.729
446.85	54.541
447.20	55.005
447.55	55.359
447.91	55.025
448.26	54.637
448.61	53.707
448.96	54.566
449.31	54.679
449.66	54.780
450.02	53.296
450.37	55.304
450.72	55.311
451.07	55.185
451.42	52.974
451.77	54.518
452.12	54.589
452.47	54.534
452.83	54.863
453.18	55.661
453.53	55.473
453.88	56.160
454.23	53.809
454.58	56.619
454.93	56.108
455.28	55.959
455.63	55.713
455.98	56.566
456.34	55.019
456.69	54.909
457.04	54.333
457.39	54.725
457.74	55.405
458.09	55.278
458.44	55.658
458.79	54.484
459.14	55.847
459.49	55.477
459.84	54.300
460.19	55.668
460.54	53.842
460.89	55.325
461.24	54.463
461.59	55.979
461.94	55.506
462.29	55.033
462.64	56.126
462.99	56.894
463.34	55.436
463.69	56.107
464.04	54.013
464.39	55.496
464.74	54.905
465.09	54.901
465.44	55.330
465.79	56.176
466.14	56.617
466.49	56.016
466.84	55.282
467.19	55.923
467.54	54.620
467.89	55.055
468.24	54.394
468.59	55.465
468.94	56.334
469.29	55.166
469.64	54.852
469.99	57.731
470.34	55.845
470.68	57.413
471.03	54.921
471.38	55.486
471.73	56.993
472.08	57.229
472.43	56.242
472.78	55.867
473.13	56.528
473.48	56.477
473.83	55.335
474.17	57.516
474.52	56.650
474.87	54.895
475.22	55.752
475.57	56.611
475.92	55.940
476.27	56.229
476.61	56.169
476.96	56.680
477.31	56.136
477.66	56.281
478.01	55.808
478.36	54.426
478.70	57.501
479.05	56.301
479.40	56.218
479.75	55.301
480.10	56.597
480.45	55.706
480.79	56.811
481.14	57.100
481.49	56.147
481.84	55.294
482.19	56.647
482.53	56.487
482.88	55.956
483.23	55.869
483.58	57.169
483.92	57.191
484.27	55.871
484.62	55.248
484.97	55.612
485.31	54.080
485.66	53.118
486.01	54.430
486.36	55.233
486.70	56.882
487.05	55.534
487.40	56.223
487.75	55.138
488.09	54.910
488.44	55.041
488.79	55.005
489.13	55.953
489.48	56.770
489.83	56.332
490.17	55.899
490.52	56.159
490.87	56.628
491.22	56.983
491.56	56.481
491.91	57.061
492.26	57.925
492.60	57.088
492.95	56.830
493.30	55.264
493.64	56.559
493.99	57.696
494.34	57.571
494.68	57.912
495.03	56.119
495.37	57.227
495.72	57.711
496.07	58.189
496.41	58.407
496.76	56.621
497.11	57.466
497.45	57.807
497.80	56.978
498.14	57.466
498.49	58.564
498.84	56.456
499.18	59.357
499.53	57.526
499.87	57.529
500.22	58.578
500.56	58.379
500.91	58.276
501.26	58.079
501.60	56.957
501.95	58.116
502.29	57.959
502.64	58.180
502.98	57.643
503.33	57.707
503.67	57.950
504.02	58.329
504.36	57.843
504.71	58.257
505.06	57.763
505.40	59.681
505.75	58.232
506.09	58.392
506.44	59.148
506.78	58.605
507.13	58.342
507.47	60.250
507.82	58.596
508.16	59.326
508.51	58.423
508.85	58.644
509.19	58.556
509.54	59.567
509.88	58.989
510.23	58.491
510.57	60.529
510.92	59.398
511.26	59.224
511.61	58.477
511.95	59.429
512.30	60.253
512.64	59.154
512.98	60.121
513.33	60.297
513.67	59.743
514.02	60.067
514.36	59.335
514.70	59.819
515.05	59.806
515.39	59.746
515.74	60.733
516.08	59.308
516.42	60.623
516.77	62.565
517.11	60.469
517.46	63.636
517.80	61.853
518.14	60.568
518.49	61.745
518.83	61.721
519.17	61.516
519.52	60.324
519.86	61.589
520.20	62.653
520.55	60.185
520.89	61.803
521.23	61.966
521.58	61.254
521.92	62.255
522.26	60.889
522.61	62.674
522.95	61.200
523.29	62.445
523.64	62.211
523.98	61.744
524.32	62.099
524.66	62.298
525.01	61.978
525.35	62.564
525.69	62.589
526.04	63.577
526.38	62.635
526.72	61.047
527.06	64.714
527.41	64.224
527.75	62.178
528.09	63.600
528.43	63.803
528.78	62.186
529.12	63.060
529.46	63.660
529.80	63.267
530.15	63.104
530.49	61.902
530.83	63.785
531.17	63.569
531.51	62.894
531.86	62.870
532.20	63.225
532.54	63.904
532.88	63.768
533.22	64.706
533.57	64.426
533.91	61.985
534.25	61.282
534.59	62.773
534.93	62.850
535.27	62.555
535.62	62.852
535.96	64.641
536.30	63.613
536.64	63.081
536.98	65.537
537.32	62.889
537.66	62.458
538.01	63.780
538.35	64.189
538.69	64.305
539.03	63.439
539.37	63.872
539.71	63.442
540.05	64.633
540.39	63.781
540.73	64.271
541.07	64.208
541.42	64.146
541.76	61.661
542.10	64.483
542.44	63.291
542.78	63.772
543.12	63.476
543.46	61.781
543.80	63.746
544.14	63.533
544.48	63.451
544.82	62.923
545.16	62.844
545.50	62.315
545.84	64.325
546.18	64.008
546.52	63.514
546.86	63.177
547.20	64.557
547.54	61.983
547.88	62.177
548.22	62.975
548.56	63.393
548.90	63.073
549.24	61.668
549.58	62.950
549.92	63.958
550.26	64.812
550.60	62.233
550.94	64.599
551.28	64.485
551.62	64.180
551.96	64.472
552.30	62.300
552.64	64.462
552.98	63.770
553.32	62.771
553.66	64.095
554.00	62.118
554.34	64.332
554.68	63.231
555.02	63.893
555.36	63.120
555.69	63.181
556.03	63.298
556.37	64.723
556.71	65.569
557.05	65.854
557.39	65.776
557.73	63.749
558.07	65.185
558.41	64.847
558.75	64.639
559.08	63.191
559.42	64.701
559.76	65.414
560.10	66.070
560.44	64.884
560.78	63.187
561.12	64.527
561.45	63.014
561.79	64.878
562.13	64.586
562.47	62.815
562.81	63.720
563.15	62.841
563.48	63.787
563.82	64.300
564.16	63.083
564.50	64.852
564.84	64.153
565.17	63.926
565.51	63.559
565.85	66.531
566.19	65.679
566.52	62.231
566.86	63.211
567.20	64.165
567.54	63.733
567.88	62.312
568.21	63.870
568.55	63.468
568.89	62.773
569.23	62.240
569.56	61.286
569.90	61.644
570.24	62.420
570.57	60.492
570.91	60.592
571.25	60.895
571.59	61.037
571.92	59.940
572.26	59.617
572.60	60.099
572.93	58.842
573.27	59.207
573.61	59.621
573.95	59.792
574.28	58.830
574.62	60.320
574.96	58.898
575.29	58.968
575.63	59.623
575.97	59.466
576.30	58.701
576.64	59.713
576.98	59.045
577.31	59.261
577.65	58.488
577.98	58.771
578.32	59.840
578.66	59.761
578.99	59.518
579.33	58.779
579.67	59.168
580.00	59.449
580.34	59.516
580.67	59.328
581.01	58.524
581.35	58.952
581.68	58.569
582.02	59.537
582.35	59.566
582.69	59.992
583.02	60.875
583.36	59.914
583.70	60.292
584.03	60.129
584.37	60.162
584.70	59.820
585.04	59.089
585.37	58.926
585.71	59.313
586.04	59.422
586.38	59.102
586.72	59.357
587.05	60.379
587.39	59.574
587.72	59.676
588.06	59.972
588.39	60.439
588.73	59.958
589.06	60.262
589.40	60.598
589.73	60.482
590.07	60.379
590.40	60.480
590.73	60.456
591.07	61.680
591.40	61.958
591.74	60.426
592.07	61.622
592.41	60.467
592.74	60.684
593.08	61.140
593.41	60.789
593.75	60.501
594.08	61.359
594.41	61.331
594.75	60.513
595.08	61.992
595.42	60.910
595.75	61.080
596.09	60.924
596.42	62.439
596.75	62.096
597.09	61.932
597.42	60.890
597.75	60.939
598.09	61.907
598.42	60.672
598.76	60.299
599.09	60.852
599.42	60.900
599.76	60.023
600.09	61.298
600.42	60.160
600.76	61.657
601.09	60.122
601.42	60.348
601.76	61.721
602.09	60.409
602.42	61.605
602.76	61.030
603.09	61.129
603.42	61.402
603.76	61.428
604.09	61.634
604.42	61.699
604.76	60.794
605.09	60.986
605.42	61.879
605.75	61.363
606.09	60.648
606.42	61.332
606.75	61.142
607.09	62.020
607.42	61.400
607.75	61.104
608.08	62.675
608.42	62.583
608.75	59.720
609.08	61.227
609.41	61.933
609.75	60.556
610.08	62.745
610.41	61.205
610.74	62.573
611.07	62.880
611.41	61.624
611.74	62.005
612.07	63.158
612.40	62.207
612.73	61.605
613.07	62.356
613.40	63.109
613.73	62.834
614.06	62.383
614.39	64.149
614.72	60.670
615.06	60.380
615.39	61.693
615.72	61.706
616.05	62.010
616.38	63.088
616.71	61.682
617.05	63.088
617.38	62.291
617.71	63.329
618.04	62.981
618.37	63.208
618.70	63.559
619.03	62.695
619.36	63.777
619.69	63.029
620.03	62.466
620.36	63.994
620.69	65.327
621.02	64.079
621.35	65.645
621.68	65.738
622.01	65.291
622.34	64.596
622.67	65.703
623.00	65.111
623.33	66.343
623.66	64.180
623.99	64.586
624.32	64.360
624.65	63.135
624.99	64.600
625.32	63.698
625.65	65.890
625.98	64.397
626.31	66.395
626.64	64.937
626.97	66.353
627.30	66.298
627.63	65.630
627.96	65.709
628.29	65.993
628.62	65.521
628.95	66.732
629.28	64.192
629.61	66.340
629.94	65.784
630.26	67.793
630.59	67.236
630.92	67.267
631.25	66.734
631.58	68.571
631.91	65.426
632.24	66.889
632.57	68.222
632.90	69.885
633.23	67.173
633.56	65.965
633.89	66.745
634.22	66.588
634.55	67.308
634.88	66.747
635.20	68.040
635.53	70.483
635.86	68.766
636.19	66.667
636.52	67.025
636.85	66.787
637.18	68.625
637.51	67.906
637.83	70.173
638.16	67.237
638.49	70.345
638.82	68.597
639.15	68.872
639.48	66.667
639.81	69.018
640.13	68.108
640.46	68.519
640.79	67.927
641.12	69.676
641.45	69.297
641.77	71.407
642.10	71.148
642.43	68.437
642.76	68.819
643.09	70.317
643.41	72.063
643.74	68.839
644.07	71.139
644.40	69.044
644.73	71.287
645.05	69.282
645.38	69.371
645.71	71.821
646.04	69.916
646.36	68.935
646.69	69.896
647.02	71.300
647.35	71.661
647.67	70.073
648.00	70.826
648.33	70.489
648.66	67.903
648.98	67.516
649.31	69.077
649.64	70.938
649.96	70.958
650.29	68.197
650.62	70.912
650.94	68.634
651.27	71.577
651.60	69.377
651.92	68.322
652.25	67.279
652.58	70.017
652.90	66.132
653.23	67.097
653.56	69.064
653.88	71.639
654.21	71.309
654.54	69.934
654.86	66.132
655.19	68.625
655.52	62.887
655.84	60.537
656.17	66.004
656.49	88.296
656.82	90.455
657.15	69.139
657.47	51.323
657.80	39.413
658.13	44.788
658.45	59.808
658.78	59.905
659.10	58.207
659.43	57.624
659.75	57.946
660.08	58.229
660.41	57.999
660.73	61.276
661.06	65.217
661.38	72.143
661.71	67.495
662.03	68.952
662.36	71.215
662.68	70.253
663.01	70.701
663.33	76.190
663.66	70.386
663.98	70.313
664.31	71.812
664.63	69.912
664.96	70.065
665.28	70.933
665.61	70.402
665.93	70.370
666.26	68.421
666.58	70.686
666.91	74.388
667.23	69.956
667.56	70.522
667.88	70.588
668.21	70.507
668.53	70.561
668.86	71.132
669.18	70.548
669.50	73.598
669.83	73.966
670.15	68.610
670.48	71.495
670.80	68.337
671.13	69.074
671.45	68.468
671.77	69.379
672.10	67.850
672.42	65.867
672.75	68.182
673.07	65.766
673.39	68.670
673.72	68.504
674.04	67.516
674.37	67.216
674.69	70.902
675.01	71.064
675.34	68.113
675.66	66.955
675.98	69.824
676.31	71.946
676.63	71.264
676.95	68.363
677.28	67.981
677.60	69.683
677.92	70.705
678.25	69.147
678.57	68.313
678.89	68.553
679.22	66.876
679.54	66.469
679.86	65.800
680.18	70.532
680.51	63.873
680.83	67.429
681.15	67.052
681.48	68.966
681.80	69.355
682.12	66.398
682.44	67.191
682.77	69.697
683.09	70.021
683.41	68.363
683.73	70.776
684.06	64.516
684.38	65.900
684.70	67.490
685.02	65.748
685.34	65.887
685.67	68.750
685.99	68.620
686.31	66.427
686.63	65.071
686.96	66.174
687.28	65.511
687.60	65.625
687.92	64.591
688.24	67.323
688.56	63.928
688.89	67.308
689.21	68.271
689.53	69.655
689.85	65.033
690.17	66.816
690.49	68.360
690.82	72.048
691.14	69.811
691.46	65.632
691.78	65.859
692.10	70.763
692.42	72.222
692.74	65.665
693.06	67.865
693.39	67.114
693.71	67.043
694.03	64.363
694.35	64.334
694.67	67.139
694.99	66.496
695.31	68.622
695.63	68.878
695.95	67.742
696.27	69.825
696.59	67.380
696.91	66.854
697.23	67.708
697.56	67.788
697.88	65.766
698.20	64.882
698.52	65.919
698.84	70.631
699.16	65.476
699.48	67.750
699.80	66.416
700.12	70.529
700.44	69.553
700.76	67.347
701.08	68.314
701.40	66.465
701.72	65.123
702.04	72.756
702.36	70.482
702.68	68.263
703.00	69.565
703.32	61.318
703.64	70.882
703.96	65.698
704.28	71.302
704.60	65.190
704.91	69.206
705.23	72.492
705.55	68.581
705.87	72.355
706.19	67.361
706.51	69.097
706.83	68.852
707.15	64.968
707.47	69.421
707.79	64.175
708.11	63.359
708.43	68.080
708.74	62.338
709.06	63.788
709.38	66.379
709.70	70.312
710.02	66.564
710.34	71.287
710.66	64.444
710.98	67.192
711.29	61.935
711.61	66.134
711.93	64.918
712.25	63.455
712.57	60.279
712.89	74.820
713.20	68.729
713.52	73.507
713.84	67.260
714.16	67.869
714.48	68.571
714.80	65.538
715.11	63.112
715.43	71.084
715.75	71.028
716.07	71.148
716.39	63.880
716.70	68.990
717.02	68.519
717.34	67.176
717.66	70.954
717.97	64.754
718.29	70.588
718.61	73.413
718.93	65.591
719.24	62.500
719.56	61.509
719.88	64.000
720.20	70.787
720.51	70.677
720.83	65.863
721.15	71.721
721.46	70.196
721.78	69.349
722.10	69.600
722.42	68.595
722.73	64.143
723.05	69.478
723.37	67.451
723.68	61.538
724.00	66.260
724.32	70.782
724.63	60.166
724.95	68.182
725.27	66.667
725.58	65.086
725.90	62.698
726.22	67.528
726.53	65.399
726.85	66.275
727.16	69.173
727.48	63.846
727.80	68.443
728.11	60.504
728.43	68.595
728.74	66.797
729.06	64.015
729.38	67.315
729.69	64.173
730.01	67.323
730.32	70.518
730.64	67.399
730.96	67.910
731.27	65.000
731.59	63.666
731.90	59.509
732.22	60.429
732.53	67.550
732.85	62.752
733.16	67.754
733.48	65.505
733.80	62.633
734.11	63.793
734.43	64.626
734.74	61.721
735.06	65.204
735.37	59.633
735.69	61.290
736.00	58.923
736.32	63.576
736.63	60.345
736.95	61.594
737.26	60.927
737.58	62.590
737.89	64.875
738.21	62.782
738.52	66.538
738.83	61.328
739.15	67.094
739.46	68.548
739.78	58.741
740.09	62.587
740.41	61.189
740.72	59.489
741.04	62.698
741.35	61.905
741.66	63.426
741.98	62.381
742.29	61.502
742.61	68.449
742.92	71.495
743.23	55.702
743.55	61.712
743.86	64.444
744.18	59.524
744.49	66.010
744.80	69.036
745.12	64.433
745.43	62.312
745.74	65.534
746.06	67.805
746.37	66.079
746.68	63.682
747.00	67.016
747.31	61.058
747.62	62.212
747.94	61.135
748.25	65.116
748.56	64.762
748.88	66.304
749.19	67.606
749.50	63.235
749.82	65.333
750.13	68.722
750.44	63.008
750.75	68.000
751.07	62.857
751.38	59.410
751.69	61.450
752.01	58.077
752.32	61.089
752.63	58.846
752.94	59.524
753.26	63.913
753.57	60.714
753.88	65.517
754.19	61.826
754.51	58.594
754.82	70.751
755.13	63.786
755.44	60.331
755.75	65.844
756.07	61.847
756.38	60.547
756.69	63.177
757.00	61.672
757.31	63.087
757.63	62.617
757.94	56.936
758.25	60.465
758.56	63.073
758.87	60.795
759.18	60.000
759.50	63.701
759.81	59.854
760.12	56.757
760.43	65.372
760.74	66.875
761.05	60.674
761.36	64.970
761.67	61.243
761.99	56.129
762.30	61.957
762.61	60.755
762.92	68.610
763.23	58.768
763.54	53.778
763.85	61.181
764.16	55.102
764.47	60.169
764.78	55.805
765.10	64.029
765.41	57.097
765.72	59.119
766.03	55.477
766.34	59.023
766.65	60.324
766.96	53.500
767.27	61.979
767.58	63.372
767.89	60.645
768.20	61.350
768.51	59.563
768.82	60.541
769.13	65.000
769.44	57.018
769.75	61.039
770.06	62.385
770.37	59.155
770.68	63.542
770.99	58.416
771.30	60.194
771.61	58.333
771.92	54.978
772.23	56.075
772.54	60.106
772.85	59.763
773.16	62.195
773.47	58.434
773.78	67.033
774.09	56.667
774.39	57.407
774.70	50.336
775.01	60.145
775.32	61.940
775.63	54.545
775.94	66.165
776.25	53.571
776.56	66.393
776.87	58.407
777.18	53.097
777.48	50.000
777.79	46.957
778.10	56.881
778.41	54.237
778.72	60.331
779.03	62.687
779.34	66.917
779.65	55.556
779.95	59.420
780.26	53.061
780.57	57.759
780.88	58.333
781.19	58.586
781.50	57.600
781.80	60.131
782.11	55.769
782.42	50.602
782.73	61.314
783.04	47.973
783.34	56.061
783.65	48.062
783.96	62.602
784.27	70.940
784.57	60.976
784.88	52.033
785.19	57.895
785.50	44.330
785.81	60.000
786.11	62.745
786.42	42.727
786.73	62.162
787.04	63.366
787.34	51.429
787.65	48.571
787.96	49.020
788.26	49.550
788.57	50.806
788.88	50.781
789.19	49.573
789.49	46.218
789.80	55.556
790.11	46.903
790.41	55.556
790.72	58.491
791.03	48.611
791.33	30.263
791.64	43.011
791.95	56.000
792.25	60.000
792.56	52.439
792.87	48.980
793.17	55.263
793.48	24.324
793.79	57.746
794.09	54.430
794.40	63.830
794.70	56.075
795.01	50.877
795.32	48.182
795.62	43.750
795.93	52.577
796.23	45.055
796.54	49.474
796.85	49.315
797.15	29.167
797.46	46.575
797.76	50.704
798.07	62.500
798.37	61.765
798.68	51.429
798.99	35.714
799.29	59.211
799.60	46.667
799.90	25.000
800.21	32.813
800.51	33.333
800.82	42.623
801.12	42.105
801.43	33.803
801.73	33.898
802.04	34.426
802.34	47.273
802.65	42.308
802.95	40.741
803.26	-7.500
803.56	30.769
803.87	50.000
804.17	45.161
804.48	58.462
804.78	51.282
805.09	46.512
805.39	43.750
805.70	24.528
806.00	47.368
806.30	47.297
806.61	36.765
806.91	46.914
807.22	41.333
807.52	56.716
807.83	17.742
808.13	39.683
808.43	25.455
808.74	31.818
809.04	47.170
809.35	53.425
809.65	63.158
809.95	45.588
810.26	54.902
810.56	44.000
810.86	24.490
811.17	28.571
811.47	28.846
811.77	61.290
812.08	31.579
812.38	38.095
812.69	21.739
812.99	32.258
813.29	7.143
813.59	48.148
813.90	21.277
814.20	23.256
814.50	20.833
814.81	40.000
815.11	39.024
815.41	0.000
815.72	60.000
816.02	11.111
816.32	46.154
816.62	40.541
816.93	-2.941
817.23	32.609
817.53	47.059
817.84	20.588
818.14	-6.250
818.44	27.586
818.74	35.484
819.04	48.148
819.35	56.667
819.65	32.000
819.95	40.000
820.25	16.000
820.56	31.579
820.86	10.000
821.16	40.426
821.46	32.759
821.76	17.949
822.07	10.000
822.37	44.186
822.67	53.333
822.97	13.514
823.27	59.459
823.57	64.000
823.88	5.405
824.18	-4.762
824.48	-11.538
824.78	-84.615
825.08	43.478
825.38	41.667
825.69	50.000
825.99	55.000
826.29	27.027
826.59	29.412
826.89	40.000
827.19	28.571
827.49	26.316
827.79	3.125
828.09	36.667
828.39	26.087
828.70	-27.586
829.00	6.897
829.30	0.000
829.60	50.000
829.90	38.889
830.20	-11.538
830.50	-33.333
830.80	28.571
831.10	35.897
831.40	-23.810
831.70	17.647
832.00	29.167
832.30	-21.053
832.60	-12.500
832.90	-108.333
833.20	-70.588
833.50	-66.667
833.80	-13.333
834.10	-5.000
834.40	-41.667
834.70	33.333
835.00	30.769
835.30	-12.500
835.60	31.034
835.90	-44.444
836.20	-9.091
836.50	-83.333
836.80	5.714
837.10	22.857
837.40	-29.412
837.70	-36.364
838.00	-8.333
838.30	-12.500
838.60	0.000
838.90	30.000
839.19	8.696
839.49	4.348
839.79	22.222
840.09	-26.087
840.39	-18.182
840.69	-31.250
840.99	-15.789
841.29	-25.000
841.59	57.143
841.88	-38.889
842.18	-29.167
842.48	-76.471
842.78	10.345
843.08	-28.571
843.38	-23.077
843.68	-144.444
843.97	-61.538
844.27	-45.455
844.57	-140.000
844.87	12.000
845.17	-140.000
845.47	-50.000
845.76	-155.556
846.06	0.000
846.36	-50.000
846.66	-140.000
846.96	-36.842
847.25	-8.333
847.55	-75.000
847.85	6.667
848.15	-100.000
848.44	46.154
848.74	15.789
849.04	366.667
849.34	-144.444
849.63	-63.158
849.93	0.000
850.23	-80.000
850.53	-42.857
850.82	-36.000
851.12	10.526
851.42	-400.000
851.71	-50.000
852.01	-133.333
852.31	-35.294
852.61	20.000
852.90	-33.333
853.20	-183.333
853.50	-22.222
853.79	10.526
854.09	13.333
854.39	-10.714
854.68	-30.435
854.98	-116.667
855.28	17.241
855.57	0.000
855.87	25.000
856.17	6.667
856.46	13.793
856.76	-26.667
857.05	-111.765
857.35	-92.308
857.65	-54.545
857.94	-7.407
858.24	-92.857
858.53	7.143
858.83	-125.000
859.13	-266.667
859.42	4.762
859.72	-125.000
860.01	-400.000
860.31	-87.500
860.60	-420.000
860.90	-177.778
861.20	-62.500
861.49	-200.000
861.79	47.059
862.08	-350.000
862.38	-58.333
862.67	-61.538
862.97	-5.882
863.26	-20.000
863.56	-29.412
863.85	500.000
864.15	-90.000
864.44	-115.385
864.74	5.000
865.03	-237.500
865.33	-266.667
865.62	-76.471
865.92	-550.000
866.21	-185.714
866.51	-125.000
866.80	-900.000
867.10	-33.333
867.39	-64.706
867.69	-21.739
867.98	-71.429
868.27	-340.000
868.57	-68.750
868.86	-145.455
869.16	-17.647
869.45	-200.000
869.75	-271.429
870.04	500.000
870.33	0.000
870.63	-140.000
870.92	-122.222
871.22	0.000
871.51	-72.727
871.80	-25.000
872.10	30.000
>>>>>End Processed Spectral Data<<<<<
