SpectraSuite Data File
++++++++++++++++++++++++++++++++++++
Date: Sat May 16 11:47:54 PDT 2015
User: schluterlab
Dark Spectrum Present: Yes
Reference Spectrum Present: Yes
Number of Sampled Component Spectra: 1
Spectrometers: USB2E3373
Integration Time (usec): 3000 (USB2E3373)
Spectra Averaged: 3 (USB2E3373)
Boxcar Smoothing: 0 (USB2E3373)
Correct for Electrical Dark: No (USB2E3373)
Strobe/Lamp Enabled: No (USB2E3373)
Correct for Detector Non-linearity: No (USB2E3373)
Correct for Stray Light: No (USB2E3373)
Number of Pixels in Processed Spectrum: 2048
>>>>>Begin Processed Spectral Data<<<<<
178.53	0.000
178.91	100.000
179.29	266.667
179.67	-1200.000
180.04	-7.692
180.42	200.000
180.80	175.000
181.18	275.000
181.56	-75.000
181.94	1500.000
182.31	275.000
182.69	-107.692
183.07	-400.000
183.45	1500.000
183.83	266.667
184.20	-242.857
184.58	-312.500
184.96	-450.000
185.34	56.250
185.72	-400.000
186.09	283.333
186.47	-250.000
186.85	-287.500
187.23	12.500
187.61	-500.000
187.98	-287.500
188.36	-150.000
188.74	-212.500
189.12	900.000
189.49	285.714
189.87	-108.333
190.25	100.000
190.63	-28.571
191.00	-200.000
191.38	380.000
191.76	-20.000
192.14	500.000
192.51	-400.000
192.89	-533.333
193.27	0.000
193.65	-55.556
194.02	-257.143
194.40	533.333
194.78	-90.000
195.15	-600.000
195.53	-263.636
195.91	-266.667
196.29	220.000
196.66	-500.000
197.04	2400.000
197.42	-300.000
197.79	13.333
198.17	-133.333
198.55	-850.000
198.92	-1700.000
199.30	225.000
199.68	-800.000
200.05	-100.000
200.43	-266.667
200.81	-2200.000
201.18	-83.333
201.56	228.571
201.94	-60.000
202.31	31.818
202.69	-50.000
203.07	-80.000
203.44	300.000
203.82	-283.333
204.19	-250.000
204.57	-275.000
204.95	-1400.000
205.32	-37.500
205.70	100.000
206.08	-1900.000
206.45	-5.556
206.83	-1100.000
207.20	-150.000
207.58	-666.667
207.96	-333.333
208.33	-112.500
208.71	-55.556
209.08	230.000
209.46	-271.429
209.84	900.000
210.21	0.000
210.59	15.000
210.96	500.000
211.34	-250.000
211.71	-533.333
212.09	425.000
212.46	1150.000
212.84	-2700.000
213.22	400.000
213.59	141.667
213.97	-100.000
214.34	280.000
214.72	-110.000
215.09	-433.333
215.47	-83.333
215.84	-20.000
216.22	-10.000
216.59	13.333
216.97	-450.000
217.34	950.000
217.72	-100.000
218.09	-250.000
218.47	-128.571
218.84	128.571
219.22	-157.143
219.59	0.000
219.97	328.571
220.34	325.000
220.72	300.000
221.09	-53.846
221.47	0.000
221.84	466.667
222.22	-400.000
222.59	1400.000
222.97	-225.000
223.34	-650.000
223.72	-133.333
224.09	-35.714
224.46	-475.000
224.84	-71.429
225.21	-242.857
225.59	-154.545
225.96	-25.000
226.34	-128.571
226.71	-188.889
227.08	-10.000
227.46	1500.000
227.83	-128.571
228.21	-262.500
228.58	400.000
228.95	-25.000
229.33	-2000.000
229.70	-180.000
230.08	-350.000
230.45	-150.000
230.82	-83.333
231.20	-1000.000
231.57	200.000
231.95	2400.000
232.32	61.905
232.69	-255.556
233.07	-300.000
233.44	-1100.000
233.81	-80.000
234.19	-44.444
234.56	-75.000
234.93	-9.375
235.31	-214.286
235.68	-135.714
236.05	-64.706
236.43	-100.000
236.80	-12.903
237.17	-50.000
237.55	-23.810
237.92	-86.364
238.29	-31.429
238.67	0.000
239.04	-22.222
239.41	-48.387
239.79	-43.590
240.16	-7.143
240.53	0.000
240.91	-12.821
241.28	-10.909
241.65	10.769
242.02	-6.557
242.40	-36.066
242.77	3.030
243.14	-13.559
243.51	-21.429
243.89	-3.797
244.26	-11.236
244.63	5.263
245.00	-1.053
245.38	4.237
245.75	4.425
246.12	-4.800
246.49	-6.299
246.87	-0.813
247.24	-8.475
247.61	-4.237
247.98	-7.746
248.36	-9.091
248.73	-6.329
249.10	-8.917
249.47	-0.585
249.84	2.841
250.22	-13.095
250.59	-6.215
250.96	-3.665
251.33	4.739
251.70	3.365
252.08	1.896
252.45	0.474
252.82	-2.381
253.19	-0.851
253.56	-3.226
253.94	1.266
254.31	-0.429
254.68	-0.407
255.05	-1.210
255.42	0.000
255.79	-1.075
256.16	-0.784
256.54	-1.103
256.91	-1.894
257.28	-2.564
257.65	-0.355
258.02	4.717
258.39	-0.669
258.76	-0.338
259.14	0.617
259.51	3.607
259.88	0.305
260.25	4.658
260.62	0.000
260.99	-0.890
261.36	4.878
261.73	0.289
262.10	4.722
262.47	1.994
262.85	1.429
263.22	-2.006
263.59	-2.462
263.96	4.638
264.33	2.439
264.70	0.552
265.07	-0.275
265.44	0.517
265.81	1.292
266.18	-0.253
266.55	1.225
266.92	2.519
267.29	2.906
267.66	-0.494
268.03	4.831
268.40	3.052
268.77	1.928
269.14	2.088
269.51	4.598
269.88	0.000
270.25	-0.699
270.62	2.288
270.99	2.252
271.36	0.699
271.73	1.570
272.10	-1.373
272.47	0.667
272.84	5.333
273.21	2.523
273.58	3.077
273.95	-0.219
274.32	1.810
274.69	1.751
275.06	4.908
275.43	0.893
275.80	2.444
276.17	1.046
276.54	3.055
276.91	1.029
277.28	2.231
277.65	1.240
278.02	2.923
278.39	3.733
278.76	2.191
279.13	4.941
279.50	0.994
279.87	1.480
280.23	4.656
280.60	0.994
280.97	0.194
281.34	2.708
281.71	3.269
282.08	0.202
282.45	1.222
282.82	1.550
283.19	0.909
283.56	4.579
283.92	3.180
284.29	2.230
284.66	1.978
285.03	4.100
285.40	1.845
285.77	2.807
286.14	2.347
286.51	2.842
286.87	1.633
287.24	2.730
287.61	2.645
287.98	0.520
288.35	4.298
288.72	1.019
289.08	0.339
289.45	1.515
289.82	1.211
290.19	3.941
290.56	0.661
290.93	1.749
291.29	0.324
291.66	1.610
292.03	3.297
292.40	1.355
292.77	2.484
293.13	1.626
293.50	3.269
293.87	3.681
294.24	1.056
294.60	1.970
294.97	3.338
295.34	0.889
295.71	0.893
296.08	-0.307
296.44	2.718
296.81	2.707
297.18	3.099
297.55	2.542
297.91	2.510
298.28	2.329
298.65	0.837
299.02	4.679
299.38	2.005
299.75	2.310
300.12	2.821
300.48	3.325
300.85	1.704
301.22	2.199
301.59	3.251
301.95	4.030
302.32	1.304
302.69	4.162
303.05	2.808
303.42	2.000
303.79	3.230
304.15	1.896
304.52	1.984
304.89	2.952
305.25	2.076
305.62	2.468
305.99	4.594
306.35	3.219
306.72	3.075
307.09	2.497
307.45	2.270
307.82	2.235
308.19	4.474
308.55	1.634
308.92	3.008
309.29	3.243
309.65	3.181
310.02	3.456
310.38	2.378
310.75	4.406
311.12	3.616
311.48	3.340
311.85	3.296
312.22	4.325
312.58	4.273
312.95	3.874
313.31	3.896
313.68	5.327
314.05	4.055
314.41	3.622
314.78	3.197
315.14	4.936
315.51	4.255
315.87	5.808
316.24	3.790
316.61	4.990
316.97	5.572
317.34	4.335
317.70	3.896
318.07	5.690
318.43	5.056
318.80	5.164
319.16	4.034
319.53	4.229
319.89	4.798
320.26	5.196
320.62	5.000
320.99	4.677
321.35	3.547
321.72	5.425
322.08	5.341
322.45	4.356
322.81	5.956
323.18	6.532
323.54	5.638
323.91	5.283
324.27	4.848
324.64	5.576
325.00	6.283
325.37	7.059
325.73	8.311
326.10	4.960
326.46	6.918
326.83	6.894
327.19	6.422
327.56	8.007
327.92	7.307
328.29	8.052
328.65	5.909
329.01	7.244
329.38	7.136
329.74	8.700
330.11	7.072
330.47	7.720
330.84	9.349
331.20	7.310
331.56	7.201
331.93	7.904
332.29	8.128
332.66	7.287
333.02	7.873
333.38	8.423
333.75	8.638
334.11	8.444
334.48	7.237
334.84	9.799
335.20	7.801
335.57	8.574
335.93	8.863
336.29	7.883
336.66	8.458
337.02	9.099
337.38	8.289
337.75	8.867
338.11	8.318
338.47	8.274
338.84	7.623
339.20	7.645
339.56	7.932
339.93	8.289
340.29	8.415
340.65	7.343
341.02	8.432
341.38	8.256
341.74	7.282
342.11	8.362
342.47	8.584
342.83	8.648
343.20	8.198
343.56	8.000
343.92	9.766
344.28	9.167
344.65	7.838
345.01	8.992
345.37	8.804
345.73	8.347
346.10	7.931
346.46	8.611
346.82	8.821
347.19	8.381
347.55	8.909
347.91	7.795
348.27	7.080
348.63	8.885
349.00	8.035
349.36	7.416
349.72	8.758
350.08	8.099
350.45	7.959
350.81	8.599
351.17	7.637
351.53	8.194
351.89	8.084
352.26	8.605
352.62	9.370
352.98	8.703
353.34	8.393
353.70	9.112
354.07	9.520
354.43	9.091
354.79	8.320
355.15	8.227
355.51	7.734
355.87	8.379
356.24	8.658
356.60	9.347
356.96	9.854
357.32	8.472
357.68	8.276
358.04	8.930
358.40	8.430
358.77	8.578
359.13	8.875
359.49	9.221
359.85	9.527
360.21	9.056
360.57	9.864
360.93	9.630
361.29	9.567
361.66	8.689
362.02	9.763
362.38	9.464
362.74	9.231
363.10	7.963
363.46	10.541
363.82	9.257
364.18	10.275
364.54	10.222
364.90	9.923
365.26	9.629
365.62	9.765
365.98	10.171
366.35	10.704
366.71	9.796
367.07	10.233
367.43	10.432
367.79	10.172
368.15	10.384
368.51	10.350
368.87	11.607
369.23	10.807
369.59	10.972
369.95	10.994
370.31	10.970
370.67	10.412
371.03	10.277
371.39	10.608
371.75	11.588
372.11	10.976
372.47	10.557
372.83	12.656
373.19	11.214
373.55	12.456
373.91	11.309
374.27	11.157
374.63	11.111
374.99	11.683
375.35	11.507
375.71	12.897
376.07	11.088
376.42	11.325
376.78	11.961
377.14	13.492
377.50	12.895
377.86	12.614
378.22	12.940
378.58	12.168
378.94	12.885
379.30	12.858
379.66	13.418
380.02	12.834
380.38	12.749
380.74	12.954
381.09	13.474
381.45	14.439
381.81	13.491
382.17	13.346
382.53	13.191
382.89	13.816
383.25	14.329
383.61	13.797
383.97	14.942
384.32	14.393
384.68	14.994
385.04	13.829
385.40	14.242
385.76	15.549
386.12	15.116
386.48	15.594
386.83	15.521
387.19	15.003
387.55	15.324
387.91	15.175
388.27	15.320
388.62	14.603
388.98	15.021
389.34	15.545
389.70	16.322
390.06	15.040
390.42	16.218
390.77	15.521
391.13	17.329
391.49	16.344
391.85	16.833
392.20	15.109
392.56	16.066
392.92	16.486
393.28	15.901
393.64	17.198
393.99	16.123
394.35	16.363
394.71	15.750
395.07	17.326
395.42	16.091
395.78	16.845
396.14	17.695
396.50	16.820
396.85	17.088
397.21	16.707
397.57	17.264
397.92	17.916
398.28	17.278
398.64	17.073
399.00	17.528
399.35	17.249
399.71	18.177
400.07	17.851
400.42	17.883
400.78	17.054
401.14	16.707
401.49	17.453
401.85	17.572
402.21	17.402
402.57	17.900
402.92	18.943
403.28	17.402
403.63	17.196
403.99	16.594
404.35	17.572
404.70	17.086
405.06	18.108
405.42	17.282
405.77	17.760
406.13	17.604
406.49	18.334
406.84	17.397
407.20	18.551
407.55	17.986
407.91	17.034
408.27	18.199
408.62	18.581
408.98	18.193
409.34	17.124
409.69	18.399
410.05	18.435
410.40	18.148
410.76	18.376
411.11	18.890
411.47	18.734
411.83	18.888
412.18	18.007
412.54	18.060
412.89	18.104
413.25	18.654
413.60	17.132
413.96	17.807
414.31	18.410
414.67	17.587
415.03	17.788
415.38	18.478
415.74	18.428
416.09	18.286
416.45	17.791
416.80	18.466
417.16	18.140
417.51	19.632
417.87	18.447
418.22	19.279
418.58	18.999
418.93	18.945
419.29	19.762
419.64	18.970
420.00	19.866
420.35	18.983
420.71	19.448
421.06	19.704
421.42	19.087
421.77	19.095
422.12	19.362
422.48	19.615
422.83	20.444
423.19	19.321
423.54	20.346
423.90	19.607
424.25	19.683
424.61	20.507
424.96	20.246
425.31	20.123
425.67	20.057
426.02	20.654
426.38	20.085
426.73	19.988
427.09	20.282
427.44	21.307
427.79	20.349
428.15	21.484
428.50	20.704
428.85	21.403
429.21	20.199
429.56	20.990
429.92	20.892
430.27	21.934
430.62	21.735
430.98	21.903
431.33	21.665
431.68	22.306
432.04	21.544
432.39	22.735
432.74	21.882
433.10	22.285
433.45	21.819
433.80	21.948
434.16	22.622
434.51	22.630
434.86	22.671
435.22	22.494
435.57	22.521
435.92	22.333
436.28	22.908
436.63	22.668
436.98	21.764
437.34	21.855
437.69	22.637
438.04	23.086
438.39	22.744
438.75	23.516
439.10	22.154
439.45	23.235
439.81	23.253
440.16	22.885
440.51	23.176
440.86	22.672
441.22	22.167
441.57	22.684
441.92	23.478
442.27	23.431
442.63	24.088
442.98	23.025
443.33	22.460
443.68	23.085
444.03	23.576
444.39	23.740
444.74	23.623
445.09	23.081
445.44	24.198
445.79	23.253
446.15	23.932
446.50	23.081
446.85	23.397
447.20	23.340
447.55	23.757
447.91	23.470
448.26	23.352
448.61	23.373
448.96	24.258
449.31	24.014
449.66	24.499
450.02	23.324
450.37	22.667
450.72	23.446
451.07	24.576
451.42	23.916
451.77	24.895
452.12	23.540
452.47	24.244
452.83	23.704
453.18	24.288
453.53	24.627
453.88	24.103
454.23	23.398
454.58	23.804
454.93	24.244
455.28	24.347
455.63	24.877
455.98	24.639
456.34	23.761
456.69	25.266
457.04	24.401
457.39	24.043
457.74	24.040
458.09	24.536
458.44	24.942
458.79	24.215
459.14	24.529
459.49	24.452
459.84	24.733
460.19	24.582
460.54	24.440
460.89	23.655
461.24	23.558
461.59	25.264
461.94	25.525
462.29	24.419
462.64	24.572
462.99	24.297
463.34	24.038
463.69	24.173
464.04	23.374
464.39	24.492
464.74	24.054
465.09	24.293
465.44	23.689
465.79	24.929
466.14	24.108
466.49	24.064
466.84	25.030
467.19	25.499
467.54	24.051
467.89	24.908
468.24	25.059
468.59	23.985
468.94	23.923
469.29	24.301
469.64	24.865
469.99	24.510
470.34	24.582
470.68	25.291
471.03	25.120
471.38	24.514
471.73	25.175
472.08	24.900
472.43	23.938
472.78	23.933
473.13	24.586
473.48	25.463
473.83	24.814
474.17	24.841
474.52	24.808
474.87	23.543
475.22	24.602
475.57	24.056
475.92	25.162
476.27	24.057
476.61	24.789
476.96	25.433
477.31	24.327
477.66	24.239
478.01	24.527
478.36	24.254
478.70	24.560
479.05	24.175
479.40	24.560
479.75	23.649
480.10	25.248
480.45	24.275
480.79	24.778
481.14	25.238
481.49	25.218
481.84	24.873
482.19	24.623
482.53	23.864
482.88	24.300
483.23	24.178
483.58	24.514
483.92	24.080
484.27	24.457
484.62	24.276
484.97	23.811
485.31	23.616
485.66	22.994
486.01	23.456
486.36	24.110
486.70	24.343
487.05	24.082
487.40	24.306
487.75	23.666
488.09	24.120
488.44	23.410
488.79	24.054
489.13	24.420
489.48	24.347
489.83	24.105
490.17	25.163
490.52	25.181
490.87	24.203
491.22	23.914
491.56	24.213
491.91	24.618
492.26	24.057
492.60	24.215
492.95	24.227
493.30	25.345
493.64	24.448
493.99	24.809
494.34	24.238
494.68	24.625
495.03	24.379
495.37	23.992
495.72	24.312
496.07	24.308
496.41	24.363
496.76	24.703
497.11	24.164
497.45	24.665
497.80	23.812
498.14	24.902
498.49	24.209
498.84	23.689
499.18	24.513
499.53	24.842
499.87	23.986
500.22	24.559
500.56	24.512
500.91	24.877
501.26	24.600
501.60	23.977
501.95	26.135
502.29	23.996
502.64	24.705
502.98	24.054
503.33	24.483
503.67	25.096
504.02	23.757
504.36	24.265
504.71	23.860
505.06	23.665
505.40	25.599
505.75	24.187
506.09	24.671
506.44	24.662
506.78	24.436
507.13	24.614
507.47	24.830
507.82	24.264
508.16	24.456
508.51	24.214
508.85	24.379
509.19	24.333
509.54	23.943
509.88	24.734
510.23	24.686
510.57	24.815
510.92	25.188
511.26	24.615
511.61	25.324
511.95	24.784
512.30	24.244
512.64	23.372
512.98	25.193
513.33	25.371
513.67	25.516
514.02	24.776
514.36	25.208
514.70	24.731
515.05	24.871
515.39	23.875
515.74	25.073
516.08	25.591
516.42	26.062
516.77	25.592
517.11	25.114
517.46	25.598
517.80	25.271
518.14	23.973
518.49	24.985
518.83	25.816
519.17	25.163
519.52	24.118
519.86	25.448
520.20	25.428
520.55	25.292
520.89	24.358
521.23	25.275
521.58	24.765
521.92	24.953
522.26	24.381
522.61	24.842
522.95	24.378
523.29	25.392
523.64	24.984
523.98	25.907
524.32	24.953
524.66	23.789
525.01	24.920
525.35	25.515
525.69	24.854
526.04	25.587
526.38	25.525
526.72	24.649
527.06	24.740
527.41	24.752
527.75	24.356
528.09	25.877
528.43	25.311
528.78	24.121
529.12	25.864
529.46	24.871
529.80	24.661
530.15	25.370
530.49	25.097
530.83	26.654
531.17	24.983
531.51	24.447
531.86	24.490
532.20	25.911
532.54	25.134
532.88	24.901
533.22	25.267
533.57	25.783
533.91	24.345
534.25	24.764
534.59	23.923
534.93	24.020
535.27	24.355
535.62	26.023
535.96	24.047
536.30	23.887
536.64	24.967
536.98	25.071
537.32	24.119
537.66	24.779
538.01	23.986
538.35	24.932
538.69	23.396
539.03	23.629
539.37	24.817
539.71	24.616
540.05	24.469
540.39	24.723
540.73	25.086
541.07	25.137
541.42	24.038
541.76	23.721
542.10	25.253
542.44	24.717
542.78	24.423
543.12	24.372
543.46	23.493
543.80	23.545
544.14	24.110
544.48	25.131
544.82	24.560
545.16	23.541
545.50	22.476
545.84	25.313
546.18	24.688
546.52	24.609
546.86	24.644
547.20	24.191
547.54	23.347
547.88	24.088
548.22	23.394
548.56	24.382
548.90	24.865
549.24	23.616
549.58	24.277
549.92	24.664
550.26	24.855
550.60	24.395
550.94	24.088
551.28	24.379
551.62	24.594
551.96	24.168
552.30	24.321
552.64	24.490
552.98	25.158
553.32	23.232
553.66	24.874
554.00	25.231
554.34	24.477
554.68	24.123
555.02	23.734
555.36	23.508
555.69	22.851
556.03	24.351
556.37	24.182
556.71	23.694
557.05	24.169
557.39	24.128
557.73	25.310
558.07	25.546
558.41	24.981
558.75	23.878
559.08	21.868
559.42	23.430
559.76	23.926
560.10	24.385
560.44	24.711
560.78	25.400
561.12	23.810
561.45	24.658
561.79	24.111
562.13	24.474
562.47	23.039
562.81	23.267
563.15	24.353
563.48	24.879
563.82	26.099
564.16	24.138
564.50	24.731
564.84	23.347
565.17	23.873
565.51	24.250
565.85	25.558
566.19	24.242
566.52	24.005
566.86	23.704
567.20	24.516
567.54	24.217
567.88	23.506
568.21	23.881
568.55	23.807
568.89	23.260
569.23	23.554
569.56	22.657
569.90	23.525
570.24	23.826
570.57	22.074
570.91	22.543
571.25	23.444
571.59	23.041
571.92	22.738
572.26	22.588
572.60	22.588
572.93	22.298
573.27	22.317
573.61	21.681
573.95	22.219
574.28	22.268
574.62	22.471
574.96	22.507
575.29	22.180
575.63	21.688
575.97	21.683
576.30	22.280
576.64	22.245
576.98	21.722
577.31	21.716
577.65	22.322
577.98	21.881
578.32	21.574
578.66	22.153
578.99	22.068
579.33	21.603
579.67	21.963
580.00	21.627
580.34	21.649
580.67	22.015
581.01	21.778
581.35	22.218
581.68	21.794
582.02	22.306
582.35	22.229
582.69	22.097
583.02	22.259
583.36	22.474
583.70	21.915
584.03	22.522
584.37	22.138
584.70	22.205
585.04	22.076
585.37	21.718
585.71	21.746
586.04	22.391
586.38	21.866
586.72	22.379
587.05	22.345
587.39	22.617
587.72	22.272
588.06	21.981
588.39	21.646
588.73	22.903
589.06	22.762
589.40	22.776
589.73	22.167
590.07	22.760
590.40	23.173
590.73	22.911
591.07	21.967
591.40	22.920
591.74	22.676
592.07	22.928
592.41	22.718
592.74	23.367
593.08	22.314
593.41	22.237
593.75	21.266
594.08	22.897
594.41	22.551
594.75	22.763
595.08	22.406
595.42	22.471
595.75	22.896
596.09	22.817
596.42	23.200
596.75	22.941
597.09	23.508
597.42	22.523
597.75	23.162
598.09	22.820
598.42	22.846
598.76	22.841
599.09	22.297
599.42	22.030
599.76	22.310
600.09	22.366
600.42	22.978
600.76	22.411
601.09	22.142
601.42	21.963
601.76	22.897
602.09	22.822
602.42	22.675
602.76	22.476
603.09	23.226
603.42	23.127
603.76	22.417
604.09	22.507
604.42	23.231
604.76	22.460
605.09	23.192
605.42	22.207
605.75	22.510
606.09	22.540
606.42	22.455
606.75	22.413
607.09	22.850
607.42	22.095
607.75	21.722
608.08	22.639
608.42	22.564
608.75	22.243
609.08	22.942
609.41	23.069
609.75	22.136
610.08	23.382
610.41	22.892
610.74	24.081
611.07	22.718
611.41	21.886
611.74	23.239
612.07	22.879
612.40	22.495
612.73	22.725
613.07	22.895
613.40	23.426
613.73	23.270
614.06	22.790
614.39	23.224
614.72	21.899
615.06	22.663
615.39	22.897
615.72	23.683
616.05	22.529
616.38	23.273
616.71	23.183
617.05	23.281
617.38	24.211
617.71	23.096
618.04	23.354
618.37	22.642
618.70	24.250
619.03	22.546
619.36	23.890
619.69	23.762
620.03	23.140
620.36	22.785
620.69	23.259
621.02	23.059
621.35	24.597
621.68	23.770
622.01	23.706
622.34	22.826
622.67	22.109
623.00	23.565
623.33	24.328
623.66	22.009
623.99	23.308
624.32	23.363
624.65	23.547
624.99	23.973
625.32	23.428
625.65	22.922
625.98	23.161
626.31	25.367
626.64	23.431
626.97	23.887
627.30	23.064
627.63	22.539
627.96	23.325
628.29	23.897
628.62	23.114
628.95	24.409
629.28	24.342
629.61	24.141
629.94	22.873
630.26	25.249
630.59	25.126
630.92	23.724
631.25	23.690
631.58	24.021
631.91	23.085
632.24	24.111
632.57	24.333
632.90	25.287
633.23	25.117
633.56	22.105
633.89	24.764
634.22	24.203
634.55	23.678
634.88	23.337
635.20	23.471
635.53	24.555
635.86	23.174
636.19	25.275
636.52	23.178
636.85	24.308
637.18	22.875
637.51	27.509
637.83	24.501
638.16	22.895
638.49	24.828
638.82	23.295
639.15	25.032
639.48	22.438
639.81	24.896
640.13	23.919
640.46	25.356
640.79	23.950
641.12	25.106
641.45	25.825
641.77	24.401
642.10	24.471
642.43	24.583
642.76	24.882
643.09	23.651
643.41	25.556
643.74	25.914
644.07	24.805
644.40	25.770
644.73	25.908
645.05	22.371
645.38	25.166
645.71	26.289
646.04	26.387
646.36	23.386
646.69	24.913
647.02	27.798
647.35	25.090
647.67	27.007
648.00	22.320
648.33	26.981
648.66	22.742
648.98	23.726
649.31	24.923
649.64	23.906
649.96	24.647
650.29	22.459
650.62	24.441
650.94	26.138
651.27	24.263
651.60	26.125
651.92	24.829
652.25	22.538
652.58	20.784
652.90	22.793
653.23	24.677
653.56	22.910
653.88	22.623
654.21	25.671
654.54	23.256
654.86	22.793
655.19	25.645
655.52	22.222
655.84	21.774
656.17	23.835
656.49	32.243
656.82	33.368
657.15	25.088
657.47	18.346
657.80	14.068
658.13	16.055
658.45	21.218
658.78	20.916
659.10	21.245
659.43	20.790
659.75	20.968
660.08	21.302
660.41	21.549
660.73	22.002
661.06	24.058
661.38	25.893
661.71	24.474
662.03	23.387
662.36	26.652
662.68	23.629
663.01	26.964
663.33	25.624
663.66	24.034
663.98	24.107
664.31	24.161
664.63	26.106
664.96	23.427
665.28	26.898
665.61	23.256
665.93	27.572
666.26	25.304
666.58	24.948
666.91	24.499
667.23	26.096
667.56	23.356
667.88	23.982
668.21	23.502
668.53	23.364
668.86	25.173
669.18	24.886
669.50	21.963
669.83	23.114
670.15	23.543
670.48	26.636
670.80	26.651
671.13	23.251
671.45	22.748
671.77	23.126
672.10	25.838
672.42	23.985
672.75	22.182
673.07	22.342
673.39	21.676
673.72	25.197
674.04	24.841
674.37	20.825
674.69	23.361
675.01	21.489
675.34	24.078
675.66	24.406
675.98	24.890
676.31	24.434
676.63	25.057
676.95	23.009
677.28	24.594
677.60	21.493
677.92	24.890
678.25	23.414
678.57	24.691
678.89	22.432
679.22	21.593
679.54	25.444
679.86	24.000
680.18	24.335
680.51	22.160
680.83	24.571
681.15	24.470
681.48	27.789
681.80	22.379
682.12	21.529
682.44	25.147
682.77	22.078
683.09	24.948
683.41	23.451
683.73	20.548
684.06	23.011
684.38	22.385
684.70	23.868
685.02	24.606
685.34	23.782
685.67	22.348
685.99	22.306
686.31	22.980
686.63	22.695
686.96	23.290
687.28	23.314
687.60	24.219
687.92	22.179
688.24	22.244
688.56	23.046
688.89	23.718
689.21	22.757
689.53	23.908
689.85	22.272
690.17	23.094
690.49	23.095
690.82	21.446
691.14	24.292
691.46	23.725
691.78	25.771
692.10	22.669
692.42	22.444
692.74	23.176
693.06	23.146
693.39	22.819
693.71	22.799
694.03	24.190
694.35	20.767
694.67	26.241
694.99	21.483
695.31	22.959
695.63	22.194
695.95	21.836
696.27	24.688
696.59	23.529
696.91	23.596
697.23	24.219
697.56	24.279
697.88	21.171
698.20	22.270
698.52	18.834
698.84	25.000
699.16	25.476
699.48	19.750
699.80	23.308
700.12	22.418
700.44	22.626
700.76	21.283
701.08	20.930
701.40	22.054
701.72	23.457
702.04	23.397
702.36	24.096
702.68	24.551
703.00	21.739
703.32	18.052
703.64	23.824
703.96	25.872
704.28	22.781
704.60	20.886
704.91	20.635
705.23	26.214
705.55	23.311
705.87	26.621
706.19	20.486
706.51	16.667
706.83	28.197
707.15	24.522
707.47	22.590
707.79	22.680
708.11	21.628
708.43	24.439
708.74	20.779
709.06	19.220
709.38	19.253
709.70	24.375
710.02	25.460
710.34	21.452
710.66	22.222
710.98	23.975
711.29	20.323
711.61	19.489
711.93	22.951
712.25	21.595
712.57	24.739
712.89	23.741
713.20	23.368
713.52	15.299
713.84	24.911
714.16	22.623
714.48	21.587
714.80	21.231
715.11	19.308
715.43	22.590
715.75	21.807
716.07	23.934
716.39	19.732
716.70	22.300
717.02	18.519
717.34	20.229
717.66	25.726
717.97	20.082
718.29	21.429
718.61	26.190
718.93	22.939
719.24	19.118
719.56	17.736
719.88	23.273
720.20	22.472
720.51	27.068
720.83	19.679
721.15	21.721
721.46	22.353
721.78	24.138
722.10	23.200
722.42	19.008
722.73	19.124
723.05	22.892
723.37	27.059
723.68	17.409
724.00	24.390
724.32	20.165
724.63	17.427
724.95	23.140
725.27	19.737
725.58	20.259
725.90	18.254
726.22	21.033
726.53	21.673
726.85	16.863
727.16	19.925
727.48	17.692
727.80	17.623
728.11	20.588
728.43	21.074
728.74	24.219
729.06	24.242
729.38	17.899
729.69	18.504
730.01	19.291
730.32	18.725
730.64	25.275
730.96	17.537
731.27	22.500
731.59	21.543
731.90	21.779
732.22	18.405
732.53	22.848
732.85	22.483
733.16	19.928
733.48	23.345
733.80	22.420
734.11	21.034
734.43	23.129
734.74	19.881
735.06	21.630
735.37	23.547
735.69	14.839
736.00	18.855
736.32	22.848
736.63	16.897
736.95	22.101
737.26	23.179
737.58	21.942
737.89	20.072
738.21	19.549
738.52	21.538
738.83	20.312
739.15	21.368
739.46	22.177
739.78	20.979
740.09	18.881
740.41	19.231
740.72	22.263
741.04	19.444
741.35	19.048
741.66	19.907
741.98	16.667
742.29	20.657
742.61	25.668
742.92	21.963
743.23	22.368
743.55	20.721
743.86	27.111
744.18	21.429
744.49	28.079
744.80	25.888
745.12	19.588
745.43	23.116
745.74	24.272
746.06	17.073
746.37	25.551
746.68	20.398
747.00	23.560
747.31	23.077
747.62	18.894
747.94	22.707
748.25	20.930
748.56	21.905
748.88	10.326
749.19	19.718
749.50	26.471
749.82	23.111
750.13	22.026
750.44	21.545
750.75	25.600
751.07	22.143
751.38	20.295
751.69	16.031
752.01	18.846
752.32	19.455
752.63	15.000
752.94	17.857
753.26	21.304
753.57	19.643
753.88	23.276
754.19	22.407
754.51	18.359
754.82	21.344
755.13	16.872
755.44	24.380
755.75	26.337
756.07	16.867
756.38	19.141
756.69	20.217
757.00	22.997
757.31	20.134
757.63	23.053
757.94	18.786
758.25	21.512
758.56	24.259
758.87	21.307
759.18	19.333
759.50	23.843
759.81	15.693
760.12	15.878
760.43	22.006
760.74	21.875
761.05	21.629
761.36	21.257
761.67	20.414
761.99	16.129
762.30	24.275
762.61	20.377
762.92	24.215
763.23	17.536
763.54	21.778
763.85	24.895
764.16	20.000
764.47	20.339
764.78	23.970
765.10	20.863
765.41	18.387
765.72	22.956
766.03	19.081
766.34	17.669
766.65	19.028
766.96	18.500
767.27	15.625
767.58	16.279
767.89	21.290
768.20	27.607
768.51	24.590
768.82	16.757
769.13	19.500
769.44	18.421
769.75	23.377
770.06	18.807
770.37	18.310
770.68	18.750
770.99	16.832
771.30	16.990
771.61	22.685
771.92	17.316
772.23	20.561
772.54	15.957
772.85	20.118
773.16	16.463
773.47	20.482
773.78	25.824
774.09	22.000
774.39	24.074
774.70	19.463
775.01	18.841
775.32	9.701
775.63	11.570
775.94	21.053
776.25	17.857
776.56	24.590
776.87	15.044
777.18	28.319
777.48	4.545
777.79	5.217
778.10	20.183
778.41	12.712
778.72	17.355
779.03	23.134
779.34	26.316
779.65	17.647
779.95	21.014
780.26	6.803
780.57	8.621
780.88	14.815
781.19	8.081
781.50	14.400
781.80	16.993
782.11	15.385
782.42	20.482
782.73	10.949
783.04	20.946
783.34	4.545
783.65	6.977
783.96	14.634
784.27	15.385
784.57	14.634
784.88	9.756
785.19	13.158
785.50	5.155
785.81	2.857
786.11	2.941
786.42	17.273
786.73	21.622
787.04	25.743
787.34	18.095
787.65	20.000
787.96	7.843
788.26	23.423
788.57	20.968
788.88	6.250
789.19	7.692
789.49	10.924
789.80	15.385
790.11	23.894
790.41	16.162
790.72	19.811
791.03	1.389
791.33	15.789
791.64	25.806
791.95	20.000
792.25	-7.143
792.56	7.317
792.87	32.653
793.17	18.421
793.48	12.162
793.79	-2.817
794.09	10.127
794.40	23.404
794.70	13.084
795.01	5.263
795.32	11.818
795.62	5.357
795.93	15.464
796.23	-6.593
796.54	26.316
796.85	5.479
797.15	8.333
797.46	-12.329
797.76	29.577
798.07	12.500
798.37	19.118
798.68	20.000
798.99	-1.429
799.29	14.474
799.60	25.000
799.90	4.167
800.21	-3.125
800.51	-9.524
800.82	8.197
801.12	1.754
801.43	-8.451
801.73	-5.085
802.04	3.279
802.34	1.818
802.65	-5.769
802.95	9.259
803.26	-22.500
803.56	0.000
803.87	-23.684
804.17	16.129
804.48	3.077
804.78	-2.564
805.09	0.000
805.39	-21.875
805.70	-24.528
806.00	42.105
806.30	9.459
806.61	0.000
806.91	33.333
807.22	5.333
807.52	8.955
807.83	-8.065
808.13	-6.349
808.43	-3.636
808.74	19.697
809.04	-11.321
809.35	12.329
809.65	3.509
809.95	11.765
810.26	17.647
810.56	-14.000
810.86	0.000
811.17	-11.429
811.47	15.385
811.77	22.581
812.08	-47.368
812.38	-4.762
812.69	15.217
812.99	-12.903
813.29	-14.286
813.59	-33.333
813.90	-34.043
814.20	-13.953
814.50	-6.250
814.81	25.000
815.11	-9.756
815.41	3.333
815.72	14.286
816.02	2.778
816.32	17.949
816.62	2.703
816.93	-52.941
817.23	0.000
817.53	-29.412
817.84	2.941
818.14	-12.500
818.44	-13.793
818.74	-19.355
819.04	-25.926
819.35	-23.333
819.65	-52.000
819.95	-26.667
820.25	-24.000
820.56	-34.211
820.86	-17.500
821.16	19.149
821.46	17.241
821.76	-10.256
822.07	-22.500
822.37	9.302
822.67	-3.333
822.97	-18.919
823.27	-5.405
823.57	28.000
823.88	-21.622
824.18	-23.810
824.48	19.231
824.78	-84.615
825.08	-47.826
825.38	-25.000
825.69	-12.500
825.99	-25.000
826.29	-5.405
826.59	-23.529
826.89	-4.000
827.19	-11.429
827.49	34.211
827.79	-12.500
828.09	-13.333
828.39	0.000
828.70	-44.828
829.00	-6.897
829.30	-5.556
829.60	25.000
829.90	-27.778
830.20	-15.385
830.50	-66.667
830.80	-10.714
831.10	17.949
831.40	-38.095
831.70	-29.412
832.00	-41.667
832.30	-5.263
832.60	-87.500
832.90	-100.000
833.20	-35.294
833.50	-86.667
833.80	-26.667
834.10	-65.000
834.40	-37.500
834.70	27.778
835.00	0.000
835.30	-12.500
835.60	20.690
835.90	-88.889
836.20	-154.545
836.50	-66.667
836.80	-2.857
837.10	37.143
837.40	-41.176
837.70	-200.000
838.00	-37.500
838.30	-31.250
838.60	-28.571
838.90	45.000
839.19	-4.348
839.49	-34.783
839.79	-155.556
840.09	-52.174
840.39	18.182
840.69	-50.000
840.99	-36.842
841.29	-37.500
841.59	-71.429
841.88	-16.667
842.18	-25.000
842.48	-152.941
842.78	-51.724
843.08	-64.286
843.38	-46.154
843.68	-55.556
843.97	-23.077
844.27	-127.273
844.57	-300.000
844.87	20.000
845.17	-180.000
845.47	-114.286
845.76	-166.667
846.06	0.000
846.36	-200.000
846.66	-120.000
846.96	-10.526
847.25	-54.167
847.55	-66.667
847.85	-66.667
848.15	-90.000
848.44	-7.692
848.74	-89.474
849.04	666.667
849.34	-77.778
849.63	-47.368
849.93	0.000
850.23	-50.000
850.53	33.333
850.82	-48.000
851.12	10.526
851.42	-450.000
851.71	14.286
852.01	-100.000
852.31	-35.294
852.61	-53.333
852.90	-52.381
853.20	-200.000
853.50	-72.222
853.79	0.000
854.09	-146.667
854.39	3.571
854.68	-21.739
854.98	-191.667
855.28	-6.897
855.57	-25.000
855.87	-25.000
856.17	-80.000
856.46	-37.931
856.76	-46.667
857.05	-58.824
857.35	-100.000
857.65	-63.636
857.94	0.000
858.24	-107.143
858.53	-78.571
858.83	-158.333
859.13	-233.333
859.42	-19.048
859.72	-162.500
860.01	-333.333
860.31	-50.000
860.60	-420.000
860.90	-155.556
861.20	-212.500
861.49	-257.143
861.79	-76.471
862.08	-950.000
862.38	-158.333
862.67	-7.692
862.97	-5.882
863.26	10.000
863.56	-52.941
863.85	700.000
864.15	-140.000
864.44	-69.231
864.74	-10.000
865.03	-250.000
865.33	-133.333
865.62	11.765
865.92	-450.000
866.21	-150.000
866.51	-183.333
866.80	-1300.000
867.10	-366.667
867.39	-11.765
867.69	4.348
867.98	-85.714
868.27	-380.000
868.57	-118.750
868.86	-90.909
869.16	-35.294
869.45	-166.667
869.75	-314.286
870.04	2100.000
870.33	-100.000
870.63	-120.000
870.92	-122.222
871.22	-66.667
871.51	-127.273
871.80	-16.667
872.10	-10.000
>>>>>End Processed Spectral Data<<<<<
