SpectraSuite Data File
++++++++++++++++++++++++++++++++++++
Date: Sat May 16 11:16:27 PDT 2015
User: schluterlab
Dark Spectrum Present: Yes
Reference Spectrum Present: Yes
Number of Sampled Component Spectra: 1
Spectrometers: USB2E3373
Integration Time (usec): 3000 (USB2E3373)
Spectra Averaged: 3 (USB2E3373)
Boxcar Smoothing: 0 (USB2E3373)
Correct for Electrical Dark: No (USB2E3373)
Strobe/Lamp Enabled: No (USB2E3373)
Correct for Detector Non-linearity: No (USB2E3373)
Correct for Stray Light: No (USB2E3373)
Number of Pixels in Processed Spectrum: 2048
>>>>>Begin Processed Spectral Data<<<<<
178.53	0.000
178.91	46.667
179.29	200.000
179.67	-100.000
180.04	-61.538
180.42	400.000
180.80	175.000
181.18	225.000
181.56	-37.500
181.94	700.000
182.31	75.000
182.69	30.769
183.07	-600.000
183.45	1100.000
183.83	533.333
184.20	-14.286
184.58	-87.500
184.96	-350.000
185.34	143.750
185.72	-425.000
186.09	83.333
186.47	-100.000
186.85	-25.000
187.23	-125.000
187.61	-175.000
187.98	-212.500
188.36	-162.500
188.74	-150.000
189.12	600.000
189.49	328.571
189.87	-58.333
190.25	-0.000
190.63	-35.714
191.00	-77.778
191.38	140.000
191.76	20.000
192.14	420.000
192.51	-140.000
192.89	-66.667
193.27	0.000
193.65	-77.778
194.02	-357.143
194.40	266.667
194.78	-10.000
195.15	-600.000
195.53	-36.364
195.91	-333.333
196.29	320.000
196.66	-200.000
197.04	900.000
197.42	150.000
197.79	-13.333
198.17	166.667
198.55	-1050.000
198.92	-1100.000
199.30	100.000
199.68	-200.000
200.05	22.222
200.43	-166.667
200.81	-1800.000
201.18	-66.667
201.56	157.143
201.94	-40.000
202.31	-22.727
202.69	-10.000
203.07	-50.000
203.44	400.000
203.82	-216.667
204.19	-200.000
204.57	50.000
204.95	700.000
205.32	50.000
205.70	-100.000
206.08	-2700.000
206.45	33.333
206.83	-750.000
207.20	150.000
207.58	-566.667
207.96	-100.000
208.33	112.500
208.71	-122.222
209.08	120.000
209.46	85.714
209.84	750.000
210.21	0.000
210.59	80.000
210.96	900.000
211.34	-133.333
211.71	-100.000
212.09	400.000
212.46	600.000
212.84	-1700.000
213.22	233.333
213.59	125.000
213.97	44.444
214.34	130.000
214.72	-40.000
215.09	-233.333
215.47	-133.333
215.84	0.000
216.22	-60.000
216.59	13.333
216.97	-500.000
217.34	550.000
217.72	-200.000
218.09	-83.333
218.47	-185.714
218.84	285.714
219.22	-57.143
219.59	0.000
219.97	214.286
220.34	250.000
220.72	137.500
221.09	30.769
221.47	0.000
221.84	-100.000
222.22	-500.000
222.59	800.000
222.97	-112.500
223.34	-1100.000
223.72	-433.333
224.09	-50.000
224.46	-125.000
224.84	21.429
225.21	-214.286
225.59	-72.727
225.96	-87.500
226.34	-42.857
226.71	-44.444
227.08	60.000
227.46	1300.000
227.83	-128.571
228.21	-187.500
228.58	750.000
228.95	-25.000
229.33	-1700.000
229.70	-80.000
230.08	-800.000
230.45	-16.667
230.82	-166.667
231.20	-900.000
231.57	-250.000
231.95	1300.000
232.32	38.095
232.69	-66.667
233.07	-157.143
233.44	-400.000
233.81	-60.000
234.19	-77.778
234.56	-25.000
234.93	9.375
235.31	-214.286
235.68	-78.571
236.05	-64.706
236.43	-72.727
236.80	-38.710
237.17	-8.333
237.55	-57.143
237.92	-63.636
238.29	-17.143
238.67	2.941
239.04	-11.111
239.41	-48.387
239.79	-35.897
240.16	-14.286
240.53	-7.273
240.91	5.128
241.28	-1.818
241.65	10.769
242.02	-13.115
242.40	-4.918
242.77	-12.121
243.14	-35.593
243.51	-20.000
243.89	-3.797
244.26	-8.989
244.63	-2.105
245.00	-8.421
245.38	5.085
245.75	-2.655
246.12	-3.200
246.49	-7.874
246.87	-8.130
247.24	-16.949
247.61	-7.627
247.98	-3.521
248.36	-8.392
248.73	1.266
249.10	-2.548
249.47	-4.094
249.84	5.114
250.22	-8.929
250.59	-5.085
250.96	-0.524
251.33	3.791
251.70	-4.808
252.08	-2.370
252.45	-0.948
252.82	-4.762
253.19	1.277
253.56	-1.210
253.94	-3.797
254.31	-3.433
254.68	-4.878
255.05	-3.226
255.42	2.778
255.79	-1.075
256.16	0.392
256.54	0.735
256.91	-1.515
257.28	-4.762
257.65	-4.255
258.02	5.660
258.39	-2.007
258.76	-4.392
259.14	1.235
259.51	-0.328
259.88	0.305
260.25	1.553
260.62	-1.286
260.99	0.000
261.36	1.524
261.73	-0.289
262.10	1.111
262.47	-0.285
262.85	1.429
263.22	-4.585
263.59	-0.615
263.96	-2.029
264.33	1.897
264.70	0.276
265.07	-2.747
265.44	-0.258
265.81	0.517
266.18	-2.785
266.55	1.716
266.92	-1.008
267.29	1.453
267.66	0.988
268.03	0.242
268.40	1.408
268.77	0.482
269.14	-2.088
269.51	1.379
269.88	-2.294
270.25	0.932
270.62	0.229
270.99	-0.901
271.36	0.932
271.73	0.673
272.10	0.915
272.47	-1.778
272.84	2.444
273.21	0.000
273.58	0.440
273.95	0.000
274.32	-0.452
274.69	2.407
275.06	0.613
275.43	-1.116
275.80	2.648
276.17	0.209
276.54	1.629
276.91	1.646
277.28	-0.811
277.65	0.413
278.02	2.714
278.39	0.982
278.76	1.195
279.13	1.186
279.50	-0.199
279.87	0.423
280.23	2.024
280.60	-0.596
280.97	-1.553
281.34	-1.354
281.71	1.154
282.08	-1.008
282.45	-1.629
282.82	0.388
283.19	1.091
283.56	2.381
283.92	-0.707
284.29	-1.487
284.66	0.360
285.03	3.030
285.40	0.738
285.77	1.404
286.14	-1.083
286.51	0.355
286.87	-0.726
287.24	0.341
287.61	0.992
287.98	1.733
288.35	-1.157
288.72	-1.698
289.08	-0.508
289.45	-0.168
289.82	-1.384
290.19	3.120
290.56	-0.992
290.93	-1.272
291.29	-1.621
291.66	-0.966
292.03	1.256
292.40	-0.452
292.77	-0.776
293.13	0.976
293.50	1.040
293.87	0.153
294.24	2.564
294.60	-2.121
294.97	1.366
295.34	-1.630
295.71	-0.298
296.08	-1.536
296.44	0.286
296.81	0.000
297.18	0.141
297.55	1.130
297.91	1.674
298.28	-0.822
298.65	0.000
299.02	2.005
299.38	0.535
299.75	-0.272
300.12	0.256
300.48	2.046
300.85	-0.524
301.22	1.294
301.59	-0.910
301.95	2.015
302.32	-0.522
302.69	2.326
303.05	0.000
303.42	-0.750
303.79	0.239
304.15	1.422
304.52	0.933
304.89	1.535
305.25	-0.611
305.62	-0.118
305.99	2.473
306.35	0.666
306.72	1.139
307.09	1.476
307.45	1.362
307.82	0.670
308.19	1.454
308.55	1.634
308.92	0.644
309.29	1.946
309.65	0.530
310.02	1.620
310.38	0.324
310.75	1.537
311.12	1.963
311.48	2.401
311.85	1.648
312.22	2.369
312.58	2.645
312.95	2.141
313.31	1.998
313.68	3.819
314.05	3.561
314.41	1.408
314.78	1.898
315.14	3.455
315.51	2.634
315.87	4.356
316.24	2.818
316.61	4.702
316.97	3.284
317.34	3.179
317.70	3.340
318.07	5.970
318.43	4.588
318.80	5.540
319.16	3.752
319.53	5.451
319.89	4.516
320.26	4.314
320.62	4.808
320.99	4.776
321.35	3.842
321.72	5.937
322.08	7.221
322.45	5.149
322.81	6.724
323.18	5.572
323.54	7.301
323.91	6.580
324.27	7.034
324.64	6.764
325.00	8.464
325.37	7.783
325.73	9.361
326.10	7.263
326.46	8.144
326.83	7.489
327.19	8.924
327.56	10.307
327.92	9.516
328.29	10.476
328.65	8.182
329.01	10.071
329.38	9.634
329.74	11.172
330.11	10.335
330.47	10.082
330.84	11.182
331.20	11.011
331.56	10.301
331.93	11.012
332.29	12.237
332.66	11.150
333.02	11.765
333.38	11.559
333.75	11.932
334.11	10.844
334.48	10.680
334.84	12.511
335.20	12.589
335.57	11.823
335.93	12.802
336.29	11.249
336.66	10.925
337.02	12.793
337.38	11.408
337.75	12.204
338.11	12.343
338.47	11.744
338.84	13.521
339.20	13.005
339.56	13.012
339.93	12.522
340.29	12.046
340.65	12.413
341.02	12.648
341.38	13.564
341.74	12.616
342.11	12.457
342.47	12.446
342.83	11.671
343.20	12.212
343.56	11.020
343.92	12.604
344.28	13.204
344.65	11.881
345.01	11.176
345.37	11.877
345.73	11.784
346.10	11.774
346.46	12.916
346.82	11.949
347.19	11.832
347.55	11.878
347.91	12.047
348.27	12.331
348.63	13.489
349.00	13.286
349.36	11.475
349.72	12.898
350.08	12.189
350.45	11.820
350.81	12.182
351.17	11.977
351.53	12.092
351.89	12.045
352.26	13.411
352.62	12.903
352.98	13.133
353.34	11.351
353.70	12.124
354.07	12.667
354.43	12.727
354.79	11.807
355.15	11.661
355.51	11.875
355.87	11.621
356.24	10.802
356.60	13.699
356.96	11.701
357.32	12.906
357.68	11.877
358.04	13.010
358.40	12.297
358.77	11.437
359.13	12.242
359.49	12.245
359.85	11.966
360.21	13.014
360.57	13.554
360.93	13.333
361.29	12.556
361.66	12.119
362.02	12.204
362.38	12.839
362.74	12.527
363.10	12.626
363.46	13.960
363.82	13.265
364.18	12.880
364.54	13.581
364.90	12.579
365.26	12.411
365.62	12.972
365.98	13.300
366.35	13.099
366.71	11.487
367.07	13.267
367.43	13.658
367.79	12.852
368.15	11.664
368.51	13.427
368.87	14.423
369.23	13.825
369.59	13.264
369.95	12.896
370.31	13.150
370.67	12.654
371.03	13.848
371.39	13.579
371.75	14.306
372.11	13.989
372.47	13.449
372.83	14.117
373.19	13.571
373.55	14.286
373.91	13.869
374.27	13.963
374.63	13.665
374.99	13.908
375.35	14.065
375.71	15.327
376.07	14.305
376.42	13.510
376.78	14.771
377.14	14.169
377.50	14.829
377.86	13.914
378.22	15.138
378.58	14.021
378.94	14.612
379.30	14.991
379.66	15.118
380.02	14.854
380.38	15.287
380.74	15.358
381.09	15.231
381.45	15.990
381.81	15.003
382.17	14.912
382.53	14.650
382.89	15.431
383.25	15.894
383.61	15.212
383.97	16.105
384.32	15.582
384.68	15.599
385.04	14.855
385.40	15.520
385.76	15.671
386.12	15.865
386.48	15.780
386.83	15.828
387.19	16.019
387.55	16.111
387.91	15.945
388.27	15.199
388.62	16.106
388.98	16.111
389.34	16.095
389.70	16.443
390.06	15.724
390.42	17.500
390.77	15.710
391.13	17.205
391.49	17.093
391.85	16.397
392.20	15.959
392.56	15.822
392.92	16.315
393.28	17.107
393.64	16.236
393.99	16.615
394.35	16.971
394.71	16.368
395.07	17.828
395.42	15.852
395.78	16.405
396.14	17.695
396.50	17.064
396.85	17.767
397.21	16.950
397.57	17.629
397.92	16.452
398.28	17.556
398.64	16.478
399.00	17.640
399.35	17.249
399.71	17.828
400.07	17.373
400.42	17.822
400.78	17.293
401.14	17.425
401.49	17.217
401.85	16.534
402.21	16.508
402.57	17.718
402.92	17.369
403.28	17.953
403.63	16.896
403.99	16.594
404.35	16.486
404.70	17.379
405.06	17.359
405.42	17.036
405.77	16.290
406.13	15.957
406.49	16.777
406.84	17.397
407.20	17.903
407.55	17.543
407.91	16.710
408.27	18.015
408.62	17.498
408.98	17.465
409.34	17.307
409.69	17.076
410.05	17.526
410.40	17.964
410.76	17.368
411.11	17.020
411.47	17.583
411.83	18.215
412.18	18.193
412.54	17.633
412.89	17.740
413.25	17.296
413.60	17.254
413.96	16.513
414.31	17.615
414.67	16.762
415.03	17.853
415.38	17.632
415.74	17.655
416.09	17.263
416.45	17.130
416.80	17.815
417.16	17.475
417.51	18.582
417.87	18.123
418.22	18.015
418.58	18.036
418.93	17.474
419.29	17.880
419.64	17.462
420.00	18.165
420.35	17.741
420.71	18.427
421.06	19.053
421.42	17.857
421.77	17.253
422.12	18.243
422.48	18.119
422.83	18.451
423.19	17.817
423.54	18.156
423.90	18.161
424.25	18.326
424.61	18.215
424.96	18.139
425.31	18.055
425.67	18.510
426.02	17.728
426.38	18.512
426.73	18.235
427.09	17.892
427.44	18.523
427.79	18.140
428.15	18.971
428.50	18.534
428.85	18.525
429.21	18.373
429.56	18.490
429.92	18.637
430.27	19.143
430.62	19.018
430.98	19.028
431.33	19.157
431.68	18.606
432.04	18.411
432.39	19.430
432.74	19.844
433.10	19.133
433.45	18.826
433.80	19.149
434.16	19.506
434.51	18.904
434.86	19.391
435.22	18.875
435.57	18.421
435.92	19.168
436.28	18.991
436.63	18.994
436.98	19.530
437.34	19.315
437.69	18.845
438.04	19.682
438.39	19.735
438.75	18.568
439.10	19.378
439.45	19.674
439.81	20.000
440.16	19.875
440.51	19.176
440.86	19.607
441.22	18.850
441.57	19.421
441.92	19.693
442.27	19.102
442.63	19.313
442.98	18.792
443.33	19.495
443.68	19.333
444.03	19.204
444.39	19.824
444.74	19.989
445.09	19.956
445.44	19.527
445.79	19.939
446.15	20.756
446.50	19.760
446.85	19.702
447.20	19.408
447.55	19.337
447.91	20.101
448.26	19.497
448.61	20.430
448.96	19.664
449.31	19.729
449.66	19.863
450.02	19.446
450.37	19.362
450.72	19.944
451.07	20.113
451.42	19.393
451.77	20.227
452.12	19.785
452.47	20.151
452.83	19.453
453.18	19.987
453.53	19.590
453.88	19.856
454.23	18.803
454.58	20.510
454.93	20.781
455.28	19.694
455.63	19.595
455.98	21.084
456.34	19.441
456.69	20.388
457.04	20.897
457.39	18.840
457.74	20.201
458.09	19.374
458.44	20.727
458.79	19.170
459.14	20.080
459.49	20.189
459.84	20.124
460.19	20.585
460.54	20.085
460.89	19.507
461.24	21.190
461.59	19.754
461.94	20.687
462.29	20.131
462.64	20.092
462.99	20.616
463.34	19.851
463.69	20.229
464.04	19.977
464.39	20.072
464.74	20.390
465.09	19.964
465.44	20.248
465.79	20.643
466.14	20.081
466.49	19.862
466.84	20.048
467.19	20.511
467.54	18.924
467.89	20.592
468.24	19.596
468.59	20.050
468.94	20.193
469.29	20.273
469.64	20.013
469.99	19.581
470.34	20.307
470.68	21.512
471.03	21.473
471.38	19.236
471.73	20.629
472.08	20.080
472.43	20.270
472.78	20.400
473.13	18.953
473.48	21.251
473.83	20.471
474.17	19.745
474.52	21.419
474.87	20.862
475.22	21.121
475.57	20.278
475.92	20.680
476.27	19.943
476.61	20.056
476.96	20.402
477.31	21.206
477.66	21.251
478.01	21.610
478.36	20.534
478.70	19.968
479.05	21.255
479.40	20.466
479.75	20.438
480.10	19.841
480.45	20.019
480.79	20.977
481.14	21.224
481.49	20.862
481.84	20.943
482.19	20.877
482.53	20.786
482.88	21.025
483.23	20.469
483.58	21.693
483.92	20.975
484.27	20.514
484.62	20.821
484.97	20.226
485.31	20.000
485.66	19.303
486.01	19.798
486.36	20.483
486.70	20.542
487.05	20.628
487.40	20.166
487.75	20.466
488.09	20.167
488.44	20.196
488.79	20.587
489.13	20.578
489.48	20.595
489.83	20.917
490.17	20.636
490.52	20.516
490.87	20.323
491.22	20.458
491.56	21.019
491.91	20.611
492.26	20.708
492.60	20.124
492.95	20.942
493.30	20.819
493.64	20.028
493.99	20.985
494.34	21.381
494.68	22.144
495.03	20.315
495.37	20.108
495.72	20.776
496.07	21.258
496.41	21.260
496.76	21.279
497.11	21.008
497.45	20.642
497.80	20.760
498.14	21.267
498.49	20.291
498.84	20.874
499.18	21.345
499.53	21.091
499.87	20.125
500.22	21.471
500.56	21.061
500.91	20.985
501.26	21.494
501.60	20.029
501.95	21.353
502.29	20.737
502.64	21.876
502.98	21.610
503.33	21.100
503.67	20.402
504.02	20.956
504.36	21.716
504.71	21.327
505.06	20.669
505.40	20.858
505.75	21.596
506.09	20.930
506.44	21.654
506.78	21.626
507.13	21.112
507.47	22.118
507.82	20.909
508.16	21.658
508.51	21.123
508.85	21.170
509.19	20.984
509.54	21.512
509.88	21.915
510.23	21.017
510.57	21.376
510.92	21.751
511.26	20.893
511.61	21.166
511.95	21.336
512.30	22.210
512.64	21.091
512.98	20.957
513.33	22.076
513.67	21.496
514.02	21.421
514.36	21.773
514.70	22.184
515.05	22.241
515.39	21.165
515.74	22.280
516.08	21.383
516.42	22.210
516.77	22.357
517.11	22.254
517.46	22.189
517.80	22.443
518.14	22.101
518.49	22.295
518.83	21.602
519.17	23.150
519.52	22.499
519.86	23.238
520.20	21.760
520.55	22.154
520.89	21.728
521.23	22.283
521.58	21.630
521.92	22.546
522.26	22.540
522.61	22.053
522.95	22.017
523.29	22.445
523.64	22.361
523.98	23.043
524.32	22.690
524.66	20.683
525.01	21.773
525.35	22.552
525.69	22.707
526.04	23.107
526.38	22.788
526.72	22.286
527.06	22.135
527.41	22.772
527.75	22.640
528.09	22.502
528.43	22.295
528.78	22.864
529.12	23.944
529.46	22.358
529.80	22.660
530.15	22.730
530.49	22.186
530.83	22.200
531.17	22.963
531.51	21.701
531.86	22.581
532.20	22.605
532.54	22.594
532.88	22.793
533.22	22.928
533.57	22.258
533.91	22.035
534.25	22.502
534.59	21.487
534.93	21.593
535.27	22.152
535.62	22.954
535.96	22.237
536.30	21.924
536.64	22.975
536.98	22.316
537.32	21.769
537.66	23.625
538.01	22.337
538.35	22.432
538.69	22.660
539.03	22.884
539.37	22.355
539.71	22.081
540.05	22.687
540.39	22.230
540.73	22.253
541.07	22.609
541.42	22.350
541.76	22.392
542.10	24.240
542.44	22.585
542.78	21.981
543.12	22.607
543.46	21.438
543.80	21.538
544.14	21.894
544.48	23.556
544.82	22.260
545.16	23.005
545.50	20.996
545.84	23.505
546.18	23.301
546.52	23.115
546.86	22.650
547.20	23.840
547.54	21.488
547.88	22.960
548.22	21.232
548.56	23.113
548.90	22.439
549.24	22.285
549.58	23.077
549.92	22.544
550.26	22.616
550.60	22.404
550.94	22.628
551.28	22.874
551.62	22.600
551.96	23.589
552.30	22.648
552.64	22.308
552.98	24.247
553.32	22.799
553.66	23.360
554.00	22.672
554.34	22.383
554.68	22.295
555.02	22.504
555.36	22.502
555.69	22.708
556.03	22.877
556.37	22.546
556.71	22.691
557.05	22.469
557.39	22.197
557.73	23.924
558.07	23.135
558.41	22.737
558.75	22.814
559.08	22.179
559.42	23.201
559.76	22.699
560.10	24.161
560.44	22.832
560.78	22.895
561.12	21.877
561.45	22.534
561.79	22.369
562.13	23.001
562.47	21.639
562.81	21.924
563.15	22.883
563.48	22.944
563.82	22.380
564.16	22.110
564.50	22.379
564.84	22.222
565.17	22.215
565.51	22.425
565.85	22.448
566.19	22.991
566.52	22.896
566.86	21.492
567.20	22.942
567.54	23.154
567.88	22.166
568.21	22.371
568.55	21.792
568.89	21.571
569.23	22.212
569.56	20.891
569.90	21.361
570.24	22.097
570.57	21.371
570.91	21.489
571.25	21.757
571.59	21.043
571.92	21.399
572.26	21.120
572.60	21.253
572.93	21.245
573.27	20.640
573.61	20.619
573.95	21.448
574.28	21.077
574.62	21.149
574.96	20.763
575.29	20.859
575.63	20.945
575.97	20.442
576.30	21.102
576.64	20.783
576.98	21.125
577.31	20.715
577.65	21.047
577.98	20.594
578.32	20.543
578.66	20.606
578.99	20.659
579.33	21.100
579.67	20.949
580.00	20.809
580.34	21.233
580.67	21.451
581.01	20.224
581.35	20.703
581.68	20.401
582.02	20.745
582.35	20.472
582.69	21.010
583.02	20.933
583.36	21.306
583.70	20.942
584.03	21.202
584.37	21.055
584.70	20.989
585.04	21.367
585.37	20.668
585.71	20.997
586.04	20.669
586.38	20.957
586.72	21.392
587.05	21.184
587.39	20.787
587.72	20.919
588.06	21.073
588.39	20.820
588.73	21.605
589.06	21.707
589.40	21.642
589.73	21.105
590.07	20.721
590.40	22.325
590.73	21.831
591.07	21.270
591.40	21.924
591.74	21.851
592.07	22.297
592.41	21.486
592.74	21.138
593.08	21.456
593.41	21.184
593.75	21.134
594.08	21.711
594.41	21.590
594.75	21.518
595.08	21.917
595.42	21.243
595.75	21.058
596.09	21.226
596.42	22.054
596.75	21.561
597.09	22.084
597.42	20.864
597.75	22.055
598.09	21.509
598.42	21.564
598.76	21.719
599.09	21.429
599.42	21.453
599.76	20.763
600.09	21.794
600.42	21.117
600.76	21.544
601.09	20.661
601.42	21.448
601.76	21.067
602.09	21.350
602.42	21.235
602.76	21.147
603.09	21.653
603.42	21.434
603.76	22.298
604.09	21.906
604.42	21.440
604.76	21.064
605.09	21.609
605.42	21.941
605.75	21.647
606.09	21.503
606.42	21.198
606.75	21.211
607.09	22.497
607.42	21.523
607.75	21.987
608.08	21.148
608.42	21.429
608.75	20.935
609.08	21.529
609.41	21.126
609.75	21.794
610.08	21.814
610.41	21.687
610.74	22.340
611.07	21.704
611.41	20.928
611.74	22.622
612.07	22.879
612.40	21.802
612.73	22.240
613.07	21.244
613.40	22.167
613.73	21.362
614.06	21.911
614.39	22.492
614.72	22.067
615.06	21.141
615.39	21.270
615.72	22.325
616.05	21.314
616.38	22.751
616.71	21.682
617.05	22.014
617.38	20.929
617.71	22.113
618.04	22.360
618.37	22.013
618.70	22.360
619.03	22.343
619.36	22.763
619.69	22.613
620.03	22.521
620.36	22.433
620.69	21.321
621.02	22.298
621.35	22.339
621.68	23.197
622.01	21.845
622.34	23.137
622.67	21.328
623.00	22.877
623.33	22.910
623.66	22.821
623.99	22.030
624.32	22.321
624.65	21.339
624.99	22.629
625.32	21.931
625.65	22.766
625.98	21.596
626.31	21.615
626.64	22.845
626.97	22.175
627.30	22.638
627.63	21.848
627.96	21.497
628.29	21.324
628.62	21.681
628.95	22.441
629.28	23.120
629.61	22.473
629.94	23.440
630.26	22.664
630.59	23.116
630.92	22.923
631.25	22.581
631.58	22.963
631.91	20.638
632.24	24.000
632.57	25.111
632.90	23.563
633.23	23.832
633.56	22.339
633.89	24.175
634.22	21.133
634.55	22.356
634.88	22.612
635.20	21.848
635.53	22.646
635.86	23.804
636.19	22.589
636.52	21.744
636.85	22.744
637.18	22.000
637.51	24.040
637.83	22.503
638.16	21.974
638.49	21.241
638.82	22.651
639.15	24.254
639.48	22.438
639.81	24.066
640.13	22.838
640.46	25.783
640.79	24.650
641.12	24.401
641.45	22.382
641.77	23.802
642.10	24.320
642.43	23.065
642.76	23.937
643.09	23.016
643.41	25.238
643.74	24.165
644.07	24.649
644.40	21.556
644.73	25.083
645.05	23.038
645.38	23.675
645.71	26.289
646.04	25.210
646.36	23.386
646.69	22.145
647.02	22.924
647.35	24.910
647.67	23.358
648.00	24.253
648.33	27.319
648.66	23.387
648.98	21.815
649.31	23.538
649.64	25.625
649.96	26.060
650.29	23.115
650.62	25.473
650.94	23.609
651.27	24.090
651.60	23.529
651.92	21.747
652.25	23.372
652.58	21.635
652.90	23.274
653.23	23.871
653.56	23.077
653.88	20.820
654.21	25.000
654.54	24.086
654.86	22.953
655.19	21.347
655.52	21.618
655.84	20.772
656.17	22.790
656.49	31.327
656.82	32.280
657.15	24.207
657.47	18.004
657.80	13.588
658.13	15.937
658.45	21.369
658.78	21.046
659.10	21.295
659.43	20.882
659.75	21.046
660.08	22.083
660.41	21.256
660.73	21.672
661.06	24.928
661.38	24.286
661.71	22.371
662.03	24.597
662.36	25.373
662.68	21.519
663.01	25.902
663.33	26.757
663.66	25.107
663.98	23.214
664.31	22.148
664.63	26.991
664.96	24.946
665.28	24.729
665.61	22.410
665.93	24.280
666.26	24.291
666.58	22.245
666.91	21.826
667.23	25.658
667.56	22.222
667.88	27.149
668.21	23.272
668.53	24.065
668.86	22.633
669.18	26.256
669.50	20.561
669.83	22.141
670.15	24.888
670.48	24.065
670.80	23.918
671.13	22.573
671.45	26.126
671.77	22.056
672.10	22.682
672.42	23.432
672.75	23.818
673.07	22.703
673.39	23.497
673.72	24.409
674.04	24.204
674.37	20.825
674.69	26.230
675.01	22.766
675.34	23.210
675.66	26.350
675.98	26.652
676.31	24.208
676.63	24.368
676.95	22.124
677.28	25.986
677.60	26.018
677.92	25.771
678.25	27.133
678.57	24.280
678.89	24.738
679.22	24.528
679.54	25.838
679.86	22.000
680.18	24.715
680.51	21.415
680.83	25.714
681.15	25.626
681.48	24.544
681.80	23.589
682.12	23.742
682.44	22.790
682.77	22.727
683.09	23.899
683.41	27.655
683.73	20.320
684.06	23.871
684.38	23.640
684.70	24.691
685.02	24.213
685.34	24.172
685.67	21.970
685.99	19.660
686.31	24.776
686.63	23.404
686.96	23.475
687.28	23.892
687.60	23.828
687.92	21.790
688.24	22.244
688.56	24.248
688.89	25.214
689.21	22.319
689.53	25.517
689.85	24.053
690.17	23.094
690.49	23.326
690.82	23.614
691.14	23.585
691.46	23.060
691.78	25.330
692.10	25.847
692.42	22.000
692.74	25.966
693.06	25.393
693.39	22.595
693.71	23.251
694.03	24.622
694.35	20.090
694.67	24.823
694.99	21.995
695.31	23.469
695.63	22.194
695.95	21.836
696.27	25.436
696.59	22.995
696.91	23.034
697.23	24.479
697.56	25.240
697.88	23.874
698.20	22.056
698.52	20.404
698.84	25.971
699.16	21.667
699.48	23.250
699.80	22.306
700.12	24.937
700.44	21.229
700.76	24.198
701.08	26.453
701.40	16.918
701.72	24.383
702.04	23.718
702.36	29.217
702.68	22.156
703.00	24.348
703.32	22.063
703.64	26.176
703.96	27.326
704.28	21.893
704.60	21.203
704.91	22.540
705.23	23.301
705.55	24.662
705.87	25.256
706.19	21.875
706.51	26.042
706.83	20.984
707.15	21.656
707.47	24.242
707.79	23.969
708.11	22.646
708.43	25.436
708.74	24.416
709.06	23.398
709.38	19.540
709.70	23.125
710.02	24.847
710.34	21.782
710.66	23.492
710.98	21.451
711.29	20.968
711.61	23.642
711.93	22.951
712.25	24.585
712.57	24.390
712.89	29.137
713.20	25.773
713.52	21.642
713.84	22.420
714.16	23.934
714.48	24.127
714.80	23.692
715.11	21.326
715.43	28.012
715.75	27.103
716.07	23.279
716.39	22.742
716.70	26.481
717.02	26.667
717.34	22.519
717.66	27.801
717.97	19.672
718.29	18.067
718.61	30.159
718.93	25.806
719.24	20.588
719.56	20.000
719.88	28.364
720.20	22.472
720.51	27.444
720.83	23.293
721.15	24.180
721.46	23.922
721.78	24.138
722.10	23.600
722.42	19.421
722.73	24.701
723.05	24.900
723.37	27.059
723.68	22.672
724.00	24.797
724.32	21.811
724.63	19.917
724.95	23.967
725.27	23.246
725.58	20.690
725.90	21.825
726.22	27.306
726.53	23.574
726.85	16.471
727.16	26.692
727.48	18.846
727.80	23.361
728.11	18.908
728.43	24.793
728.74	19.141
729.06	26.515
729.38	24.125
729.69	22.047
730.01	22.835
730.32	20.717
730.64	26.374
730.96	24.254
731.27	20.357
731.59	21.865
731.90	27.301
732.22	25.153
732.53	26.821
732.85	22.483
733.16	23.188
733.48	21.951
733.80	21.352
734.11	22.414
734.43	27.891
734.74	23.145
735.06	26.646
735.37	24.465
735.69	19.355
736.00	22.896
736.32	26.821
736.63	19.655
736.95	23.551
737.26	21.192
737.58	24.101
737.89	29.032
738.21	22.180
738.52	26.154
738.83	27.734
739.15	22.650
739.46	21.774
739.78	20.979
740.09	25.874
740.41	25.874
740.72	20.438
741.04	23.413
741.35	18.182
741.66	26.852
741.98	18.095
742.29	28.169
742.61	19.251
742.92	26.168
743.23	24.561
743.55	19.820
743.86	27.556
744.18	19.524
744.49	31.034
744.80	25.381
745.12	26.804
745.43	27.136
745.74	25.728
746.06	21.951
746.37	29.075
746.68	27.861
747.00	26.178
747.31	25.000
747.62	25.346
747.94	22.707
748.25	26.977
748.56	22.857
748.88	22.283
749.19	25.352
749.50	28.431
749.82	24.000
750.13	25.110
750.44	26.016
750.75	27.200
751.07	25.000
751.38	25.461
751.69	19.847
752.01	23.846
752.32	24.125
752.63	24.231
752.94	19.841
753.26	25.652
753.57	20.982
753.88	27.586
754.19	20.332
754.51	25.000
754.82	27.273
755.13	25.926
755.44	24.380
755.75	24.691
756.07	20.482
756.38	23.828
756.69	22.383
757.00	26.481
757.31	23.490
757.63	27.414
757.94	23.699
758.25	17.733
758.56	28.841
758.87	24.432
759.18	20.667
759.50	22.064
759.81	20.803
760.12	19.932
760.43	22.654
760.74	23.125
761.05	23.876
761.36	21.557
761.67	24.556
761.99	21.613
762.30	23.188
762.61	23.396
762.92	25.561
763.23	23.223
763.54	24.444
763.85	27.426
764.16	23.673
764.47	20.763
764.78	21.723
765.10	26.259
765.41	22.258
765.72	24.528
766.03	18.375
766.34	26.692
766.65	22.267
766.96	24.000
767.27	25.000
767.58	30.233
767.89	27.742
768.20	26.994
768.51	22.951
768.82	24.324
769.13	27.000
769.44	20.175
769.75	28.571
770.06	22.018
770.37	23.474
770.68	19.792
770.99	24.752
771.30	23.786
771.61	18.981
771.92	19.481
772.23	27.103
772.54	28.191
772.85	18.935
773.16	32.927
773.47	23.494
773.78	29.670
774.09	18.667
774.39	24.074
774.70	18.792
775.01	25.362
775.32	22.388
775.63	23.967
775.94	26.316
776.25	25.714
776.56	22.131
776.87	36.283
777.18	27.434
777.48	17.273
777.79	15.652
778.10	10.092
778.41	21.186
778.72	23.140
779.03	26.866
779.34	25.564
779.65	13.072
779.95	27.536
780.26	22.449
780.57	22.414
780.88	18.519
781.19	11.111
781.50	12.000
781.80	20.915
782.11	18.590
782.42	22.892
782.73	14.599
783.04	20.946
783.34	18.939
783.65	19.380
783.96	30.081
784.27	17.949
784.57	20.325
784.88	17.886
785.19	27.193
785.50	7.216
785.81	17.143
786.11	21.569
786.42	13.636
786.73	32.432
787.04	29.703
787.34	24.762
787.65	19.048
787.96	18.627
788.26	18.919
788.57	30.645
788.88	21.094
789.19	12.821
789.49	16.807
789.80	21.368
790.11	18.584
790.41	16.162
790.72	30.189
791.03	16.667
791.33	14.474
791.64	26.882
791.95	17.333
792.25	12.857
792.56	29.268
792.87	21.429
793.17	10.526
793.48	10.811
793.79	18.310
794.09	6.329
794.40	15.957
794.70	3.738
795.01	14.035
795.32	15.455
795.62	16.964
795.93	15.464
796.23	28.571
796.54	30.526
796.85	26.027
797.15	33.333
797.46	34.247
797.76	29.577
798.07	21.250
798.37	11.765
798.68	24.286
798.99	17.143
799.29	32.895
799.60	23.333
799.90	5.556
800.21	-1.563
800.51	19.048
800.82	19.672
801.12	1.754
801.43	22.535
801.73	-16.949
802.04	13.115
802.34	10.909
802.65	15.385
802.95	25.926
803.26	-7.500
803.56	38.462
803.87	-5.263
804.17	17.742
804.48	21.538
804.78	2.564
805.09	18.605
805.39	28.125
805.70	5.660
806.00	29.825
806.30	14.865
806.61	25.000
806.91	23.457
807.22	4.000
807.52	20.896
807.83	9.677
808.13	1.587
808.43	12.727
808.74	21.212
809.04	22.642
809.35	19.178
809.65	26.316
809.95	38.235
810.26	27.451
810.56	16.000
810.86	16.327
811.17	2.857
811.47	-5.769
811.77	-19.355
812.08	-13.158
812.38	19.048
812.69	8.696
812.99	29.032
813.29	4.762
813.59	-33.333
813.90	0.000
814.20	-4.651
814.50	10.417
814.81	25.000
815.11	14.634
815.41	-6.667
815.72	40.000
816.02	16.667
816.32	28.205
816.62	2.703
816.93	-52.941
817.23	23.913
817.53	0.000
817.84	17.647
818.14	0.000
818.44	3.448
818.74	3.226
819.04	29.630
819.35	13.333
819.65	8.000
819.95	23.333
820.25	-24.000
820.56	-2.632
820.86	5.000
821.16	8.511
821.46	1.724
821.76	2.564
822.07	17.500
822.37	-4.651
822.67	26.667
822.97	-8.108
823.27	0.000
823.57	20.000
823.88	-13.514
824.18	-28.571
824.48	-15.385
824.78	-130.769
825.08	-8.696
825.38	41.667
825.69	-29.167
825.99	-40.000
826.29	-2.703
826.59	0.000
826.89	12.000
827.19	11.429
827.49	36.842
827.79	-3.125
828.09	-10.000
828.39	30.435
828.70	-24.138
829.00	17.241
829.30	5.556
829.60	50.000
829.90	16.667
830.20	-7.692
830.50	14.286
830.80	-14.286
831.10	23.077
831.40	-14.286
831.70	-23.529
832.00	0.000
832.30	0.000
832.60	-6.250
832.90	-91.667
833.20	-47.059
833.50	-13.333
833.80	-33.333
834.10	20.000
834.40	-8.333
834.70	-5.556
835.00	30.769
835.30	-16.667
835.60	27.586
835.90	-55.556
836.20	0.000
836.50	-66.667
836.80	0.000
837.10	40.000
837.40	-23.529
837.70	-81.818
838.00	4.167
838.30	-50.000
838.60	66.667
838.90	10.000
839.19	-4.348
839.49	8.696
839.79	-44.444
840.09	-34.783
840.39	-13.636
840.69	-56.250
840.99	5.263
841.29	-68.750
841.59	7.143
841.88	-5.556
842.18	-8.333
842.48	35.294
842.78	27.586
843.08	0.000
843.38	15.385
843.68	-133.333
843.97	-23.077
844.27	-81.818
844.57	-280.000
844.87	28.000
845.17	-320.000
845.47	-14.286
845.76	-55.556
846.06	0.000
846.36	-400.000
846.66	-170.000
846.96	-15.789
847.25	-25.000
847.55	-108.333
847.85	6.667
848.15	-150.000
848.44	65.385
848.74	5.263
849.04	500.000
849.34	0.000
849.63	-21.053
849.93	0.000
850.23	5.000
850.53	-9.524
850.82	0.000
851.12	-21.053
851.42	-150.000
851.71	-64.286
852.01	-58.333
852.31	0.000
852.61	-26.667
852.90	-23.810
853.20	-200.000
853.50	-44.444
853.79	5.263
854.09	-66.667
854.39	3.571
854.68	-34.783
854.98	-108.333
855.28	13.793
855.57	43.750
855.87	-40.000
856.17	-60.000
856.46	10.345
856.76	-6.667
857.05	-123.529
857.35	-100.000
857.65	90.909
857.94	-37.037
858.24	-92.857
858.53	-7.143
858.83	-66.667
859.13	-111.111
859.42	4.762
859.72	-162.500
860.01	-433.333
860.31	12.500
860.60	-240.000
860.90	-188.889
861.20	-62.500
861.49	-114.286
861.79	5.882
862.08	-550.000
862.38	-100.000
862.67	-38.462
862.97	-5.882
863.26	35.000
863.56	5.882
863.85	400.000
864.15	-80.000
864.44	7.692
864.74	-25.000
865.03	-100.000
865.33	-216.667
865.62	5.882
865.92	-300.000
866.21	-28.571
866.51	-116.667
866.80	-1300.000
867.10	33.333
867.39	-35.294
867.69	17.391
867.98	-57.143
868.27	60.000
868.57	-87.500
868.86	-109.091
869.16	-5.882
869.45	-50.000
869.75	-114.286
870.04	400.000
870.33	-58.333
870.63	-60.000
870.92	0.000
871.22	-125.000
871.51	-18.182
871.80	75.000
872.10	40.000
>>>>>End Processed Spectral Data<<<<<
