SpectraSuite Data File
++++++++++++++++++++++++++++++++++++
Date: Sat May 16 11:22:51 PDT 2015
User: schluterlab
Dark Spectrum Present: Yes
Reference Spectrum Present: Yes
Number of Sampled Component Spectra: 1
Spectrometers: USB2E3373
Integration Time (usec): 3000 (USB2E3373)
Spectra Averaged: 3 (USB2E3373)
Boxcar Smoothing: 0 (USB2E3373)
Correct for Electrical Dark: No (USB2E3373)
Strobe/Lamp Enabled: No (USB2E3373)
Correct for Detector Non-linearity: No (USB2E3373)
Correct for Stray Light: No (USB2E3373)
Number of Pixels in Processed Spectrum: 2048
>>>>>Begin Processed Spectral Data<<<<<
178.53	0.000
178.91	106.667
179.29	433.333
179.67	-600.000
180.04	-100.000
180.42	1200.000
180.80	425.000
181.18	525.000
181.56	-112.500
181.94	1300.000
182.31	475.000
182.69	-53.846
183.07	-633.333
183.45	1550.000
183.83	366.667
184.20	-214.286
184.58	-225.000
184.96	-300.000
185.34	162.500
185.72	-500.000
186.09	283.333
186.47	-125.000
186.85	-187.500
187.23	-200.000
187.61	-125.000
187.98	-387.500
188.36	-37.500
188.74	-200.000
189.12	1500.000
189.49	371.429
189.87	-66.667
190.25	450.000
190.63	-85.714
191.00	-166.667
191.38	420.000
191.76	0.000
192.14	600.000
192.51	-180.000
192.89	-566.667
193.27	0.000
193.65	-155.556
194.02	-57.143
194.40	366.667
194.78	-100.000
195.15	-1100.000
195.53	-136.364
195.91	-400.000
196.29	140.000
196.66	-333.333
197.04	2900.000
197.42	50.000
197.79	26.667
198.17	-100.000
198.55	-300.000
198.92	-1600.000
199.30	100.000
199.68	-700.000
200.05	-166.667
200.43	-255.556
200.81	-1400.000
201.18	-100.000
201.56	171.429
201.94	-46.667
202.31	-36.364
202.69	-40.000
203.07	-110.000
203.44	666.667
203.82	-133.333
204.19	-300.000
204.57	-475.000
204.95	-1500.000
205.32	-37.500
205.70	400.000
206.08	-1600.000
206.45	-27.778
206.83	-1000.000
207.20	100.000
207.58	-700.000
207.96	-300.000
208.33	-162.500
208.71	-166.667
209.08	250.000
209.46	-57.143
209.84	1000.000
210.21	0.000
210.59	60.000
210.96	-0.000
211.34	-366.667
211.71	-266.667
212.09	300.000
212.46	1300.000
212.84	-1800.000
213.22	400.000
213.59	108.333
213.97	-88.889
214.34	80.000
214.72	-130.000
215.09	-666.667
215.47	-166.667
215.84	-110.000
216.22	-130.000
216.59	0.000
216.97	-275.000
217.34	900.000
217.72	-142.857
218.09	-300.000
218.47	-214.286
218.84	342.857
219.22	-85.714
219.59	0.000
219.97	242.857
220.34	350.000
220.72	262.500
221.09	-38.462
221.47	0.000
221.84	766.667
222.22	-200.000
222.59	500.000
222.97	-175.000
223.34	-1000.000
223.72	-466.667
224.09	21.429
224.46	-375.000
224.84	-21.429
225.21	-157.143
225.59	-127.273
225.96	-137.500
226.34	-42.857
226.71	-133.333
227.08	20.000
227.46	1300.000
227.83	-157.143
228.21	-225.000
228.58	-50.000
228.95	-37.500
229.33	-2400.000
229.70	-280.000
230.08	-950.000
230.45	-66.667
230.82	-316.667
231.20	-900.000
231.57	-750.000
231.95	900.000
232.32	-19.048
232.69	-111.111
233.07	-157.143
233.44	-700.000
233.81	-66.667
234.19	-44.444
234.56	-37.500
234.93	12.500
235.31	-57.143
235.68	-157.143
236.05	-58.824
236.43	-54.545
236.80	3.226
237.17	-20.833
237.55	-90.476
237.92	-118.182
238.29	-60.000
238.67	14.706
239.04	-8.333
239.41	-22.581
239.79	-35.897
240.16	-38.095
240.53	-1.818
240.91	-15.385
241.28	1.818
241.65	3.077
242.02	3.279
242.40	-3.279
242.77	1.515
243.14	-5.085
243.51	-5.714
243.89	0.000
244.26	-5.618
244.63	2.105
245.00	8.421
245.38	4.237
245.75	19.469
246.12	5.600
246.49	11.024
246.87	7.317
247.24	8.475
247.61	-1.695
247.98	11.268
248.36	2.797
248.73	11.392
249.10	3.185
249.47	8.772
249.84	11.364
250.22	5.357
250.59	11.864
250.96	9.948
251.33	15.166
251.70	4.327
252.08	9.005
252.45	13.744
252.82	7.143
253.19	8.085
253.56	10.081
253.94	11.392
254.31	11.588
254.68	15.854
255.05	10.484
255.42	13.889
255.79	12.186
256.16	9.804
256.54	12.868
256.91	11.364
257.28	11.355
257.65	10.284
258.02	13.522
258.39	14.047
258.76	10.135
259.14	6.790
259.51	13.115
259.88	9.756
260.25	15.839
260.62	10.611
260.99	12.760
261.36	14.024
261.73	14.740
262.10	12.222
262.47	14.815
262.85	14.286
263.22	10.602
263.59	8.000
263.96	12.174
264.33	13.821
264.70	13.536
265.07	13.736
265.44	10.853
265.81	12.403
266.18	11.139
266.55	13.725
266.92	16.877
267.29	15.981
267.66	14.321
268.03	14.251
268.40	13.146
268.77	12.048
269.14	12.065
269.51	13.103
269.88	8.028
270.25	14.685
270.62	10.755
270.99	12.162
271.36	13.520
271.73	12.780
272.10	14.645
272.47	11.556
272.84	14.667
273.21	11.927
273.58	13.187
273.95	14.474
274.32	11.538
274.69	14.661
275.06	13.497
275.43	10.491
275.80	14.257
276.17	14.644
276.54	14.868
276.91	13.374
277.28	13.590
277.65	12.603
278.02	12.735
278.39	13.949
278.76	12.948
279.13	13.834
279.50	13.320
279.87	12.262
280.23	14.372
280.60	12.326
280.97	12.233
281.34	12.186
281.71	14.615
282.08	13.911
282.45	10.387
282.82	11.047
283.19	12.909
283.56	15.568
283.92	12.544
284.29	12.082
284.66	11.331
285.03	13.369
285.40	13.469
285.77	13.509
286.14	12.635
286.51	14.210
286.87	13.793
287.24	12.969
287.61	13.884
287.98	10.745
288.35	11.570
288.72	12.394
289.08	10.678
289.45	11.785
289.82	10.727
290.19	12.315
290.56	11.074
290.93	9.539
291.29	10.535
291.66	10.467
292.03	13.187
292.40	10.693
292.77	11.180
293.13	11.057
293.50	12.630
293.87	11.656
294.24	11.312
294.60	8.030
294.97	11.229
295.34	10.370
295.71	12.500
296.08	7.373
296.44	8.441
296.81	10.541
297.18	10.423
297.55	10.028
297.91	11.994
298.28	9.178
298.65	10.460
299.02	12.166
299.38	10.027
299.75	10.870
300.12	10.128
300.48	10.742
300.85	10.223
301.22	10.479
301.59	10.143
301.95	11.965
302.32	7.823
302.69	9.670
303.05	10.012
303.42	9.000
303.79	8.852
304.15	9.597
304.52	10.268
304.89	9.327
305.25	10.501
305.62	8.696
305.99	11.307
306.35	10.544
306.72	9.226
307.09	11.237
307.45	9.194
307.82	8.827
308.19	10.179
308.55	9.695
308.92	8.915
309.29	9.514
309.65	8.165
310.02	10.259
310.38	7.892
310.75	9.529
311.12	9.504
311.48	8.873
311.85	9.166
312.22	10.505
312.58	10.275
312.95	8.767
313.31	9.291
313.68	10.452
314.05	9.199
314.41	7.746
314.78	8.192
315.14	9.477
315.51	9.119
315.87	9.293
316.24	8.746
316.61	8.733
316.97	9.154
317.34	9.056
317.70	8.442
318.07	9.701
318.43	8.333
318.80	10.610
319.16	8.443
319.53	8.929
319.89	8.561
320.26	7.549
320.62	8.365
320.99	10.050
321.35	8.473
321.72	8.188
322.08	9.397
322.45	10.099
322.81	9.894
323.18	8.934
323.54	8.872
323.91	9.453
324.27	9.601
324.64	8.775
325.00	9.075
325.37	8.688
325.73	9.536
326.10	8.237
326.46	9.457
326.83	9.277
327.19	9.091
327.56	9.455
327.92	9.431
328.29	9.610
328.65	8.545
329.01	9.629
329.38	9.367
329.74	11.172
330.11	8.613
330.47	7.902
330.84	10.174
331.20	8.303
331.56	9.389
331.93	9.059
332.29	9.498
332.66	9.219
333.02	8.869
333.38	8.513
333.75	9.350
334.11	8.533
334.48	8.385
334.84	11.024
335.20	8.599
335.57	8.394
335.93	10.385
336.29	8.415
336.66	7.930
337.02	9.279
337.38	8.824
337.75	9.043
338.11	8.318
338.47	9.075
338.84	8.711
339.20	9.842
339.56	8.913
339.93	7.407
340.29	8.060
340.65	8.566
341.02	9.359
341.38	8.762
341.74	9.229
342.11	9.471
342.47	8.155
342.83	7.725
343.20	9.223
343.56	7.592
343.92	9.349
344.28	8.999
344.65	8.251
345.01	8.571
345.37	8.970
345.73	8.101
346.10	7.686
346.46	8.448
346.82	8.661
347.19	8.546
347.55	8.587
347.91	8.661
348.27	8.194
348.63	9.693
349.00	9.228
349.36	7.338
349.72	8.678
350.08	8.019
350.45	8.668
350.81	9.475
351.17	8.199
351.53	7.319
351.89	8.973
352.26	8.605
352.62	9.370
352.98	8.228
353.34	9.512
353.70	7.645
354.07	8.419
354.43	8.221
354.79	8.399
355.15	8.626
355.51	7.891
355.87	8.775
356.24	8.022
356.60	9.267
356.96	8.314
357.32	8.551
357.68	8.659
358.04	9.546
358.40	8.121
358.77	7.883
359.13	8.263
359.49	7.559
359.85	8.537
360.21	7.839
360.57	8.358
360.93	8.815
361.29	8.371
361.66	7.546
362.02	7.988
362.38	9.098
362.74	8.718
363.10	7.891
363.46	8.903
363.82	7.799
364.18	7.598
364.54	9.292
364.90	8.036
365.26	7.917
365.62	9.551
365.98	8.464
366.35	7.746
366.71	8.386
367.07	8.821
367.43	9.060
367.79	9.622
368.15	8.179
368.51	8.322
368.87	8.929
369.23	8.351
369.59	9.097
369.95	8.104
370.31	9.212
370.67	8.171
371.03	8.528
371.39	7.355
371.75	9.084
372.11	8.034
372.47	8.026
372.83	8.414
373.19	8.929
373.55	9.219
373.91	8.535
374.27	8.487
374.63	8.420
374.99	8.901
375.35	7.873
375.71	9.521
376.07	8.761
376.42	8.079
376.78	8.824
377.14	8.475
377.50	8.253
377.86	8.518
378.22	8.606
378.58	8.833
378.94	8.138
379.30	8.775
379.66	9.107
380.02	8.794
380.38	8.338
380.74	8.206
381.09	9.139
381.45	8.652
381.81	7.985
382.17	8.584
382.53	8.815
382.89	9.031
383.25	9.452
383.61	9.198
383.97	9.063
384.32	8.698
384.68	9.069
385.04	8.454
385.40	8.947
385.76	8.232
386.12	9.244
386.48	9.282
386.83	8.834
387.19	9.504
387.55	9.085
387.91	8.477
388.27	8.987
388.62	8.714
388.98	8.419
389.34	9.853
389.70	8.892
390.06	8.390
390.42	8.590
390.77	8.959
391.13	9.317
391.49	9.233
391.85	8.915
392.20	9.466
392.56	8.735
392.92	8.500
393.28	9.414
393.64	8.719
393.99	9.108
394.35	9.672
394.71	9.018
395.07	8.914
395.42	8.939
395.78	8.674
396.14	9.657
396.50	8.746
396.85	9.315
397.21	8.688
397.57	8.754
397.92	9.368
398.28	8.833
398.64	8.804
399.00	9.382
399.35	8.737
399.71	9.408
400.07	9.672
400.42	9.793
400.78	9.183
401.14	9.102
401.49	8.785
401.85	9.274
402.21	9.476
402.57	9.223
402.92	8.874
403.28	8.701
403.63	8.388
403.99	8.950
404.35	8.575
404.70	8.719
405.06	9.516
405.42	8.241
405.77	8.937
406.13	8.802
406.49	8.987
406.84	8.698
407.20	9.423
407.55	8.550
407.91	8.679
408.27	9.375
408.62	9.140
408.98	8.975
409.34	9.202
409.69	10.082
410.05	9.096
410.40	8.829
410.76	9.188
411.11	9.289
411.47	8.951
411.83	8.680
412.18	9.468
412.54	8.725
412.89	9.235
413.25	7.851
413.60	8.566
413.96	7.825
414.31	8.379
414.67	8.571
415.03	9.120
415.38	9.239
415.74	9.278
416.09	8.568
416.45	8.003
416.80	9.688
417.16	8.904
417.51	9.455
417.87	9.061
418.22	8.407
418.58	8.986
418.93	8.829
419.29	8.846
419.64	7.852
420.00	9.417
420.35	8.279
420.71	9.244
421.06	9.527
421.42	8.138
421.77	8.766
422.12	8.730
422.48	8.712
422.83	8.941
423.19	9.131
423.54	8.991
423.90	8.502
424.25	8.654
424.61	9.047
424.96	9.596
425.31	8.496
425.67	8.825
426.02	8.090
426.38	9.498
426.73	9.468
427.09	8.088
427.44	9.034
427.79	8.721
428.15	8.737
428.50	9.208
428.85	9.293
429.21	8.080
429.56	8.750
429.92	8.868
430.27	9.172
430.62	8.986
430.98	8.991
431.33	9.552
431.68	9.223
432.04	9.065
432.39	9.231
432.74	8.813
433.10	9.623
433.45	8.060
433.80	9.071
434.16	8.812
434.51	8.986
434.86	9.373
435.22	9.020
435.57	9.180
435.92	10.082
436.28	8.843
436.63	8.875
436.98	8.820
437.34	8.919
437.69	8.985
438.04	8.678
438.39	9.567
438.75	8.207
439.10	9.384
439.45	8.328
439.81	9.398
440.16	9.199
440.51	9.647
440.86	9.543
441.22	9.011
441.57	9.053
441.92	9.105
442.27	9.307
442.63	9.013
442.98	8.183
443.33	7.963
443.68	9.015
444.03	9.528
444.39	8.860
444.74	9.196
445.09	9.375
445.44	9.116
445.79	8.363
446.15	9.365
446.50	8.383
446.85	8.928
447.20	9.551
447.55	8.729
447.91	9.826
448.26	8.436
448.61	8.715
448.96	9.132
449.31	8.625
449.66	9.559
450.02	8.255
450.37	8.406
450.72	9.040
451.07	9.617
451.42	8.674
451.77	8.618
452.12	9.356
452.47	9.320
452.83	8.678
453.18	8.982
453.53	9.017
453.88	10.227
454.23	8.706
454.58	9.571
454.93	8.879
455.28	9.624
455.63	9.398
455.98	9.639
456.34	8.323
456.69	9.131
457.04	9.896
457.39	8.672
457.74	9.333
458.09	8.991
458.44	9.065
458.79	8.464
459.14	9.013
459.49	9.295
459.84	9.162
460.19	9.129
460.54	8.893
460.89	8.352
461.24	9.472
461.59	8.968
461.94	9.039
462.29	9.410
462.64	9.289
462.99	9.906
463.34	8.643
463.69	9.033
464.04	8.963
464.39	8.722
464.74	8.924
465.09	8.960
465.44	8.911
465.79	9.363
466.14	9.206
466.49	8.693
466.84	9.064
467.19	8.541
467.54	8.608
467.89	9.001
468.24	9.086
468.59	8.745
468.94	9.582
469.29	7.992
469.64	9.232
469.99	9.656
470.34	8.484
470.68	10.538
471.03	8.465
471.38	9.236
471.73	8.741
472.08	8.300
472.43	9.009
472.78	9.133
473.13	8.814
473.48	9.381
473.83	9.119
474.17	8.408
474.52	10.038
474.87	8.916
475.22	8.614
475.57	8.611
475.92	8.693
476.27	8.686
476.61	9.127
476.96	8.832
477.31	8.181
477.66	9.519
478.01	9.616
478.36	9.167
478.70	8.436
479.05	8.870
479.40	8.290
479.75	8.461
480.10	9.177
480.45	8.124
480.79	9.427
481.14	8.480
481.49	8.277
481.84	9.200
482.19	9.274
482.53	9.422
482.88	9.018
483.23	8.920
483.58	9.944
483.92	8.887
484.27	8.640
484.62	9.287
484.97	9.158
485.31	8.448
485.66	8.964
486.01	9.283
486.36	9.217
486.70	9.306
487.05	9.438
487.40	9.295
487.75	9.096
488.09	8.956
488.44	8.728
488.79	9.445
489.13	9.395
489.48	9.258
489.83	9.127
490.17	9.273
490.52	9.194
490.87	8.868
491.22	8.781
491.56	9.861
491.91	8.969
492.26	9.057
492.60	9.229
492.95	8.853
493.30	8.147
493.64	8.510
493.99	8.652
494.34	8.667
494.68	9.270
495.03	8.939
495.37	8.309
495.72	9.185
496.07	9.714
496.41	9.032
496.76	8.676
497.11	9.326
497.45	9.435
497.80	9.005
498.14	9.136
498.49	8.639
498.84	9.417
499.18	9.113
499.53	8.914
499.87	8.542
500.22	9.314
500.56	9.355
500.91	8.621
501.26	9.850
501.60	9.196
501.95	9.517
502.29	9.069
502.64	10.467
502.98	8.577
503.33	9.586
503.67	8.956
504.02	9.609
504.36	9.657
504.71	8.156
505.06	9.486
505.40	9.431
505.75	8.841
506.09	9.555
506.44	9.774
506.78	8.981
507.13	8.908
507.47	9.755
507.82	9.912
508.16	9.689
508.51	8.707
508.85	9.472
509.19	9.210
509.54	9.355
509.88	9.574
510.23	9.644
510.57	10.000
510.92	10.097
511.26	8.931
511.61	9.179
511.95	9.267
512.30	9.841
512.64	9.015
512.98	10.286
513.33	9.610
513.67	9.715
514.02	9.060
514.36	9.806
514.70	9.451
515.05	9.548
515.39	8.939
515.74	9.657
516.08	9.510
516.42	10.028
516.77	9.070
517.11	9.325
517.46	9.450
517.80	8.724
518.14	8.514
518.49	9.444
518.83	9.318
519.17	10.184
519.52	9.370
519.86	10.932
520.20	10.086
520.55	8.985
520.89	9.455
521.23	10.012
521.58	9.216
521.92	9.880
522.26	9.968
522.61	9.823
522.95	8.679
523.29	10.031
523.64	9.619
523.98	9.293
524.32	9.554
524.66	9.441
525.01	9.505
525.35	10.116
525.69	9.954
526.04	9.922
526.38	10.567
526.72	9.579
527.06	9.831
527.41	9.175
527.75	9.373
528.09	9.795
528.43	8.721
528.78	10.364
529.12	10.755
529.46	10.567
529.80	10.523
530.15	9.659
530.49	9.573
530.83	10.675
531.17	9.091
531.51	10.181
531.86	10.731
532.20	10.189
532.54	9.291
532.88	10.145
533.22	10.294
533.57	10.836
533.91	9.675
534.25	9.994
534.59	9.744
534.93	9.956
535.27	10.006
535.62	10.294
535.96	9.955
536.30	8.770
536.64	9.960
536.98	10.099
537.32	9.744
537.66	9.912
538.01	9.966
538.35	10.203
538.69	10.094
539.03	10.562
539.37	9.381
539.71	9.940
540.05	10.007
540.39	9.488
540.73	9.537
541.07	10.041
541.42	9.521
541.76	10.100
542.10	9.656
542.44	10.260
542.78	10.719
543.12	10.115
543.46	8.767
543.80	9.766
544.14	10.141
544.48	9.777
544.82	9.743
545.16	10.195
545.50	9.287
545.84	10.570
546.18	10.125
546.52	10.384
546.86	9.402
547.20	10.197
547.54	9.573
547.88	10.617
548.22	9.109
548.56	9.886
548.90	9.569
549.24	9.881
549.58	10.374
549.92	10.035
550.26	10.188
550.60	9.602
550.94	10.073
551.28	10.008
551.62	10.266
551.96	10.999
552.30	10.941
552.64	9.782
552.98	9.811
553.32	9.235
553.66	9.517
554.00	10.163
554.34	9.819
554.68	9.722
555.02	10.709
555.36	9.777
555.69	10.244
556.03	9.754
556.37	10.100
556.71	9.807
557.05	9.978
557.39	9.651
557.73	11.087
558.07	10.023
558.41	9.798
558.75	9.582
559.08	8.716
559.42	10.490
559.76	11.350
560.10	10.067
560.44	10.621
560.78	10.160
561.12	10.145
561.45	10.822
561.79	10.592
562.13	10.168
562.47	9.314
562.81	9.547
563.15	10.287
563.48	10.021
563.82	10.480
564.16	9.804
564.50	10.282
564.84	9.921
565.17	9.682
565.51	10.887
565.85	11.224
566.19	10.013
566.52	10.241
566.86	9.735
567.20	10.896
567.54	11.223
567.88	10.832
568.21	10.459
568.55	10.392
568.89	10.189
569.23	10.366
569.56	9.920
569.90	10.622
570.24	10.447
570.57	10.369
570.91	10.405
571.25	10.927
571.59	10.240
571.92	10.685
572.26	11.025
572.60	10.797
572.93	9.941
573.27	10.335
573.61	10.324
573.95	10.750
574.28	10.357
574.62	10.295
574.96	10.394
575.29	10.823
575.63	10.380
575.97	10.599
576.30	10.332
576.64	10.653
576.98	10.425
577.31	10.393
577.65	10.713
577.98	10.691
578.32	10.587
578.66	10.834
578.99	10.580
579.33	10.726
579.67	10.550
580.00	10.665
580.34	10.592
580.67	10.738
581.01	10.443
581.35	10.940
581.68	10.611
582.02	10.960
582.35	10.670
582.69	10.847
583.02	10.920
583.36	10.987
583.70	10.548
584.03	10.830
584.37	11.015
584.70	10.970
585.04	10.734
585.37	10.955
585.71	10.547
586.04	10.638
586.38	10.639
586.72	10.936
587.05	10.847
587.39	10.516
587.72	10.911
588.06	11.224
588.39	11.222
588.73	11.165
589.06	10.870
589.40	11.714
589.73	11.402
590.07	10.816
590.40	11.070
590.73	10.836
591.07	10.861
591.40	11.135
591.74	10.686
592.07	10.901
592.41	10.446
592.74	10.992
593.08	11.123
593.41	11.086
593.75	10.155
594.08	10.424
594.41	10.906
594.75	11.174
595.08	10.940
595.42	10.694
595.75	10.731
596.09	10.633
596.42	10.434
596.75	10.565
597.09	11.175
597.42	10.869
597.75	10.363
598.09	10.845
598.42	10.871
598.76	10.756
599.09	10.418
599.42	10.150
599.76	11.250
600.09	11.374
600.42	11.090
600.76	11.224
601.09	10.824
601.42	11.080
601.76	11.371
602.09	11.125
602.42	10.412
602.76	10.719
603.09	11.169
603.42	10.959
603.76	10.969
604.09	10.933
604.42	10.824
604.76	11.034
605.09	10.307
605.42	10.904
605.75	10.737
606.09	11.582
606.42	10.515
606.75	11.464
607.09	10.851
607.42	11.048
607.75	10.993
608.08	11.207
608.42	10.927
608.75	10.794
609.08	10.960
609.41	10.414
609.75	10.873
610.08	11.078
610.41	11.277
610.74	11.267
611.07	10.852
611.41	10.338
611.74	11.003
612.07	11.278
612.40	10.501
612.73	10.609
613.07	10.677
613.40	12.206
613.73	10.518
614.06	10.434
614.39	11.612
614.72	10.615
615.06	11.304
615.39	10.472
615.72	10.429
616.05	11.375
616.38	11.027
616.71	10.090
617.05	11.399
617.38	11.207
617.71	10.565
618.04	10.621
618.37	10.881
618.70	10.821
619.03	10.223
619.36	11.135
619.69	11.917
620.03	10.468
620.36	10.549
620.69	10.768
621.02	10.350
621.35	11.048
621.68	10.246
622.01	11.165
622.34	11.413
622.67	9.609
623.00	11.247
623.33	11.493
623.66	10.635
623.99	10.602
624.32	10.417
624.65	11.111
624.99	10.157
625.32	11.751
625.65	10.878
625.98	11.111
626.31	10.930
626.64	11.715
626.97	11.216
627.30	10.298
627.63	8.895
627.96	10.618
628.29	11.121
628.62	10.029
628.95	11.811
629.28	9.586
629.61	9.715
629.94	9.924
630.26	10.537
630.59	11.156
630.92	11.311
631.25	11.794
631.58	10.476
631.91	8.511
632.24	10.889
632.57	11.444
632.90	10.805
633.23	8.762
633.56	9.123
633.89	10.967
634.22	10.153
634.55	9.375
634.88	9.432
635.20	10.612
635.53	9.288
635.86	8.942
636.19	10.256
636.52	9.200
636.85	9.507
637.18	7.875
637.51	10.657
637.83	8.788
638.16	8.816
638.49	7.172
638.82	9.266
639.15	11.803
639.48	10.506
639.81	11.065
640.13	10.811
640.46	9.972
640.79	12.465
641.12	11.001
641.45	10.187
641.77	9.281
642.10	10.272
642.43	10.015
642.76	8.189
643.09	8.571
643.41	11.111
643.74	12.242
644.07	11.856
644.40	11.831
644.73	8.581
645.05	10.017
645.38	10.596
645.71	9.278
646.04	11.933
646.36	8.726
646.69	10.554
647.02	11.191
647.35	10.830
647.67	10.401
648.00	10.721
648.33	12.310
648.66	6.613
648.98	8.599
649.31	10.462
649.64	10.000
649.96	9.733
650.29	8.525
650.62	8.950
650.94	10.118
651.27	9.879
651.60	10.208
651.92	10.788
652.25	10.184
652.58	8.518
652.90	10.594
653.23	10.484
653.56	8.194
653.88	10.000
654.21	10.235
654.54	11.794
654.86	10.433
655.19	9.169
655.52	11.489
655.84	11.507
656.17	12.543
656.49	17.466
656.82	17.882
657.15	13.575
657.47	9.973
657.80	7.766
658.13	9.066
658.45	11.901
658.78	11.586
659.10	11.781
659.43	11.359
659.75	12.077
660.08	11.198
660.41	10.957
660.73	10.341
661.06	12.174
661.38	9.821
661.71	9.943
662.03	10.282
662.36	9.382
662.68	9.705
663.01	13.376
663.33	8.844
663.66	9.871
663.98	9.598
664.31	7.606
664.63	9.292
664.96	8.894
665.28	9.978
665.61	10.148
665.93	10.082
666.26	11.538
666.58	8.524
666.91	8.241
667.23	10.965
667.56	7.937
667.88	9.729
668.21	9.447
668.53	9.112
668.86	11.316
669.18	10.502
669.50	7.944
669.83	7.786
670.15	10.314
670.48	9.346
670.80	7.517
671.13	7.675
671.45	7.658
671.77	7.709
672.10	8.876
672.42	10.886
672.75	7.636
673.07	9.189
673.39	9.836
673.72	11.024
674.04	8.917
674.37	8.660
674.69	10.246
675.01	10.213
675.34	9.111
675.66	11.015
675.98	8.590
676.31	12.670
676.63	8.506
676.95	9.956
677.28	7.425
677.60	11.086
677.92	9.471
678.25	8.534
678.57	9.877
678.89	8.176
679.22	10.692
679.54	10.256
679.86	8.800
680.18	10.646
680.51	8.380
680.83	10.667
681.15	9.827
681.48	12.170
681.80	6.855
682.12	9.658
682.44	10.609
682.77	7.359
683.09	11.111
683.41	9.513
683.73	8.447
684.06	8.172
684.38	11.088
684.70	9.465
685.02	10.039
685.34	10.136
685.67	7.765
685.99	8.507
686.31	11.490
686.63	9.752
686.96	11.091
687.28	7.900
687.60	9.766
687.92	7.198
688.24	11.220
688.56	10.421
688.89	8.761
689.21	9.847
689.53	10.115
689.85	9.354
690.17	10.538
690.49	7.621
690.82	9.398
691.14	8.255
691.46	11.086
691.78	9.912
692.10	11.229
692.42	7.111
692.74	11.588
693.06	11.910
693.39	11.633
693.71	11.964
694.03	11.663
694.35	6.321
694.67	8.747
694.99	8.184
695.31	7.653
695.63	7.143
695.95	8.437
696.27	11.721
696.59	8.556
696.91	5.899
697.23	9.375
697.56	5.769
697.88	9.910
698.20	7.923
698.52	9.865
698.84	6.796
699.16	11.429
699.48	8.500
699.80	9.023
700.12	9.572
700.44	6.704
700.76	7.580
701.08	8.430
701.40	6.042
701.72	8.642
702.04	9.615
702.36	12.651
702.68	7.485
703.00	11.594
703.32	4.871
703.64	10.294
703.96	10.756
704.28	7.101
704.60	7.278
704.91	6.984
705.23	6.149
705.55	8.446
705.87	6.485
706.19	8.681
706.51	3.125
706.83	10.164
707.15	11.465
707.47	10.468
707.79	8.763
708.11	6.870
708.43	8.728
708.74	7.532
709.06	6.964
709.38	9.195
709.70	5.000
710.02	11.656
710.34	5.611
710.66	4.762
710.98	9.464
711.29	6.452
711.61	7.348
711.93	7.869
712.25	10.299
712.57	8.014
712.89	11.871
713.20	8.591
713.52	8.209
713.84	6.406
714.16	9.508
714.48	3.175
714.80	9.846
715.11	8.069
715.43	9.036
715.75	12.773
716.07	5.574
716.39	10.368
716.70	9.756
717.02	10.370
717.34	8.015
717.66	12.448
717.97	6.967
718.29	8.403
718.61	10.317
718.93	10.394
719.24	6.618
719.56	1.887
719.88	11.636
720.20	9.738
720.51	7.143
720.83	8.032
721.15	2.869
721.46	11.373
721.78	6.130
722.10	8.800
722.42	5.785
722.73	6.773
723.05	6.024
723.37	7.451
723.68	3.644
724.00	10.976
724.32	9.465
724.63	6.639
724.95	12.397
725.27	3.509
725.58	12.069
725.90	5.159
726.22	8.856
726.53	9.886
726.85	2.353
727.16	9.398
727.48	7.692
727.80	4.098
728.11	2.521
728.43	5.785
728.74	9.766
729.06	10.606
729.38	10.117
729.69	3.937
730.01	9.055
730.32	6.773
730.64	5.861
730.96	10.075
731.27	5.000
731.59	9.646
731.90	9.202
732.22	8.589
732.53	9.934
732.85	5.034
733.16	11.594
733.48	8.014
733.80	8.541
734.11	10.000
734.43	10.544
734.74	12.166
735.06	5.016
735.37	10.703
735.69	7.097
736.00	6.397
736.32	11.921
736.63	3.103
736.95	7.609
737.26	9.272
737.58	13.309
737.89	10.036
738.21	6.015
738.52	10.000
738.83	7.812
739.15	8.547
739.46	10.887
739.78	11.189
740.09	4.545
740.41	8.392
740.72	9.854
741.04	4.365
741.35	3.030
741.66	13.426
741.98	2.857
742.29	12.207
742.61	5.348
742.92	8.879
743.23	9.211
743.55	3.604
743.86	12.889
744.18	4.286
744.49	12.315
744.80	5.584
745.12	10.309
745.43	9.548
745.74	7.282
746.06	4.878
746.37	12.335
746.68	4.478
747.00	3.665
747.31	1.442
747.62	10.599
747.94	9.170
748.25	5.581
748.56	12.857
748.88	-0.543
749.19	8.451
749.50	6.863
749.82	9.333
750.13	14.097
750.44	7.317
750.75	4.400
751.07	9.286
751.38	7.011
751.69	7.252
752.01	10.385
752.32	6.226
752.63	6.538
752.94	8.333
753.26	6.087
753.57	8.929
753.88	7.328
754.19	3.320
754.51	6.250
754.82	7.905
755.13	8.230
755.44	10.331
755.75	8.642
756.07	3.614
756.38	6.250
756.69	5.776
757.00	5.923
757.31	8.389
757.63	12.150
757.94	10.116
758.25	5.523
758.56	14.016
758.87	8.523
759.18	6.333
759.50	8.541
759.81	4.745
760.12	7.095
760.43	6.796
760.74	8.438
761.05	9.831
761.36	7.784
761.67	9.763
761.99	9.677
762.30	9.783
762.61	6.415
762.92	15.247
763.23	5.687
763.54	8.889
763.85	10.549
764.16	1.633
764.47	10.593
764.78	8.989
765.10	12.230
765.41	6.129
765.72	9.119
766.03	1.413
766.34	7.895
766.65	6.883
766.96	3.500
767.27	7.812
767.58	2.907
767.89	5.161
768.20	4.908
768.51	3.279
768.82	6.486
769.13	8.500
769.44	10.965
769.75	8.658
770.06	13.761
770.37	3.756
770.68	8.333
770.99	6.436
771.30	10.194
771.61	6.944
771.92	7.359
772.23	8.411
772.54	5.319
772.85	6.509
773.16	8.537
773.47	9.036
773.78	12.637
774.09	8.000
774.39	8.642
774.70	2.685
775.01	3.623
775.32	2.239
775.63	-9.091
775.94	6.015
776.25	3.571
776.56	8.197
776.87	7.080
777.18	0.000
777.48	-4.545
777.79	0.000
778.10	-5.505
778.41	-0.847
778.72	-0.826
779.03	9.701
779.34	6.767
779.65	2.614
779.95	5.072
780.26	-4.082
780.57	-5.172
780.88	-1.852
781.19	-6.061
781.50	-4.000
781.80	5.882
782.11	3.205
782.42	4.819
782.73	-4.380
783.04	5.405
783.34	2.273
783.65	5.426
783.96	-2.439
784.27	-0.855
784.57	-3.252
784.88	-4.878
785.19	0.877
785.50	-18.557
785.81	0.000
786.11	-5.882
786.42	-5.455
786.73	4.505
787.04	10.891
787.34	-5.714
787.65	4.762
787.96	-10.784
788.26	-2.703
788.57	12.097
788.88	2.344
789.19	1.709
789.49	4.202
789.80	-0.855
790.11	13.274
790.41	-6.061
790.72	11.321
791.03	-18.056
791.33	-15.789
791.64	2.151
791.95	-12.000
792.25	-2.857
792.56	3.659
792.87	14.286
793.17	2.632
793.48	-24.324
793.79	-16.901
794.09	-12.658
794.40	4.255
794.70	-7.477
795.01	-14.035
795.32	-10.909
795.62	-0.893
795.93	-9.278
796.23	6.593
796.54	-2.105
796.85	-8.219
797.15	-6.944
797.46	1.370
797.76	-1.408
798.07	6.250
798.37	13.235
798.68	1.429
798.99	0.000
799.29	-6.579
799.60	-16.667
799.90	-11.111
800.21	-9.375
800.51	-4.762
800.82	9.836
801.12	-15.789
801.43	-12.676
801.73	-25.424
802.04	6.557
802.34	-18.182
802.65	-21.154
802.95	-7.407
803.26	2.500
803.56	7.692
803.87	-55.263
804.17	12.903
804.48	-1.538
804.78	-23.077
805.09	-6.977
805.39	-53.125
805.70	-15.094
806.00	8.772
806.30	10.811
806.61	4.412
806.91	3.704
807.22	0.000
807.52	-7.463
807.83	-8.065
808.13	-25.397
808.43	-18.182
808.74	-7.576
809.04	0.000
809.35	-9.589
809.65	-5.263
809.95	-10.294
810.26	11.765
810.56	-14.000
810.86	-22.449
811.17	-34.286
811.47	-15.385
811.77	-38.710
812.08	-78.947
812.38	-14.286
812.69	-56.522
812.99	-38.710
813.29	-28.571
813.59	-62.963
813.90	-14.894
814.20	-41.860
814.50	-27.083
814.81	-13.333
815.11	-17.073
815.41	-80.000
815.72	22.857
816.02	-41.667
816.32	-7.692
816.62	0.000
816.93	-44.118
817.23	-17.391
817.53	-38.235
817.84	-8.824
818.14	-43.750
818.44	-44.828
818.74	-35.484
819.04	-55.556
819.35	-50.000
819.65	-76.000
819.95	0.000
820.25	-68.000
820.56	2.632
820.86	-30.000
821.16	-14.894
821.46	1.724
821.76	-28.205
822.07	-7.500
822.37	-20.930
822.67	-13.333
822.97	-27.027
823.27	-8.108
823.57	12.000
823.88	-21.622
824.18	-42.857
824.48	-34.615
824.78	-207.692
825.08	-13.043
825.38	-20.833
825.69	-58.333
825.99	-40.000
826.29	-54.054
826.59	-52.941
826.89	12.000
827.19	-25.714
827.49	-13.158
827.79	-37.500
828.09	-20.000
828.39	4.348
828.70	-58.621
829.00	-13.793
829.30	-30.556
829.60	-3.125
829.90	-50.000
830.20	-50.000
830.50	-109.524
830.80	-42.857
831.10	7.692
831.40	-14.286
831.70	-29.412
832.00	4.167
832.30	-36.842
832.60	-93.750
832.90	-183.333
833.20	-70.588
833.50	-120.000
833.80	-166.667
834.10	-30.000
834.40	25.000
834.70	-33.333
835.00	-46.154
835.30	-41.667
835.60	0.000
835.90	-127.778
836.20	-154.545
836.50	-158.333
836.80	-40.000
837.10	8.571
837.40	-52.941
837.70	-190.909
838.00	-4.167
838.30	-87.500
838.60	-47.619
838.90	0.000
839.19	-17.391
839.49	-34.783
839.79	-105.556
840.09	-60.870
840.39	-59.091
840.69	-125.000
840.99	-57.895
841.29	-56.250
841.59	-100.000
841.88	-50.000
842.18	-25.000
842.48	-76.471
842.78	-51.724
843.08	-21.429
843.38	-23.077
843.68	-388.889
843.97	-115.385
844.27	-127.273
844.57	-380.000
844.87	16.000
845.17	-320.000
845.47	-50.000
845.76	-233.333
846.06	0.000
846.36	-550.000
846.66	-120.000
846.96	-63.158
847.25	-25.000
847.55	-75.000
847.85	33.333
848.15	-90.000
848.44	50.000
848.74	5.263
849.04	600.000
849.34	-211.111
849.63	-126.316
849.93	0.000
850.23	-40.000
850.53	38.095
850.82	-20.000
851.12	5.263
851.42	-650.000
851.71	-114.286
852.01	-141.667
852.31	-64.706
852.61	13.333
852.90	-52.381
853.20	-383.333
853.50	-50.000
853.79	-110.526
854.09	-53.333
854.39	7.143
854.68	-17.391
854.98	-208.333
855.28	-10.345
855.57	-75.000
855.87	-25.000
856.17	-113.333
856.46	-20.690
856.76	-73.333
857.05	-52.941
857.35	-230.769
857.65	0.000
857.94	-22.222
858.24	-164.286
858.53	-64.286
858.83	-108.333
859.13	-166.667
859.42	-28.571
859.72	-162.500
860.01	-566.667
860.31	-200.000
860.60	-200.000
860.90	-266.667
861.20	-262.500
861.49	-242.857
861.79	-5.882
862.08	-650.000
862.38	-166.667
862.67	-53.846
862.97	-29.412
863.26	5.000
863.56	-23.529
863.85	533.333
864.15	-110.000
864.44	-53.846
864.74	-20.000
865.03	-212.500
865.33	-200.000
865.62	-11.765
865.92	-675.000
866.21	-85.714
866.51	-125.000
866.80	-1400.000
867.10	-500.000
867.39	-58.824
867.69	-21.739
867.98	-57.143
868.27	-300.000
868.57	-100.000
868.86	-200.000
869.16	-17.647
869.45	-233.333
869.75	-185.714
870.04	1400.000
870.33	16.667
870.63	-300.000
870.92	-133.333
871.22	-75.000
871.51	-72.727
871.80	-83.333
872.10	-80.000
>>>>>End Processed Spectral Data<<<<<
