SpectraSuite Data File
++++++++++++++++++++++++++++++++++++
Date: Sat May 16 11:43:50 PDT 2015
User: schluterlab
Dark Spectrum Present: Yes
Reference Spectrum Present: Yes
Number of Sampled Component Spectra: 1
Spectrometers: USB2E3373
Integration Time (usec): 3000 (USB2E3373)
Spectra Averaged: 3 (USB2E3373)
Boxcar Smoothing: 0 (USB2E3373)
Correct for Electrical Dark: No (USB2E3373)
Strobe/Lamp Enabled: No (USB2E3373)
Correct for Detector Non-linearity: No (USB2E3373)
Correct for Stray Light: No (USB2E3373)
Number of Pixels in Processed Spectrum: 2048
>>>>>Begin Processed Spectral Data<<<<<
178.53	0.000
178.91	206.667
179.29	766.667
179.67	-400.000
180.04	-84.615
180.42	100.000
180.80	150.000
181.18	425.000
181.56	-50.000
181.94	1200.000
182.31	475.000
182.69	-30.769
183.07	-333.333
183.45	1300.000
183.83	600.000
184.20	-114.286
184.58	-125.000
184.96	-425.000
185.34	56.250
185.72	-350.000
186.09	316.667
186.47	37.500
186.85	-187.500
187.23	-62.500
187.61	-450.000
187.98	-287.500
188.36	-162.500
188.74	-87.500
189.12	1300.000
189.49	357.143
189.87	-66.667
190.25	225.000
190.63	-107.143
191.00	-133.333
191.38	380.000
191.76	-20.000
192.14	460.000
192.51	-140.000
192.89	-466.667
193.27	0.000
193.65	-144.444
194.02	-157.143
194.40	333.333
194.78	-120.000
195.15	-800.000
195.53	-109.091
195.91	-416.667
196.29	240.000
196.66	-1000.000
197.04	1900.000
197.42	-50.000
197.79	13.333
198.17	-566.667
198.55	-650.000
198.92	-300.000
199.30	300.000
199.68	-350.000
200.05	-133.333
200.43	-166.667
200.81	-1400.000
201.18	-58.333
201.56	242.857
201.94	-26.667
202.31	-45.455
202.69	-80.000
203.07	-90.000
203.44	1066.667
203.82	-183.333
204.19	-375.000
204.57	-175.000
204.95	-1500.000
205.32	-62.500
205.70	700.000
206.08	-1700.000
206.45	-72.222
206.83	-1150.000
207.20	-100.000
207.58	-633.333
207.96	-466.667
208.33	-175.000
208.71	-177.778
209.08	320.000
209.46	-71.429
209.84	800.000
210.21	0.000
210.59	35.000
210.96	900.000
211.34	-366.667
211.71	-700.000
212.09	275.000
212.46	1100.000
212.84	-1600.000
213.22	433.333
213.59	166.667
213.97	-122.222
214.34	230.000
214.72	-130.000
215.09	-466.667
215.47	-16.667
215.84	-60.000
216.22	-10.000
216.59	-20.000
216.97	-375.000
217.34	1000.000
217.72	-128.571
218.09	-316.667
218.47	-214.286
218.84	171.429
219.22	-14.286
219.59	0.000
219.97	157.143
220.34	350.000
220.72	237.500
221.09	-115.385
221.47	0.000
221.84	333.333
222.22	-650.000
222.59	1200.000
222.97	-275.000
223.34	-750.000
223.72	-633.333
224.09	-28.571
224.46	-250.000
224.84	-35.714
225.21	-285.714
225.59	-81.818
225.96	-100.000
226.34	-157.143
226.71	-144.444
227.08	0.000
227.46	2500.000
227.83	-42.857
228.21	-100.000
228.58	600.000
228.95	-50.000
229.33	-1200.000
229.70	-260.000
230.08	-850.000
230.45	-16.667
230.82	-133.333
231.20	-1200.000
231.57	-800.000
231.95	2100.000
232.32	4.762
232.69	-188.889
233.07	-257.143
233.44	-950.000
233.81	-73.333
234.19	-11.111
234.56	-62.500
234.93	-25.000
235.31	-314.286
235.68	-100.000
236.05	-52.941
236.43	-81.818
236.80	-38.710
237.17	-29.167
237.55	-47.619
237.92	-63.636
238.29	-45.714
238.67	-20.588
239.04	-27.778
239.41	-64.516
239.79	-66.667
240.16	-38.095
240.53	-3.636
240.91	-33.333
241.28	-9.091
241.65	7.692
242.02	-9.836
242.40	-16.393
242.77	-18.182
243.14	-11.864
243.51	-27.143
243.89	-15.190
244.26	-4.494
244.63	-4.211
245.00	-10.526
245.38	-1.695
245.75	4.425
246.12	0.000
246.49	-1.575
246.87	-8.130
247.24	-9.322
247.61	-17.797
247.98	-2.113
248.36	-4.196
248.73	8.228
249.10	1.911
249.47	5.848
249.84	-5.682
250.22	-4.167
250.59	2.825
250.96	1.047
251.33	1.896
251.70	4.327
252.08	7.109
252.45	3.318
252.82	-1.905
253.19	-1.277
253.56	3.629
253.94	-2.110
254.31	0.000
254.68	10.976
255.05	-2.823
255.42	1.190
255.79	0.717
256.16	3.529
256.54	3.676
256.91	-2.652
257.28	-3.663
257.65	-1.418
258.02	5.975
258.39	4.682
258.76	-0.338
259.14	4.012
259.51	3.279
259.88	7.012
260.25	3.106
260.62	2.251
260.99	2.671
261.36	3.354
261.73	3.757
262.10	5.556
262.47	1.709
262.85	7.714
263.22	2.865
263.59	2.462
263.96	3.478
264.33	3.794
264.70	5.249
265.07	0.824
265.44	2.842
265.81	1.550
266.18	3.291
266.55	0.735
266.92	4.030
267.29	3.874
267.66	2.716
268.03	5.797
268.40	4.225
268.77	0.964
269.14	3.944
269.51	6.207
269.88	1.376
270.25	3.497
270.62	4.348
270.99	2.252
271.36	5.128
271.73	3.812
272.10	3.890
272.47	1.556
272.84	5.333
273.21	2.064
273.58	4.396
273.95	3.947
274.32	0.905
274.69	5.033
275.06	4.090
275.43	1.786
275.80	3.666
276.17	4.184
276.54	7.128
276.91	4.115
277.28	5.882
277.65	1.033
278.02	5.428
278.39	4.715
278.76	3.386
279.13	3.953
279.50	2.386
279.87	2.748
280.23	3.239
280.60	3.777
280.97	2.913
281.34	4.449
281.71	5.192
282.08	3.831
282.45	2.240
282.82	4.070
283.19	4.000
283.56	4.945
283.92	6.537
284.29	2.788
284.66	3.237
285.03	5.169
285.40	5.904
285.77	6.316
286.14	4.152
286.51	4.796
286.87	4.537
287.24	6.143
287.61	4.132
287.98	3.640
288.35	3.802
288.72	5.603
289.08	2.373
289.45	4.209
289.82	3.460
290.19	5.255
290.56	3.306
290.93	4.134
291.29	4.214
291.66	2.576
292.03	4.553
292.40	5.572
292.77	4.658
293.13	6.016
293.50	4.903
293.87	5.061
294.24	6.335
294.60	3.485
294.97	6.677
295.34	5.481
295.71	6.399
296.08	3.533
296.44	4.864
296.81	6.980
297.18	4.507
297.55	7.345
297.91	7.950
298.28	4.932
298.65	6.276
299.02	7.888
299.38	6.551
299.75	5.435
300.12	6.795
300.48	7.161
300.85	7.339
301.22	7.503
301.59	5.982
301.95	9.194
302.32	6.128
302.69	6.242
303.05	6.227
303.42	6.375
303.79	5.861
304.15	7.464
304.52	7.118
304.89	6.966
305.25	7.814
305.62	7.286
305.99	8.481
306.35	8.879
306.72	7.403
307.09	8.400
307.45	7.946
307.82	7.598
308.19	9.060
308.55	8.170
308.92	7.519
309.29	8.432
309.65	8.484
310.02	8.855
310.38	7.892
310.75	8.402
311.12	9.194
311.48	9.499
311.85	9.990
312.22	10.196
312.58	11.190
312.95	9.684
313.31	9.990
313.68	10.854
314.05	11.276
314.41	9.859
314.78	11.089
315.14	11.846
315.51	12.462
315.87	11.617
316.24	12.828
316.61	12.572
316.97	13.134
317.34	11.464
317.70	12.801
318.07	13.060
318.43	12.360
318.80	13.709
319.16	12.570
319.53	14.004
319.89	13.264
320.26	14.412
320.62	15.385
320.99	13.333
321.35	13.399
321.72	14.534
322.08	15.529
322.45	14.653
322.81	16.907
323.18	17.483
323.54	16.451
323.91	17.702
324.27	17.490
324.64	17.459
325.00	19.459
325.37	19.910
325.73	20.997
326.10	20.726
326.46	21.979
326.83	21.362
327.19	21.768
327.56	23.680
327.92	24.384
328.29	25.108
328.65	24.182
329.01	25.707
329.38	24.888
329.74	27.015
330.11	27.199
330.47	27.339
330.84	28.323
331.20	26.895
331.56	27.621
331.93	28.419
332.29	30.046
332.66	29.763
333.02	29.050
333.38	30.466
333.75	29.742
334.11	29.511
334.48	30.274
334.84	31.934
335.20	31.028
335.57	31.859
335.93	33.841
336.29	30.647
336.66	30.573
337.02	32.703
337.38	31.016
337.75	32.485
338.11	32.558
338.47	32.117
338.84	32.849
339.20	32.337
339.56	34.492
339.93	33.245
340.29	32.684
340.65	32.343
341.02	32.631
341.38	32.266
341.74	32.515
342.11	32.850
342.47	33.219
342.83	32.662
343.20	32.707
343.56	31.265
343.92	32.888
344.28	34.903
344.65	32.921
345.01	33.025
345.37	33.472
345.73	31.424
346.10	30.417
346.46	33.225
346.82	32.879
347.19	33.361
347.55	33.146
347.91	32.362
348.27	31.901
348.63	33.683
349.00	33.811
349.36	31.226
349.72	33.519
350.08	33.841
350.45	32.151
350.81	33.678
351.17	33.199
351.53	32.776
351.89	33.468
352.26	32.791
352.62	33.333
352.98	32.041
353.34	32.694
353.70	33.745
354.07	32.966
354.43	33.360
354.79	33.281
355.15	32.907
355.51	32.500
355.87	32.095
356.24	33.916
356.60	33.280
356.96	33.333
357.32	33.571
357.68	33.103
358.04	32.640
358.40	33.411
358.77	31.917
359.13	33.053
359.49	33.409
359.85	33.765
360.21	33.714
360.57	33.735
360.93	34.370
361.29	32.287
361.66	32.622
362.02	33.802
362.38	33.015
362.74	33.260
363.10	33.501
363.46	33.476
363.82	33.746
364.18	33.719
364.54	33.452
364.90	32.495
365.26	33.381
365.62	34.783
365.98	33.570
366.35	33.873
366.71	33.051
367.07	34.157
367.43	34.317
367.79	32.784
368.15	33.073
368.51	33.706
368.87	34.135
369.23	34.246
369.59	33.264
369.95	34.461
370.31	34.318
370.67	32.899
371.03	35.131
371.39	33.451
371.75	34.692
372.11	34.433
372.47	34.563
372.83	34.492
373.19	34.929
373.55	34.201
373.91	35.775
374.27	35.524
374.63	35.404
374.99	34.631
375.35	34.724
375.71	36.057
376.07	35.661
376.42	34.967
376.78	36.601
377.14	35.729
377.50	35.783
377.86	35.826
378.22	35.427
378.58	34.898
378.94	36.621
379.30	35.466
379.66	36.005
380.02	35.829
380.38	37.039
380.74	36.166
381.09	35.559
381.45	36.217
381.81	36.116
382.17	37.093
382.53	36.231
382.89	36.364
383.25	37.628
383.61	35.967
383.97	37.416
384.32	37.109
384.68	38.210
385.04	37.138
385.40	36.519
385.76	37.256
386.12	38.101
386.48	37.995
386.83	37.117
387.19	37.059
387.55	37.371
387.91	37.344
388.27	36.972
388.62	37.260
388.98	36.705
389.34	37.515
389.70	37.028
390.06	37.601
390.42	36.410
390.77	37.413
391.13	38.571
391.49	38.989
391.85	37.531
392.20	36.590
392.56	37.508
392.92	37.992
393.28	38.691
393.64	37.703
393.99	39.631
394.35	38.139
394.71	38.110
395.07	39.234
395.42	38.200
395.78	37.209
396.14	39.502
396.50	37.920
396.85	37.754
397.21	36.877
397.57	38.237
397.92	37.705
398.28	37.500
398.64	36.764
399.00	38.820
399.35	37.768
399.71	39.315
400.07	38.209
400.42	37.956
400.78	37.567
401.14	36.946
401.49	37.854
401.85	38.011
402.21	37.128
402.57	38.228
402.92	39.144
403.28	38.358
403.63	37.088
403.99	37.477
404.35	37.258
404.70	36.981
405.06	36.851
405.42	36.347
405.77	35.860
406.13	36.740
406.49	37.747
406.84	37.792
407.20	37.161
407.55	37.049
407.91	36.399
408.27	37.132
408.62	36.861
408.98	36.810
409.34	36.685
409.69	37.177
410.05	37.053
410.40	36.419
410.76	37.048
411.11	37.656
411.47	36.765
411.83	37.469
412.18	36.819
412.54	37.096
412.89	36.817
413.25	37.072
413.60	37.060
413.96	36.168
414.31	38.287
414.67	36.571
415.03	37.387
415.38	38.256
415.74	37.242
416.09	37.852
416.45	36.905
416.80	37.841
417.16	38.007
417.51	38.017
417.87	37.087
418.22	38.369
418.58	38.383
418.93	37.830
419.29	37.453
419.64	37.374
420.00	38.092
420.35	38.971
420.71	38.355
421.06	38.343
421.42	39.052
421.77	38.749
422.12	39.060
422.48	38.696
422.83	39.123
423.19	38.697
423.54	39.308
423.90	39.213
424.25	39.253
424.61	39.988
424.96	40.023
425.31	39.855
425.67	40.000
426.02	39.128
426.38	40.653
426.73	40.503
427.09	41.176
427.44	41.591
427.79	40.581
428.15	41.173
428.50	41.290
428.85	41.667
429.21	41.505
429.56	41.510
429.92	41.583
430.27	40.329
430.62	41.797
430.98	40.930
431.33	41.622
431.68	41.609
432.04	41.690
432.39	42.279
432.74	43.765
433.10	42.262
433.45	41.566
433.80	43.449
434.16	42.611
434.51	42.959
434.86	42.472
435.22	42.595
435.57	42.228
435.92	42.790
436.28	43.383
436.63	43.414
436.98	42.497
437.34	43.355
437.69	43.874
438.04	43.619
438.39	44.826
438.75	42.724
439.10	44.087
439.45	44.176
439.81	43.916
440.16	44.577
440.51	44.824
440.86	44.245
441.22	43.284
441.57	45.263
441.92	44.501
442.27	45.130
442.63	45.011
442.98	44.639
443.33	44.646
443.68	44.554
444.03	45.187
444.39	45.374
444.74	45.705
445.09	44.956
445.44	45.864
445.79	44.824
446.15	46.002
446.50	45.291
446.85	44.741
447.20	45.148
447.55	46.464
447.91	46.098
448.26	44.637
448.61	46.067
448.96	46.611
449.31	46.280
449.66	46.537
450.02	45.152
450.37	46.377
450.72	45.424
451.07	47.392
451.42	44.796
451.77	47.157
452.12	46.961
452.47	46.977
452.83	46.476
453.18	48.261
453.53	46.891
453.88	47.309
454.23	47.884
454.58	47.421
454.93	47.355
455.28	48.056
455.63	47.912
455.98	48.554
456.34	46.442
456.69	48.093
457.04	46.835
457.39	46.591
457.74	47.549
458.09	47.042
458.44	48.614
458.79	49.159
459.14	48.203
459.49	48.076
459.84	48.117
460.19	46.718
460.54	48.336
460.89	47.814
461.24	48.695
461.59	47.421
461.94	48.250
462.29	48.541
462.64	48.682
462.99	49.598
463.34	48.548
463.69	48.346
464.04	48.096
464.39	48.865
464.74	48.286
465.09	47.444
465.44	48.505
465.79	48.562
466.14	49.597
466.49	48.877
466.84	48.499
467.19	50.062
467.54	48.354
467.89	50.247
468.24	49.703
468.59	49.032
468.94	50.354
469.29	48.148
469.64	50.472
469.99	49.899
470.34	49.165
470.68	50.727
471.03	51.204
471.38	50.486
471.73	51.608
472.08	50.736
472.43	50.837
472.78	50.467
473.13	49.569
473.48	51.372
473.83	50.682
474.17	51.783
474.52	52.302
474.87	50.408
475.22	50.619
475.57	49.944
475.92	51.512
476.27	50.171
476.61	50.479
476.96	50.363
477.31	51.453
477.66	51.134
478.01	51.648
478.36	50.498
478.70	53.444
479.05	51.541
479.40	52.228
479.75	52.192
480.10	51.240
480.45	50.435
480.79	51.382
481.14	52.283
481.49	53.291
481.84	51.641
482.19	51.074
482.53	51.373
482.88	50.878
483.23	51.127
483.58	52.914
483.92	52.269
484.27	51.130
484.62	51.231
484.97	50.546
485.31	50.432
485.66	48.556
486.01	49.357
486.36	50.234
486.70	51.335
487.05	50.207
487.40	51.362
487.75	50.421
488.09	50.865
488.44	51.252
488.79	49.841
489.13	50.856
489.48	51.631
489.83	52.227
490.17	52.111
490.52	52.672
490.87	52.702
491.22	53.760
491.56	52.500
491.91	53.483
492.26	53.208
492.60	52.474
492.95	52.689
493.30	52.644
493.64	51.763
493.99	54.254
494.34	53.190
494.68	53.418
495.03	53.155
495.37	53.245
495.72	54.077
496.07	54.012
496.41	53.497
496.76	53.516
497.11	53.321
497.45	54.406
497.80	54.877
498.14	54.273
498.49	54.445
498.84	53.107
499.18	54.386
499.53	55.382
499.87	54.199
500.22	53.333
500.56	54.327
500.91	54.532
501.26	53.178
501.60	53.731
501.95	54.493
502.29	52.669
502.64	54.267
502.98	53.570
503.33	52.914
503.67	54.071
504.02	54.515
504.36	53.235
504.71	54.509
505.06	53.669
505.40	55.190
505.75	54.675
506.09	55.207
506.44	55.138
506.78	54.541
507.13	54.119
507.47	54.669
507.82	55.034
508.16	54.870
508.51	55.332
508.85	55.331
509.19	55.259
509.54	55.338
509.88	56.011
510.23	56.499
510.57	55.979
510.92	56.821
511.26	55.024
511.61	54.968
511.95	55.334
512.30	57.669
512.64	55.648
512.98	56.271
513.33	56.837
513.67	55.556
514.02	55.928
514.36	55.900
514.70	55.971
515.05	56.890
515.39	56.171
515.74	57.766
516.08	55.908
516.42	56.884
516.77	56.672
517.11	56.064
517.46	58.553
517.80	58.785
518.14	57.971
518.49	58.219
518.83	58.160
519.17	56.128
519.52	56.738
519.86	58.483
520.20	59.963
520.55	58.154
520.89	58.485
521.23	58.486
521.58	59.060
521.92	59.658
522.26	57.905
522.61	57.541
522.95	58.583
523.29	57.241
523.64	58.401
523.98	58.816
524.32	57.700
524.66	57.019
525.01	58.895
525.35	58.183
525.69	58.946
526.04	59.726
526.38	59.771
526.72	57.407
527.06	58.919
527.41	58.680
527.75	58.350
528.09	59.696
528.43	59.082
528.78	57.977
529.12	59.155
529.46	58.505
529.80	58.296
530.15	58.918
530.49	57.956
530.83	58.874
531.17	59.057
531.51	58.674
531.86	58.920
532.20	58.232
532.54	58.556
532.88	57.510
533.22	59.826
533.57	59.008
533.91	57.491
534.25	58.265
534.59	56.340
534.93	57.561
535.27	58.276
535.62	58.440
535.96	58.177
536.30	58.246
536.64	60.093
536.98	60.664
537.32	58.742
537.66	58.520
538.01	59.107
538.35	58.581
538.69	57.620
539.03	57.752
539.37	57.685
539.71	59.173
540.05	57.231
540.39	58.518
540.73	58.535
541.07	58.675
541.42	57.326
541.76	56.146
542.10	59.217
542.44	56.829
542.78	56.920
543.12	56.823
543.46	57.192
543.80	56.254
544.14	56.212
544.48	58.071
544.82	57.375
545.16	58.350
545.50	56.864
545.84	57.232
546.18	57.767
546.52	57.112
546.86	57.123
547.20	57.103
547.54	57.163
547.88	56.934
548.22	56.422
548.56	55.979
548.90	56.334
549.24	57.463
549.58	57.304
549.92	58.869
550.26	59.104
550.60	56.970
550.94	58.102
551.28	58.841
551.62	57.903
551.96	57.308
552.30	57.561
552.64	57.424
552.98	57.533
553.32	58.009
553.66	56.741
554.00	58.493
554.34	56.534
554.68	57.602
555.02	58.177
555.36	56.578
555.69	56.304
556.03	56.351
556.37	56.188
556.71	57.910
557.05	58.684
557.39	57.461
557.73	57.403
558.07	58.402
558.41	59.088
558.75	56.350
559.08	56.187
559.42	56.662
559.76	56.902
560.10	57.420
560.44	56.503
560.78	56.507
561.12	56.798
561.45	56.575
561.79	57.213
562.13	57.223
562.47	55.882
562.81	55.728
563.15	56.613
563.48	57.015
563.82	57.201
564.16	54.429
564.50	55.645
564.84	57.143
565.17	55.968
565.51	55.085
565.85	56.998
566.19	55.468
566.52	56.817
566.86	55.373
567.20	54.964
567.54	55.877
567.88	53.099
568.21	54.754
568.55	53.977
568.89	53.231
569.23	52.383
569.56	51.324
569.90	52.282
570.24	51.973
570.57	51.634
570.91	50.663
571.25	50.097
571.59	51.171
571.92	49.762
572.26	50.000
572.60	50.016
572.93	49.582
573.27	49.604
573.61	49.555
573.95	49.548
574.28	48.705
574.62	50.153
574.96	48.853
575.29	48.628
575.63	49.190
575.97	48.463
576.30	48.589
576.64	49.478
576.98	48.719
577.31	48.057
577.65	48.781
577.98	48.412
578.32	47.653
578.66	47.933
578.99	48.149
579.33	48.907
579.67	48.770
580.00	48.289
580.34	48.606
580.67	48.051
581.01	48.149
581.35	48.285
581.68	47.176
582.02	47.953
582.35	47.819
582.69	48.984
583.02	48.828
583.36	48.093
583.70	48.387
584.03	49.273
584.37	49.012
584.70	48.374
585.04	47.949
585.37	47.637
585.71	48.162
586.04	48.455
586.38	48.169
586.72	48.083
587.05	48.683
587.39	48.211
587.72	48.633
588.06	48.721
588.39	48.704
588.73	48.763
589.06	49.488
589.40	49.605
589.73	49.150
590.07	50.583
590.40	48.782
590.73	48.661
591.07	50.123
591.40	51.083
591.74	50.869
592.07	50.000
592.41	50.531
592.74	50.423
593.08	49.331
593.41	49.342
593.75	48.137
594.08	50.144
594.41	50.314
594.75	50.321
595.08	50.263
595.42	49.639
595.75	49.871
596.09	50.330
596.42	51.268
596.75	49.590
597.09	50.801
597.42	49.629
597.75	50.044
598.09	49.616
598.42	49.978
598.76	49.128
599.09	49.171
599.42	49.404
599.76	49.264
600.09	49.809
600.42	48.690
600.76	48.475
601.09	48.728
601.42	48.991
601.76	48.676
602.09	49.284
602.42	48.807
602.76	49.273
603.09	50.242
603.42	50.000
603.76	49.462
604.09	49.900
604.42	48.460
604.76	49.717
605.09	50.090
605.42	49.069
605.75	49.159
606.09	49.398
606.42	49.560
606.75	48.647
607.09	49.316
607.42	50.220
607.75	50.022
608.08	50.520
608.42	50.757
608.75	48.972
609.08	49.001
609.41	49.676
609.75	49.391
610.08	50.392
610.41	50.313
610.74	50.484
611.07	50.710
611.41	48.966
611.74	50.283
612.07	51.074
612.40	49.840
612.73	50.081
613.07	49.642
613.40	51.013
613.73	49.755
614.06	49.643
614.39	50.338
614.72	50.056
615.06	49.293
615.39	49.485
615.72	49.864
616.05	49.199
616.38	50.784
616.71	50.571
617.05	51.267
617.38	50.712
617.71	51.658
618.04	51.429
618.37	52.138
618.70	52.803
619.03	51.185
619.36	52.079
619.69	52.979
620.03	51.860
620.36	52.602
620.69	53.123
621.02	52.816
621.35	52.500
621.68	53.279
622.01	53.479
622.34	52.484
622.67	54.297
623.00	53.481
623.33	52.015
623.66	51.034
623.99	51.654
624.32	51.488
624.65	51.803
624.99	52.726
625.32	51.722
625.65	52.214
625.98	53.208
626.31	54.241
626.64	54.477
626.97	54.452
627.30	53.532
627.63	52.677
627.96	52.829
628.29	53.768
628.62	55.110
628.95	56.299
629.28	54.605
629.61	54.760
629.94	53.686
630.26	55.765
630.59	56.482
630.92	54.855
631.25	54.234
631.58	55.873
631.91	52.872
632.24	54.111
632.57	56.778
632.90	58.046
633.23	58.762
633.56	55.322
633.89	55.189
634.22	56.198
634.55	56.130
634.88	56.711
635.20	55.056
635.53	57.125
635.86	55.919
636.19	57.509
636.52	55.317
636.85	55.596
637.18	54.875
637.51	57.621
637.83	56.991
638.16	57.105
638.49	57.379
638.82	55.727
639.15	57.069
639.48	54.604
639.81	59.336
640.13	55.676
640.46	56.695
640.79	58.683
641.12	56.982
641.45	56.528
641.77	60.629
642.10	59.366
642.43	58.270
642.76	57.795
643.09	56.349
643.41	60.635
643.74	58.506
644.07	60.062
644.40	59.481
644.73	60.396
645.05	57.429
645.38	59.437
645.71	60.481
646.04	61.176
646.36	60.733
646.69	58.131
647.02	58.664
647.35	61.372
647.67	60.584
648.00	57.118
648.33	60.371
648.66	55.323
648.98	57.006
649.31	55.077
649.64	58.594
649.96	56.986
650.29	57.049
650.62	58.864
650.94	56.830
651.27	58.579
651.60	56.401
651.92	58.219
652.25	57.262
652.58	58.773
652.90	55.538
653.23	54.677
653.56	55.518
653.88	55.082
654.21	58.221
654.54	58.472
654.86	55.859
655.19	53.582
655.52	49.811
655.84	45.327
656.17	48.895
656.49	65.574
656.82	68.019
657.15	51.142
657.47	37.557
657.80	29.455
658.13	33.314
658.45	44.757
658.78	43.957
659.10	43.562
659.43	43.999
659.75	45.240
660.08	44.062
660.41	44.558
660.73	50.385
661.06	54.783
661.38	60.536
661.71	57.170
662.03	60.685
662.36	59.701
662.68	59.705
663.01	58.386
663.33	61.905
663.66	60.515
663.98	61.384
664.31	60.403
664.63	63.938
664.96	57.050
665.28	59.002
665.61	58.774
665.93	60.288
666.26	57.692
666.58	58.212
666.91	63.029
667.23	55.263
667.56	59.864
667.88	61.538
668.21	59.217
668.53	62.150
668.86	61.201
669.18	59.361
669.50	62.150
669.83	61.314
670.15	61.211
670.48	58.879
670.80	58.542
671.13	59.368
671.45	58.559
671.77	58.030
672.10	57.988
672.42	53.875
672.75	55.455
673.07	51.712
673.39	55.009
673.72	56.890
674.04	58.811
674.37	55.670
674.69	57.582
675.01	58.085
675.34	59.002
675.66	58.963
675.98	57.709
676.31	60.181
676.63	57.931
676.95	56.637
677.28	56.613
677.60	58.824
677.92	59.251
678.25	59.300
678.57	56.379
678.89	56.184
679.22	57.862
679.54	56.805
679.86	55.800
680.18	57.224
680.51	53.445
680.83	54.286
681.15	53.179
681.48	55.172
681.80	56.452
682.12	55.533
682.44	56.385
682.77	53.896
683.09	55.556
683.41	58.186
683.73	55.936
684.06	58.710
684.38	54.393
684.70	55.144
685.02	55.512
685.34	53.801
685.67	54.924
685.99	53.875
686.31	55.655
686.63	54.078
686.96	53.974
687.28	52.794
687.60	54.883
687.92	52.529
688.24	55.512
688.56	52.906
688.89	52.778
689.21	55.142
689.53	58.851
689.85	57.238
690.17	56.054
690.49	54.273
690.82	56.627
691.14	57.311
691.46	57.206
691.78	53.965
692.10	56.992
692.42	55.556
692.74	52.146
693.06	55.056
693.39	57.271
693.71	56.433
694.03	54.212
694.35	52.144
694.67	55.319
694.99	54.987
695.31	55.867
695.63	53.571
695.95	57.816
696.27	56.110
696.59	60.695
696.91	57.303
697.23	55.990
697.56	55.529
697.88	54.279
698.20	53.105
698.52	53.139
698.84	51.942
699.16	54.762
699.48	57.000
699.80	56.892
700.12	54.156
700.44	54.469
700.76	54.519
701.08	54.360
701.40	58.610
701.72	55.247
702.04	62.821
702.36	59.036
702.68	55.090
703.00	57.971
703.32	52.149
703.64	58.824
703.96	59.593
704.28	58.876
704.60	56.962
704.91	54.921
705.23	55.987
705.55	53.041
705.87	59.386
706.19	54.514
706.51	54.514
706.83	56.721
707.15	56.688
707.47	53.719
707.79	55.412
708.11	50.636
708.43	50.623
708.74	51.169
709.06	55.153
709.38	55.172
709.70	59.062
710.02	53.374
710.34	55.776
710.66	56.508
710.98	50.789
711.29	51.613
711.61	55.272
711.93	52.131
712.25	54.817
712.57	53.659
712.89	58.633
713.20	57.045
713.52	55.597
713.84	53.025
714.16	56.066
714.48	56.190
714.80	50.769
715.11	50.144
715.43	53.614
715.75	52.648
716.07	53.443
716.39	49.833
716.70	53.659
717.02	58.889
717.34	52.290
717.66	58.091
717.97	54.918
718.29	51.261
718.61	55.952
718.93	52.330
719.24	50.368
719.56	52.830
719.88	57.818
720.20	52.809
720.51	54.511
720.83	57.430
721.15	52.049
721.46	53.725
721.78	51.724
722.10	56.400
722.42	57.851
722.73	55.777
723.05	58.233
723.37	57.647
723.68	50.607
724.00	56.911
724.32	53.909
724.63	51.452
724.95	52.066
725.27	57.895
725.58	51.724
725.90	51.587
726.22	57.196
726.53	51.711
726.85	48.235
727.16	53.008
727.48	52.692
727.80	47.951
728.11	52.521
728.43	48.760
728.74	58.203
729.06	51.894
729.38	55.253
729.69	51.575
730.01	56.299
730.32	51.394
730.64	54.212
730.96	52.612
731.27	52.857
731.59	51.768
731.90	48.773
732.22	46.319
732.53	55.960
732.85	52.685
733.16	54.710
733.48	45.993
733.80	49.822
734.11	50.690
734.43	50.340
734.74	50.148
735.06	53.605
735.37	49.541
735.69	48.710
736.00	49.832
736.32	51.325
736.63	49.310
736.95	53.261
737.26	47.682
737.58	51.799
737.89	52.330
738.21	50.000
738.52	53.846
738.83	46.484
739.15	54.274
739.46	51.613
739.78	49.650
740.09	49.301
740.41	47.902
740.72	51.825
741.04	50.397
741.35	48.052
741.66	46.759
741.98	45.714
742.29	57.746
742.61	49.733
742.92	58.879
743.23	49.561
743.55	54.054
743.86	54.222
744.18	51.905
744.49	54.680
744.80	54.822
745.12	56.701
745.43	52.764
745.74	55.825
746.06	52.195
746.37	47.577
746.68	56.219
747.00	59.162
747.31	48.558
747.62	56.221
747.94	51.528
748.25	51.628
748.56	50.952
748.88	49.457
749.19	50.235
749.50	58.333
749.82	50.667
750.13	56.828
750.44	49.187
750.75	53.600
751.07	53.214
751.38	46.494
751.69	45.420
752.01	50.769
752.32	49.416
752.63	47.692
752.94	49.603
753.26	54.348
753.57	54.018
753.88	46.983
754.19	46.473
754.51	50.000
754.82	52.569
755.13	51.440
755.44	46.694
755.75	53.909
756.07	49.398
756.38	46.484
756.69	52.708
757.00	49.826
757.31	51.007
757.63	54.517
757.94	49.711
758.25	47.384
758.56	47.170
758.87	47.159
759.18	48.667
759.50	49.822
759.81	44.891
760.12	48.986
760.43	50.162
760.74	52.187
761.05	44.944
761.36	49.401
761.67	42.899
761.99	47.097
762.30	48.551
762.61	49.057
762.92	52.466
763.23	48.815
763.54	46.222
763.85	48.523
764.16	43.265
764.47	49.576
764.78	49.064
765.10	48.561
765.41	46.452
765.72	47.799
766.03	45.936
766.34	45.865
766.65	48.583
766.96	42.500
767.27	47.396
767.58	48.837
767.89	36.129
768.20	50.920
768.51	48.634
768.82	52.973
769.13	47.500
769.44	51.754
769.75	47.619
770.06	50.917
770.37	43.662
770.68	52.083
770.99	49.505
771.30	49.029
771.61	46.759
771.92	46.753
772.23	46.262
772.54	47.872
772.85	47.929
773.16	52.439
773.47	47.590
773.78	50.000
774.09	50.000
774.39	51.235
774.70	42.282
775.01	47.101
775.32	47.015
775.63	47.107
775.94	55.639
776.25	41.429
776.56	54.918
776.87	53.982
777.18	46.903
777.48	47.273
777.79	50.435
778.10	48.624
778.41	44.915
778.72	43.802
779.03	48.507
779.34	44.361
779.65	56.209
779.95	40.580
780.26	42.177
780.57	43.966
780.88	44.444
781.19	43.434
781.50	45.600
781.80	44.444
782.11	42.308
782.42	43.976
782.73	41.606
783.04	35.811
783.34	55.303
783.65	49.612
783.96	44.715
784.27	56.410
784.57	39.837
784.88	30.081
785.19	50.877
785.50	32.990
785.81	43.810
786.11	42.157
786.42	33.636
786.73	47.748
787.04	36.634
787.34	48.571
787.65	50.476
787.96	48.039
788.26	44.144
788.57	51.613
788.88	42.188
789.19	46.154
789.49	39.496
789.80	38.462
790.11	42.478
790.41	39.394
790.72	52.830
791.03	31.944
791.33	46.053
791.64	38.710
791.95	36.000
792.25	38.571
792.56	43.902
792.87	39.796
793.17	40.789
793.48	33.784
793.79	28.169
794.09	43.038
794.40	40.426
794.70	49.533
795.01	26.316
795.32	47.273
795.62	39.286
795.93	48.454
796.23	38.462
796.54	42.105
796.85	43.836
797.15	22.222
797.46	52.055
797.76	32.394
798.07	36.250
798.37	33.824
798.68	55.714
798.99	42.857
799.29	27.632
799.60	66.667
799.90	34.722
800.21	18.750
800.51	46.032
800.82	29.508
801.12	42.105
801.43	35.211
801.73	25.424
802.04	44.262
802.34	20.000
802.65	46.154
802.95	61.111
803.26	32.500
803.56	30.769
803.87	47.368
804.17	43.548
804.48	43.077
804.78	33.333
805.09	32.558
805.39	59.375
805.70	16.981
806.00	61.404
806.30	31.081
806.61	30.882
806.91	30.864
807.22	44.000
807.52	41.791
807.83	43.548
808.13	34.921
808.43	29.091
808.74	33.333
809.04	39.623
809.35	32.877
809.65	45.614
809.95	39.706
810.26	33.333
810.56	28.000
810.86	40.816
811.17	40.000
811.47	30.769
811.77	32.258
812.08	-7.895
812.38	45.238
812.69	45.652
812.99	29.032
813.29	7.143
813.59	-29.630
813.90	34.043
814.20	18.605
814.50	45.833
814.81	31.667
815.11	36.585
815.41	30.000
815.72	57.143
816.02	13.889
816.32	58.974
816.62	13.514
816.93	-5.882
817.23	30.435
817.53	32.353
817.84	29.412
818.14	28.125
818.44	-17.241
818.74	6.452
819.04	40.741
819.35	3.333
819.65	16.000
819.95	40.000
820.25	-4.000
820.56	2.632
820.86	37.500
821.16	17.021
821.46	29.310
821.76	48.718
822.07	0.000
822.37	27.907
822.67	16.667
822.97	5.405
823.27	5.405
823.57	68.000
823.88	27.027
824.18	9.524
824.48	19.231
824.78	-107.692
825.08	65.217
825.38	-8.333
825.69	25.000
825.99	0.000
826.29	5.405
826.59	32.353
826.89	80.000
827.19	20.000
827.49	26.316
827.79	-12.500
828.09	20.000
828.39	43.478
828.70	-6.897
829.00	-6.897
829.30	5.556
829.60	59.375
829.90	50.000
830.20	-19.231
830.50	-33.333
830.80	7.143
831.10	20.513
831.40	28.571
831.70	-2.941
832.00	33.333
832.30	26.316
832.60	25.000
832.90	-16.667
833.20	-70.588
833.50	13.333
833.80	-26.667
834.10	10.000
834.40	-4.167
834.70	-27.778
835.00	34.615
835.30	0.000
835.60	20.690
835.90	-44.444
836.20	-136.364
836.50	-41.667
836.80	-8.571
837.10	57.143
837.40	-29.412
837.70	-136.364
838.00	-12.500
838.30	25.000
838.60	33.333
838.90	-10.000
839.19	21.739
839.49	13.043
839.79	0.000
840.09	-47.826
840.39	-4.545
840.69	-31.250
840.99	10.526
841.29	-31.250
841.59	0.000
841.88	-44.444
842.18	-29.167
842.48	-47.059
842.78	0.000
843.08	-7.143
843.38	-69.231
843.68	-111.111
843.97	-153.846
844.27	-36.364
844.57	-140.000
844.87	32.000
845.17	-200.000
845.47	-7.143
845.76	-11.111
846.06	0.000
846.36	-300.000
846.66	-80.000
846.96	-63.158
847.25	-12.500
847.55	-83.333
847.85	-40.000
848.15	-50.000
848.44	38.462
848.74	21.053
849.04	533.333
849.34	-122.222
849.63	10.526
849.93	0.000
850.23	-90.000
850.53	-23.810
850.82	12.000
851.12	-52.632
851.42	-250.000
851.71	35.714
852.01	-8.333
852.31	-17.647
852.61	-53.333
852.90	-38.095
853.20	-66.667
853.50	-83.333
853.79	-36.842
854.09	0.000
854.39	-7.143
854.68	34.783
854.98	-100.000
855.28	-24.138
855.57	-25.000
855.87	-20.000
856.17	-33.333
856.46	-13.793
856.76	-60.000
857.05	-64.706
857.35	-46.154
857.65	-90.909
857.94	-7.407
858.24	-28.571
858.53	-85.714
858.83	-58.333
859.13	-211.111
859.42	28.571
859.72	12.500
860.01	-566.667
860.31	-100.000
860.60	-360.000
860.90	-133.333
861.20	-187.500
861.49	-314.286
861.79	-5.882
862.08	-700.000
862.38	-150.000
862.67	-53.846
862.97	-82.353
863.26	50.000
863.56	-29.412
863.85	533.333
864.15	-180.000
864.44	-84.615
864.74	-15.000
865.03	-175.000
865.33	-233.333
865.62	-11.765
865.92	-525.000
866.21	14.286
866.51	-108.333
866.80	-1000.000
867.10	-166.667
867.39	23.529
867.69	-13.043
867.98	-200.000
868.27	-520.000
868.57	-81.250
868.86	-81.818
869.16	-5.882
869.45	-33.333
869.75	-142.857
870.04	1900.000
870.33	-16.667
870.63	-40.000
870.92	-55.556
871.22	-25.000
871.51	-63.636
871.80	108.333
872.10	-30.000
>>>>>End Processed Spectral Data<<<<<
