SpectraSuite Data File
++++++++++++++++++++++++++++++++++++
Date: Sat May 16 11:42:07 PDT 2015
User: schluterlab
Dark Spectrum Present: Yes
Reference Spectrum Present: Yes
Number of Sampled Component Spectra: 1
Spectrometers: USB2E3373
Integration Time (usec): 3000 (USB2E3373)
Spectra Averaged: 3 (USB2E3373)
Boxcar Smoothing: 0 (USB2E3373)
Correct for Electrical Dark: No (USB2E3373)
Strobe/Lamp Enabled: No (USB2E3373)
Correct for Detector Non-linearity: No (USB2E3373)
Correct for Stray Light: No (USB2E3373)
Number of Pixels in Processed Spectrum: 2048
>>>>>Begin Processed Spectral Data<<<<<
178.53	0.000
178.91	53.333
179.29	533.333
179.67	-1200.000
180.04	-100.000
180.42	1200.000
180.80	225.000
181.18	400.000
181.56	-237.500
181.94	900.000
182.31	650.000
182.69	-46.154
183.07	-433.333
183.45	1600.000
183.83	700.000
184.20	-257.143
184.58	-112.500
184.96	-550.000
185.34	118.750
185.72	-575.000
186.09	50.000
186.47	-237.500
186.85	-262.500
187.23	25.000
187.61	-400.000
187.98	-287.500
188.36	-262.500
188.74	-162.500
189.12	2400.000
189.49	400.000
189.87	-83.333
190.25	475.000
190.63	-64.286
191.00	-244.444
191.38	560.000
191.76	-33.333
192.14	540.000
192.51	-200.000
192.89	-466.667
193.27	0.000
193.65	-144.444
194.02	-228.571
194.40	533.333
194.78	-90.000
195.15	-1600.000
195.53	-127.273
195.91	-300.000
196.29	260.000
196.66	-366.667
197.04	1500.000
197.42	-250.000
197.79	-60.000
198.17	-466.667
198.55	-800.000
198.92	-200.000
199.30	225.000
199.68	-750.000
200.05	44.444
200.43	-211.111
200.81	-1800.000
201.18	-100.000
201.56	357.143
201.94	-80.000
202.31	-45.455
202.69	-50.000
203.07	-100.000
203.44	566.667
203.82	-416.667
204.19	-500.000
204.57	-325.000
204.95	-1400.000
205.32	-43.750
205.70	1000.000
206.08	-2800.000
206.45	-88.889
206.83	-900.000
207.20	-650.000
207.58	-733.333
207.96	-200.000
208.33	-225.000
208.71	-133.333
209.08	150.000
209.46	-157.143
209.84	350.000
210.21	0.000
210.59	40.000
210.96	1900.000
211.34	-266.667
211.71	-233.333
212.09	375.000
212.46	1050.000
212.84	-1900.000
213.22	866.667
213.59	158.333
213.97	-77.778
214.34	140.000
214.72	-80.000
215.09	-300.000
215.47	-316.667
215.84	-190.000
216.22	-110.000
216.59	-6.667
216.97	-450.000
217.34	900.000
217.72	-85.714
218.09	-200.000
218.47	-314.286
218.84	228.571
219.22	-157.143
219.59	0.000
219.97	228.571
220.34	400.000
220.72	275.000
221.09	-38.462
221.47	0.000
221.84	366.667
222.22	-450.000
222.59	1600.000
222.97	-262.500
223.34	-850.000
223.72	-500.000
224.09	-64.286
224.46	-325.000
224.84	-7.143
225.21	-242.857
225.59	-154.545
225.96	-150.000
226.34	-200.000
226.71	-111.111
227.08	-30.000
227.46	1400.000
227.83	-242.857
228.21	-87.500
228.58	200.000
228.95	-37.500
229.33	-2500.000
229.70	-280.000
230.08	-1250.000
230.45	-91.667
230.82	-350.000
231.20	-1500.000
231.57	-800.000
231.95	1900.000
232.32	4.762
232.69	-200.000
233.07	-114.286
233.44	-300.000
233.81	-100.000
234.19	-200.000
234.56	-81.250
234.93	-21.875
235.31	-285.714
235.68	-114.286
236.05	-76.471
236.43	-54.545
236.80	-22.581
237.17	-37.500
237.55	-42.857
237.92	-81.818
238.29	0.000
238.67	14.706
239.04	5.556
239.41	-22.581
239.79	-43.590
240.16	-35.714
240.53	-18.182
240.91	-2.564
241.28	0.000
241.65	20.000
242.02	8.197
242.40	-3.279
242.77	4.545
243.14	11.864
243.51	-5.714
243.89	3.797
244.26	2.247
244.63	21.053
245.00	6.316
245.38	11.017
245.75	12.389
246.12	7.200
246.49	5.512
246.87	2.439
247.24	12.712
247.61	-1.695
247.98	8.451
248.36	13.986
248.73	6.329
249.10	6.369
249.47	9.357
249.84	17.045
250.22	2.976
250.59	16.384
250.96	14.136
251.33	19.905
251.70	12.500
252.08	11.848
252.45	12.322
252.82	7.143
253.19	13.191
253.56	14.113
253.94	9.283
254.31	13.305
254.68	15.447
255.05	14.919
255.42	17.460
255.79	12.186
256.16	15.686
256.54	14.338
256.91	16.667
257.28	12.821
257.65	12.766
258.02	17.296
258.39	13.043
258.76	10.473
259.14	18.827
259.51	17.377
259.88	16.768
260.25	17.081
260.62	13.505
260.99	11.869
261.36	15.854
261.73	17.052
262.10	15.833
262.47	15.100
262.85	16.571
263.22	13.754
263.59	14.462
263.96	15.072
264.33	17.615
264.70	16.851
265.07	16.209
265.44	14.470
265.81	16.279
266.18	14.430
266.55	12.990
266.92	14.106
267.29	12.107
267.66	16.049
268.03	19.324
268.40	15.493
268.77	18.313
269.14	15.777
269.51	17.241
269.88	13.761
270.25	15.152
270.62	16.705
270.99	15.541
271.36	16.550
271.73	14.126
272.10	14.874
272.47	13.333
272.84	16.889
273.21	16.743
273.58	16.264
273.95	13.158
274.32	13.575
274.69	18.162
275.06	18.405
275.43	13.616
275.80	15.479
276.17	15.481
276.54	17.312
276.91	15.844
277.28	15.619
277.65	14.463
278.02	15.658
278.39	14.931
278.76	16.335
279.13	16.403
279.50	16.103
279.87	18.182
280.23	16.599
280.60	18.091
280.97	14.563
281.34	16.248
281.71	17.500
282.08	17.137
282.45	14.257
282.82	13.566
283.19	16.182
283.56	18.315
283.92	16.784
284.29	15.428
284.66	14.748
285.03	15.508
285.40	16.236
285.77	17.018
286.14	13.177
286.51	14.210
286.87	13.612
287.24	16.041
287.61	14.876
287.98	13.172
288.35	13.388
288.72	15.959
289.08	15.424
289.45	16.330
289.82	13.841
290.19	14.286
290.56	12.893
290.93	13.514
291.29	12.966
291.66	12.560
292.03	15.542
292.40	12.801
292.77	14.286
293.13	11.870
293.50	14.264
293.87	14.724
294.24	12.670
294.60	12.576
294.97	12.595
295.34	13.037
295.71	13.244
296.08	10.445
296.44	11.874
296.81	13.675
297.18	14.366
297.55	12.712
297.91	14.505
298.28	13.014
298.65	12.134
299.02	13.904
299.38	10.695
299.75	11.549
300.12	13.462
300.48	12.404
300.85	10.878
301.22	11.384
301.59	11.964
301.95	13.476
302.32	10.169
302.69	12.362
303.05	11.477
303.42	10.375
303.79	10.885
304.15	13.389
304.52	10.385
304.89	11.924
305.25	11.355
305.62	9.988
305.99	14.370
306.35	11.765
306.72	10.592
307.09	12.940
307.45	11.124
307.82	9.944
308.19	11.074
308.55	10.675
308.92	9.882
309.29	9.838
309.65	12.195
310.02	11.879
310.38	9.946
310.75	10.861
311.12	11.880
311.48	11.273
311.85	10.814
312.22	10.711
312.58	11.699
312.95	10.092
313.31	11.489
313.68	12.261
314.05	12.265
314.41	10.161
314.78	10.290
315.14	11.155
315.51	10.334
315.87	10.939
316.24	10.982
316.61	10.940
316.97	10.945
317.34	10.212
317.70	11.132
318.07	11.847
318.43	9.925
318.80	12.864
319.16	10.882
319.53	9.586
319.89	11.101
320.26	10.882
320.62	10.385
320.99	10.547
321.35	10.542
321.72	10.542
322.08	11.177
322.45	9.406
322.81	12.392
323.18	10.951
323.54	10.351
323.91	10.658
324.27	11.027
324.64	11.243
325.00	10.471
325.37	11.674
325.73	12.861
326.10	9.655
326.46	10.771
326.83	10.638
327.19	11.760
327.56	10.988
327.92	10.960
328.29	11.342
328.65	10.818
329.01	10.866
329.38	11.864
329.74	11.813
330.11	11.333
330.47	10.627
330.84	12.099
331.20	10.650
331.56	9.936
331.93	10.124
332.29	11.416
332.66	11.238
333.02	11.765
333.38	11.380
333.75	10.686
334.11	10.311
334.48	10.503
334.84	12.073
335.20	10.284
335.57	11.823
335.93	11.012
336.29	10.629
336.66	10.308
337.02	10.811
337.38	10.339
337.75	10.975
338.11	10.465
338.47	10.854
338.84	10.163
339.20	11.072
339.56	12.567
339.93	10.847
340.29	9.832
340.65	11.276
341.02	11.046
341.38	10.447
341.74	10.754
342.11	10.580
342.47	10.815
342.83	10.495
343.20	10.418
343.56	9.306
343.92	11.352
344.28	11.018
344.65	10.066
345.01	10.504
345.37	10.880
345.73	10.229
346.10	9.240
346.46	10.317
346.82	10.666
347.19	10.025
347.55	10.835
347.91	11.260
348.27	9.785
348.63	10.743
349.00	10.660
349.36	9.524
349.72	10.908
350.08	10.104
350.45	9.929
350.81	10.510
351.17	10.048
351.53	10.501
351.89	9.782
352.26	10.233
352.62	11.598
352.98	10.522
353.34	9.832
353.70	9.961
354.07	10.386
354.43	9.802
354.79	11.331
355.15	9.904
355.51	9.609
355.87	9.328
356.24	9.770
356.60	10.878
356.96	10.624
357.32	10.372
357.68	10.421
358.04	9.315
358.40	9.667
358.77	9.583
359.13	10.635
359.49	9.524
359.85	9.299
360.21	9.437
360.57	10.241
360.93	10.074
361.29	9.865
361.66	10.290
362.02	9.615
362.38	10.345
362.74	9.744
363.10	9.397
363.46	10.328
363.82	9.329
364.18	9.479
364.54	11.580
364.90	9.923
365.26	9.201
365.62	10.620
365.98	9.957
366.35	10.563
366.71	10.218
367.07	10.021
367.43	10.844
367.79	9.966
368.15	9.246
368.51	10.140
368.87	10.852
369.23	10.386
369.59	10.000
369.95	10.430
370.31	11.463
370.67	9.328
371.03	9.475
371.39	9.477
371.75	10.086
372.11	9.900
372.47	9.761
372.83	10.223
373.19	10.071
373.55	9.923
373.91	10.526
374.27	9.788
374.63	9.731
374.99	9.875
375.35	9.892
375.71	11.074
376.07	10.198
376.42	9.404
376.78	10.654
377.14	9.763
377.50	9.800
377.86	9.428
378.22	9.799
378.58	10.500
378.94	9.988
379.30	10.542
379.66	10.383
380.02	9.804
380.38	9.970
380.74	9.965
381.09	11.013
381.45	10.680
381.81	10.163
382.17	10.150
382.53	9.179
382.89	9.569
383.25	9.994
383.61	9.906
383.97	10.227
384.32	10.325
384.68	10.520
385.04	9.903
385.40	10.043
385.76	10.854
386.12	9.557
386.48	10.272
386.83	10.675
387.19	10.460
387.55	10.176
387.91	9.188
388.27	9.409
388.62	10.096
388.98	10.357
389.34	9.241
389.70	10.231
390.06	10.193
390.42	10.064
390.77	9.401
391.13	10.497
391.49	10.356
391.85	9.850
392.20	9.648
392.56	9.407
392.92	10.325
393.28	10.620
393.64	9.441
393.99	10.523
394.35	10.036
394.71	9.203
395.07	10.232
395.42	8.880
395.78	9.114
396.14	10.717
396.50	10.459
396.85	10.302
397.21	9.964
397.57	10.152
397.92	10.422
398.28	11.333
398.64	10.410
399.00	11.067
399.35	10.428
399.71	10.859
400.07	10.149
400.42	10.645
400.78	10.316
401.14	9.940
401.49	10.142
401.85	9.396
402.21	10.250
402.57	10.922
402.92	10.699
403.28	10.294
403.63	9.047
403.99	10.566
404.35	9.360
404.70	10.415
405.06	10.611
405.42	10.025
405.77	9.502
406.13	10.278
406.49	10.485
406.84	9.718
407.20	10.130
407.55	10.386
407.91	9.585
408.27	10.784
408.62	10.343
408.98	10.006
409.34	10.116
409.69	10.460
410.05	10.612
410.40	10.484
410.76	10.729
411.11	10.287
411.47	10.358
411.83	10.575
412.18	10.272
412.54	10.189
412.89	10.936
413.25	9.622
413.60	10.085
413.96	9.427
414.31	10.459
414.67	10.667
415.03	10.220
415.38	10.540
415.74	10.245
416.09	10.997
416.45	9.458
416.80	10.533
417.16	9.302
417.51	11.556
417.87	9.968
418.22	10.114
418.58	10.141
418.93	11.343
419.29	10.163
419.64	9.548
420.00	10.085
420.35	10.822
420.71	10.264
421.06	10.355
421.42	10.187
421.77	10.832
422.12	10.129
422.48	10.583
422.83	11.617
423.19	9.688
423.54	9.971
423.90	9.427
424.25	10.124
424.61	10.434
424.96	10.884
425.31	10.620
425.67	9.971
426.02	9.983
426.38	11.010
426.73	10.403
427.09	10.784
427.44	10.852
427.79	9.419
428.15	11.490
428.50	10.968
428.85	10.731
429.21	9.961
429.56	10.625
429.92	10.721
430.27	10.668
430.62	11.024
430.98	10.037
431.33	11.099
431.68	10.885
432.04	10.856
432.39	10.598
432.74	11.091
433.10	10.186
433.45	10.363
433.80	10.694
434.16	11.069
434.51	10.630
434.86	11.072
435.22	11.192
435.57	10.282
435.92	10.492
436.28	11.039
436.63	10.458
436.98	10.195
437.34	10.632
437.69	10.327
438.04	10.323
438.39	10.529
438.75	10.070
439.10	10.439
439.45	10.199
439.81	11.506
440.16	9.256
440.51	11.059
440.86	10.873
441.22	10.061
441.57	10.053
441.92	10.128
442.27	10.390
442.63	10.354
442.98	9.989
443.33	10.049
443.68	10.318
444.03	10.363
444.39	10.328
444.74	11.344
445.09	10.197
445.44	11.255
445.79	10.505
446.15	10.679
446.50	10.071
446.85	10.723
447.20	10.725
447.55	10.110
447.91	10.837
448.26	10.056
448.61	10.413
448.96	10.868
449.31	9.977
449.66	11.334
450.02	10.083
450.37	9.739
450.72	9.944
451.07	10.434
451.42	10.347
451.77	10.952
452.12	10.608
452.47	10.579
452.83	10.076
453.18	11.322
453.53	10.572
453.88	10.825
454.23	9.129
454.58	11.311
454.93	11.209
455.28	10.325
455.63	10.934
455.98	11.386
456.34	9.085
456.69	10.694
457.04	10.018
457.39	9.868
457.74	10.514
458.09	11.369
458.44	10.681
458.79	10.426
459.14	10.839
459.49	10.894
459.84	11.017
460.19	10.263
460.54	10.768
460.89	10.482
461.24	10.686
461.59	10.551
461.94	9.739
462.29	11.138
462.64	10.870
462.99	10.509
463.34	9.926
463.69	10.687
464.04	10.076
464.39	10.633
464.74	10.638
465.09	10.523
465.44	10.378
465.79	11.562
466.14	11.450
466.49	10.708
466.84	10.804
467.19	11.097
467.54	9.620
467.89	10.974
468.24	10.926
468.59	9.994
468.94	10.418
469.29	9.942
469.64	11.051
469.99	11.006
470.34	10.621
470.68	11.119
471.03	11.493
471.38	9.931
471.73	11.538
472.08	10.509
472.43	9.974
472.78	10.933
473.13	9.940
473.48	11.359
473.83	10.608
474.17	10.892
474.52	12.212
474.87	10.956
475.22	10.147
475.57	10.500
475.92	10.907
476.27	10.400
476.61	10.817
476.96	10.117
477.31	10.549
477.66	9.906
478.01	11.561
478.36	11.262
478.70	10.838
479.05	10.763
479.40	10.881
479.75	10.449
480.10	10.913
480.45	10.106
480.79	10.711
481.14	11.189
481.49	11.229
481.84	10.772
482.19	11.101
482.53	10.890
482.88	10.394
483.23	11.455
483.58	11.471
483.92	10.846
484.27	10.146
484.62	10.972
484.97	10.951
485.31	10.368
485.66	10.248
486.01	10.717
486.36	10.901
486.70	11.052
487.05	10.533
487.40	10.951
487.75	10.696
488.09	10.315
488.44	10.352
488.79	10.718
489.13	10.080
489.48	11.542
489.83	11.004
490.17	11.145
490.52	10.960
490.87	10.531
491.22	10.509
491.56	11.204
491.91	10.735
492.26	11.038
492.60	10.799
492.95	10.709
493.30	11.291
493.64	10.202
493.99	10.994
494.34	10.524
494.68	11.376
495.03	11.424
495.37	10.226
495.72	11.444
496.07	11.591
496.41	11.116
496.76	11.279
497.11	10.881
497.45	11.638
497.80	9.955
498.14	11.198
498.49	10.347
498.84	10.777
499.18	11.257
499.53	10.716
499.87	10.425
500.22	11.127
500.56	10.855
500.91	10.690
501.26	11.014
501.60	10.833
501.95	11.449
502.29	11.053
502.64	11.551
502.98	10.398
503.33	10.949
503.67	10.680
504.02	10.768
504.36	10.931
504.71	10.334
505.06	10.984
505.40	11.028
505.75	10.671
506.09	11.021
506.44	11.429
506.78	11.189
507.13	10.556
507.47	11.476
507.82	10.842
508.16	11.140
508.51	11.386
508.85	10.197
509.19	10.780
509.54	10.729
509.88	11.649
510.23	10.901
510.57	11.376
510.92	11.063
511.26	10.898
511.61	10.799
511.95	11.261
512.30	10.720
512.64	10.796
512.98	11.771
513.33	11.532
513.67	10.944
514.02	11.074
514.36	11.856
514.70	10.809
515.05	12.007
515.39	11.303
515.74	11.751
516.08	11.527
516.42	10.822
516.77	10.283
517.11	11.270
517.46	11.603
517.80	11.191
518.14	10.447
518.49	10.819
518.83	11.454
519.17	11.901
519.52	10.758
519.86	11.410
520.20	11.308
520.55	10.954
520.89	10.895
521.23	11.722
521.58	11.223
521.92	11.970
522.26	11.873
522.61	10.963
522.95	10.657
523.29	11.285
523.64	11.181
523.98	11.012
524.32	11.314
524.66	10.745
525.01	10.340
525.35	11.405
525.69	11.126
526.04	10.901
526.38	11.840
526.72	11.175
527.06	11.914
527.41	11.617
527.75	11.089
528.09	10.986
528.43	12.262
528.78	11.118
529.12	11.716
529.46	11.727
529.80	11.298
530.15	12.428
530.49	11.708
530.83	12.377
531.17	10.909
531.51	11.052
531.86	11.587
532.20	11.876
532.54	12.233
532.88	11.528
533.22	10.963
533.57	12.859
533.91	10.612
534.25	11.754
534.59	10.931
534.93	11.325
535.27	11.454
535.62	12.340
535.96	12.088
536.30	11.715
536.64	11.155
536.98	11.017
537.32	11.679
537.66	11.134
538.01	11.271
538.35	11.757
538.69	11.230
539.03	11.578
539.37	11.843
539.71	11.674
540.05	11.583
540.39	11.842
540.73	11.403
541.07	12.227
541.42	11.479
541.76	10.233
542.10	12.829
542.44	11.992
542.78	12.144
543.12	11.677
543.46	11.233
543.80	11.371
544.14	12.021
544.48	12.205
544.82	11.502
545.16	11.804
545.50	11.844
545.84	11.335
546.18	12.205
546.52	11.949
546.86	11.538
547.20	13.150
547.54	11.226
547.88	11.745
548.22	11.206
548.56	11.222
548.90	11.186
549.24	11.773
549.58	11.574
549.92	11.590
550.26	12.572
550.60	12.020
550.94	12.482
551.28	11.437
551.62	10.561
551.96	12.590
552.30	11.847
552.64	12.386
552.98	12.334
553.32	11.688
553.66	12.401
554.00	11.656
554.34	11.264
554.68	11.257
555.02	12.446
555.36	11.646
555.69	11.605
556.03	12.281
556.37	11.949
556.71	11.811
557.05	12.269
557.39	11.730
557.73	13.275
558.07	10.852
558.41	11.369
558.75	11.863
559.08	10.428
559.42	12.481
559.76	11.273
560.10	12.379
560.44	12.428
560.78	11.552
561.12	11.801
561.45	11.712
561.79	11.638
562.13	10.659
562.47	12.185
562.81	12.023
563.15	11.896
563.48	11.472
563.82	11.968
564.16	11.224
564.50	11.492
564.84	12.169
565.17	11.737
565.51	13.168
565.85	12.441
566.19	11.924
566.52	11.546
566.86	11.947
567.20	12.530
567.54	12.463
567.88	11.893
568.21	12.360
568.55	12.089
568.89	12.127
569.23	12.124
569.56	11.938
569.90	11.762
570.24	12.552
570.57	11.775
570.91	11.935
571.25	12.678
571.59	11.708
571.92	12.083
572.26	12.463
572.60	11.325
572.93	11.552
573.27	11.585
573.61	11.615
573.95	11.762
574.28	11.963
574.62	11.973
574.96	11.815
575.29	11.839
575.63	11.866
575.97	11.408
576.30	12.031
576.64	12.037
576.98	11.894
577.31	11.752
577.65	12.123
577.98	12.124
578.32	11.240
578.66	11.762
578.99	12.061
579.33	12.133
579.67	11.869
580.00	11.731
580.34	12.011
580.67	11.939
581.01	11.609
581.35	11.803
581.68	11.565
582.02	11.768
582.35	11.804
582.69	12.055
583.02	11.892
583.36	11.964
583.70	11.777
584.03	12.069
584.37	11.231
584.70	11.314
585.04	11.418
585.37	11.718
585.71	12.385
586.04	11.905
586.38	11.387
586.72	12.148
587.05	12.008
587.39	12.101
587.72	11.787
588.06	11.884
588.39	11.934
588.73	12.432
589.06	12.148
589.40	12.436
589.73	11.898
590.07	11.945
590.40	12.177
590.73	11.675
591.07	12.049
591.40	12.088
591.74	12.033
592.07	11.892
592.41	12.484
592.74	11.952
593.08	12.496
593.41	11.974
593.75	11.771
594.08	11.826
594.41	12.569
594.75	12.911
595.08	11.992
595.42	12.247
595.75	11.466
596.09	11.758
596.42	12.070
596.75	12.290
597.09	12.556
597.42	12.003
597.75	11.603
598.09	12.065
598.42	11.489
598.76	11.379
599.09	12.076
599.42	12.072
599.76	12.382
600.09	12.023
600.42	12.077
600.76	11.751
601.09	11.964
601.42	11.911
601.76	12.539
602.09	12.556
602.42	12.222
602.76	11.591
603.09	11.976
603.42	12.168
603.76	12.126
604.09	12.655
604.42	11.782
604.76	11.557
605.09	12.116
605.42	12.456
605.75	11.859
606.09	12.827
606.42	11.563
606.75	12.452
607.09	12.395
607.42	12.016
607.75	12.097
608.08	12.291
608.42	12.394
608.75	11.542
609.08	11.836
609.41	11.659
609.75	11.555
610.08	12.206
610.41	12.048
610.74	12.911
611.07	12.170
611.41	11.901
611.74	12.699
612.07	13.050
612.40	12.047
612.73	12.870
613.07	11.502
613.40	12.863
613.73	12.480
614.06	12.740
614.39	12.852
614.72	11.899
615.06	11.848
615.39	11.612
615.72	12.439
616.05	11.651
616.38	11.608
616.71	11.832
617.05	12.545
617.38	12.570
617.71	11.916
618.04	11.925
618.37	11.698
618.70	13.299
619.03	12.999
619.36	12.121
619.69	12.563
620.03	12.810
620.36	11.814
620.69	12.563
621.02	11.796
621.35	12.177
621.68	11.721
622.01	12.298
622.34	11.801
622.67	12.031
623.00	12.701
623.33	12.910
623.66	11.817
623.99	12.857
624.32	12.128
624.65	12.141
624.99	11.800
625.32	12.126
625.65	11.810
625.98	11.972
626.31	12.724
626.64	10.962
626.97	11.815
627.30	13.106
627.63	11.572
627.96	12.359
628.29	11.765
628.62	11.652
628.95	11.614
629.28	12.312
629.61	11.678
629.94	11.720
630.26	12.724
630.59	12.864
630.92	11.512
631.25	13.306
631.58	12.063
631.91	10.851
632.24	12.222
632.57	11.556
632.90	12.184
633.23	12.617
633.56	10.877
633.89	11.439
634.22	10.390
634.55	10.457
634.88	14.631
635.20	11.610
635.53	12.087
635.86	12.091
636.19	10.623
636.52	11.828
636.85	12.274
637.18	10.250
637.51	14.002
637.83	10.519
638.16	12.500
638.49	8.966
638.82	10.811
639.15	12.970
639.48	11.933
639.81	12.725
640.13	12.703
640.46	10.826
640.79	12.605
641.12	12.130
641.45	12.769
641.77	9.731
642.10	10.876
642.43	12.140
642.76	11.181
643.09	11.111
643.41	11.429
643.74	11.765
644.07	13.105
644.40	12.480
644.73	12.046
645.05	11.185
645.38	10.927
645.71	13.402
646.04	12.605
646.36	10.995
646.69	13.668
647.02	13.177
647.35	13.538
647.67	11.496
648.00	11.424
648.33	14.165
648.66	10.484
648.98	12.420
649.31	13.231
649.64	13.125
649.96	10.989
650.29	10.820
650.62	12.565
650.94	11.467
651.27	12.478
651.60	10.208
651.92	14.555
652.25	12.354
652.58	11.755
652.90	12.039
653.23	11.935
653.56	11.204
653.88	12.131
654.21	13.423
654.54	12.625
654.86	13.483
655.19	12.034
655.52	12.472
655.84	12.556
656.17	14.231
656.49	19.221
656.82	19.363
657.15	14.225
657.47	10.419
657.80	8.117
658.13	9.125
658.45	11.995
658.78	11.152
659.10	10.959
659.43	10.502
659.75	10.425
660.08	11.198
660.41	11.030
660.73	10.451
661.06	12.174
661.38	10.893
661.71	11.663
662.03	13.105
662.36	10.021
662.68	10.759
663.01	11.465
663.33	12.925
663.66	11.803
663.98	8.036
664.31	12.081
664.63	13.496
664.96	11.280
665.28	12.364
665.61	11.416
665.93	12.963
666.26	13.158
666.58	12.058
666.91	13.140
667.23	11.623
667.56	10.431
667.88	14.027
668.21	13.134
668.53	10.514
668.86	12.471
669.18	11.416
669.50	10.280
669.83	10.462
670.15	12.332
670.48	9.813
670.80	8.656
671.13	9.707
671.45	8.784
671.77	12.848
672.10	12.229
672.42	14.207
672.75	11.818
673.07	8.468
673.39	12.568
673.72	12.598
674.04	8.705
674.37	11.134
674.69	12.910
675.01	9.574
675.34	11.497
675.66	12.959
675.98	11.013
676.31	12.670
676.63	11.724
676.95	9.956
677.28	12.297
677.60	14.027
677.92	14.537
678.25	12.910
678.57	9.671
678.89	10.901
679.22	12.159
679.54	13.807
679.86	9.400
680.18	11.027
680.51	9.311
680.83	9.905
681.15	10.983
681.48	12.170
681.80	11.290
682.12	10.262
682.44	11.198
682.77	10.390
683.09	10.901
683.41	11.726
683.73	10.274
684.06	11.613
684.38	14.435
684.70	9.877
685.02	9.055
685.34	9.162
685.67	10.795
685.99	8.885
686.31	10.952
686.63	10.993
686.96	8.503
687.28	10.212
687.60	11.133
687.92	7.782
688.24	10.827
688.56	9.419
688.89	9.615
689.21	12.910
689.53	11.954
689.85	13.586
690.17	10.762
690.49	11.778
690.82	10.361
691.14	9.434
691.46	11.086
691.78	14.317
692.10	10.805
692.42	8.000
692.74	11.159
693.06	10.337
693.39	9.396
693.71	9.029
694.03	12.311
694.35	10.835
694.67	7.329
694.99	8.951
695.31	13.265
695.63	8.673
695.95	11.166
696.27	10.723
696.59	10.963
696.91	7.303
697.23	9.896
697.56	9.375
697.88	9.685
698.20	9.850
698.52	10.538
698.84	10.680
699.16	11.190
699.48	8.750
699.80	11.278
700.12	14.358
700.44	7.263
700.76	6.414
701.08	14.535
701.40	6.647
701.72	10.185
702.04	12.179
702.36	10.843
702.68	5.389
703.00	8.406
703.32	5.444
703.64	10.294
703.96	8.721
704.28	7.988
704.60	6.962
704.91	7.619
705.23	9.061
705.55	5.068
705.87	11.945
706.19	8.333
706.51	9.028
706.83	13.443
707.15	11.146
707.47	10.193
707.79	13.144
708.11	6.870
708.43	12.718
708.74	6.753
709.06	6.964
709.38	7.184
709.70	9.687
710.02	11.350
710.34	11.551
710.66	4.762
710.98	6.940
711.29	6.452
711.61	7.987
711.93	6.557
712.25	11.960
712.57	6.620
712.89	11.151
713.20	10.997
713.52	10.448
713.84	9.253
714.16	9.836
714.48	8.889
714.80	8.308
715.11	8.934
715.43	12.048
715.75	11.526
716.07	8.525
716.39	11.371
716.70	9.408
717.02	14.074
717.34	9.542
717.66	9.129
717.97	7.377
718.29	4.622
718.61	10.714
718.93	9.677
719.24	4.412
719.56	6.792
719.88	7.636
720.20	8.614
720.51	10.526
720.83	8.835
721.15	4.098
721.46	10.196
721.78	4.981
722.10	14.800
722.42	6.612
722.73	7.968
723.05	6.827
723.37	11.373
723.68	6.883
724.00	9.756
724.32	7.819
724.63	7.469
724.95	13.636
725.27	8.772
725.58	9.052
725.90	6.746
726.22	11.439
726.53	9.125
726.85	3.922
727.16	8.647
727.48	7.308
727.80	6.148
728.11	5.042
728.43	11.983
728.74	12.109
729.06	10.985
729.38	6.226
729.69	8.268
730.01	7.480
730.32	3.586
730.64	16.484
730.96	10.821
731.27	7.500
731.59	9.968
731.90	7.975
732.22	7.362
732.53	12.583
732.85	7.383
733.16	10.145
733.48	10.453
733.80	11.744
734.11	9.655
734.43	10.884
734.74	9.792
735.06	7.210
735.37	8.869
735.69	7.419
736.00	6.734
736.32	10.927
736.63	3.448
736.95	7.971
737.26	10.927
737.58	8.993
737.89	12.545
738.21	4.511
738.52	10.000
738.83	12.891
739.15	6.838
739.46	6.048
739.78	8.392
740.09	5.245
740.41	5.944
740.72	12.409
741.04	3.968
741.35	5.628
741.66	9.259
741.98	5.714
742.29	14.085
742.61	5.882
742.92	13.084
743.23	9.649
743.55	11.261
743.86	16.000
744.18	8.571
744.49	13.300
744.80	8.122
745.12	5.155
745.43	10.050
745.74	4.854
746.06	3.415
746.37	11.013
746.68	11.940
747.00	15.707
747.31	1.923
747.62	7.373
747.94	5.677
748.25	10.233
748.56	6.190
748.88	2.174
749.19	6.103
749.50	7.843
749.82	9.333
750.13	10.132
750.44	10.163
750.75	8.000
751.07	10.000
751.38	9.594
751.69	8.015
752.01	9.231
752.32	5.447
752.63	6.538
752.94	5.556
753.26	9.565
753.57	12.946
753.88	8.190
754.19	5.394
754.51	3.125
754.82	7.510
755.13	9.877
755.44	7.438
755.75	7.407
756.07	0.803
756.38	1.172
756.69	9.386
757.00	7.666
757.31	11.074
757.63	8.723
757.94	11.272
758.25	7.267
758.56	10.782
758.87	8.807
759.18	3.667
759.50	8.541
759.81	8.029
760.12	5.743
760.43	7.767
760.74	12.812
761.05	7.865
761.36	8.982
761.67	8.580
761.99	6.774
762.30	12.319
762.61	9.434
762.92	8.969
763.23	10.427
763.54	7.111
763.85	12.658
764.16	5.714
764.47	9.746
764.78	8.989
765.10	8.993
765.41	7.097
765.72	6.918
766.03	6.714
766.34	6.391
766.65	10.931
766.96	4.500
767.27	6.771
767.58	7.558
767.89	1.290
768.20	9.202
768.51	8.197
768.82	11.892
769.13	3.500
769.44	5.263
769.75	12.554
770.06	9.174
770.37	6.103
770.68	11.458
770.99	8.416
771.30	6.311
771.61	8.796
771.92	4.329
772.23	8.879
772.54	5.851
772.85	-2.367
773.16	7.317
773.47	3.614
773.78	13.187
774.09	0.667
774.39	4.321
774.70	2.685
775.01	8.696
775.32	3.731
775.63	-7.438
775.94	6.767
776.25	5.714
776.56	9.016
776.87	12.389
777.18	5.310
777.48	0.000
777.79	-0.870
778.10	-10.092
778.41	0.000
778.72	2.479
779.03	5.970
779.34	6.015
779.65	4.575
779.95	6.522
780.26	0.680
780.57	-2.586
780.88	-6.481
781.19	-9.091
781.50	-4.800
781.80	-2.614
782.11	0.641
782.42	7.831
782.73	-0.730
783.04	2.703
783.34	-2.273
783.65	-0.775
783.96	-2.439
784.27	11.966
784.57	-1.626
784.88	1.626
785.19	14.035
785.50	-22.680
785.81	5.714
786.11	0.980
786.42	-10.909
786.73	-1.802
787.04	11.881
787.34	-2.857
787.65	5.714
787.96	1.961
788.26	-7.207
788.57	0.806
788.88	-4.688
789.19	-0.855
789.49	-1.681
789.80	5.983
790.11	-4.425
790.41	-1.010
790.72	4.717
791.03	-12.500
791.33	2.632
791.64	-2.151
791.95	5.333
792.25	-15.714
792.56	-9.756
792.87	4.082
793.17	-11.842
793.48	-17.568
793.79	-22.535
794.09	-3.797
794.40	12.766
794.70	-3.738
795.01	-7.895
795.32	-0.909
795.62	0.893
795.93	-3.093
796.23	-10.989
796.54	3.158
796.85	-4.110
797.15	-4.167
797.46	6.849
797.76	-7.042
798.07	-5.000
798.37	2.941
798.68	4.286
798.99	2.857
799.29	0.000
799.60	-6.667
799.90	-19.444
800.21	-6.250
800.51	-15.873
800.82	-3.279
801.12	-10.526
801.43	-9.859
801.73	-20.339
802.04	1.639
802.34	-20.000
802.65	-15.385
802.95	-20.370
803.26	-55.000
803.56	-13.462
803.87	-31.579
804.17	16.129
804.48	-9.231
804.78	-30.769
805.09	-16.279
805.39	-46.875
805.70	-9.434
806.00	-1.754
806.30	5.405
806.61	4.412
806.91	0.000
807.22	-10.667
807.52	2.985
807.83	-27.419
808.13	-22.222
808.43	-20.000
808.74	-6.061
809.04	-20.755
809.35	1.370
809.65	-1.754
809.95	-4.412
810.26	-9.804
810.56	-20.000
810.86	-20.408
811.17	-37.143
811.47	-11.538
811.77	-48.387
812.08	-68.421
812.38	-4.762
812.69	-26.087
812.99	-41.935
813.29	-30.952
813.59	-62.963
813.90	-14.894
814.20	-37.209
814.50	-22.917
814.81	-8.333
815.11	-31.707
815.41	-30.000
815.72	-22.857
816.02	-27.778
816.32	20.513
816.62	-16.216
816.93	-55.882
817.23	-8.696
817.53	-47.059
817.84	-26.471
818.14	-56.250
818.44	-62.069
818.74	-77.419
819.04	-59.259
819.35	-30.000
819.65	-80.000
819.95	-26.667
820.25	-60.000
820.56	-28.947
820.86	-37.500
821.16	4.255
821.46	-13.793
821.76	-43.590
822.07	-60.000
822.37	-25.581
822.67	-80.000
822.97	-32.432
823.27	-10.811
823.57	8.000
823.88	-32.432
824.18	-114.286
824.48	-61.538
824.78	-207.692
825.08	-78.261
825.38	-37.500
825.69	-62.500
825.99	-75.000
826.29	-40.541
826.59	-5.882
826.89	-12.000
827.19	-25.714
827.49	-5.263
827.79	-31.250
828.09	-33.333
828.39	-21.739
828.70	-62.069
829.00	-31.034
829.30	-16.667
829.60	21.875
829.90	-61.111
830.20	-88.462
830.50	-95.238
830.80	-67.857
831.10	-15.385
831.40	-38.095
831.70	-29.412
832.00	-54.167
832.30	-73.684
832.60	-75.000
832.90	-191.667
833.20	-135.294
833.50	-100.000
833.80	-100.000
834.10	-55.000
834.40	-29.167
834.70	-11.111
835.00	-23.077
835.30	-50.000
835.60	-24.138
835.90	-66.667
836.20	-181.818
836.50	-175.000
836.80	-28.571
837.10	34.286
837.40	-88.235
837.70	-218.182
838.00	-66.667
838.30	-37.500
838.60	-42.857
838.90	-15.000
839.19	-26.087
839.49	-17.391
839.79	-111.111
840.09	-56.522
840.39	13.636
840.69	-118.750
840.99	-57.895
841.29	-43.750
841.59	-21.429
841.88	-138.889
842.18	-41.667
842.48	-111.765
842.78	-37.931
843.08	-100.000
843.38	-100.000
843.68	-266.667
843.97	-69.231
844.27	-90.909
844.57	-220.000
844.87	4.000
845.17	-260.000
845.47	-14.286
845.76	-155.556
846.06	0.000
846.36	-425.000
846.66	-140.000
846.96	-68.421
847.25	-66.667
847.55	-150.000
847.85	6.667
848.15	-210.000
848.44	3.846
848.74	-47.368
849.04	866.667
849.34	-222.222
849.63	-68.421
849.93	0.000
850.23	-100.000
850.53	-33.333
850.82	-60.000
851.12	-63.158
851.42	-650.000
851.71	-78.571
852.01	-133.333
852.31	-29.412
852.61	-66.667
852.90	-52.381
853.20	-250.000
853.50	-88.889
853.79	-84.211
854.09	-126.667
854.39	-39.286
854.68	-47.826
854.98	-241.667
855.28	-31.034
855.57	-100.000
855.87	-55.000
856.17	-106.667
856.46	-13.793
856.76	-53.333
857.05	-111.765
857.35	-130.769
857.65	-136.364
857.94	-33.333
858.24	-164.286
858.53	-114.286
858.83	-150.000
859.13	-222.222
859.42	-4.762
859.72	-37.500
860.01	-566.667
860.31	-125.000
860.60	-200.000
860.90	-188.889
861.20	-362.500
861.49	-342.857
861.79	-35.294
862.08	-1150.000
862.38	-200.000
862.67	-115.385
862.97	-58.824
863.26	-20.000
863.56	-23.529
863.85	700.000
864.15	-240.000
864.44	-107.692
864.74	45.000
865.03	-212.500
865.33	-300.000
865.62	-88.235
865.92	-600.000
866.21	-121.429
866.51	-83.333
866.80	-1100.000
867.10	-266.667
867.39	-47.059
867.69	-4.348
867.98	-71.429
868.27	-520.000
868.57	-131.250
868.86	-227.273
869.16	11.765
869.45	-233.333
869.75	-171.429
870.04	1800.000
870.33	-83.333
870.63	-300.000
870.92	-144.444
871.22	-150.000
871.51	-18.182
871.80	-133.333
872.10	0.000
>>>>>End Processed Spectral Data<<<<<
