SpectraSuite Data File
++++++++++++++++++++++++++++++++++++
Date: Sat May 16 11:23:20 PDT 2015
User: schluterlab
Dark Spectrum Present: Yes
Reference Spectrum Present: Yes
Number of Sampled Component Spectra: 1
Spectrometers: USB2E3373
Integration Time (usec): 3000 (USB2E3373)
Spectra Averaged: 3 (USB2E3373)
Boxcar Smoothing: 0 (USB2E3373)
Correct for Electrical Dark: No (USB2E3373)
Strobe/Lamp Enabled: No (USB2E3373)
Correct for Detector Non-linearity: No (USB2E3373)
Correct for Stray Light: No (USB2E3373)
Number of Pixels in Processed Spectrum: 2048
>>>>>Begin Processed Spectral Data<<<<<
178.53	0.000
178.91	120.000
179.29	566.667
179.67	-800.000
180.04	-53.846
180.42	1200.000
180.80	350.000
181.18	550.000
181.56	-100.000
181.94	1400.000
182.31	475.000
182.69	15.385
183.07	-400.000
183.45	1250.000
183.83	433.333
184.20	-114.286
184.58	-162.500
184.96	-525.000
185.34	93.750
185.72	-500.000
186.09	250.000
186.47	-125.000
186.85	-237.500
187.23	-162.500
187.61	-200.000
187.98	-312.500
188.36	-187.500
188.74	-150.000
189.12	1600.000
189.49	285.714
189.87	-33.333
190.25	500.000
190.63	-64.286
191.00	-155.556
191.38	400.000
191.76	-60.000
192.14	420.000
192.51	-100.000
192.89	-433.333
193.27	0.000
193.65	-188.889
194.02	-128.571
194.40	600.000
194.78	-100.000
195.15	-400.000
195.53	-81.818
195.91	-350.000
196.29	400.000
196.66	-400.000
197.04	2700.000
197.42	-300.000
197.79	-26.667
198.17	-633.333
198.55	-450.000
198.92	-1800.000
199.30	250.000
199.68	-650.000
200.05	-88.889
200.43	-233.333
200.81	-1300.000
201.18	-66.667
201.56	85.714
201.94	-33.333
202.31	4.545
202.69	-20.000
203.07	-30.000
203.44	366.667
203.82	-300.000
204.19	-425.000
204.57	-50.000
204.95	-400.000
205.32	-87.500
205.70	600.000
206.08	-2900.000
206.45	5.556
206.83	-1100.000
207.20	-50.000
207.58	-733.333
207.96	-300.000
208.33	-125.000
208.71	-188.889
209.08	130.000
209.46	-285.714
209.84	550.000
210.21	0.000
210.59	35.000
210.96	100.000
211.34	-100.000
211.71	-233.333
212.09	250.000
212.46	1300.000
212.84	-1700.000
213.22	566.667
213.59	166.667
213.97	77.778
214.34	140.000
214.72	-160.000
215.09	-533.333
215.47	-250.000
215.84	-90.000
216.22	-90.000
216.59	-33.333
216.97	-275.000
217.34	1200.000
217.72	-128.571
218.09	-366.667
218.47	-185.714
218.84	214.286
219.22	-85.714
219.59	0.000
219.97	300.000
220.34	500.000
220.72	350.000
221.09	-84.615
221.47	0.000
221.84	300.000
222.22	-700.000
222.59	1300.000
222.97	-162.500
223.34	-700.000
223.72	-833.333
224.09	-7.143
224.46	-175.000
224.84	28.571
225.21	-185.714
225.59	-54.545
225.96	-87.500
226.34	-157.143
226.71	-88.889
227.08	20.000
227.46	1900.000
227.83	-242.857
228.21	-187.500
228.58	850.000
228.95	-25.000
229.33	-1200.000
229.70	-300.000
230.08	-650.000
230.45	-25.000
230.82	-183.333
231.20	-500.000
231.57	-850.000
231.95	600.000
232.32	-33.333
232.69	-122.222
233.07	-214.286
233.44	-850.000
233.81	-80.000
234.19	-111.111
234.56	-87.500
234.93	-25.000
235.31	-171.429
235.68	-114.286
236.05	11.765
236.43	-13.636
236.80	-16.129
237.17	-8.333
237.55	-80.952
237.92	-90.909
238.29	-25.714
238.67	-5.882
239.04	-38.889
239.41	-70.968
239.79	-58.974
240.16	-14.286
240.53	-25.455
240.91	-17.949
241.28	-30.909
241.65	-7.692
242.02	-1.639
242.40	-9.836
242.77	-10.606
243.14	-3.390
243.51	-11.429
243.89	-7.595
244.26	-11.236
244.63	0.000
245.00	-17.895
245.38	4.237
245.75	0.000
246.12	-6.400
246.49	-8.661
246.87	-11.382
247.24	-12.712
247.61	-12.712
247.98	-6.338
248.36	-10.490
248.73	1.899
249.10	-6.369
249.47	-5.848
249.84	-3.409
250.22	-5.952
250.59	0.000
250.96	-3.665
251.33	1.896
251.70	1.923
252.08	-1.896
252.45	-4.739
252.82	-8.095
253.19	-1.277
253.56	0.403
253.94	-5.063
254.31	-0.429
254.68	0.000
255.05	-5.645
255.42	-0.397
255.79	-0.358
256.16	-2.353
256.54	-1.471
256.91	-5.682
257.28	-1.832
257.65	-0.709
258.02	2.830
258.39	1.003
258.76	-4.054
259.14	0.000
259.51	2.295
259.88	1.220
260.25	1.242
260.62	-0.965
260.99	-0.297
261.36	2.439
261.73	2.601
262.10	2.222
262.47	-0.285
262.85	3.143
263.22	0.000
263.59	-2.462
263.96	-3.768
264.33	0.813
264.70	3.039
265.07	1.648
265.44	-1.034
265.81	-2.326
266.18	-0.759
266.55	1.471
266.92	0.000
267.29	-2.179
267.66	-1.481
268.03	0.725
268.40	-0.235
268.77	1.687
269.14	-2.320
269.51	1.379
269.88	-2.982
270.25	0.233
270.62	-0.229
270.99	-0.450
271.36	0.233
271.73	-2.242
272.10	-1.373
272.47	-1.778
272.84	2.667
273.21	0.000
273.58	0.440
273.95	-1.754
274.32	-1.357
274.69	1.313
275.06	-0.204
275.43	-1.339
275.80	1.426
276.17	0.000
276.54	1.018
276.91	-1.235
277.28	0.811
277.65	0.000
278.02	-2.714
278.39	0.196
278.76	-0.199
279.13	-0.791
279.50	-0.994
279.87	-0.211
280.23	1.619
280.60	-0.199
280.97	-0.583
281.34	-1.354
281.71	0.962
282.08	-0.202
282.45	-3.462
282.82	-0.969
283.19	1.818
283.56	2.564
283.92	0.530
284.29	1.115
284.66	0.360
285.03	3.030
285.40	0.185
285.77	1.754
286.14	-0.542
286.51	0.178
286.87	0.907
287.24	1.877
287.61	1.983
287.98	-2.600
288.35	0.992
288.72	-2.377
289.08	0.847
289.45	0.842
289.82	-1.903
290.19	0.493
290.56	-0.661
290.93	0.000
291.29	-1.459
291.66	0.000
292.03	1.256
292.40	2.108
292.77	1.863
293.13	2.114
293.50	2.526
293.87	1.534
294.24	3.167
294.60	0.758
294.97	1.821
295.34	1.778
295.71	1.637
296.08	0.154
296.44	0.715
296.81	0.997
297.18	1.127
297.55	1.271
297.91	2.092
298.28	-0.685
298.65	1.534
299.02	3.610
299.38	3.209
299.75	1.495
300.12	1.923
300.48	3.581
300.85	1.573
301.22	3.234
301.59	1.040
301.95	4.534
302.32	1.173
302.69	2.081
303.05	0.855
303.42	1.375
303.79	1.077
304.15	2.251
304.52	2.917
304.89	3.542
305.25	2.808
305.62	3.290
305.99	4.240
306.35	3.552
306.72	2.278
307.09	3.405
307.45	3.292
307.82	4.134
308.19	2.125
308.55	3.595
308.92	2.256
309.29	2.811
309.65	3.818
310.02	3.240
310.38	1.514
310.75	4.303
311.12	4.236
311.48	4.489
311.85	5.149
312.22	4.943
312.58	4.273
312.95	4.587
313.31	4.995
313.68	6.131
314.05	7.122
314.41	4.728
314.78	5.295
315.14	6.120
315.51	5.268
315.87	6.196
316.24	6.414
316.61	7.486
316.97	5.871
317.34	5.973
317.70	6.679
318.07	7.463
318.43	6.086
318.80	7.700
319.16	7.223
319.53	7.049
319.89	6.397
320.26	6.569
320.62	7.212
320.99	7.662
321.35	7.094
321.72	7.472
322.08	9.496
322.45	7.426
322.81	8.742
323.18	9.414
323.54	9.150
323.91	10.380
324.27	9.981
324.64	9.506
325.00	11.257
325.37	11.403
325.73	11.024
326.10	9.832
326.46	11.208
326.83	11.574
327.19	12.344
327.56	13.032
327.92	13.169
328.29	14.113
328.65	11.727
329.01	13.781
329.38	12.310
329.74	14.835
330.11	13.327
330.47	13.079
330.84	13.566
331.20	14.350
331.56	13.947
331.93	12.700
332.29	14.703
332.66	14.047
333.02	14.299
333.38	16.935
333.75	15.494
334.11	15.733
334.48	15.799
334.84	17.673
335.20	15.426
335.57	15.975
335.93	18.353
336.29	16.563
336.66	16.035
337.02	16.036
337.38	16.488
337.75	15.452
338.11	15.564
338.47	17.527
338.84	16.697
339.20	16.344
339.56	17.291
339.93	16.049
340.29	16.032
340.65	16.521
341.02	16.948
341.38	16.175
341.74	17.189
342.11	16.382
342.47	16.567
342.83	16.121
343.20	15.969
343.56	15.265
343.92	17.780
344.28	17.494
344.65	16.502
345.01	16.303
345.37	17.857
345.73	15.548
346.10	16.108
346.46	16.572
346.82	16.680
347.19	15.776
347.55	16.854
347.91	16.142
348.27	15.195
348.63	16.801
349.00	16.468
349.36	14.676
349.72	17.197
350.08	17.161
350.45	15.839
350.81	15.446
351.17	15.916
351.53	16.388
351.89	16.492
352.26	16.822
352.62	17.512
352.98	16.535
353.34	16.307
353.70	15.830
354.07	16.758
354.43	16.759
354.79	16.323
355.15	16.773
355.51	17.031
355.87	15.020
356.24	16.759
356.60	17.566
356.96	17.783
357.32	16.310
357.68	16.552
358.04	17.013
358.40	17.015
358.77	16.383
359.13	16.526
359.49	16.704
359.85	16.235
360.21	16.591
360.57	16.566
360.93	17.037
361.29	16.069
361.66	16.540
362.02	16.272
362.38	17.021
362.74	17.509
363.10	16.714
363.46	17.949
363.82	17.128
364.18	17.221
364.54	18.871
364.90	18.029
365.26	16.762
365.62	18.460
365.98	17.425
366.35	17.817
366.71	17.125
367.07	17.219
367.43	18.531
367.79	17.251
368.15	16.927
368.51	18.462
368.87	18.681
369.23	17.825
369.59	17.569
369.95	17.829
370.31	18.425
370.67	17.354
371.03	18.878
371.39	17.893
371.75	19.027
372.11	19.225
372.47	18.727
372.83	18.915
373.19	18.857
373.55	19.845
373.91	19.346
374.27	19.302
374.63	20.152
374.99	19.819
375.35	18.843
375.71	20.392
376.07	20.123
376.42	18.411
376.78	20.065
377.14	20.271
377.50	20.696
377.86	20.026
378.22	20.540
378.58	20.383
378.94	19.975
379.30	20.841
379.66	21.008
380.02	20.796
380.38	21.148
380.74	21.043
381.09	21.793
381.45	21.480
381.81	21.113
382.17	20.865
382.53	21.520
382.89	20.694
383.25	22.517
383.61	22.170
383.97	22.413
384.32	22.466
384.68	22.733
385.04	22.585
385.40	22.398
385.76	22.256
386.12	22.986
386.48	23.267
386.83	22.883
387.19	22.355
387.55	23.077
387.91	23.770
388.27	21.954
388.62	23.257
388.98	22.532
389.34	22.950
389.70	23.143
390.06	23.990
390.42	23.974
390.77	23.722
391.13	23.665
391.49	23.955
391.85	23.878
392.20	23.301
392.56	24.068
392.92	24.758
393.28	24.225
393.64	24.654
393.99	24.000
394.35	23.540
394.71	23.842
395.07	24.294
395.42	24.017
395.78	24.387
396.14	25.919
396.50	24.343
396.85	24.429
397.21	25.030
397.57	24.559
397.92	24.766
398.28	25.056
398.64	25.342
399.00	25.000
399.35	24.915
399.71	25.552
400.07	25.612
400.42	25.547
400.78	24.270
401.14	24.910
401.49	25.000
401.85	25.381
402.21	24.672
402.57	24.454
402.92	25.488
403.28	25.123
403.63	24.566
403.99	24.736
404.35	23.671
404.70	25.044
405.06	24.510
405.42	24.108
405.77	24.378
406.13	25.270
406.49	25.704
406.84	25.615
407.20	25.088
407.55	25.332
407.91	24.028
408.27	25.980
408.62	24.775
408.98	25.167
409.34	25.046
409.69	25.331
410.05	24.924
410.40	25.506
410.76	24.659
411.11	25.312
411.47	25.639
411.83	26.161
412.18	25.619
412.54	25.259
412.89	25.881
413.25	25.030
413.60	24.605
413.96	24.707
414.31	26.483
414.67	25.714
415.03	25.809
415.38	25.569
415.74	26.418
416.09	25.575
416.45	24.272
416.80	25.488
417.16	25.781
417.51	26.395
417.87	25.243
418.22	26.359
418.58	25.546
418.93	26.364
419.29	25.910
419.64	25.942
420.00	26.914
420.35	26.611
420.71	26.050
421.06	26.805
421.42	25.410
421.77	26.857
422.12	26.637
422.48	26.510
422.83	26.595
423.19	26.893
423.54	26.859
423.90	27.473
424.25	26.301
424.61	26.719
424.96	26.624
425.31	26.048
425.67	26.476
426.02	25.875
426.38	27.707
426.73	27.060
427.09	27.451
427.44	26.875
427.79	26.744
428.15	27.588
428.50	26.921
428.85	27.218
429.21	27.338
429.56	27.240
429.92	27.455
430.27	27.318
430.62	28.318
430.98	27.026
431.33	27.481
431.68	28.204
432.04	27.756
432.39	28.433
432.74	27.698
433.10	28.306
433.45	27.173
433.80	27.772
434.16	28.641
434.51	29.151
434.86	28.530
435.22	28.285
435.57	28.764
435.92	28.195
436.28	28.724
436.63	28.095
436.98	28.236
437.34	28.706
437.69	28.413
438.04	28.758
438.39	28.821
438.75	28.522
439.10	29.039
439.45	28.847
439.81	28.735
440.16	28.904
440.51	28.941
440.86	28.282
441.22	28.524
441.57	28.737
441.92	29.309
442.27	29.491
442.63	29.077
442.98	29.063
443.33	29.160
443.68	28.348
444.03	29.568
444.39	29.760
444.74	30.176
445.09	28.454
445.44	30.107
445.79	29.373
446.15	28.970
446.50	29.069
446.85	29.143
447.20	29.367
447.55	29.116
447.91	30.095
448.26	29.777
448.61	29.825
448.96	30.252
449.31	29.030
449.66	30.109
450.02	29.030
450.37	29.043
450.72	28.983
451.07	29.793
451.42	29.802
451.77	29.443
452.12	28.963
452.47	30.164
452.83	29.179
453.18	30.171
453.53	30.286
453.88	30.562
454.23	29.262
454.58	30.392
454.93	30.353
455.28	30.402
455.63	30.160
455.98	30.060
456.34	29.479
456.69	30.769
457.04	30.055
457.39	28.947
457.74	30.597
458.09	30.568
458.44	31.351
458.79	29.596
459.14	30.918
459.49	30.136
459.84	29.736
460.19	30.549
460.54	29.583
460.89	30.157
461.24	29.630
461.59	30.481
461.94	30.108
462.29	31.328
462.64	31.555
462.99	31.660
463.34	29.507
463.69	31.170
464.04	29.584
464.39	30.167
464.74	30.556
465.09	30.547
465.44	30.570
465.79	31.246
466.14	31.128
466.49	30.570
466.84	31.393
467.19	30.798
467.54	29.494
467.89	30.333
468.24	30.701
468.59	31.418
468.94	31.061
469.29	30.019
469.64	30.728
469.99	30.722
470.34	32.064
470.68	32.776
471.03	31.177
471.38	30.833
471.73	31.399
472.08	30.455
472.43	30.566
472.78	31.600
473.13	30.417
473.48	31.078
473.83	30.459
474.17	31.146
474.52	32.033
474.87	32.692
475.22	30.029
475.57	31.222
475.92	31.749
476.27	30.686
476.61	31.493
476.96	31.358
477.31	31.970
477.66	31.157
478.01	31.280
478.36	30.749
478.70	32.835
479.05	32.991
479.40	31.606
479.75	31.702
480.10	31.845
480.45	30.222
480.79	32.330
481.14	31.912
481.49	32.285
481.84	32.594
482.19	32.344
482.53	32.481
482.88	31.846
483.23	31.455
483.58	31.452
483.92	32.155
484.27	30.837
484.62	31.533
484.97	31.372
485.31	30.848
485.66	30.972
486.01	31.121
486.36	32.147
486.70	32.847
487.05	31.890
487.40	31.517
487.75	31.948
488.09	31.285
488.44	31.529
488.79	31.199
489.13	31.837
489.48	32.626
489.83	32.445
490.17	31.781
490.52	32.156
490.87	31.455
491.22	31.994
491.56	32.176
491.91	32.634
492.26	33.066
492.60	32.350
492.95	32.699
493.30	31.301
493.64	31.735
493.99	31.549
494.34	32.190
494.68	33.099
495.03	31.931
495.37	32.350
495.72	31.827
496.07	31.910
496.41	32.376
496.76	32.466
497.11	32.831
497.45	33.381
497.80	32.016
498.14	31.680
498.49	32.295
498.84	31.214
499.18	33.187
499.53	32.051
499.87	32.577
500.22	32.108
500.56	33.467
500.91	32.167
501.26	32.994
501.60	32.451
501.95	32.754
502.29	33.066
502.64	32.249
502.98	32.631
503.33	31.955
503.67	32.615
504.02	32.158
504.36	33.137
504.71	33.080
505.06	32.451
505.40	33.583
505.75	33.028
506.09	33.064
506.44	33.283
506.78	32.614
507.13	32.235
507.47	32.864
507.82	33.196
508.16	33.316
508.51	32.767
508.85	33.126
509.19	33.857
509.54	33.298
509.88	33.191
510.23	33.333
510.57	34.339
510.92	33.727
511.26	33.280
511.61	32.775
511.95	33.836
512.30	33.040
512.64	32.999
512.98	33.883
513.33	33.718
513.67	33.724
514.02	32.830
514.36	34.072
514.70	33.333
515.05	34.191
515.39	33.449
515.74	35.020
516.08	33.718
516.42	34.334
516.77	35.586
517.11	33.467
517.46	34.868
517.80	34.176
518.14	34.783
518.49	35.027
518.83	34.303
519.17	35.110
519.52	34.644
519.86	36.141
520.20	35.391
520.55	35.138
520.89	34.314
521.23	34.737
521.58	34.608
521.92	35.719
522.26	34.857
522.61	35.171
522.95	33.823
523.29	34.671
523.64	34.478
523.98	34.691
524.32	35.575
524.66	34.658
525.01	35.902
525.35	35.052
525.69	35.003
526.04	35.313
526.38	35.264
526.72	34.674
527.06	35.221
527.41	35.446
527.75	34.455
528.09	35.606
528.43	35.148
528.78	35.867
529.12	36.364
529.46	35.180
529.80	36.152
530.15	36.188
530.49	34.605
530.83	36.280
531.17	34.747
531.51	35.365
531.86	34.957
532.20	35.830
532.54	35.762
532.88	34.980
533.22	36.765
533.57	35.379
533.91	34.644
534.25	34.947
534.59	34.916
534.93	34.163
535.27	36.501
535.62	36.637
535.96	36.199
536.30	35.079
536.64	35.989
536.98	37.500
537.32	35.867
537.66	35.777
538.01	36.907
538.35	35.946
538.69	35.628
539.03	35.139
539.37	35.862
539.71	36.558
540.05	35.641
540.39	36.150
540.73	36.697
541.07	36.544
541.42	35.381
541.76	35.681
542.10	36.327
542.44	34.777
542.78	36.431
543.12	35.913
543.46	35.000
543.80	35.251
544.14	36.602
544.48	35.958
544.82	35.927
545.16	37.022
545.50	35.935
545.84	36.648
546.18	36.061
546.52	36.273
546.86	36.040
547.20	36.428
547.54	35.813
547.88	36.032
548.22	34.600
548.56	35.738
548.90	35.849
549.24	36.580
549.58	35.992
549.92	37.314
550.26	38.006
550.60	34.495
550.94	36.131
551.28	37.096
551.62	36.189
551.96	36.831
552.30	35.470
552.64	34.975
552.98	36.650
553.32	36.003
553.66	37.130
554.00	36.816
554.34	36.318
554.68	36.111
555.02	36.831
555.36	36.233
555.69	35.960
556.03	35.579
556.37	37.055
556.71	36.435
557.05	37.398
557.39	36.080
557.73	36.543
558.07	36.473
558.41	36.126
558.75	34.753
559.08	36.265
559.42	36.371
559.76	36.503
560.10	37.062
560.44	37.645
560.78	36.117
561.12	36.715
561.45	34.726
561.79	35.958
562.13	36.255
562.47	35.504
562.81	35.644
563.15	34.640
563.48	37.042
563.82	36.511
564.16	35.903
564.50	36.022
564.84	34.788
565.17	35.942
565.51	35.658
565.85	36.444
566.19	36.627
566.52	36.399
566.86	35.398
567.20	37.833
567.54	36.562
567.88	35.623
568.21	36.521
568.55	35.896
568.89	35.736
569.23	36.603
569.56	35.183
569.90	36.192
570.24	36.039
570.57	35.220
570.91	35.702
571.25	35.182
571.59	35.123
571.92	34.673
572.26	34.871
572.60	34.192
572.93	34.469
573.27	34.360
573.61	34.700
573.95	34.806
574.28	34.257
574.62	35.536
574.96	33.948
575.29	34.883
575.63	34.404
575.97	34.412
576.30	34.749
576.64	34.778
576.98	33.989
577.31	34.517
577.65	35.003
577.98	35.084
578.32	34.708
578.66	34.888
578.99	34.607
579.33	34.690
579.67	34.568
580.00	34.722
580.34	34.565
580.67	34.616
581.01	34.301
581.35	34.799
581.68	34.351
582.02	34.386
582.35	34.806
582.69	35.077
583.02	35.146
583.36	34.962
583.70	34.613
584.03	35.156
584.37	34.804
584.70	35.316
585.04	34.354
585.37	33.795
585.71	34.712
586.04	35.182
586.38	34.830
586.72	34.752
587.05	35.514
587.39	34.581
587.72	34.776
588.06	34.553
588.39	34.890
588.73	34.792
589.06	35.358
589.40	35.314
589.73	34.632
590.07	34.887
590.40	34.502
590.73	35.186
591.07	35.123
591.40	35.139
591.74	35.491
592.07	35.676
592.41	34.607
592.74	35.088
593.08	35.084
593.41	35.559
593.75	34.322
594.08	35.550
594.41	36.007
594.75	35.221
595.08	35.752
595.42	35.116
595.75	34.620
596.09	35.118
596.42	35.475
596.75	34.627
597.09	35.574
597.42	34.788
597.75	34.632
598.09	35.517
598.42	34.998
598.76	34.925
599.09	34.846
599.42	35.755
599.76	35.712
600.09	35.115
600.42	35.511
600.76	35.706
601.09	34.333
601.42	34.784
601.76	35.358
602.09	35.215
602.42	35.350
602.76	34.690
603.09	34.718
603.42	34.609
603.76	35.301
604.09	34.962
604.42	35.221
604.76	34.627
605.09	35.669
605.42	34.663
605.75	34.498
606.09	34.869
606.42	35.233
606.75	34.908
607.09	34.804
607.42	35.519
607.75	34.702
608.08	35.517
608.42	35.478
608.75	34.579
609.08	34.437
609.41	34.629
609.75	34.325
610.08	35.784
610.41	35.133
610.74	35.493
611.07	35.801
611.41	35.048
611.74	35.887
612.07	36.198
612.40	34.755
612.73	34.626
613.07	34.287
613.40	36.344
613.73	35.531
614.06	34.761
614.39	35.118
614.72	34.804
615.06	35.870
615.39	35.269
615.72	34.981
616.05	33.738
616.38	35.694
616.71	34.595
617.05	35.283
617.38	36.409
617.71	34.828
618.04	35.342
618.37	36.101
618.70	35.332
619.03	34.597
619.36	35.588
619.69	35.822
620.03	34.160
620.36	36.428
620.69	35.966
621.02	35.769
621.35	36.129
621.68	34.590
622.01	35.194
622.34	35.093
622.67	35.859
623.00	35.425
623.33	35.299
623.66	33.456
623.99	35.564
624.32	34.598
624.65	35.320
624.99	34.429
625.32	33.757
625.65	35.975
625.98	35.290
626.31	36.052
626.64	35.816
626.97	36.045
627.30	34.979
627.63	33.938
627.96	36.031
628.29	37.040
628.62	35.244
628.95	37.008
629.28	36.090
629.61	36.114
629.94	33.554
630.26	35.487
630.59	36.482
630.92	34.935
631.25	36.290
631.58	37.354
631.91	34.362
632.24	36.111
632.57	36.556
632.90	36.437
633.23	35.397
633.56	34.152
633.89	36.439
634.22	35.183
634.55	35.577
634.88	35.792
635.20	34.332
635.53	36.641
635.86	34.761
636.19	36.264
636.52	35.125
636.85	34.537
637.18	34.375
637.51	37.051
637.83	36.884
638.16	36.842
638.49	36.414
638.82	34.620
639.15	36.835
639.48	34.501
639.81	36.238
640.13	35.676
640.46	35.755
640.79	35.854
641.12	35.120
641.45	35.294
641.77	35.928
642.10	34.290
642.43	35.508
642.76	36.535
643.09	36.508
643.41	36.825
643.74	37.043
644.07	36.661
644.40	36.953
644.73	35.479
645.05	35.225
645.38	35.430
645.71	39.175
646.04	35.966
646.36	34.206
646.69	35.986
647.02	36.101
647.35	34.477
647.67	34.672
648.00	36.731
648.33	35.076
648.66	33.871
648.98	36.943
649.31	33.846
649.64	33.750
649.96	35.008
650.29	33.770
650.62	35.972
650.94	37.774
651.27	35.009
651.60	34.775
651.92	36.130
652.25	34.891
652.58	33.560
652.90	34.510
653.23	34.677
653.56	36.789
653.88	34.262
654.21	37.584
654.54	35.714
654.86	35.795
655.19	34.527
655.52	34.089
655.84	34.298
656.17	37.260
656.49	50.360
656.82	52.183
657.15	39.107
657.47	29.158
657.80	22.099
658.13	25.428
658.45	33.704
658.78	33.348
659.10	33.200
659.43	32.517
659.75	32.376
660.08	32.917
660.41	32.505
660.73	32.343
661.06	35.652
661.38	35.179
661.71	33.652
662.03	33.468
662.36	35.608
662.68	35.443
663.01	38.004
663.33	36.508
663.66	36.052
663.98	37.723
664.31	32.662
664.63	39.159
664.96	36.443
665.28	31.670
665.61	33.827
665.93	35.185
666.26	35.628
666.58	35.135
666.91	33.408
667.23	35.965
667.56	36.054
667.88	38.009
668.21	34.793
668.53	35.047
668.86	35.104
669.18	36.758
669.50	36.215
669.83	36.983
670.15	34.529
670.48	33.645
670.80	32.574
671.13	34.989
671.45	31.532
671.77	34.475
672.10	33.925
672.42	33.948
672.75	33.091
673.07	30.811
673.39	32.240
673.72	37.598
674.04	37.367
674.37	30.103
674.69	35.041
675.01	32.128
675.34	34.707
675.66	35.853
675.98	35.242
676.31	34.615
676.63	34.943
676.95	32.522
677.28	35.035
677.60	36.652
677.92	36.123
678.25	35.011
678.57	35.597
678.89	34.591
679.22	35.430
679.54	33.136
679.86	31.800
680.18	33.840
680.51	33.706
680.83	34.667
681.15	31.599
681.48	36.511
681.80	35.685
682.12	33.803
682.44	33.006
682.77	29.870
683.09	36.268
683.41	35.177
683.73	29.909
684.06	33.548
684.38	36.402
684.70	33.128
685.02	35.039
685.34	33.528
685.67	33.333
685.99	32.136
686.31	35.368
686.63	33.688
686.96	33.457
687.28	34.875
687.60	32.812
687.92	30.350
688.24	33.268
688.56	32.465
688.89	33.333
689.21	33.260
689.53	32.414
689.85	32.962
690.17	34.305
690.49	34.642
690.82	34.217
691.14	33.019
691.46	34.146
691.78	35.242
692.10	33.051
692.42	34.000
692.74	35.193
693.06	33.483
693.39	33.781
693.71	34.312
694.03	36.069
694.35	33.183
694.67	34.752
694.99	30.946
695.31	33.673
695.63	33.163
695.95	35.484
696.27	30.175
696.59	35.294
696.91	32.865
697.23	33.854
697.56	32.452
697.88	36.036
698.20	31.478
698.52	33.408
698.84	32.767
699.16	30.952
699.48	32.000
699.80	32.581
700.12	34.257
700.44	30.447
700.76	30.904
701.08	36.628
701.40	28.701
701.72	33.333
702.04	37.179
702.36	32.831
702.68	32.335
703.00	31.594
703.32	32.951
703.64	33.529
703.96	36.047
704.28	31.657
704.60	30.380
704.91	28.889
705.23	34.951
705.55	31.757
705.87	31.058
706.19	31.944
706.51	33.333
706.83	34.098
707.15	35.987
707.47	36.364
707.79	29.639
708.11	29.008
708.43	36.160
708.74	33.506
709.06	31.476
709.38	31.034
709.70	30.938
710.02	35.583
710.34	33.003
710.66	29.206
710.98	28.707
711.29	32.258
711.61	29.712
711.93	30.492
712.25	28.904
712.57	32.404
712.89	33.453
713.20	31.959
713.52	30.970
713.84	32.028
714.16	35.738
714.48	31.746
714.80	31.385
715.11	30.259
715.43	36.145
715.75	30.218
716.07	34.426
716.39	29.431
716.70	31.359
717.02	32.222
717.34	32.061
717.66	31.950
717.97	27.869
718.29	26.471
718.61	31.349
718.93	33.692
719.24	33.088
719.56	27.547
719.88	32.727
720.20	28.464
720.51	33.083
720.83	32.530
721.15	28.279
721.46	32.549
721.78	31.034
722.10	33.600
722.42	33.058
722.73	31.076
723.05	33.333
723.37	25.490
723.68	24.696
724.00	33.333
724.32	30.041
724.63	35.270
724.95	35.537
725.27	27.632
725.58	31.034
725.90	30.159
726.22	33.948
726.53	30.418
726.85	30.196
727.16	29.699
727.48	29.231
727.80	26.639
728.11	31.513
728.43	28.926
728.74	34.766
729.06	32.955
729.38	29.961
729.69	28.346
730.01	29.921
730.32	30.279
730.64	28.571
730.96	31.343
731.27	35.000
731.59	31.833
731.90	30.061
732.22	29.755
732.53	34.106
732.85	29.195
733.16	33.696
733.48	31.359
733.80	28.114
734.11	33.103
734.43	32.653
734.74	28.190
735.06	32.915
735.37	32.416
735.69	30.323
736.00	31.987
736.32	33.444
736.63	30.690
736.95	28.986
737.26	32.119
737.58	32.014
737.89	34.767
738.21	23.308
738.52	31.923
738.83	32.422
739.15	32.051
739.46	32.661
739.78	29.021
740.09	29.371
740.41	25.524
740.72	29.562
741.04	32.143
741.35	24.675
741.66	36.574
741.98	29.048
742.29	39.906
742.61	32.086
742.92	35.047
743.23	28.070
743.55	29.279
743.86	38.667
744.18	25.238
744.49	32.020
744.80	32.487
745.12	30.412
745.43	33.166
745.74	30.583
746.06	26.341
746.37	34.361
746.68	31.841
747.00	31.414
747.31	24.519
747.62	28.571
747.94	27.948
748.25	32.558
748.56	30.952
748.88	25.000
749.19	30.047
749.50	35.784
749.82	31.556
750.13	33.480
750.44	29.675
750.75	26.800
751.07	33.214
751.38	22.878
751.69	24.809
752.01	32.692
752.32	30.350
752.63	23.462
752.94	23.810
753.26	27.391
753.57	31.250
753.88	33.621
754.19	26.141
754.51	30.078
754.82	30.040
755.13	30.453
755.44	27.273
755.75	32.099
756.07	22.088
756.38	25.000
756.69	29.603
757.00	31.359
757.31	26.846
757.63	31.464
757.94	30.347
758.25	29.070
758.56	32.075
758.87	33.523
759.18	24.667
759.50	29.537
759.81	25.912
760.12	27.365
760.43	31.392
760.74	33.125
761.05	30.337
761.36	29.042
761.67	31.657
761.99	28.065
762.30	30.435
762.61	31.698
762.92	33.184
763.23	30.332
763.54	27.111
763.85	30.802
764.16	32.653
764.47	33.898
764.78	34.457
765.10	33.453
765.41	28.065
765.72	31.447
766.03	27.208
766.34	29.699
766.65	29.150
766.96	24.000
767.27	33.854
767.58	29.651
767.89	25.161
768.20	27.607
768.51	31.148
768.82	22.703
769.13	28.000
769.44	30.702
769.75	31.169
770.06	32.110
770.37	28.638
770.68	33.854
770.99	30.198
771.30	27.670
771.61	27.315
771.92	24.675
772.23	25.234
772.54	26.064
772.85	18.935
773.16	22.561
773.47	26.506
773.78	28.571
774.09	26.667
774.39	30.247
774.70	20.805
775.01	20.290
775.32	24.627
775.63	16.529
775.94	27.820
776.25	26.429
776.56	24.590
776.87	25.664
777.18	29.204
777.48	16.364
777.79	16.522
778.10	18.349
778.41	20.339
778.72	21.488
779.03	30.597
779.34	30.827
779.65	22.876
779.95	28.261
780.26	17.687
780.57	18.103
780.88	32.407
781.19	18.182
781.50	15.200
781.80	28.758
782.11	26.282
782.42	25.904
782.73	15.328
783.04	21.622
783.34	18.182
783.65	33.333
783.96	22.764
784.27	29.915
784.57	19.512
784.88	18.699
785.19	31.579
785.50	16.495
785.81	19.048
786.11	10.784
786.42	17.273
786.73	26.126
787.04	21.782
787.34	28.571
787.65	14.286
787.96	18.627
788.26	21.622
788.57	30.645
788.88	20.312
789.19	26.496
789.49	18.487
789.80	23.077
790.11	21.239
790.41	26.263
790.72	30.189
791.03	20.833
791.33	22.368
791.64	7.527
791.95	14.667
792.25	20.000
792.56	30.488
792.87	20.408
793.17	27.632
793.48	5.405
793.79	15.493
794.09	30.380
794.40	28.723
794.70	20.561
795.01	7.018
795.32	20.909
795.62	16.071
795.93	17.526
796.23	9.890
796.54	25.263
796.85	19.178
797.15	2.778
797.46	26.027
797.76	16.901
798.07	12.500
798.37	30.882
798.68	35.714
798.99	30.000
799.29	25.000
799.60	31.667
799.90	11.111
800.21	12.500
800.51	0.000
800.82	27.869
801.12	10.526
801.43	23.944
801.73	1.695
802.04	14.754
802.34	-1.818
802.65	1.923
802.95	18.519
803.26	-10.000
803.56	17.308
803.87	-13.158
804.17	32.258
804.48	4.615
804.78	-12.821
805.09	-2.326
805.39	-15.625
805.70	-7.547
806.00	38.596
806.30	41.892
806.61	13.235
806.91	18.519
807.22	13.333
807.52	17.910
807.83	19.355
808.13	6.349
808.43	0.000
808.74	15.152
809.04	16.981
809.35	1.370
809.65	42.105
809.95	22.059
810.26	27.451
810.56	-2.000
810.86	10.204
811.17	8.571
811.47	17.308
811.77	9.677
812.08	-36.842
812.38	16.667
812.69	2.174
812.99	-6.452
813.29	0.000
813.59	-74.074
813.90	-2.128
814.20	-11.628
814.50	14.583
814.81	13.333
815.11	4.878
815.41	6.667
815.72	2.857
816.02	0.000
816.32	-10.256
816.62	27.027
816.93	-23.529
817.23	0.000
817.53	2.941
817.84	-2.941
818.14	-34.375
818.44	-34.483
818.74	0.000
819.04	-14.815
819.35	0.000
819.65	-12.000
819.95	-13.333
820.25	-36.000
820.56	0.000
820.86	10.000
821.16	14.894
821.46	24.138
821.76	-10.256
822.07	-12.500
822.37	9.302
822.67	-13.333
822.97	27.027
823.27	0.000
823.57	0.000
823.88	0.000
824.18	-80.952
824.48	-7.692
824.78	-130.769
825.08	-8.696
825.38	29.167
825.69	-54.167
825.99	-40.000
826.29	5.405
826.59	-5.882
826.89	-24.000
827.19	-14.286
827.49	18.421
827.79	9.375
828.09	-13.333
828.39	34.783
828.70	-34.483
829.00	-20.690
829.30	-2.778
829.60	-6.250
829.90	-55.556
830.20	-23.077
830.50	-71.429
830.80	-32.143
831.10	23.077
831.40	-100.000
831.70	14.706
832.00	-8.333
832.30	0.000
832.60	0.000
832.90	-100.000
833.20	-94.118
833.50	-73.333
833.80	-33.333
834.10	-10.000
834.40	-33.333
834.70	0.000
835.00	-15.385
835.30	-25.000
835.60	20.690
835.90	33.333
836.20	-127.273
836.50	-66.667
836.80	8.571
837.10	20.000
837.40	-52.941
837.70	-90.909
838.00	-41.667
838.30	-75.000
838.60	-14.286
838.90	-15.000
839.19	-21.739
839.49	13.043
839.79	-38.889
840.09	-17.391
840.39	-100.000
840.69	-31.250
840.99	5.263
841.29	-100.000
841.59	-71.429
841.88	-77.778
842.18	4.167
842.48	-35.294
842.78	-10.345
843.08	-50.000
843.38	-23.077
843.68	-144.444
843.97	-123.077
844.27	-127.273
844.57	-320.000
844.87	0.000
845.17	-80.000
845.47	-71.429
845.76	-122.222
846.06	0.000
846.36	-475.000
846.66	-110.000
846.96	-73.684
847.25	-50.000
847.55	-125.000
847.85	-13.333
848.15	-120.000
848.44	34.615
848.74	-5.263
849.04	666.667
849.34	-88.889
849.63	-47.368
849.93	0.000
850.23	-55.000
850.53	-14.286
850.82	-52.000
851.12	-42.105
851.42	-650.000
851.71	-28.571
852.01	-141.667
852.31	0.000
852.61	-60.000
852.90	-19.048
853.20	-116.667
853.50	-88.889
853.79	-31.579
854.09	-93.333
854.39	-14.286
854.68	-47.826
854.98	-183.333
855.28	-34.483
855.57	-143.750
855.87	-65.000
856.17	-86.667
856.46	17.241
856.76	-26.667
857.05	-29.412
857.35	-161.538
857.65	-54.545
857.94	18.519
858.24	-28.571
858.53	-71.429
858.83	0.000
859.13	-244.444
859.42	9.524
859.72	-125.000
860.01	-366.667
860.31	-162.500
860.60	-400.000
860.90	-88.889
861.20	-112.500
861.49	-242.857
861.79	-23.529
862.08	-100.000
862.38	-16.667
862.67	-46.154
862.97	-5.882
863.26	20.000
863.56	-64.706
863.85	400.000
864.15	-130.000
864.44	-146.154
864.74	15.000
865.03	-100.000
865.33	-200.000
865.62	-11.765
865.92	-550.000
866.21	-42.857
866.51	-66.667
866.80	-300.000
867.10	-100.000
867.39	-47.059
867.69	34.783
867.98	-28.571
868.27	-320.000
868.57	-118.750
868.86	-190.909
869.16	-11.765
869.45	-233.333
869.75	-200.000
870.04	2200.000
870.33	-66.667
870.63	-200.000
870.92	-44.444
871.22	-41.667
871.51	-54.545
871.80	-8.333
872.10	-20.000
>>>>>End Processed Spectral Data<<<<<
