SpectraSuite Data File
++++++++++++++++++++++++++++++++++++
Date: Sat May 16 11:09:59 PDT 2015
User: schluterlab
Dark Spectrum Present: Yes
Reference Spectrum Present: Yes
Number of Sampled Component Spectra: 1
Spectrometers: USB2E3373
Integration Time (usec): 3000 (USB2E3373)
Spectra Averaged: 3 (USB2E3373)
Boxcar Smoothing: 0 (USB2E3373)
Correct for Electrical Dark: No (USB2E3373)
Strobe/Lamp Enabled: No (USB2E3373)
Correct for Detector Non-linearity: No (USB2E3373)
Correct for Stray Light: No (USB2E3373)
Number of Pixels in Processed Spectrum: 2048
>>>>>Begin Processed Spectral Data<<<<<
178.53	0.000
178.91	53.333
179.29	-100.000
179.67	0.000
180.04	53.846
180.42	-200.000
180.80	100.000
181.18	425.000
181.56	0.000
181.94	-200.000
182.31	500.000
182.69	30.769
183.07	-133.333
183.45	1200.000
183.83	200.000
184.20	-57.143
184.58	12.500
184.96	-25.000
185.34	62.500
185.72	-225.000
186.09	50.000
186.47	-175.000
186.85	-62.500
187.23	50.000
187.61	-75.000
187.98	-300.000
188.36	-25.000
188.74	62.500
189.12	1200.000
189.49	71.429
189.87	16.667
190.25	175.000
190.63	-14.286
191.00	44.444
191.38	460.000
191.76	66.667
192.14	520.000
192.51	60.000
192.89	-66.667
193.27	0.000
193.65	-11.111
194.02	-114.286
194.40	433.333
194.78	70.000
195.15	-600.000
195.53	-63.636
195.91	-183.333
196.29	100.000
196.66	-200.000
197.04	1000.000
197.42	-175.000
197.79	46.667
198.17	0.000
198.55	400.000
198.92	-600.000
199.30	175.000
199.68	-50.000
200.05	-55.556
200.43	-133.333
200.81	-1300.000
201.18	41.667
201.56	71.429
201.94	60.000
202.31	45.455
202.69	140.000
203.07	70.000
203.44	300.000
203.82	-266.667
204.19	175.000
204.57	100.000
204.95	-500.000
205.32	-31.250
205.70	500.000
206.08	-400.000
206.45	22.222
206.83	-400.000
207.20	600.000
207.58	-500.000
207.96	-33.333
208.33	12.500
208.71	-100.000
209.08	160.000
209.46	-57.143
209.84	-50.000
210.21	0.000
210.59	60.000
210.96	-200.000
211.34	-183.333
211.71	266.667
212.09	225.000
212.46	650.000
212.84	-1400.000
213.22	66.667
213.59	-8.333
213.97	22.222
214.34	80.000
214.72	20.000
215.09	66.667
215.47	-66.667
215.84	-30.000
216.22	-10.000
216.59	-33.333
216.97	-175.000
217.34	750.000
217.72	-71.429
218.09	0.000
218.47	-85.714
218.84	28.571
219.22	57.143
219.59	0.000
219.97	185.714
220.34	275.000
220.72	100.000
221.09	53.846
221.47	0.000
221.84	-200.000
222.22	50.000
222.59	-600.000
222.97	-175.000
223.34	250.000
223.72	-133.333
224.09	21.429
224.46	-200.000
224.84	-14.286
225.21	100.000
225.59	9.091
225.96	62.500
226.34	28.571
226.71	-133.333
227.08	40.000
227.46	1000.000
227.83	-114.286
228.21	-162.500
228.58	50.000
228.95	-6.250
229.33	-500.000
229.70	-40.000
230.08	-650.000
230.45	8.333
230.82	0.000
231.20	-400.000
231.57	-100.000
231.95	1000.000
232.32	52.381
232.69	-66.667
233.07	-71.429
233.44	-50.000
233.81	40.000
234.19	-11.111
234.56	-6.250
234.93	46.875
235.31	-71.429
235.68	-28.571
236.05	5.882
236.43	-13.636
236.80	25.806
237.17	20.833
237.55	23.810
237.92	-59.091
238.29	8.571
238.67	0.000
239.04	8.333
239.41	-16.129
239.79	-2.564
240.16	11.905
240.53	3.636
240.91	15.385
241.28	38.182
241.65	32.308
242.02	1.639
242.40	-8.197
242.77	3.030
243.14	15.254
243.51	-1.429
243.89	11.392
244.26	12.360
244.63	11.579
245.00	15.789
245.38	14.407
245.75	12.389
246.12	15.200
246.49	16.535
246.87	-0.813
247.24	7.627
247.61	11.017
247.98	9.155
248.36	7.692
248.73	12.025
249.10	7.006
249.47	14.035
249.84	13.636
250.22	7.143
250.59	16.384
250.96	14.660
251.33	16.114
251.70	14.904
252.08	9.479
252.45	7.583
252.82	11.905
253.19	11.064
253.56	10.887
253.94	11.392
254.31	10.730
254.68	10.976
255.05	6.452
255.42	12.302
255.79	9.677
256.16	16.471
256.54	13.235
256.91	13.258
257.28	6.227
257.65	10.993
258.02	14.465
258.39	7.358
258.76	7.432
259.14	11.111
259.51	11.475
259.88	10.366
260.25	13.043
260.62	10.932
260.99	10.979
261.36	15.854
261.73	12.139
262.10	14.167
262.47	11.966
262.85	15.143
263.22	8.883
263.59	10.154
263.96	13.913
264.33	12.195
264.70	12.707
265.07	10.989
265.44	12.661
265.81	8.786
266.18	9.873
266.55	12.745
266.92	12.343
267.29	10.412
267.66	13.086
268.03	12.077
268.40	11.972
268.77	10.602
269.14	9.745
269.51	11.494
269.88	10.550
270.25	9.790
270.62	10.755
270.99	11.486
271.36	13.520
271.73	12.108
272.10	10.069
272.47	12.444
272.84	13.556
273.21	11.697
273.58	12.527
273.95	10.088
274.32	9.955
274.69	13.129
275.06	13.497
275.43	9.821
275.80	13.238
276.17	10.669
276.54	11.405
276.91	9.259
277.28	12.982
277.65	9.504
278.02	12.109
278.39	11.984
278.76	11.554
279.13	11.265
279.50	10.338
279.87	12.051
280.23	11.741
280.60	10.139
280.97	9.515
281.34	10.832
281.71	12.692
282.08	9.879
282.45	8.758
282.82	10.659
283.19	10.909
283.56	12.088
283.92	11.837
284.29	12.454
284.66	11.331
285.03	11.943
285.40	11.255
285.77	12.982
286.14	12.635
286.51	11.545
286.87	9.074
287.24	11.775
287.61	10.909
287.98	10.399
288.35	10.579
288.72	10.696
289.08	9.492
289.45	11.111
289.82	9.862
290.19	11.166
290.56	10.579
290.93	10.493
291.29	10.211
291.66	10.467
292.03	12.245
292.40	10.542
292.77	9.006
293.13	10.244
293.50	9.807
293.87	10.736
294.24	9.804
294.60	10.000
294.97	10.470
295.34	7.556
295.71	9.970
296.08	8.909
296.44	8.584
296.81	11.111
297.18	7.887
297.55	10.452
297.91	11.994
298.28	9.726
298.65	11.855
299.02	11.096
299.38	8.824
299.75	9.647
300.12	10.513
300.48	10.486
300.85	11.140
301.22	9.444
301.59	8.713
301.95	11.335
302.32	9.126
302.69	10.404
303.05	10.012
303.42	9.500
303.79	11.364
304.15	11.137
304.52	9.802
304.89	10.390
305.25	9.768
305.62	9.401
305.99	12.367
306.35	11.099
306.72	11.390
307.09	11.351
307.45	11.124
307.82	10.838
308.19	11.074
308.55	12.854
308.92	9.989
309.29	12.108
309.65	11.029
310.02	12.419
310.38	11.135
310.75	12.090
311.12	13.326
311.48	12.630
311.85	12.358
312.22	13.594
312.58	14.039
312.95	12.334
313.31	14.186
313.68	14.271
314.05	14.936
314.41	13.581
314.78	13.487
315.14	14.808
315.51	15.805
315.87	16.167
316.24	15.355
316.61	15.739
316.97	16.617
317.34	16.956
317.70	15.863
318.07	17.817
318.43	17.884
318.80	19.718
319.16	16.698
319.53	17.481
319.89	18.438
320.26	19.216
320.62	18.558
320.99	19.303
321.35	18.227
321.72	18.424
322.08	20.178
322.45	20.099
322.81	20.365
323.18	19.404
323.54	20.333
323.91	20.297
324.27	22.338
324.64	21.298
325.00	21.815
325.37	20.905
325.73	23.010
326.10	21.523
326.46	22.067
326.83	22.809
327.19	22.852
327.56	22.998
327.92	23.110
328.29	24.502
328.65	20.727
329.01	23.940
329.38	24.353
329.74	23.626
330.11	23.572
330.47	23.524
330.84	24.748
331.20	23.195
331.56	23.428
331.93	23.712
332.29	23.927
332.66	24.056
333.02	23.529
333.38	23.387
333.75	24.488
334.11	23.644
334.48	24.007
334.84	24.934
335.20	24.379
335.57	23.736
335.93	25.067
336.29	24.712
336.66	24.141
337.02	23.243
337.38	23.173
337.75	23.354
338.11	24.508
338.47	23.399
338.84	24.229
339.20	23.902
339.56	25.134
339.93	23.545
340.29	24.269
340.65	24.038
341.02	24.368
341.38	22.662
341.74	23.624
342.11	22.952
342.47	23.948
342.83	23.510
343.20	23.313
343.56	21.959
343.92	24.875
344.28	24.558
344.65	22.690
345.01	23.109
345.37	24.003
345.73	22.831
346.10	22.240
346.46	23.233
346.82	22.855
347.19	22.843
347.55	23.596
347.91	22.756
348.27	22.514
348.63	23.990
349.00	23.707
349.36	21.233
349.72	23.965
350.08	22.694
350.45	22.459
350.81	23.169
351.17	22.347
351.53	22.275
351.89	22.878
352.26	23.023
352.62	23.656
352.98	23.339
353.34	23.661
353.70	22.239
354.07	22.974
354.43	22.846
354.79	22.504
355.15	23.882
355.51	22.813
355.87	22.372
356.24	22.240
356.60	23.852
356.96	22.864
357.32	22.882
357.68	22.222
358.04	22.710
358.40	22.196
358.77	23.725
359.13	22.724
359.49	22.751
359.85	22.256
360.21	22.679
360.57	23.042
360.93	23.259
361.29	22.945
361.66	22.637
362.02	22.929
362.38	23.184
362.74	23.663
363.10	23.314
363.46	23.647
363.82	23.251
364.18	23.951
364.54	23.874
364.90	23.201
365.26	23.609
365.62	24.947
365.98	24.609
366.35	23.521
366.71	23.749
367.07	23.994
367.43	25.463
367.79	23.780
368.15	23.257
368.51	24.685
368.87	23.626
369.23	24.491
369.59	23.403
369.95	23.608
370.31	24.754
370.67	22.777
371.03	23.980
371.39	23.197
371.75	25.036
372.11	23.745
372.47	25.235
372.83	24.965
373.19	24.000
373.55	24.560
373.91	24.751
374.27	24.641
374.63	23.810
374.99	23.713
375.35	24.092
375.71	25.928
376.07	25.257
376.42	24.305
376.78	24.706
377.14	26.102
377.50	25.338
377.86	24.772
378.22	25.628
378.58	24.892
378.94	24.846
379.30	24.741
379.66	25.622
380.02	24.896
380.38	25.740
380.74	24.385
381.09	25.893
381.45	25.895
381.81	25.348
382.17	25.376
382.53	25.593
382.89	25.359
383.25	26.309
383.61	24.646
383.97	26.087
384.32	26.658
384.68	27.146
385.04	25.906
385.40	26.172
385.76	26.220
386.12	26.234
386.48	26.918
386.83	27.301
387.19	25.882
387.55	25.742
387.91	26.200
388.27	25.754
388.62	25.661
388.98	26.105
389.34	26.010
389.70	25.761
390.06	26.600
390.42	27.372
390.77	27.129
391.13	27.578
391.49	27.261
391.85	26.683
392.20	26.942
392.56	27.184
392.92	27.153
393.28	28.014
393.64	27.962
393.99	27.754
394.35	27.190
394.71	27.116
395.07	27.495
395.42	26.579
395.78	28.096
396.14	28.287
396.50	27.095
396.85	28.254
397.21	28.190
397.57	28.328
397.92	28.513
398.28	27.833
398.64	27.841
399.00	28.876
399.35	28.241
399.71	28.397
400.07	28.179
400.42	28.893
400.78	28.026
401.14	27.186
401.49	28.774
401.85	28.066
402.21	28.427
402.57	28.944
402.92	29.075
403.28	29.105
403.63	28.101
403.99	29.086
404.35	28.321
404.70	28.672
405.06	28.547
405.42	28.598
405.77	28.337
406.13	29.302
406.49	28.820
406.84	29.214
407.20	29.682
407.55	29.639
407.91	28.368
408.27	28.922
408.62	29.405
408.98	28.927
409.34	29.311
409.69	29.616
410.05	29.412
410.40	29.798
410.76	30.765
411.11	29.302
411.47	29.092
411.83	30.134
412.18	29.950
412.54	29.225
412.89	30.194
413.25	29.280
413.60	29.162
413.96	30.006
414.31	29.480
414.67	30.413
415.03	29.366
415.38	30.189
415.74	30.799
416.09	30.882
416.45	29.167
416.80	31.079
417.16	30.033
417.51	30.663
417.87	30.809
418.22	30.657
418.58	30.680
418.93	31.085
419.29	30.176
419.64	30.151
420.00	30.255
420.35	31.047
420.71	31.152
421.06	31.065
421.42	30.738
421.77	31.547
422.12	31.281
422.48	29.663
422.83	31.207
423.19	30.401
423.54	32.911
423.90	32.331
424.25	31.109
424.61	32.207
424.96	32.885
425.31	31.861
425.67	31.347
426.02	30.637
426.38	33.273
426.73	32.613
427.09	32.292
427.44	31.875
427.79	31.919
428.15	32.136
428.50	32.023
428.85	33.094
429.21	32.540
429.56	32.344
429.92	32.014
430.27	33.250
430.62	32.236
430.98	33.089
431.33	32.924
431.68	33.190
432.04	32.792
432.39	33.219
432.74	32.134
433.10	33.427
433.45	32.412
433.80	33.091
434.16	33.584
434.51	33.863
434.86	33.802
435.22	33.630
435.57	33.109
435.92	34.056
436.28	33.650
436.63	33.635
436.98	33.333
437.34	33.373
437.69	33.372
438.04	33.239
438.39	34.296
438.75	33.469
439.10	33.703
439.45	33.856
439.81	33.795
440.16	33.447
440.51	34.824
440.86	34.008
441.22	33.499
441.57	34.842
441.92	34.527
442.27	34.740
442.63	34.120
442.98	33.860
443.33	34.377
443.68	33.768
444.03	33.939
444.39	33.823
444.74	34.747
445.09	34.320
445.44	33.877
445.79	34.676
446.15	33.899
446.50	33.206
446.85	34.120
447.20	34.780
447.55	34.144
447.91	35.542
448.26	34.860
448.61	34.748
448.96	34.566
449.31	33.709
449.66	35.318
450.02	33.961
450.37	33.275
450.72	34.294
451.07	35.198
451.42	34.201
451.77	34.710
452.12	34.565
452.47	34.887
452.83	34.013
453.18	34.472
453.53	34.639
453.88	34.091
454.23	33.918
454.58	34.742
454.93	35.705
455.28	34.672
455.63	35.749
455.98	36.024
456.34	34.371
456.69	35.710
457.04	34.849
457.39	34.450
457.74	34.554
458.09	35.035
458.44	35.046
458.79	34.249
459.14	34.512
459.49	34.754
459.84	34.458
460.19	34.427
460.54	34.422
460.89	35.594
461.24	34.062
461.59	33.880
461.94	34.628
462.29	35.140
462.64	34.321
462.99	34.739
463.34	34.301
463.69	34.796
464.04	33.509
464.39	33.094
464.74	34.988
465.09	34.877
465.44	34.461
465.79	34.631
466.14	35.098
466.49	35.176
466.84	34.034
467.19	35.037
467.54	34.051
467.89	34.525
468.24	34.264
468.59	34.229
468.94	34.277
469.29	34.048
469.64	34.704
469.99	35.517
470.34	35.271
470.68	35.392
471.03	34.825
471.38	34.097
471.73	36.434
472.08	35.274
472.43	33.526
472.78	33.667
473.13	34.327
473.48	34.078
473.83	34.181
474.17	34.268
474.52	34.591
474.87	34.965
475.22	35.044
475.57	34.389
475.92	34.179
476.27	33.657
476.61	33.972
476.96	33.985
477.31	34.392
477.66	34.698
478.01	34.576
478.36	33.683
478.70	34.971
479.05	34.343
479.40	34.145
479.75	33.741
480.10	34.077
480.45	33.075
480.79	35.192
481.14	34.119
481.49	34.269
481.84	33.796
482.19	33.988
482.53	33.996
482.88	34.124
483.23	34.225
483.58	34.551
483.92	34.400
484.27	33.141
484.62	33.261
484.97	33.515
485.31	32.832
485.66	32.829
486.01	33.217
486.36	33.536
486.70	33.998
487.05	33.812
487.40	33.333
487.75	32.847
488.09	32.242
488.44	32.984
488.79	32.437
489.13	33.473
489.48	33.401
489.83	33.319
490.17	32.912
490.52	33.560
490.87	33.395
491.22	33.022
491.56	33.194
491.91	33.397
492.26	33.208
492.60	33.777
492.95	33.079
493.30	32.539
493.64	32.769
493.99	32.935
494.34	33.190
494.68	33.052
495.03	32.505
495.37	33.235
495.72	33.497
496.07	33.318
496.41	33.117
496.76	32.968
497.11	33.726
497.45	32.423
497.80	33.167
498.14	33.399
498.49	32.647
498.84	32.379
499.18	33.041
499.53	32.635
499.87	32.867
500.22	33.382
500.56	33.617
500.91	33.744
501.26	32.751
501.60	32.884
501.95	33.720
502.29	32.641
502.64	32.862
502.98	32.535
503.33	32.143
503.67	32.663
504.02	32.545
504.36	32.353
504.71	33.181
505.06	32.501
505.40	33.034
505.75	33.181
506.09	33.367
506.44	32.832
506.78	32.514
507.13	32.801
507.47	32.394
507.82	31.957
508.16	33.212
508.51	31.839
508.85	31.729
509.19	32.391
509.54	32.294
509.88	32.394
510.23	32.862
510.57	32.963
510.92	33.083
511.26	31.632
511.61	31.965
511.95	32.489
512.30	32.930
512.64	31.886
512.98	33.443
513.33	32.070
513.67	32.105
514.02	32.942
514.36	32.133
514.70	32.315
515.05	32.133
515.39	32.353
515.74	33.101
516.08	31.816
516.42	32.691
516.77	32.005
517.11	32.437
517.46	32.536
517.80	31.829
518.14	31.401
518.49	32.696
518.83	31.335
519.17	32.623
519.52	31.637
519.86	32.019
520.20	31.785
520.55	32.554
520.89	31.497
521.23	31.136
521.58	31.724
521.92	31.539
522.26	31.746
522.61	31.559
522.95	31.398
523.29	31.411
523.64	31.293
523.98	33.227
524.32	32.055
524.66	30.932
525.01	30.700
525.35	32.088
525.69	31.165
526.04	32.441
526.38	31.891
526.72	30.715
527.06	31.771
527.41	31.287
527.75	31.089
528.09	32.098
528.43	31.344
528.78	30.716
529.12	31.562
529.46	32.023
529.80	30.859
530.15	31.230
530.49	31.371
530.83	31.565
531.17	31.717
531.51	30.877
531.86	32.126
532.20	31.781
532.54	32.353
532.88	32.082
533.22	31.818
533.57	32.702
533.91	31.024
534.25	31.364
534.59	30.856
534.93	30.429
535.27	31.655
535.62	31.330
535.96	30.963
536.30	30.432
536.64	30.744
536.98	32.203
537.32	30.339
537.66	30.686
538.01	30.653
538.35	31.689
538.69	30.481
539.03	31.144
539.37	30.339
539.71	31.755
540.05	32.282
540.39	30.402
540.73	31.030
541.07	32.104
541.42	30.993
541.76	29.635
542.10	31.600
542.44	30.513
542.78	30.868
543.12	30.143
543.46	30.137
543.80	30.033
544.14	31.162
544.48	31.102
544.82	29.702
545.16	31.120
545.50	30.552
545.84	30.946
546.18	30.929
546.52	30.725
546.86	31.838
547.20	31.224
547.54	30.096
547.88	30.259
548.22	30.537
548.56	30.461
548.90	30.795
549.24	31.955
549.58	30.416
549.92	32.155
550.26	30.419
550.60	30.370
550.94	30.657
551.28	30.926
551.62	29.616
551.96	30.246
552.30	29.826
552.64	31.034
552.98	31.044
553.32	30.808
553.66	31.435
554.00	31.557
554.34	29.675
554.68	30.848
555.02	30.970
555.36	31.272
555.69	30.301
556.03	30.667
556.37	31.721
556.71	30.995
557.05	30.229
557.39	30.067
557.73	31.729
558.07	30.294
558.41	31.862
558.75	31.027
559.08	29.728
559.42	31.240
559.76	31.902
560.10	31.394
560.44	31.286
560.78	30.341
561.12	30.366
561.45	31.918
561.79	31.568
562.13	30.785
562.47	30.462
562.81	29.279
563.15	30.581
563.48	30.684
563.82	30.764
564.16	29.412
564.50	30.175
564.84	30.622
565.17	30.239
565.51	31.095
565.85	30.899
566.19	31.555
566.52	30.594
566.86	29.709
567.20	31.235
567.54	31.542
567.88	29.146
568.21	31.376
568.55	30.276
568.89	30.417
569.23	29.986
569.56	29.844
569.90	29.740
570.24	31.003
570.57	29.244
570.91	29.752
571.25	30.253
571.59	29.878
571.92	29.762
572.26	29.599
572.60	29.352
572.93	29.885
573.27	29.604
573.61	28.993
573.95	29.617
574.28	29.234
574.62	30.503
574.96	29.088
575.29	29.395
575.63	28.909
575.97	28.830
576.30	29.131
576.64	28.982
576.98	28.465
577.31	29.130
577.65	29.389
577.98	29.541
578.32	29.194
578.66	28.941
578.99	29.090
579.33	29.063
579.67	29.267
580.00	29.067
580.34	28.963
580.67	29.517
581.01	28.793
581.35	29.182
581.68	29.485
582.02	29.925
582.35	29.178
582.69	29.805
583.02	29.487
583.36	29.480
583.70	29.186
584.03	29.472
584.37	28.985
584.70	28.628
585.04	29.392
585.37	28.759
585.71	29.294
586.04	29.433
586.38	29.484
586.72	29.115
587.05	29.199
587.39	29.664
587.72	29.812
588.06	29.409
588.39	29.137
588.73	29.149
589.06	29.060
589.40	30.471
589.73	29.674
590.07	28.915
590.40	29.557
590.73	29.428
591.07	29.467
591.40	29.463
591.74	29.887
592.07	29.459
592.41	29.342
592.74	29.939
593.08	29.797
593.41	29.342
593.75	28.915
594.08	30.086
594.41	29.797
594.75	30.087
595.08	29.812
595.42	29.660
595.75	29.254
596.09	29.763
596.42	29.460
596.75	29.064
597.09	30.142
597.42	29.507
597.75	29.584
598.09	29.733
598.42	29.076
598.76	29.277
599.09	29.163
599.42	29.027
599.76	29.672
600.09	30.115
600.42	29.890
600.76	30.056
601.09	29.472
601.42	29.284
601.76	30.452
602.09	29.530
602.42	29.053
602.76	29.082
603.09	29.194
603.42	30.177
603.76	29.438
604.09	29.515
604.42	28.976
604.76	29.132
605.09	29.792
605.42	29.787
605.75	29.884
606.09	29.016
606.42	29.535
606.75	28.682
607.09	30.348
607.42	29.489
607.75	29.316
608.08	29.507
608.42	29.849
608.75	29.393
609.08	29.420
609.41	29.995
609.75	29.254
610.08	29.657
610.41	29.831
610.74	29.884
611.07	30.020
611.41	28.996
611.74	29.820
612.07	30.505
612.40	29.531
612.73	29.725
613.07	29.059
613.40	30.706
613.73	30.409
614.06	29.819
614.39	29.989
614.72	29.441
615.06	29.620
615.39	30.440
615.72	31.124
616.05	29.321
616.38	30.064
616.71	30.270
617.05	30.941
617.38	30.526
617.71	29.300
618.04	29.876
618.37	30.126
618.70	30.443
619.03	29.452
619.36	30.796
619.69	30.366
620.03	30.303
620.36	29.958
620.69	31.371
621.02	29.452
621.35	30.000
621.68	29.590
622.01	31.311
622.34	30.512
622.67	31.094
623.00	30.834
623.33	31.418
623.66	29.985
623.99	30.752
624.32	29.092
624.65	29.507
624.99	29.276
625.32	30.913
625.65	30.847
625.98	30.047
626.31	31.158
626.64	29.958
626.97	30.565
627.30	30.298
627.63	29.447
627.96	30.461
628.29	31.250
628.62	31.519
628.95	31.693
629.28	30.075
629.61	31.109
629.94	29.962
630.26	29.821
630.59	31.960
630.92	31.331
631.25	32.359
631.58	29.524
631.91	30.000
632.24	30.667
632.57	31.444
632.90	32.989
633.23	30.491
633.56	30.409
633.89	32.429
634.22	31.641
634.55	31.250
634.88	30.713
635.20	32.834
635.53	31.934
635.86	30.605
636.19	30.281
636.52	31.063
636.85	30.806
637.18	29.500
637.51	31.599
637.83	31.691
638.16	30.921
638.49	29.931
638.82	31.660
639.15	32.036
639.48	30.220
639.81	33.333
640.13	30.135
640.46	31.766
640.79	30.812
641.12	30.183
641.45	31.133
641.77	30.090
642.10	29.909
642.43	31.411
642.76	31.181
643.09	29.841
643.41	32.222
643.74	31.161
644.07	31.825
644.40	31.767
644.73	32.013
645.05	30.050
645.38	34.437
645.71	30.584
646.04	32.941
646.36	30.017
646.69	32.353
647.02	31.047
647.35	30.144
647.67	31.022
648.00	33.216
648.33	32.884
648.66	31.935
648.98	32.962
649.31	31.231
649.64	33.125
649.96	32.496
650.29	32.295
650.62	31.842
650.94	32.715
651.27	32.409
651.60	32.526
651.92	32.534
652.25	32.554
652.58	29.472
652.90	33.066
653.23	33.226
653.56	29.766
653.88	30.656
654.21	32.550
654.54	32.392
654.86	32.905
655.19	32.951
655.52	30.612
655.84	30.483
656.17	33.156
656.49	45.188
656.82	46.037
657.15	34.522
657.47	25.546
657.80	19.788
658.13	22.359
658.45	30.083
658.78	28.748
659.10	28.692
659.43	27.893
659.75	27.891
660.08	27.604
660.41	27.904
660.73	29.593
661.06	31.449
661.38	32.857
661.71	31.166
662.03	31.250
662.36	32.836
662.68	29.325
663.01	32.909
663.33	32.880
663.66	31.974
663.98	32.366
664.31	29.083
664.63	32.522
664.96	32.321
665.28	32.755
665.61	31.078
665.93	31.070
666.26	34.211
666.58	31.809
666.91	32.962
667.23	32.456
667.56	32.426
667.88	32.353
668.21	32.028
668.53	30.841
668.86	32.564
669.18	34.475
669.50	32.944
669.83	33.333
670.15	31.614
670.48	31.776
670.80	31.435
671.13	30.926
671.45	31.306
671.77	31.478
672.10	33.333
672.42	34.871
672.75	31.455
673.07	30.991
673.39	31.512
673.72	32.283
674.04	31.635
674.37	27.629
674.69	34.016
675.01	33.617
675.34	31.887
675.66	32.181
675.98	30.396
676.31	33.032
676.63	30.805
676.95	32.522
677.28	34.339
677.60	34.163
677.92	33.700
678.25	33.042
678.57	31.893
678.89	31.237
679.22	33.124
679.54	31.953
679.86	30.200
680.18	33.270
680.51	30.726
680.83	32.000
681.15	31.407
681.48	34.686
681.80	30.040
682.12	32.394
682.44	33.006
682.77	30.087
683.09	35.010
683.41	32.301
683.73	28.995
684.06	28.387
684.38	33.264
684.70	30.864
685.02	31.693
685.34	32.164
685.67	29.924
685.99	29.679
686.31	33.932
686.63	31.560
686.96	32.163
687.28	31.214
687.60	33.984
687.92	30.934
688.24	31.890
688.56	33.667
688.89	33.547
689.21	33.479
689.53	31.494
689.85	31.403
690.17	32.960
690.49	35.104
690.82	32.048
691.14	32.075
691.46	31.264
691.78	31.278
692.10	34.958
692.42	31.333
692.74	32.403
693.06	32.360
693.39	31.320
693.71	31.828
694.03	34.125
694.35	32.280
694.67	28.605
694.99	29.156
695.31	30.612
695.63	31.633
695.95	32.258
696.27	33.167
696.59	34.225
696.91	35.112
697.23	31.510
697.56	31.010
697.88	31.081
698.20	33.833
698.52	30.493
698.84	35.194
699.16	31.905
699.48	32.750
699.80	33.333
700.12	34.257
700.44	33.799
700.76	30.612
701.08	31.977
701.40	26.284
701.72	33.333
702.04	36.538
702.36	34.940
702.68	34.132
703.00	33.043
703.32	32.951
703.64	35.294
703.96	31.395
704.28	32.840
704.60	31.962
704.91	29.206
705.23	33.657
705.55	28.378
705.87	34.471
706.19	27.778
706.51	32.986
706.83	33.115
707.15	33.121
707.47	38.567
707.79	31.959
708.11	31.043
708.43	34.414
708.74	31.948
709.06	29.248
709.38	29.885
709.70	30.000
710.02	39.264
710.34	34.323
710.66	30.159
710.98	31.230
711.29	34.839
711.61	30.990
711.93	35.082
712.25	35.216
712.57	34.146
712.89	38.489
713.20	33.677
713.52	32.463
713.84	32.384
714.16	35.738
714.48	33.968
714.80	35.385
715.11	33.141
715.43	36.446
715.75	34.268
716.07	35.738
716.39	34.783
716.70	31.359
717.02	35.556
717.34	31.298
717.66	32.780
717.97	34.836
718.29	32.353
718.61	37.698
718.93	35.842
719.24	34.559
719.56	33.208
719.88	33.091
720.20	31.835
720.51	40.226
720.83	34.940
721.15	32.787
721.46	32.941
721.78	32.567
722.10	34.400
722.42	35.950
722.73	33.068
723.05	36.145
723.37	37.647
723.68	32.794
724.00	33.740
724.32	34.568
724.63	30.290
724.95	40.083
725.27	29.386
725.58	37.069
725.90	30.556
726.22	39.483
726.53	33.840
726.85	29.412
727.16	32.707
727.48	34.231
727.80	33.197
728.11	36.975
728.43	37.190
728.74	38.281
729.06	32.955
729.38	32.685
729.69	37.008
730.01	35.827
730.32	32.669
730.64	34.432
730.96	39.925
731.27	35.000
731.59	33.762
731.90	30.982
732.22	33.742
732.53	35.430
732.85	31.208
733.16	33.333
733.48	35.192
733.80	36.299
734.11	35.862
734.43	34.354
734.74	37.685
735.06	32.915
735.37	35.780
735.69	28.710
736.00	32.660
736.32	34.768
736.63	30.690
736.95	33.333
737.26	36.755
737.58	34.532
737.89	37.634
738.21	30.451
738.52	39.615
738.83	39.062
739.15	33.761
739.46	39.919
739.78	34.266
740.09	34.965
740.41	28.671
740.72	33.577
741.04	30.952
741.35	31.169
741.66	33.796
741.98	34.762
742.29	39.437
742.61	35.829
742.92	38.318
743.23	29.825
743.55	36.486
743.86	35.556
744.18	33.810
744.49	40.394
744.80	35.533
745.12	31.959
745.43	37.688
745.74	34.951
746.06	32.195
746.37	35.242
746.68	36.318
747.00	36.649
747.31	23.077
747.62	31.797
747.94	37.118
748.25	36.279
748.56	37.619
748.88	29.891
749.19	31.455
749.50	39.216
749.82	36.889
750.13	37.004
750.44	35.772
750.75	37.200
751.07	35.714
751.38	34.686
751.69	30.534
752.01	36.154
752.32	34.630
752.63	31.538
752.94	37.698
753.26	36.087
753.57	39.732
753.88	34.483
754.19	30.290
754.51	37.500
754.82	33.992
755.13	35.391
755.44	39.256
755.75	35.802
756.07	29.719
756.38	37.500
756.69	35.018
757.00	34.146
757.31	35.570
757.63	36.760
757.94	33.526
758.25	30.814
758.56	39.892
758.87	30.682
759.18	32.000
759.50	33.452
759.81	32.482
760.12	30.743
760.43	34.951
760.74	35.312
761.05	35.955
761.36	35.329
761.67	34.320
761.99	31.613
762.30	39.130
762.61	30.189
762.92	33.632
763.23	32.701
763.54	36.444
763.85	31.646
764.16	36.327
764.47	35.593
764.78	35.955
765.10	33.453
765.41	30.645
765.72	36.164
766.03	32.862
766.34	32.331
766.65	29.555
766.96	37.500
767.27	34.896
767.58	35.465
767.89	30.968
768.20	36.810
768.51	32.240
768.82	34.054
769.13	34.000
769.44	39.474
769.75	35.065
770.06	34.404
770.37	34.272
770.68	31.771
770.99	33.168
771.30	37.379
771.61	38.426
771.92	29.004
772.23	35.514
772.54	39.894
772.85	32.544
773.16	38.415
773.47	39.157
773.78	44.505
774.09	34.667
774.39	29.630
774.70	38.255
775.01	33.333
775.32	30.597
775.63	28.926
775.94	48.120
776.25	30.714
776.56	36.885
776.87	40.708
777.18	43.363
777.48	29.091
777.79	33.043
778.10	37.615
778.41	33.898
778.72	41.322
779.03	38.806
779.34	27.820
779.65	43.791
779.95	39.855
780.26	31.973
780.57	35.345
780.88	33.333
781.19	39.394
781.50	30.400
781.80	36.601
782.11	34.615
782.42	28.313
782.73	35.036
783.04	36.486
783.34	37.879
783.65	44.961
783.96	39.837
784.27	41.026
784.57	40.650
784.88	30.081
785.19	33.333
785.50	19.588
785.81	30.476
786.11	28.431
786.42	21.818
786.73	26.126
787.04	41.584
787.34	24.762
787.65	33.333
787.96	39.216
788.26	32.432
788.57	30.645
788.88	27.344
789.19	34.188
789.49	34.454
789.80	29.915
790.11	42.478
790.41	25.253
790.72	39.623
791.03	31.944
791.33	25.000
791.64	37.634
791.95	40.000
792.25	18.571
792.56	23.171
792.87	37.755
793.17	36.842
793.48	14.865
793.79	22.535
794.09	35.443
794.40	42.553
794.70	44.860
795.01	21.053
795.32	32.727
795.62	25.000
795.93	27.835
796.23	37.363
796.54	32.632
796.85	39.726
797.15	25.000
797.46	34.247
797.76	32.394
798.07	42.500
798.37	38.235
798.68	48.571
798.99	25.714
799.29	25.000
799.60	45.000
799.90	29.167
800.21	34.375
800.51	23.810
800.82	54.098
801.12	29.825
801.43	28.169
801.73	25.424
802.04	31.148
802.34	32.727
802.65	21.154
802.95	42.593
803.26	32.500
803.56	38.462
803.87	47.368
804.17	41.935
804.48	43.077
804.78	46.154
805.09	44.186
805.39	9.375
805.70	13.208
806.00	43.860
806.30	55.405
806.61	38.235
806.91	40.741
807.22	45.333
807.52	37.313
807.83	24.194
808.13	30.159
808.43	27.273
808.74	45.455
809.04	33.962
809.35	34.247
809.65	49.123
809.95	25.000
810.26	58.824
810.56	14.000
810.86	34.694
811.17	40.000
811.47	36.538
811.77	16.129
812.08	2.632
812.38	38.095
812.69	13.043
812.99	51.613
813.29	11.905
813.59	-14.815
813.90	25.532
814.20	13.953
814.50	25.000
814.81	25.000
815.11	43.902
815.41	53.333
815.72	54.286
816.02	41.667
816.32	35.897
816.62	13.514
816.93	32.353
817.23	23.913
817.53	44.118
817.84	26.471
818.14	25.000
818.44	37.931
818.74	-19.355
819.04	29.630
819.35	30.000
819.65	24.000
819.95	26.667
820.25	48.000
820.56	18.421
820.86	-7.500
821.16	21.277
821.46	36.207
821.76	35.897
822.07	30.000
822.37	27.907
822.67	3.333
822.97	35.135
823.27	51.351
823.57	48.000
823.88	35.135
824.18	4.762
824.48	15.385
824.78	46.154
825.08	47.826
825.38	12.500
825.69	16.667
825.99	-20.000
826.29	45.946
826.59	17.647
826.89	56.000
827.19	45.714
827.49	36.842
827.79	25.000
828.09	23.333
828.39	43.478
828.70	24.138
829.00	10.345
829.30	66.667
829.60	71.875
829.90	11.111
830.20	23.077
830.50	14.286
830.80	-25.000
831.10	25.641
831.40	-9.524
831.70	26.471
832.00	16.667
832.30	36.842
832.60	-12.500
832.90	33.333
833.20	-35.294
833.50	-80.000
833.80	26.667
834.10	-5.000
834.40	50.000
834.70	5.556
835.00	61.538
835.30	12.500
835.60	13.793
835.90	44.444
836.20	-9.091
836.50	-41.667
836.80	34.286
837.10	40.000
837.40	-5.882
837.70	18.182
838.00	62.500
838.30	6.250
838.60	28.571
838.90	65.000
839.19	21.739
839.49	65.217
839.79	66.667
840.09	-13.043
840.39	-9.091
840.69	-118.750
840.99	57.895
841.29	-50.000
841.59	-7.143
841.88	27.778
842.18	33.333
842.48	-17.647
842.78	24.138
843.08	92.857
843.38	69.231
843.68	-100.000
843.97	15.385
844.27	18.182
844.57	-140.000
844.87	40.000
845.17	-40.000
845.47	-7.143
845.76	-111.111
846.06	0.000
846.36	-225.000
846.66	10.000
846.96	0.000
847.25	8.333
847.55	58.333
847.85	33.333
848.15	-40.000
848.44	69.231
848.74	36.842
849.04	266.667
849.34	22.222
849.63	-36.842
849.93	0.000
850.23	15.000
850.53	71.429
850.82	-32.000
851.12	15.789
851.42	-150.000
851.71	7.143
852.01	-16.667
852.31	23.529
852.61	33.333
852.90	-42.857
853.20	-83.333
853.50	-5.556
853.79	-15.789
854.09	33.333
854.39	39.286
854.68	-30.435
854.98	-183.333
855.28	37.931
855.57	37.500
855.87	15.000
856.17	6.667
856.46	6.897
856.76	0.000
857.05	-11.765
857.35	-61.538
857.65	-90.909
857.94	22.222
858.24	35.714
858.53	-35.714
858.83	-16.667
859.13	0.000
859.42	90.476
859.72	12.500
860.01	166.667
860.31	25.000
860.60	-120.000
860.90	-155.556
861.20	87.500
861.49	-42.857
861.79	35.294
862.08	-400.000
862.38	-58.333
862.67	15.385
862.97	5.882
863.26	10.000
863.56	5.882
863.85	133.333
864.15	-10.000
864.44	-15.385
864.74	80.000
865.03	-125.000
865.33	50.000
865.62	-29.412
865.92	-700.000
866.21	-42.857
866.51	-8.333
866.80	-100.000
867.10	233.333
867.39	-5.882
867.69	34.783
867.98	14.286
868.27	0.000
868.57	-62.500
868.86	36.364
869.16	52.941
869.45	66.667
869.75	-114.286
870.04	-100.000
870.33	-8.333
870.63	-20.000
870.92	-11.111
871.22	8.333
871.51	0.000
871.80	25.000
872.10	50.000
>>>>>End Processed Spectral Data<<<<<
