SpectraSuite Data File
++++++++++++++++++++++++++++++++++++
Date: Sat May 16 11:41:14 PDT 2015
User: schluterlab
Dark Spectrum Present: Yes
Reference Spectrum Present: Yes
Number of Sampled Component Spectra: 1
Spectrometers: USB2E3373
Integration Time (usec): 3000 (USB2E3373)
Spectra Averaged: 3 (USB2E3373)
Boxcar Smoothing: 0 (USB2E3373)
Correct for Electrical Dark: No (USB2E3373)
Strobe/Lamp Enabled: No (USB2E3373)
Correct for Detector Non-linearity: No (USB2E3373)
Correct for Stray Light: No (USB2E3373)
Number of Pixels in Processed Spectrum: 2048
>>>>>Begin Processed Spectral Data<<<<<
178.53	0.000
178.91	160.000
179.29	600.000
179.67	-900.000
180.04	-76.923
180.42	700.000
180.80	250.000
181.18	650.000
181.56	-150.000
181.94	1000.000
182.31	475.000
182.69	-92.308
183.07	-266.667
183.45	1600.000
183.83	333.333
184.20	-100.000
184.58	-187.500
184.96	-475.000
185.34	118.750
185.72	-675.000
186.09	366.667
186.47	-212.500
186.85	-137.500
187.23	-87.500
187.61	-300.000
187.98	-187.500
188.36	-100.000
188.74	-125.000
189.12	1500.000
189.49	242.857
189.87	-75.000
190.25	175.000
190.63	-35.714
191.00	-55.556
191.38	200.000
191.76	-73.333
192.14	600.000
192.51	-140.000
192.89	-300.000
193.27	0.000
193.65	-100.000
194.02	-200.000
194.40	500.000
194.78	-100.000
195.15	-800.000
195.53	-136.364
195.91	-383.333
196.29	200.000
196.66	-633.333
197.04	2900.000
197.42	-350.000
197.79	-13.333
198.17	33.333
198.55	-850.000
198.92	-1100.000
199.30	125.000
199.68	-750.000
200.05	-233.333
200.43	-77.778
200.81	-1900.000
201.18	-108.333
201.56	157.143
201.94	-40.000
202.31	-18.182
202.69	70.000
203.07	-80.000
203.44	633.333
203.82	-500.000
204.19	-500.000
204.57	-375.000
204.95	-1000.000
205.32	-25.000
205.70	1900.000
206.08	-2200.000
206.45	-61.111
206.83	-1200.000
207.20	-150.000
207.58	-500.000
207.96	-233.333
208.33	-300.000
208.71	-144.444
209.08	250.000
209.46	-42.857
209.84	1100.000
210.21	0.000
210.59	40.000
210.96	1000.000
211.34	-216.667
211.71	-133.333
212.09	100.000
212.46	1150.000
212.84	-3400.000
213.22	833.333
213.59	141.667
213.97	-122.222
214.34	280.000
214.72	-90.000
215.09	-433.333
215.47	-66.667
215.84	-150.000
216.22	-120.000
216.59	46.667
216.97	-300.000
217.34	450.000
217.72	-28.571
218.09	-350.000
218.47	-114.286
218.84	142.857
219.22	-228.571
219.59	0.000
219.97	114.286
220.34	425.000
220.72	237.500
221.09	15.385
221.47	0.000
221.84	300.000
222.22	100.000
222.59	1400.000
222.97	-87.500
223.34	-400.000
223.72	-433.333
224.09	-35.714
224.46	-350.000
224.84	-57.143
225.21	-128.571
225.59	-45.455
225.96	-75.000
226.34	-57.143
226.71	-233.333
227.08	-40.000
227.46	1500.000
227.83	-285.714
228.21	-125.000
228.58	150.000
228.95	-106.250
229.33	-2100.000
229.70	-360.000
230.08	-1400.000
230.45	-25.000
230.82	-83.333
231.20	-1100.000
231.57	-550.000
231.95	1000.000
232.32	-14.286
232.69	-122.222
233.07	-257.143
233.44	-900.000
233.81	-80.000
234.19	-77.778
234.56	-100.000
234.93	15.625
235.31	-242.857
235.68	-85.714
236.05	-70.588
236.43	-40.909
236.80	0.000
237.17	-25.000
237.55	-61.905
237.92	-13.636
238.29	-42.857
238.67	-11.765
239.04	-5.556
239.41	-9.677
239.79	-43.590
240.16	0.000
240.53	-12.727
240.91	-17.949
241.28	7.273
241.65	20.000
242.02	3.279
242.40	-3.279
242.77	27.273
243.14	3.390
243.51	-2.857
243.89	18.987
244.26	12.360
244.63	11.579
245.00	26.316
245.38	17.797
245.75	13.274
246.12	10.400
246.49	14.961
246.87	12.195
247.24	8.475
247.61	6.780
247.98	13.380
248.36	17.483
248.73	17.722
249.10	11.465
249.47	18.713
249.84	22.727
250.22	6.548
250.59	18.079
250.96	18.325
251.33	20.853
251.70	14.904
252.08	13.270
252.45	11.848
252.82	15.714
253.19	17.447
253.56	19.355
253.94	19.831
254.31	17.167
254.68	23.171
255.05	14.919
255.42	17.857
255.79	17.563
256.16	20.000
256.54	17.279
256.91	19.318
257.28	18.315
257.65	17.730
258.02	23.899
258.39	20.067
258.76	18.919
259.14	22.840
259.51	22.295
259.88	18.902
260.25	17.702
260.62	18.650
260.99	18.694
261.36	20.732
261.73	22.254
262.10	23.056
262.47	19.373
262.85	22.857
263.22	21.490
263.59	21.538
263.96	22.029
264.33	19.512
264.70	20.994
265.07	22.253
265.44	19.638
265.81	19.121
266.18	18.734
266.55	20.343
266.92	21.914
267.29	17.918
267.66	21.481
268.03	21.981
268.40	19.718
268.77	18.554
269.14	18.329
269.51	20.920
269.88	17.661
270.25	18.182
270.62	19.908
270.99	21.622
271.36	21.678
271.73	20.179
272.10	21.968
272.47	20.000
272.84	20.889
273.21	21.101
273.58	18.901
273.95	21.053
274.32	18.778
274.69	20.569
275.06	20.654
275.43	19.196
275.80	19.756
276.17	22.176
276.54	20.978
276.91	20.782
277.28	21.907
277.65	22.727
278.02	20.251
278.39	21.807
278.76	21.315
279.13	19.960
279.50	21.272
279.87	18.393
280.23	19.433
280.60	20.477
280.97	19.806
281.34	19.536
281.71	21.154
282.08	20.363
282.45	17.719
282.82	20.155
283.19	19.091
283.56	21.612
283.92	21.731
284.29	18.587
284.66	19.604
285.03	21.034
285.40	19.742
285.77	22.105
286.14	20.758
286.51	20.249
286.87	19.601
287.24	19.795
287.61	20.165
287.98	18.371
288.35	17.521
288.72	19.355
289.08	20.508
289.45	18.350
289.82	17.820
290.19	20.033
290.56	19.008
290.93	18.442
291.29	18.476
291.66	18.357
292.03	19.623
292.40	18.976
292.77	16.770
293.13	17.886
293.50	17.682
293.87	18.558
294.24	18.250
294.60	16.667
294.97	19.575
295.34	16.444
295.71	17.560
296.08	15.054
296.44	16.881
296.81	16.809
297.18	16.338
297.55	18.785
297.91	17.294
298.28	17.123
298.65	16.039
299.02	18.984
299.38	16.578
299.75	16.168
300.12	18.333
300.48	15.729
300.85	16.383
301.22	16.041
301.59	14.954
301.95	16.877
302.32	14.211
302.69	15.789
303.05	15.995
303.42	16.000
303.79	16.148
304.15	15.995
304.52	16.569
304.89	15.466
305.25	15.140
305.62	14.454
305.99	17.197
306.35	16.537
306.72	16.401
307.09	16.345
307.45	15.891
307.82	13.073
308.19	15.884
308.55	14.924
308.92	14.501
309.29	15.676
309.65	16.225
310.02	15.443
310.38	14.270
310.75	15.984
311.12	17.045
311.48	16.806
311.85	15.654
312.22	16.066
312.58	15.972
312.95	14.883
313.31	18.182
313.68	16.985
314.05	17.804
314.41	16.499
314.78	15.485
315.14	16.387
315.51	16.008
315.87	17.715
316.24	16.035
316.61	17.179
316.97	17.413
317.34	16.859
317.70	16.512
318.07	17.257
318.43	16.667
318.80	18.685
319.16	15.760
319.53	17.481
319.89	17.215
320.26	19.118
320.62	17.692
320.99	18.507
321.35	17.340
321.72	18.219
322.08	19.881
322.45	18.614
322.81	20.269
323.18	19.308
323.54	19.039
323.91	19.741
324.27	19.582
324.64	19.196
325.00	21.466
325.37	20.543
325.73	20.735
326.10	19.663
326.46	20.403
326.83	20.766
327.19	20.183
327.56	21.891
327.92	21.071
328.29	21.385
328.65	20.364
329.01	21.378
329.38	21.855
329.74	23.993
330.11	21.306
330.47	21.617
330.84	23.098
331.20	23.014
331.56	22.060
331.93	22.469
332.29	23.836
332.66	23.266
333.02	23.982
333.38	23.566
333.75	23.865
334.11	23.378
334.48	24.625
334.84	25.372
335.20	23.848
335.57	24.368
335.93	25.515
336.29	24.269
336.66	23.877
337.02	23.784
337.38	24.510
337.75	24.320
338.11	24.776
338.47	24.555
338.84	25.862
339.20	23.550
339.56	25.847
339.93	24.250
340.29	24.269
340.65	24.126
341.02	25.379
341.38	24.263
341.74	25.064
342.11	23.976
342.47	24.893
342.83	24.013
343.20	24.936
343.56	24.490
343.92	24.958
344.28	25.063
344.65	23.432
345.01	24.538
345.37	24.751
345.73	24.386
346.10	23.794
346.46	23.964
346.82	24.779
347.19	24.815
347.55	24.880
347.91	25.354
348.27	24.025
348.63	24.717
349.00	24.901
349.36	22.873
349.72	25.159
350.08	26.464
350.45	23.247
350.81	24.841
351.17	24.678
351.53	25.060
351.89	23.929
352.26	25.116
352.62	26.190
352.98	26.028
353.34	25.420
353.70	24.093
354.07	24.862
354.43	25.929
354.79	24.960
355.15	24.840
355.51	25.312
355.87	25.692
356.24	25.814
356.60	26.108
356.96	27.021
357.32	25.495
357.68	25.287
358.04	26.713
358.40	25.290
358.77	24.884
359.13	24.713
359.49	25.548
359.85	25.076
360.21	26.180
360.57	26.581
360.93	25.778
361.29	27.205
361.66	25.000
362.02	26.701
362.38	26.045
362.74	27.106
363.10	25.897
363.46	27.350
363.82	26.312
364.18	26.483
364.54	27.234
364.90	27.184
365.26	26.605
365.62	28.083
365.98	26.600
366.35	27.746
366.71	26.568
367.07	27.029
367.43	28.277
367.79	27.698
368.15	27.596
368.51	27.133
368.87	27.473
369.23	28.281
369.59	27.708
369.95	27.132
370.31	28.270
370.67	26.970
371.03	28.061
371.39	27.157
371.75	29.041
372.11	28.766
372.47	28.706
372.83	28.651
373.19	28.643
373.55	29.627
373.91	28.663
374.27	29.363
374.63	28.778
374.99	29.694
375.35	28.802
375.71	31.128
376.07	30.185
376.42	28.146
376.78	29.869
377.14	31.525
377.50	30.883
377.86	30.299
378.22	29.837
378.58	29.957
378.94	30.210
379.30	30.347
379.66	31.330
380.02	30.541
380.38	30.997
380.74	30.891
381.09	30.521
381.45	30.907
381.81	31.155
382.17	32.895
382.53	30.699
382.89	31.639
383.25	30.945
383.61	31.840
383.97	32.333
384.32	32.353
384.68	32.406
385.04	31.763
385.40	32.441
385.76	32.439
386.12	32.667
386.48	33.230
386.83	32.699
387.19	33.652
387.55	33.798
387.91	32.247
388.27	32.328
388.62	32.512
388.98	33.131
389.34	32.681
389.70	34.348
390.06	33.623
390.42	33.141
390.77	33.502
391.13	34.099
391.49	34.124
391.85	33.666
392.20	33.617
392.56	32.926
392.92	34.512
393.28	34.041
393.64	34.456
393.99	34.831
394.35	34.672
394.71	33.910
395.07	34.777
395.42	34.327
395.78	34.067
396.14	34.206
396.50	35.168
396.85	34.855
397.21	34.447
397.57	34.833
397.92	34.543
398.28	34.556
398.64	34.682
399.00	35.618
399.35	35.231
399.71	34.669
400.07	34.925
400.42	36.253
400.78	35.599
401.14	35.269
401.49	36.026
401.85	35.876
402.21	35.638
402.57	35.498
402.92	37.004
403.28	35.172
403.63	34.811
403.99	35.799
404.35	35.024
404.70	35.342
405.06	35.928
405.42	35.301
405.77	35.351
406.13	36.116
406.49	36.669
406.84	36.533
407.20	36.808
407.55	36.099
407.91	34.456
408.27	36.336
408.62	35.658
408.98	35.415
409.34	35.527
409.69	35.224
410.05	36.507
410.40	35.990
410.76	35.151
411.11	36.970
411.47	35.422
411.83	36.614
412.18	35.644
412.54	36.547
412.89	35.237
413.25	36.068
413.60	35.905
413.96	36.722
414.31	37.003
414.67	35.302
415.03	35.511
415.38	37.280
415.74	37.436
416.09	36.445
416.45	35.648
416.80	37.321
417.16	36.478
417.51	37.951
417.87	37.152
418.22	37.737
418.58	38.062
418.93	38.136
419.29	37.077
419.64	36.432
420.00	39.429
420.35	38.912
420.71	37.515
421.06	38.047
421.42	38.290
421.77	37.968
422.12	38.780
422.48	38.268
422.83	37.585
423.19	38.641
423.54	38.444
423.90	39.156
424.25	38.575
424.61	38.661
424.96	39.614
425.31	39.352
425.67	39.370
426.02	38.898
426.38	41.258
426.73	40.035
427.09	39.767
427.44	40.682
427.79	40.058
428.15	40.335
428.50	40.762
428.85	41.547
429.21	39.624
429.56	40.729
429.92	41.032
430.27	40.279
430.62	41.641
430.98	41.401
431.33	41.249
431.68	41.716
432.04	41.802
432.39	42.735
432.74	42.086
433.10	42.769
433.45	41.796
433.80	42.385
434.16	43.579
434.51	42.740
434.86	44.054
435.22	42.929
435.57	42.962
435.92	43.259
436.28	44.154
436.63	42.510
436.98	43.356
437.34	43.178
437.69	44.049
438.04	43.789
438.39	44.103
438.75	43.830
439.10	44.586
439.45	44.900
439.81	44.819
440.16	44.747
440.51	45.294
440.86	44.187
441.22	43.726
441.57	44.000
441.92	45.217
442.27	44.913
442.63	45.869
442.98	44.187
443.33	45.854
443.68	45.545
444.03	44.695
444.39	45.130
444.74	46.421
445.09	45.779
445.44	46.370
445.79	45.895
446.15	45.235
446.50	46.489
446.85	45.562
447.20	45.965
447.55	45.746
447.91	46.547
448.26	44.972
448.61	46.237
448.96	47.059
449.31	46.731
449.66	46.709
450.02	45.485
450.37	46.841
450.72	46.441
451.07	47.266
451.42	45.601
451.77	47.636
452.12	46.663
452.47	47.103
452.83	47.117
453.18	47.502
453.53	47.201
453.88	48.146
454.23	46.070
454.58	48.104
454.93	48.426
455.28	47.801
455.63	48.096
455.98	49.458
456.34	47.459
456.69	48.468
457.04	47.880
457.39	47.907
457.74	46.663
458.09	48.318
458.44	48.037
458.79	47.870
459.14	48.488
459.49	47.602
459.84	48.004
460.19	46.778
460.54	47.852
460.89	47.309
461.24	47.420
461.59	47.597
461.94	49.268
462.29	49.494
462.64	49.341
462.99	49.331
463.34	49.426
463.69	49.809
464.04	47.510
464.39	48.029
464.74	47.931
465.09	46.843
465.44	48.336
465.79	48.675
466.14	48.907
466.49	48.705
466.84	49.400
467.19	49.938
467.54	49.304
467.89	50.062
468.24	48.872
468.59	49.157
468.94	50.354
469.29	49.188
469.64	50.270
469.99	49.966
470.34	49.900
470.68	49.709
471.03	51.067
471.38	49.236
471.73	51.608
472.08	50.268
472.43	50.901
472.78	50.533
473.13	49.967
473.48	51.117
473.83	50.806
474.17	50.127
474.52	52.174
474.87	49.767
475.22	49.440
475.57	51.000
475.92	50.864
476.27	50.114
476.61	50.310
476.96	50.699
477.31	52.314
477.66	51.079
478.01	51.108
478.36	49.921
478.70	51.628
479.05	51.866
479.40	51.140
479.75	51.172
480.10	50.496
480.45	49.565
480.79	50.938
481.14	51.279
481.49	51.162
481.84	52.011
482.19	51.759
482.53	51.184
482.88	50.688
483.23	51.080
483.58	51.665
483.92	50.979
484.27	50.421
484.62	50.626
484.97	50.468
485.31	48.448
485.66	47.432
486.01	47.978
486.36	48.221
486.70	49.528
487.05	48.796
487.40	49.679
487.75	49.495
488.09	49.135
488.44	50.372
488.79	49.805
489.13	51.122
489.48	51.468
489.83	51.528
490.17	51.371
490.52	53.170
490.87	51.871
491.22	52.405
491.56	53.287
491.91	52.338
492.26	52.689
492.60	52.331
492.95	52.023
493.30	52.120
493.64	52.233
493.99	51.960
494.34	52.190
494.68	53.043
495.03	52.103
495.37	53.048
495.72	52.554
496.07	53.121
496.41	53.358
496.76	53.333
497.11	53.745
497.45	53.209
497.80	53.777
498.14	53.684
498.49	53.591
498.84	53.155
499.18	54.386
499.53	54.506
499.87	52.606
500.22	55.294
500.56	54.127
500.91	54.187
501.26	54.148
501.60	53.539
501.95	55.266
502.29	52.858
502.64	54.220
502.98	53.953
503.33	54.041
503.67	53.352
504.02	54.949
504.36	55.147
504.71	54.914
505.06	55.966
505.40	55.439
505.75	55.081
506.09	55.612
506.44	55.589
506.78	55.595
507.13	55.716
507.47	56.495
507.82	56.273
508.16	55.389
508.51	56.363
508.85	55.952
509.19	56.620
509.54	56.871
509.88	56.968
510.23	57.547
510.57	57.566
510.92	59.130
511.26	57.735
511.61	58.585
511.95	57.543
512.30	57.669
512.64	58.431
512.98	59.186
513.33	57.496
513.67	58.906
514.02	57.494
514.36	58.670
514.70	57.951
515.05	60.263
515.39	58.939
515.74	61.257
516.08	59.942
516.42	59.717
516.77	60.254
517.11	59.268
517.46	63.098
517.80	61.432
518.14	61.957
518.49	61.088
518.83	60.356
519.17	59.739
519.52	60.555
519.86	61.708
520.20	62.653
520.55	63.446
520.89	61.553
521.23	61.233
521.58	62.257
521.92	61.811
522.26	61.841
522.61	63.181
522.95	63.050
523.29	62.382
523.64	61.524
523.98	62.253
524.32	62.162
524.66	61.304
525.01	62.877
525.35	63.144
525.69	62.524
526.04	62.794
526.38	63.144
526.72	62.261
527.06	64.388
527.41	63.432
527.75	62.706
528.09	64.527
528.43	63.541
528.78	62.249
529.12	64.533
529.46	63.015
529.80	63.783
530.15	62.975
530.49	63.519
530.83	63.327
531.17	63.569
531.51	64.367
531.86	63.858
532.20	63.225
532.54	63.235
532.88	64.097
533.22	64.706
533.57	63.903
533.91	61.610
534.25	63.356
534.59	62.586
534.93	63.223
535.27	63.877
535.62	64.386
535.96	64.124
536.30	62.631
536.64	64.475
536.98	65.960
537.32	64.755
537.66	64.562
538.01	65.979
538.35	64.189
538.69	64.171
539.03	63.643
539.37	64.737
539.71	64.043
540.05	65.113
540.39	65.166
540.73	64.824
541.07	63.866
541.42	63.943
541.76	62.193
542.10	64.619
542.44	63.691
542.78	64.315
543.12	64.494
543.46	63.493
543.80	63.545
544.14	62.324
544.48	64.698
544.82	64.953
545.16	63.380
545.50	62.853
545.84	64.395
546.18	65.673
546.52	64.011
546.86	64.459
547.20	64.416
547.54	63.567
547.88	64.831
548.22	63.172
548.56	64.663
548.90	66.442
549.24	65.032
549.58	65.914
549.92	64.806
550.26	65.679
550.60	65.434
550.94	67.007
551.28	65.388
551.62	65.288
551.96	65.412
552.30	65.017
552.64	66.151
552.98	65.732
553.32	66.739
553.66	65.753
554.00	66.596
554.34	65.415
554.68	64.401
555.02	65.847
555.36	65.564
555.69	66.476
556.03	65.474
556.37	65.861
556.71	65.855
557.05	67.110
557.39	67.706
557.73	64.697
558.07	66.390
558.41	66.567
558.75	67.605
559.08	67.782
559.42	66.845
559.76	68.252
560.10	67.636
560.44	66.257
560.78	65.066
561.12	66.253
561.45	66.507
561.79	66.272
562.13	65.708
562.47	65.056
562.81	66.195
563.15	66.130
563.48	66.275
563.82	65.923
564.16	64.841
564.50	65.995
564.84	63.955
565.17	64.058
565.51	64.276
565.85	67.410
566.19	66.667
566.52	65.101
566.86	65.424
567.20	64.528
567.54	65.328
567.88	62.758
568.21	64.933
568.55	63.043
568.89	61.431
569.23	62.379
569.56	60.109
569.90	61.094
570.24	61.105
570.57	58.629
570.91	58.552
571.25	59.403
571.59	59.257
571.92	57.976
572.26	57.549
572.60	58.393
572.93	57.603
573.27	57.409
573.61	57.413
573.95	56.839
574.28	56.499
574.62	56.660
574.96	56.680
575.29	57.038
575.63	57.128
575.97	56.095
576.30	57.084
576.64	56.789
576.98	56.681
577.31	56.281
577.65	56.453
577.98	55.719
578.32	55.883
578.66	56.555
578.99	56.604
579.33	56.468
579.67	56.784
580.00	57.068
580.34	56.629
580.67	56.730
581.01	55.553
581.35	56.154
581.68	55.172
582.02	56.068
582.35	55.467
582.69	56.893
583.02	57.140
583.36	57.579
583.70	57.629
584.03	57.839
584.37	57.754
584.70	56.886
585.04	56.911
585.37	56.539
585.71	56.434
586.04	57.599
586.38	57.525
586.72	57.694
587.05	57.604
587.39	58.181
587.72	57.685
588.06	58.432
588.39	58.673
588.73	57.876
589.06	59.111
589.40	59.602
589.73	59.455
590.07	60.524
590.40	58.782
590.73	60.136
591.07	59.672
591.40	60.832
591.74	60.686
592.07	61.712
592.41	60.764
592.74	60.607
593.08	59.286
593.41	59.474
593.75	59.149
594.08	60.388
594.41	62.181
594.75	59.947
595.08	61.391
595.42	60.730
595.75	60.235
596.09	61.700
596.42	61.579
596.75	61.104
597.09	62.600
597.42	60.061
597.75	61.736
598.09	62.494
598.42	61.158
598.76	59.842
599.09	59.826
599.42	59.785
599.76	60.664
600.09	60.725
600.42	60.425
600.76	60.866
601.09	59.780
601.42	60.586
601.76	60.553
602.09	61.472
602.42	60.247
602.76	60.324
603.09	60.927
603.42	61.120
603.76	60.630
604.09	60.593
604.42	60.575
604.76	62.189
605.09	62.523
605.42	62.899
605.75	62.656
606.09	61.644
606.42	60.746
606.75	61.700
607.09	63.255
607.42	61.796
607.75	62.163
608.08	62.811
608.42	62.441
608.75	61.262
609.08	62.640
609.41	63.428
609.75	62.116
610.08	64.167
610.41	63.566
610.74	63.685
611.07	64.300
611.41	63.338
611.74	64.370
612.07	65.467
612.40	63.913
612.73	63.597
613.07	63.786
613.40	65.244
613.73	64.251
614.06	62.548
614.39	66.573
614.72	64.413
615.06	63.152
615.39	62.941
615.72	64.693
616.05	64.053
616.38	65.990
616.71	65.045
617.05	65.923
617.38	66.068
617.71	66.400
618.04	66.708
618.37	66.541
618.70	67.340
619.03	67.502
619.36	68.147
619.69	67.696
620.03	66.253
620.36	68.425
620.69	67.552
621.02	69.102
621.35	69.274
621.68	69.590
622.01	69.903
622.34	69.798
622.67	69.453
623.00	69.778
623.33	68.134
623.66	68.021
623.99	68.872
624.32	68.080
624.65	69.316
624.99	68.708
625.32	67.515
625.65	68.998
625.98	70.423
626.31	71.207
626.64	70.544
626.97	70.719
627.30	70.383
627.63	69.862
627.96	70.670
628.29	72.794
628.62	74.117
628.95	72.441
629.28	71.805
629.61	72.326
629.94	73.157
630.26	76.740
630.59	73.266
630.92	75.876
631.25	72.883
631.58	75.556
631.91	75.000
632.24	75.111
632.57	75.778
632.90	78.046
633.23	76.168
633.56	76.257
633.89	78.184
634.22	76.269
634.55	78.606
634.88	77.025
635.20	77.903
635.53	79.644
635.86	77.582
636.19	76.557
636.52	76.583
636.85	76.775
637.18	76.750
637.51	75.713
637.83	80.692
638.16	78.026
638.49	79.310
638.82	77.220
639.15	78.859
639.48	78.340
639.81	80.498
640.13	79.324
640.46	79.915
640.79	78.011
641.12	79.408
641.45	77.905
641.77	80.539
642.10	80.967
642.43	80.425
642.76	82.047
643.09	80.159
643.41	82.540
643.74	83.148
644.07	81.279
644.40	82.820
644.73	83.828
645.05	82.805
645.38	82.119
645.71	84.536
646.04	82.185
646.36	82.897
646.69	82.526
647.02	82.671
647.35	86.643
647.67	85.584
648.00	84.886
648.33	83.137
648.66	80.323
648.98	81.529
649.31	81.846
649.64	78.906
649.96	80.377
650.29	79.016
650.62	82.788
650.94	80.270
651.27	79.723
651.60	83.045
651.92	81.849
652.25	80.301
652.58	82.453
652.90	81.220
653.23	80.000
653.56	80.435
653.88	76.885
654.21	85.067
654.54	79.402
654.86	78.331
655.19	79.513
655.52	68.330
655.84	59.965
656.17	63.014
656.49	84.324
656.82	87.151
657.15	66.230
657.47	49.020
657.80	38.163
658.13	43.690
658.45	59.562
658.78	59.471
659.10	58.655
659.43	59.032
659.75	59.992
660.08	60.625
660.41	62.820
660.73	68.317
661.06	75.072
661.38	83.929
661.71	81.836
662.03	81.855
662.36	86.141
662.68	87.131
663.01	84.076
663.33	90.703
663.66	84.764
663.98	84.375
664.31	86.130
664.63	87.389
664.96	87.636
665.28	84.165
665.61	82.452
665.93	85.802
666.26	79.555
666.58	84.200
666.91	85.301
667.23	87.061
667.56	87.075
667.88	91.176
668.21	87.097
668.53	89.953
668.86	83.834
669.18	88.584
669.50	87.617
669.83	90.511
670.15	82.511
670.48	87.383
670.80	88.610
671.13	84.876
671.45	84.910
671.77	85.867
672.10	81.262
672.42	78.413
672.75	80.182
673.07	77.658
673.39	77.960
673.72	82.283
674.04	84.076
674.37	81.031
674.69	81.762
675.01	82.766
675.34	81.128
675.66	84.665
675.98	87.885
676.31	85.294
676.63	91.264
676.95	82.301
677.28	85.151
677.60	80.317
677.92	85.683
678.25	84.245
678.57	81.893
678.89	81.132
679.22	84.067
679.54	81.460
679.86	80.800
680.18	80.228
680.51	79.516
680.83	79.429
681.15	78.998
681.48	84.381
681.80	79.839
682.12	79.276
682.44	78.389
682.77	80.952
683.09	80.503
683.41	82.743
683.73	83.562
684.06	82.366
684.38	80.753
684.70	80.247
685.02	79.724
685.34	80.702
685.67	78.598
685.99	76.560
686.31	79.892
686.63	74.645
686.96	80.222
687.28	76.493
687.60	78.906
687.92	75.486
688.24	78.937
688.56	76.754
688.89	76.923
689.21	80.306
689.53	82.759
689.85	81.069
690.17	78.251
690.49	82.448
690.82	81.928
691.14	82.547
691.46	81.818
691.78	79.736
692.10	83.051
692.42	79.778
692.74	77.897
693.06	82.022
693.39	80.984
693.71	80.135
694.03	81.210
694.35	80.587
694.67	82.270
694.99	82.864
695.31	83.673
695.63	81.888
695.95	84.864
696.27	81.047
696.59	83.957
696.91	85.955
697.23	84.115
697.56	82.212
697.88	76.351
698.20	74.090
698.52	78.027
698.84	85.680
699.16	78.095
699.48	81.250
699.80	79.449
700.12	81.108
700.44	84.078
700.76	81.924
701.08	81.105
701.40	79.456
701.72	85.802
702.04	87.821
702.36	87.349
702.68	85.928
703.00	83.478
703.32	76.504
703.64	87.647
703.96	82.849
704.28	84.911
704.60	84.494
704.91	84.127
705.23	86.408
705.55	88.514
705.87	86.007
706.19	90.278
706.51	87.500
706.83	88.197
707.15	85.669
707.47	82.645
707.79	81.443
708.11	79.389
708.43	80.299
708.74	74.026
709.06	81.616
709.38	81.609
709.70	79.375
710.02	87.730
710.34	80.528
710.66	80.317
710.98	82.334
711.29	80.645
711.61	80.831
711.93	83.607
712.25	85.050
712.57	85.366
712.89	87.050
713.20	85.223
713.52	80.970
713.84	87.544
714.16	83.934
714.48	77.778
714.80	81.231
715.11	74.928
715.43	84.337
715.75	83.489
716.07	79.672
716.39	83.278
716.70	80.488
717.02	82.963
717.34	82.061
717.66	94.606
717.97	94.262
718.29	87.815
718.61	88.889
718.93	82.079
719.24	74.632
719.56	83.019
719.88	86.909
720.20	82.772
720.51	86.090
720.83	90.763
721.15	84.426
721.46	85.882
721.78	82.759
722.10	87.600
722.42	83.471
722.73	84.861
723.05	84.337
723.37	74.902
723.68	78.138
724.00	84.553
724.32	83.128
724.63	80.083
724.95	83.471
725.27	85.088
725.58	83.190
725.90	81.746
726.22	81.550
726.53	84.030
726.85	81.961
727.16	76.316
727.48	79.615
727.80	81.967
728.11	80.252
728.43	84.711
728.74	82.812
729.06	78.788
729.38	79.767
729.69	76.378
730.01	90.157
730.32	86.853
730.64	79.487
730.96	82.090
731.27	83.571
731.59	77.170
731.90	72.699
732.22	76.074
732.53	80.464
732.85	76.174
733.16	83.696
733.48	77.352
733.80	79.715
734.11	77.586
734.43	79.252
734.74	77.448
735.06	74.295
735.37	77.064
735.69	75.161
736.00	80.471
736.32	79.470
736.63	72.069
736.95	77.174
737.26	74.834
737.58	79.856
737.89	77.778
738.21	78.947
738.52	80.000
738.83	76.562
739.15	78.632
739.46	82.661
739.78	73.776
740.09	76.923
740.41	73.427
740.72	78.467
741.04	78.175
741.35	77.922
741.66	82.870
741.98	76.667
742.29	80.751
742.61	86.096
742.92	86.449
743.23	72.368
743.55	81.982
743.86	86.222
744.18	81.429
744.49	86.700
744.80	85.279
745.12	96.392
745.43	82.915
745.74	83.495
746.06	80.000
746.37	72.687
746.68	89.552
747.00	86.387
747.31	78.365
747.62	83.871
747.94	75.546
748.25	80.000
748.56	81.429
748.88	85.870
749.19	79.343
749.50	87.745
749.82	77.778
750.13	83.260
750.44	76.829
750.75	84.800
751.07	78.571
751.38	74.908
751.69	72.901
752.01	80.385
752.32	75.875
752.63	72.308
752.94	79.365
753.26	78.261
753.57	86.607
753.88	81.034
754.19	79.253
754.51	76.562
754.82	79.842
755.13	77.778
755.44	79.752
755.75	83.951
756.07	78.313
756.38	75.391
756.69	76.534
757.00	74.216
757.31	75.503
757.63	76.636
757.94	71.676
758.25	70.640
758.56	74.124
758.87	65.625
759.18	74.667
759.50	75.801
759.81	74.088
760.12	68.581
760.43	78.317
760.74	74.062
761.05	72.191
761.36	70.659
761.67	75.444
761.99	69.677
762.30	77.174
762.61	73.585
762.92	76.233
763.23	80.569
763.54	73.333
763.85	81.013
764.16	70.612
764.47	77.542
764.78	71.910
765.10	74.101
765.41	65.484
765.72	71.384
766.03	71.731
766.34	70.677
766.65	71.660
766.96	74.500
767.27	80.729
767.58	84.884
767.89	78.710
768.20	82.822
768.51	78.689
768.82	77.297
769.13	86.000
769.44	70.614
769.75	75.758
770.06	74.312
770.37	71.831
770.68	78.646
770.99	76.733
771.30	74.272
771.61	74.074
771.92	72.727
772.23	70.093
772.54	70.213
772.85	68.639
773.16	81.098
773.47	76.506
773.78	80.769
774.09	80.000
774.39	83.333
774.70	78.523
775.01	84.783
775.32	80.597
775.63	76.033
775.94	75.188
776.25	75.000
776.56	78.689
776.87	92.920
777.18	91.150
777.48	79.091
777.79	65.217
778.10	76.147
778.41	77.119
778.72	76.860
779.03	82.836
779.34	75.188
779.65	79.085
779.95	81.884
780.26	61.905
780.57	68.966
780.88	82.407
781.19	81.818
781.50	72.800
781.80	71.242
782.11	68.590
782.42	66.265
782.73	69.343
783.04	69.595
783.34	72.727
783.65	70.543
783.96	78.049
784.27	72.650
784.57	85.366
784.88	69.919
785.19	74.561
785.50	65.979
785.81	68.571
786.11	85.294
786.42	68.182
786.73	72.072
787.04	76.238
787.34	76.190
787.65	65.714
787.96	82.353
788.26	82.883
788.57	75.000
788.88	55.469
789.19	73.504
789.49	66.387
789.80	62.393
790.11	65.487
790.41	80.808
790.72	73.585
791.03	59.722
791.33	72.368
791.64	51.613
791.95	94.667
792.25	85.714
792.56	73.171
792.87	68.367
793.17	63.158
793.48	71.622
793.79	66.197
794.09	72.152
794.40	68.085
794.70	71.963
795.01	57.895
795.32	81.818
795.62	63.393
795.93	60.825
796.23	69.231
796.54	82.105
796.85	68.493
797.15	56.944
797.46	72.603
797.76	73.239
798.07	76.250
798.37	73.529
798.68	80.000
798.99	58.571
799.29	60.526
799.60	86.667
799.90	50.000
800.21	75.000
800.51	73.016
800.82	73.770
801.12	38.596
801.43	50.704
801.73	54.237
802.04	75.410
802.34	65.455
802.65	51.923
802.95	66.667
803.26	77.500
803.56	67.308
803.87	68.421
804.17	70.968
804.48	73.846
804.78	105.128
805.09	72.093
805.39	84.375
805.70	39.623
806.00	85.965
806.30	75.676
806.61	83.824
806.91	53.086
807.22	78.667
807.52	74.627
807.83	59.677
808.13	53.968
808.43	54.545
808.74	60.606
809.04	69.811
809.35	71.233
809.65	71.930
809.95	67.647
810.26	76.471
810.56	52.000
810.86	63.265
811.17	82.857
811.47	67.308
811.77	93.548
812.08	28.947
812.38	83.333
812.69	65.217
812.99	80.645
813.29	73.810
813.59	37.037
813.90	46.809
814.20	30.233
814.50	62.500
814.81	50.000
815.11	82.927
815.41	83.333
815.72	85.714
816.02	55.556
816.32	64.103
816.62	51.351
816.93	29.412
817.23	58.696
817.53	85.294
817.84	70.588
818.14	59.375
818.44	-10.345
818.74	38.710
819.04	92.593
819.35	20.000
819.65	48.000
819.95	46.667
820.25	44.000
820.56	44.737
820.86	27.500
821.16	61.702
821.46	41.379
821.76	41.026
822.07	45.000
822.37	67.442
822.67	33.333
822.97	40.541
823.27	45.946
823.57	92.000
823.88	64.865
824.18	28.571
824.48	88.462
824.78	7.692
825.08	26.087
825.38	87.500
825.69	108.333
825.99	10.000
826.29	37.838
826.59	44.118
826.89	80.000
827.19	28.571
827.49	47.368
827.79	46.875
828.09	63.333
828.39	60.870
828.70	6.897
829.00	72.414
829.30	41.667
829.60	62.500
829.90	50.000
830.20	34.615
830.50	23.810
830.80	35.714
831.10	48.718
831.40	42.857
831.70	32.353
832.00	54.167
832.30	68.421
832.60	43.750
832.90	-8.333
833.20	-52.941
833.50	33.333
833.80	60.000
834.10	55.000
834.40	16.667
834.70	77.778
835.00	50.000
835.30	33.333
835.60	31.034
835.90	-11.111
836.20	-9.091
836.50	33.333
836.80	54.286
837.10	62.857
837.40	58.824
837.70	-18.182
838.00	29.167
838.30	-6.250
838.60	66.667
838.90	5.000
839.19	13.043
839.49	-8.696
839.79	16.667
840.09	47.826
840.39	27.273
840.69	31.250
840.99	26.316
841.29	-25.000
841.59	121.429
841.88	-27.778
842.18	45.833
842.48	52.941
842.78	17.241
843.08	21.429
843.38	7.692
843.68	-77.778
843.97	30.769
844.27	-45.455
844.57	40.000
844.87	92.000
845.17	-140.000
845.47	-28.571
845.76	-11.111
846.06	0.000
846.36	-225.000
846.66	-50.000
846.96	57.895
847.25	0.000
847.55	58.333
847.85	20.000
848.15	-100.000
848.44	57.692
848.74	10.526
849.04	300.000
849.34	-11.111
849.63	-57.895
849.93	0.000
850.23	15.000
850.53	23.810
850.82	32.000
851.12	21.053
851.42	-650.000
851.71	21.429
852.01	16.667
852.31	0.000
852.61	-20.000
852.90	-19.048
853.20	50.000
853.50	11.111
853.79	31.579
854.09	6.667
854.39	10.714
854.68	52.174
854.98	-108.333
855.28	17.241
855.57	-25.000
855.87	-5.000
856.17	-6.667
856.46	10.345
856.76	-13.333
857.05	0.000
857.35	-30.769
857.65	-27.273
857.94	-3.704
858.24	-42.857
858.53	14.286
858.83	-25.000
859.13	-44.444
859.42	33.333
859.72	12.500
860.01	-200.000
860.31	-50.000
860.60	-260.000
860.90	-55.556
861.20	-87.500
861.49	-200.000
861.79	17.647
862.08	-150.000
862.38	-116.667
862.67	-30.769
862.97	11.765
863.26	0.000
863.56	-35.294
863.85	700.000
864.15	-130.000
864.44	-15.385
864.74	-15.000
865.03	-125.000
865.33	-200.000
865.62	-64.706
865.92	-300.000
866.21	-78.571
866.51	-33.333
866.80	-100.000
867.10	-200.000
867.39	-64.706
867.69	-4.348
867.98	-142.857
868.27	-240.000
868.57	-18.750
868.86	-172.727
869.16	-58.824
869.45	50.000
869.75	-185.714
870.04	1300.000
870.33	-66.667
870.63	-180.000
870.92	-188.889
871.22	-91.667
871.51	-63.636
871.80	-41.667
872.10	-10.000
>>>>>End Processed Spectral Data<<<<<
