SpectraSuite Data File
++++++++++++++++++++++++++++++++++++
Date: Sat May 16 11:22:53 PDT 2015
User: schluterlab
Dark Spectrum Present: Yes
Reference Spectrum Present: Yes
Number of Sampled Component Spectra: 1
Spectrometers: USB2E3373
Integration Time (usec): 3000 (USB2E3373)
Spectra Averaged: 3 (USB2E3373)
Boxcar Smoothing: 0 (USB2E3373)
Correct for Electrical Dark: No (USB2E3373)
Strobe/Lamp Enabled: No (USB2E3373)
Correct for Detector Non-linearity: No (USB2E3373)
Correct for Stray Light: No (USB2E3373)
Number of Pixels in Processed Spectrum: 2048
>>>>>Begin Processed Spectral Data<<<<<
178.53	0.000
178.91	140.000
179.29	766.667
179.67	-1000.000
180.04	-138.462
180.42	1000.000
180.80	200.000
181.18	700.000
181.56	-62.500
181.94	800.000
182.31	550.000
182.69	15.385
183.07	-233.333
183.45	800.000
183.83	200.000
184.20	-142.857
184.58	-137.500
184.96	-350.000
185.34	118.750
185.72	-475.000
186.09	266.667
186.47	-75.000
186.85	-175.000
187.23	-100.000
187.61	-125.000
187.98	-325.000
188.36	-112.500
188.74	-137.500
189.12	1300.000
189.49	300.000
189.87	-66.667
190.25	300.000
190.63	-42.857
191.00	-144.444
191.38	540.000
191.76	-20.000
192.14	260.000
192.51	-220.000
192.89	-466.667
193.27	0.000
193.65	-44.444
194.02	-314.286
194.40	566.667
194.78	-170.000
195.15	-1700.000
195.53	-154.545
195.91	-366.667
196.29	320.000
196.66	-900.000
197.04	2200.000
197.42	-150.000
197.79	-80.000
198.17	-233.333
198.55	-800.000
198.92	-1300.000
199.30	350.000
199.68	-100.000
200.05	-155.556
200.43	-211.111
200.81	-1200.000
201.18	-166.667
201.56	200.000
201.94	-46.667
202.31	31.818
202.69	-30.000
203.07	-40.000
203.44	700.000
203.82	-283.333
204.19	-200.000
204.57	-350.000
204.95	-1300.000
205.32	-56.250
205.70	1400.000
206.08	-1900.000
206.45	-72.222
206.83	-1200.000
207.20	50.000
207.58	-533.333
207.96	-433.333
208.33	-162.500
208.71	-144.444
209.08	130.000
209.46	-114.286
209.84	1050.000
210.21	0.000
210.59	60.000
210.96	1000.000
211.34	-250.000
211.71	-366.667
212.09	300.000
212.46	1050.000
212.84	-2400.000
213.22	533.333
213.59	166.667
213.97	-22.222
214.34	190.000
214.72	-90.000
215.09	-666.667
215.47	-150.000
215.84	-110.000
216.22	-210.000
216.59	26.667
216.97	-225.000
217.34	1000.000
217.72	-71.429
218.09	-133.333
218.47	-214.286
218.84	300.000
219.22	42.857
219.59	0.000
219.97	242.857
220.34	475.000
220.72	237.500
221.09	-30.769
221.47	0.000
221.84	266.667
222.22	-400.000
222.59	1700.000
222.97	-100.000
223.34	-1200.000
223.72	-366.667
224.09	-128.571
224.46	-275.000
224.84	-50.000
225.21	-257.143
225.59	-27.273
225.96	-175.000
226.34	-42.857
226.71	-100.000
227.08	-5.000
227.46	2500.000
227.83	-157.143
228.21	-150.000
228.58	950.000
228.95	-12.500
229.33	-1100.000
229.70	-320.000
230.08	-800.000
230.45	-25.000
230.82	-200.000
231.20	-1000.000
231.57	-900.000
231.95	900.000
232.32	4.762
232.69	-55.556
233.07	-342.857
233.44	-450.000
233.81	-113.333
234.19	0.000
234.56	-43.750
234.93	-15.625
235.31	-257.143
235.68	-100.000
236.05	-47.059
236.43	-81.818
236.80	-45.161
237.17	-62.500
237.55	-42.857
237.92	-77.273
238.29	-28.571
238.67	-47.059
239.04	-27.778
239.41	-29.032
239.79	-84.615
240.16	-4.762
240.53	-27.273
240.91	-25.641
241.28	0.000
241.65	-6.154
242.02	3.279
242.40	-8.197
242.77	-6.061
243.14	-20.339
243.51	-1.429
243.89	-22.785
244.26	-8.989
244.63	-2.105
245.00	3.158
245.38	0.000
245.75	0.000
246.12	5.600
246.49	2.362
246.87	-8.943
247.24	-5.085
247.61	-6.780
247.98	-1.408
248.36	2.797
248.73	6.329
249.10	1.274
249.47	6.433
249.84	3.977
250.22	-12.500
250.59	-1.130
250.96	0.000
251.33	9.953
251.70	7.212
252.08	3.791
252.45	3.318
252.82	-0.476
253.19	10.213
253.56	8.065
253.94	3.797
254.31	2.575
254.68	8.537
255.05	4.032
255.42	4.365
255.79	3.943
256.16	6.275
256.54	2.941
256.91	1.515
257.28	-1.099
257.65	4.255
258.02	5.031
258.39	7.023
258.76	3.716
259.14	2.778
259.51	4.918
259.88	8.537
260.25	9.938
260.62	4.180
260.99	2.374
261.36	7.622
261.73	5.491
262.10	8.611
262.47	5.698
262.85	5.714
263.22	4.585
263.59	4.615
263.96	4.348
264.33	7.046
264.70	7.735
265.07	5.220
265.44	5.168
265.81	7.494
266.18	4.557
266.55	7.108
266.92	7.557
267.29	6.538
267.66	6.914
268.03	8.696
268.40	7.981
268.77	5.060
269.14	7.193
269.51	7.356
269.88	5.275
270.25	4.895
270.62	7.094
270.99	5.856
271.36	4.196
271.73	6.502
272.10	3.890
272.47	6.667
272.84	9.111
273.21	6.651
273.58	5.934
273.95	6.579
274.32	8.597
274.69	7.877
275.06	5.317
275.43	4.241
275.80	9.165
276.17	7.950
276.54	7.332
276.91	8.025
277.28	7.708
277.65	6.612
278.02	7.307
278.39	6.680
278.76	7.570
279.13	3.953
279.50	5.567
279.87	6.765
280.23	7.692
280.60	4.970
280.97	6.408
281.34	6.190
281.71	5.962
282.08	8.468
282.45	4.481
282.82	5.426
283.19	6.545
283.56	8.608
283.92	8.834
284.29	7.435
284.66	8.273
285.03	9.269
285.40	7.934
285.77	9.298
286.14	5.957
286.51	6.217
286.87	7.804
287.24	7.167
287.61	7.438
287.98	6.066
288.35	5.620
288.72	5.093
289.08	4.915
289.45	7.744
289.82	5.536
290.19	8.374
290.56	3.636
290.93	6.359
291.29	5.348
291.66	5.475
292.03	7.692
292.40	5.120
292.77	6.832
293.13	5.528
293.50	6.538
293.87	5.828
294.24	5.882
294.60	3.939
294.97	7.284
295.34	6.074
295.71	5.060
296.08	2.304
296.44	4.149
296.81	6.410
297.18	4.648
297.55	6.780
297.91	7.113
298.28	4.932
298.65	5.439
299.02	6.150
299.38	5.348
299.75	4.891
300.12	6.923
300.48	5.882
300.85	4.456
301.22	4.916
301.59	5.462
301.95	7.935
302.32	3.781
302.69	5.508
303.05	5.495
303.42	3.875
303.79	4.785
304.15	4.976
304.52	4.784
304.89	4.132
305.25	5.739
305.62	4.465
305.99	5.300
306.35	6.326
306.72	5.125
307.09	5.448
307.45	5.108
307.82	4.916
308.19	4.251
308.55	5.229
308.92	4.404
309.29	4.649
309.65	4.984
310.02	4.860
310.38	5.189
310.75	5.020
311.12	4.959
311.48	5.846
311.85	3.811
312.22	4.428
312.58	6.002
312.95	4.689
313.31	5.894
313.68	6.131
314.05	5.045
314.41	4.125
314.78	4.196
315.14	5.726
315.51	4.863
315.87	5.421
316.24	6.122
316.61	5.278
316.97	5.672
317.34	4.239
317.70	5.566
318.07	5.970
318.43	5.150
318.80	5.540
319.16	3.846
319.53	5.639
319.89	4.516
320.26	6.275
320.62	4.231
320.99	5.871
321.35	3.153
321.72	4.299
322.08	5.539
322.45	4.752
322.81	5.572
323.18	4.611
323.54	5.360
323.91	5.375
324.27	5.989
324.64	5.484
325.00	6.283
325.37	5.158
325.73	6.649
326.10	3.897
326.46	5.692
326.83	4.340
327.19	4.587
327.56	6.303
327.92	5.268
328.29	5.195
328.65	4.727
329.01	5.212
329.38	5.977
329.74	5.128
330.11	5.077
330.47	5.631
330.84	5.683
331.20	4.513
331.56	3.920
331.93	4.707
332.29	4.658
332.66	5.268
333.02	4.615
333.38	5.108
333.75	5.165
334.11	5.333
334.48	4.678
334.84	6.474
335.20	4.787
335.57	4.603
335.93	6.088
336.29	3.632
336.66	5.110
337.02	6.036
337.38	5.169
337.75	5.180
338.11	5.546
338.47	4.537
338.84	5.354
339.20	5.360
339.56	6.061
339.93	5.379
340.29	4.783
340.65	5.332
341.02	5.818
341.38	4.886
341.74	5.165
342.11	5.461
342.47	4.549
342.83	5.458
343.20	4.697
343.56	5.796
343.92	6.010
344.28	5.214
344.65	4.703
345.01	4.286
345.37	5.066
345.73	4.746
346.10	4.007
346.46	4.387
346.82	4.491
347.19	4.684
347.55	4.093
347.91	4.803
348.27	3.978
348.63	4.927
349.00	5.728
349.36	3.981
349.72	5.971
350.08	5.373
350.45	4.255
350.81	4.936
351.17	3.939
351.53	4.057
351.89	4.608
352.26	4.806
352.62	5.914
352.98	4.668
353.34	6.795
353.70	4.247
354.07	4.642
354.43	5.929
354.79	5.309
355.15	4.473
355.51	5.000
355.87	4.427
356.24	5.083
356.60	5.882
356.96	6.005
357.32	4.276
357.68	5.057
358.04	5.004
358.40	4.176
358.77	4.250
359.13	4.744
359.49	5.291
359.85	4.497
360.21	4.642
360.57	6.401
360.93	4.519
361.29	5.605
361.66	4.345
362.02	4.512
362.38	5.943
362.74	5.861
363.10	5.237
363.46	5.840
363.82	4.956
364.18	4.920
364.54	6.076
364.90	4.892
365.26	5.136
365.62	5.274
365.98	5.832
366.35	4.930
366.71	5.074
367.07	5.222
367.43	5.834
367.79	5.223
368.15	4.765
368.51	5.245
368.87	6.593
369.23	5.754
369.59	5.278
369.95	5.638
370.31	5.134
370.67	4.266
371.03	5.102
371.39	6.365
371.75	5.293
372.11	5.380
372.47	4.483
372.83	6.259
373.19	5.714
373.55	6.685
373.91	5.121
374.27	5.476
374.63	5.245
374.99	5.911
375.35	4.913
375.71	6.820
376.07	5.476
376.42	4.967
376.78	5.556
377.14	5.695
377.50	6.319
377.86	5.462
378.22	5.214
378.58	5.497
378.94	4.994
379.30	6.277
379.66	6.557
380.02	5.288
380.38	5.559
380.74	5.627
381.09	6.561
381.45	5.847
381.81	5.747
382.17	6.078
382.53	4.985
382.89	5.383
383.25	5.719
383.61	6.486
383.97	6.307
384.32	4.881
384.68	6.832
385.04	5.978
385.40	5.660
385.76	6.524
386.12	6.621
386.48	7.550
386.83	6.258
387.19	6.814
387.55	6.541
387.91	6.698
388.27	5.549
388.62	5.889
388.98	5.996
389.34	5.936
389.70	6.699
390.06	5.718
390.42	5.321
390.77	6.246
391.13	6.335
391.49	7.049
391.85	6.421
392.20	5.643
392.56	6.231
392.92	6.560
393.28	6.716
393.64	6.675
393.99	6.523
394.35	6.509
394.71	6.362
395.07	6.717
395.42	5.840
395.78	6.034
396.14	7.290
396.50	5.994
396.85	6.786
397.21	6.501
397.57	6.687
397.92	7.201
398.28	6.500
398.64	7.139
399.00	6.404
399.35	6.539
399.71	7.317
400.07	7.164
400.42	7.178
400.78	6.082
401.14	6.168
401.49	6.191
401.85	5.918
402.21	6.377
402.57	6.917
402.92	6.042
403.28	6.311
403.63	6.651
403.99	6.029
404.35	5.978
404.70	6.554
405.06	6.632
405.42	5.535
405.77	6.052
406.13	5.906
406.49	6.771
406.84	6.659
407.20	7.244
407.55	6.650
407.91	5.699
408.27	7.047
408.62	7.035
408.98	7.277
409.34	5.972
409.69	6.175
410.05	6.186
410.40	6.622
410.76	6.639
411.11	5.923
411.47	6.522
411.83	6.479
412.18	5.941
412.54	5.857
412.89	5.711
413.25	5.903
413.60	6.258
413.96	5.669
414.31	6.116
414.67	5.968
415.03	6.274
415.38	6.636
415.74	6.186
416.09	6.138
416.45	5.556
416.80	7.217
417.16	6.246
417.51	7.026
417.87	6.537
418.22	6.321
418.58	7.060
418.93	6.990
419.29	7.089
419.64	5.465
420.00	7.655
420.35	6.032
420.71	6.903
421.06	6.805
421.42	5.855
421.77	7.091
422.12	7.107
422.48	6.200
422.83	6.321
423.19	6.347
423.54	6.744
423.90	6.362
424.25	6.222
424.61	6.996
424.96	7.080
425.31	6.987
425.67	6.705
426.02	5.852
426.38	7.199
426.73	6.487
427.09	6.495
427.44	6.648
427.79	6.570
428.15	7.181
428.50	7.273
428.85	6.535
429.21	6.253
429.56	6.406
429.92	7.415
430.27	6.481
430.62	7.106
430.98	7.162
431.33	6.777
431.68	7.292
432.04	7.331
432.39	7.123
432.74	6.475
433.10	6.922
433.45	6.390
433.80	6.663
434.16	7.093
434.51	6.849
434.86	6.913
435.22	6.626
435.57	6.548
435.92	6.624
436.28	6.528
436.63	6.897
436.98	5.956
437.34	7.088
437.69	7.351
438.04	6.580
438.39	6.859
438.75	6.286
439.10	7.385
439.45	6.276
439.81	7.048
440.16	6.928
440.51	6.706
440.86	7.230
441.22	6.855
441.57	7.158
441.92	7.315
442.27	6.764
442.63	6.974
442.98	5.926
443.33	7.084
443.68	6.618
444.03	7.122
444.39	7.048
444.74	6.883
445.09	6.689
445.44	7.203
445.79	6.578
446.15	7.503
446.50	7.077
446.85	6.875
447.20	7.150
447.55	6.796
447.91	7.412
448.26	6.816
448.61	7.301
448.96	7.787
449.31	7.384
449.66	7.270
450.02	7.091
450.37	6.957
450.72	7.740
451.07	6.977
451.42	6.568
451.77	7.121
452.12	6.913
452.47	7.809
452.83	6.814
453.18	6.958
453.53	6.841
453.88	6.998
454.23	6.348
454.58	7.334
454.93	7.431
455.28	6.692
455.63	7.494
455.98	7.470
456.34	7.052
456.69	7.567
457.04	7.683
457.39	7.177
457.74	6.970
458.09	7.889
458.44	7.506
458.79	6.670
459.14	6.674
459.49	6.986
459.84	7.532
460.19	7.458
460.54	6.776
460.89	6.502
461.24	7.104
461.59	7.503
461.94	7.447
462.29	7.921
462.64	7.839
462.99	7.229
463.34	7.022
463.69	6.743
464.04	7.264
464.39	6.810
464.74	7.742
465.09	7.156
465.44	6.825
465.79	6.937
466.14	7.710
466.49	7.139
466.84	7.563
467.19	8.105
467.54	7.025
467.89	7.645
468.24	7.660
468.59	7.058
468.94	7.074
469.29	6.823
469.64	7.817
469.99	8.440
470.34	6.947
470.68	6.977
471.03	7.639
471.38	6.944
471.73	7.483
472.08	7.229
472.43	7.465
472.78	7.600
473.13	7.157
473.48	7.594
473.83	8.065
474.17	7.325
474.52	7.417
474.87	8.217
475.22	7.139
475.57	6.611
475.92	7.937
476.27	7.943
476.61	7.211
476.96	7.099
477.31	7.320
477.66	6.973
478.01	8.050
478.36	7.910
478.70	7.368
479.05	7.680
479.40	7.047
479.75	7.339
480.10	7.540
480.45	7.302
480.79	8.243
481.14	7.376
481.49	7.696
481.84	7.582
482.19	7.812
482.53	7.670
482.88	7.784
483.23	7.840
483.58	8.834
483.92	8.266
484.27	6.956
484.62	8.337
484.97	7.249
485.31	7.200
485.66	7.405
486.01	7.169
486.36	7.620
486.70	7.950
487.05	7.565
487.40	7.906
487.75	7.496
488.09	7.783
488.44	7.950
488.79	8.065
489.13	7.303
489.48	7.953
489.83	7.424
490.17	7.619
490.52	8.062
490.87	7.898
491.22	7.894
491.56	7.685
491.91	7.443
492.26	7.594
492.60	7.755
492.95	7.996
493.30	8.099
493.64	8.039
493.99	7.409
494.34	7.952
494.68	8.193
495.03	7.983
495.37	7.424
495.72	8.301
496.07	8.447
496.41	8.106
496.76	7.763
497.11	7.960
497.45	8.046
497.80	7.054
498.14	8.055
498.49	7.333
498.84	8.641
499.18	8.382
499.53	7.501
499.87	8.012
500.22	8.431
500.56	7.854
500.91	8.030
501.26	8.637
501.60	7.559
501.95	8.454
502.29	7.936
502.64	8.722
502.98	7.667
503.33	8.788
503.67	7.615
504.02	8.064
504.36	8.186
504.71	7.903
505.06	7.938
505.40	8.583
505.75	8.537
506.09	9.151
506.44	9.073
506.78	8.881
507.13	8.187
507.47	8.503
507.82	8.622
508.16	9.430
508.51	8.346
508.85	8.230
509.19	7.745
509.54	9.091
509.88	8.670
510.23	9.015
510.57	9.418
510.92	9.506
511.26	9.038
511.61	8.855
511.95	9.483
512.30	9.181
512.64	8.848
512.98	9.296
513.33	8.951
513.67	9.213
514.02	10.011
514.36	9.030
514.70	9.394
515.05	9.205
515.39	8.708
515.74	10.239
516.08	9.510
516.42	9.802
516.77	9.994
517.11	9.783
517.46	9.868
517.80	9.687
518.14	8.575
518.49	8.846
518.83	9.021
519.17	10.124
519.52	9.254
519.86	9.618
520.20	9.108
520.55	9.477
520.89	9.142
521.23	9.829
521.58	9.342
521.92	9.753
522.26	10.286
522.61	9.379
522.95	9.381
523.29	9.969
523.64	9.681
523.98	10.185
524.32	9.868
524.66	9.876
525.01	9.762
525.35	10.052
525.69	9.629
526.04	9.595
526.38	10.312
526.72	9.195
527.06	10.091
527.41	10.033
527.75	10.165
528.09	10.721
528.43	9.574
528.78	10.804
529.12	10.755
529.46	9.987
529.80	10.265
530.15	10.560
530.49	11.125
530.83	11.853
531.17	9.293
531.51	10.248
531.86	11.060
532.20	10.121
532.54	11.163
532.88	10.935
533.22	10.361
533.57	10.770
533.91	9.114
534.25	9.617
534.59	10.618
534.93	10.019
535.27	10.510
535.62	10.038
535.96	10.019
536.30	9.097
536.64	10.691
536.98	10.169
537.32	9.952
537.66	9.437
538.01	9.966
538.35	9.527
538.69	9.358
539.03	10.494
539.37	11.311
539.71	11.074
540.05	9.664
540.39	10.942
540.73	10.643
541.07	11.202
541.42	11.006
541.76	10.033
542.10	11.884
542.44	10.526
542.78	11.465
543.12	11.134
543.46	9.521
543.80	10.033
544.14	10.074
544.48	10.892
544.82	10.555
545.16	10.329
545.50	10.094
545.84	9.875
546.18	10.541
546.52	10.455
546.86	11.182
547.20	11.603
547.54	10.262
547.88	11.148
548.22	9.240
548.56	11.156
548.90	10.916
549.24	9.530
549.58	10.515
549.92	10.318
550.26	11.127
550.60	10.669
550.94	11.095
551.28	11.964
551.62	10.635
551.96	10.637
552.30	11.707
552.64	11.049
552.98	11.913
553.32	10.823
553.66	10.526
554.00	10.519
554.34	10.686
554.68	10.380
555.02	11.795
555.36	10.496
555.69	10.888
556.03	10.456
556.37	10.811
556.71	11.167
557.05	10.421
557.39	11.136
557.73	11.816
558.07	11.228
558.41	10.471
558.75	11.939
559.08	10.350
559.42	11.179
559.76	11.273
560.10	12.230
560.44	10.549
560.78	11.343
561.12	10.904
561.45	11.370
561.79	11.220
562.13	10.659
562.47	10.364
562.81	10.113
563.15	10.637
563.48	11.403
563.82	11.224
564.16	10.142
564.50	11.559
564.84	11.971
565.17	10.676
565.51	11.408
565.85	11.900
566.19	11.924
566.52	10.828
566.86	10.367
567.20	11.259
567.54	11.518
567.88	11.167
568.21	10.682
568.55	11.029
568.89	11.282
569.23	11.199
569.56	11.097
569.90	11.172
570.24	10.748
570.57	10.650
570.91	11.187
571.25	11.219
571.59	10.677
571.92	11.131
572.26	11.264
572.60	10.922
572.93	10.715
573.27	10.793
573.61	10.582
573.95	11.256
574.28	11.056
574.62	11.108
574.96	10.718
575.29	11.077
575.63	11.335
575.97	10.841
576.30	10.715
576.64	10.836
576.98	10.948
577.31	10.656
577.65	10.870
577.98	10.878
578.32	10.840
578.66	10.988
578.99	10.939
579.33	10.977
579.67	11.007
580.00	10.962
580.34	10.812
580.67	10.910
581.01	10.763
581.35	10.814
581.68	10.935
582.02	11.052
582.35	11.010
582.69	11.028
583.02	10.986
583.36	11.344
583.70	10.804
584.03	11.153
584.37	11.313
584.70	11.234
585.04	11.089
585.37	10.907
585.71	11.176
586.04	10.917
586.38	10.826
586.72	11.584
587.05	11.470
587.39	10.981
587.72	11.309
588.06	11.032
588.39	11.023
588.73	11.527
589.06	11.317
589.40	11.542
589.73	11.508
590.07	11.253
590.40	11.624
590.73	11.236
591.07	11.598
591.40	11.482
591.74	11.685
592.07	10.901
592.41	11.253
592.74	11.799
593.08	11.432
593.41	11.053
593.75	11.045
594.08	11.682
594.41	11.867
594.75	11.325
595.08	11.203
595.42	11.886
595.75	10.842
596.09	11.525
596.42	11.825
596.75	11.125
597.09	12.289
597.42	11.785
597.75	11.293
598.09	11.252
598.42	11.312
598.76	11.462
599.09	11.484
599.42	11.342
599.76	11.589
600.09	11.947
600.42	11.394
600.76	11.488
601.09	11.736
601.42	10.764
601.76	12.422
602.09	11.493
602.42	12.222
602.76	11.591
603.09	11.331
603.42	11.241
603.76	11.607
604.09	11.574
604.42	11.823
604.76	11.382
605.09	12.071
605.42	11.658
605.75	11.169
606.09	11.499
606.42	11.353
606.75	11.507
607.09	11.645
607.42	11.444
607.75	11.523
608.08	11.839
608.42	11.495
608.75	11.869
609.08	11.593
609.41	10.912
609.75	11.214
610.08	11.765
610.41	11.325
610.74	11.896
611.07	11.562
611.41	10.993
611.74	11.774
612.07	12.030
612.40	11.354
612.73	11.793
613.07	11.007
613.40	12.151
613.73	11.989
614.06	11.862
614.39	11.443
614.72	10.782
615.06	11.902
615.39	11.666
615.72	10.972
616.05	10.657
616.38	11.840
616.71	11.652
617.05	11.942
617.38	11.641
617.71	11.609
618.04	12.236
618.37	11.698
618.70	12.842
619.03	11.916
619.36	11.980
619.69	12.060
620.03	11.983
620.36	11.744
620.69	11.558
621.02	11.720
621.35	11.532
621.68	11.721
622.01	11.327
622.34	12.655
622.67	11.797
623.00	11.783
623.33	13.284
623.66	10.561
623.99	12.105
624.32	12.277
624.65	11.921
624.99	11.800
625.32	12.575
625.65	11.888
625.98	11.346
626.31	12.153
626.64	11.632
626.97	11.644
627.30	11.574
627.63	10.881
627.96	11.662
628.29	11.581
628.62	10.124
628.95	12.205
629.28	11.748
629.61	10.599
629.94	12.098
630.26	12.525
630.59	13.568
630.92	12.513
631.25	12.702
631.58	10.688
631.91	10.745
632.24	11.444
632.57	12.222
632.90	11.034
633.23	11.565
633.56	10.877
633.89	11.675
634.22	11.688
634.55	13.341
634.88	11.487
635.20	9.738
635.53	13.359
635.86	10.957
636.19	12.332
636.52	11.111
636.85	11.071
637.18	10.750
637.51	12.268
637.83	10.386
638.16	12.237
638.49	11.310
638.82	9.266
639.15	12.581
639.48	11.284
639.81	12.586
640.13	12.297
640.46	13.248
640.79	12.045
641.12	11.566
641.45	13.199
641.77	11.826
642.10	10.272
642.43	11.684
642.76	10.866
643.09	11.746
643.41	12.063
643.74	13.037
644.07	10.920
644.40	10.535
644.73	13.366
645.05	11.352
645.38	13.079
645.71	14.261
646.04	12.941
646.36	9.424
646.69	11.592
647.02	12.455
647.35	12.094
647.67	12.591
648.00	10.369
648.33	13.153
648.66	10.484
648.98	10.828
649.31	12.308
649.64	11.875
649.96	12.559
650.29	9.016
650.62	11.188
650.94	9.781
651.27	12.998
651.60	11.419
651.92	13.014
652.25	11.519
652.58	10.392
652.90	10.433
653.23	12.258
653.56	11.204
653.88	11.967
654.21	11.745
654.54	11.794
654.86	11.557
655.19	11.032
655.52	11.943
655.84	11.538
656.17	12.594
656.49	17.432
656.82	18.285
657.15	14.028
657.47	10.068
657.80	7.792
658.13	8.830
658.45	12.278
658.78	12.085
659.10	12.329
659.43	11.849
659.75	11.880
660.08	12.083
660.41	11.980
660.73	10.671
661.06	10.435
661.38	14.464
661.71	11.281
662.03	12.298
662.36	13.220
662.68	9.916
663.01	12.527
663.33	10.884
663.66	11.588
663.98	11.161
664.31	10.738
664.63	14.159
664.96	12.364
665.28	8.026
665.61	10.994
665.93	13.374
666.26	11.336
666.58	10.811
666.91	12.695
667.23	13.158
667.56	6.803
667.88	12.217
668.21	8.525
668.53	12.617
668.86	10.624
669.18	13.014
669.50	14.019
669.83	9.489
670.15	10.314
670.48	8.879
670.80	9.339
671.13	9.481
671.45	9.234
671.77	9.422
672.10	11.243
672.42	13.469
672.75	10.909
673.07	9.369
673.39	10.929
673.72	10.039
674.04	9.342
674.37	9.485
674.69	13.320
675.01	8.936
675.34	9.544
675.66	11.663
675.98	12.335
676.31	11.765
676.63	10.345
676.95	11.504
677.28	9.977
677.60	14.706
677.92	11.454
678.25	12.035
678.57	10.494
678.89	7.757
679.22	10.901
679.54	12.821
679.86	9.800
680.18	11.597
680.51	8.939
680.83	9.524
681.15	12.331
681.48	11.156
681.80	9.073
682.12	11.268
682.44	11.002
682.77	8.658
683.09	11.530
683.41	13.053
683.73	10.046
684.06	11.828
684.38	12.552
684.70	10.700
685.02	8.858
685.34	9.942
685.67	8.144
685.99	7.372
686.31	12.747
686.63	11.525
686.96	10.906
687.28	9.441
687.60	12.695
687.92	8.560
688.24	11.220
688.56	10.220
688.89	8.120
689.21	12.691
689.53	11.954
689.85	11.581
690.17	11.435
690.49	13.164
690.82	10.120
691.14	10.377
691.46	12.195
691.78	10.352
692.10	11.653
692.42	9.778
692.74	10.944
693.06	10.337
693.39	10.291
693.71	8.804
694.03	12.743
694.35	10.384
694.67	11.820
694.99	8.951
695.31	11.480
695.63	11.735
695.95	10.918
696.27	8.978
696.59	10.160
696.91	10.674
697.23	12.500
697.56	7.452
697.88	9.009
698.20	10.064
698.52	8.744
698.84	9.709
699.16	9.524
699.48	7.000
699.80	7.769
700.12	12.343
700.44	8.939
700.76	8.746
701.08	8.140
701.40	9.366
701.72	8.333
702.04	11.218
702.36	9.337
702.68	8.982
703.00	12.754
703.32	7.736
703.64	10.882
703.96	11.047
704.28	10.651
704.60	4.747
704.91	9.841
705.23	9.385
705.55	8.446
705.87	5.802
706.19	8.681
706.51	6.597
706.83	8.197
707.15	10.828
707.47	11.570
707.79	9.536
708.11	7.125
708.43	13.217
708.74	7.532
709.06	7.799
709.38	7.184
709.70	9.375
710.02	11.350
710.34	7.591
710.66	10.476
710.98	6.625
711.29	7.742
711.61	7.987
711.93	9.836
712.25	9.967
712.57	6.272
712.89	11.151
713.20	9.966
713.52	6.716
713.84	2.491
714.16	9.180
714.48	9.841
714.80	8.308
715.11	11.527
715.43	11.446
715.75	12.773
716.07	5.902
716.39	11.706
716.70	10.453
717.02	11.852
717.34	6.107
717.66	10.373
717.97	6.148
718.29	8.403
718.61	14.286
718.93	5.735
719.24	4.779
719.56	6.792
719.88	9.455
720.20	5.993
720.51	8.647
720.83	16.867
721.15	6.967
721.46	7.059
721.78	6.897
722.10	4.000
722.42	7.438
722.73	7.570
723.05	9.639
723.37	9.412
723.68	8.097
724.00	11.789
724.32	7.407
724.63	5.809
724.95	10.744
725.27	2.632
725.58	8.190
725.90	3.968
726.22	12.546
726.53	5.323
726.85	2.745
727.16	9.774
727.48	5.769
727.80	4.098
728.11	2.521
728.43	7.438
728.74	9.375
729.06	8.333
729.38	7.782
729.69	10.630
730.01	7.480
730.32	7.570
730.64	9.524
730.96	12.313
731.27	9.643
731.59	7.717
731.90	11.043
732.22	8.282
732.53	13.907
732.85	5.369
733.16	9.783
733.48	8.711
733.80	6.406
734.11	9.655
734.43	9.184
734.74	12.166
735.06	7.524
735.37	9.174
735.69	7.742
736.00	5.724
736.32	10.927
736.63	4.483
736.95	5.797
737.26	9.934
737.58	9.712
737.89	10.394
738.21	3.759
738.52	5.000
738.83	7.031
739.15	10.684
739.46	11.290
739.78	5.245
740.09	5.594
740.41	9.790
740.72	12.044
741.04	6.349
741.35	2.597
741.66	7.870
741.98	9.524
742.29	9.390
742.61	9.091
742.92	7.477
743.23	7.456
743.55	8.559
743.86	15.111
744.18	8.095
744.49	14.286
744.80	7.614
745.12	7.216
745.43	15.578
745.74	5.340
746.06	5.854
746.37	10.573
746.68	2.985
747.00	3.665
747.31	4.327
747.62	6.912
747.94	8.734
748.25	8.372
748.56	8.571
748.88	3.261
749.19	5.164
749.50	13.235
749.82	5.778
750.13	8.370
750.44	11.382
750.75	7.600
751.07	9.286
751.38	6.642
751.69	7.634
752.01	7.692
752.32	3.113
752.63	3.462
752.94	6.746
753.26	8.261
753.57	12.500
753.88	9.483
754.19	-0.415
754.51	6.641
754.82	7.510
755.13	11.111
755.44	7.025
755.75	11.523
756.07	5.622
756.38	3.906
756.69	9.025
757.00	10.453
757.31	9.396
757.63	9.034
757.94	9.249
758.25	7.558
758.56	11.860
758.87	9.375
759.18	9.000
759.50	4.626
759.81	2.190
760.12	4.392
760.43	6.149
760.74	9.062
761.05	8.708
761.36	7.784
761.67	6.805
761.99	3.871
762.30	7.971
762.61	10.189
762.92	12.108
763.23	7.583
763.54	7.556
763.85	11.392
764.16	10.612
764.47	8.475
764.78	11.610
765.10	9.712
765.41	4.516
765.72	7.233
766.03	3.534
766.34	9.774
766.65	6.073
766.96	6.500
767.27	4.167
767.58	12.209
767.89	9.677
768.20	7.362
768.51	10.383
768.82	3.784
769.13	2.500
769.44	4.386
769.75	9.524
770.06	8.716
770.37	3.756
770.68	3.125
770.99	2.970
771.30	6.796
771.61	6.481
771.92	3.896
772.23	6.542
772.54	12.234
772.85	2.959
773.16	7.927
773.47	12.651
773.78	14.835
774.09	0.000
774.39	7.407
774.70	6.040
775.01	0.000
775.32	-4.478
775.63	-4.959
775.94	0.752
776.25	2.857
776.56	12.295
776.87	9.735
777.18	11.504
777.48	-19.091
777.79	-1.739
778.10	-10.092
778.41	4.237
778.72	4.132
779.03	3.731
779.34	5.263
779.65	1.961
779.95	6.522
780.26	6.803
780.57	-10.345
780.88	12.963
781.19	-4.040
781.50	-4.000
781.80	6.536
782.11	3.205
782.42	3.012
782.73	-5.839
783.04	4.730
783.34	4.545
783.65	-2.326
783.96	2.439
784.27	-2.564
784.57	-8.130
784.88	4.878
785.19	8.772
785.50	-6.186
785.81	-5.714
786.11	-20.588
786.42	2.727
786.73	7.207
787.04	0.990
787.34	-9.524
787.65	-2.857
787.96	-11.765
788.26	1.802
788.57	0.000
788.88	-3.125
789.19	5.128
789.49	5.882
789.80	1.709
790.11	-3.540
790.41	-2.020
790.72	7.547
791.03	-25.000
791.33	-10.526
791.64	4.301
791.95	6.667
792.25	-18.571
792.56	1.220
792.87	9.184
793.17	-5.263
793.48	-27.027
793.79	-7.042
794.09	-5.063
794.40	-3.191
794.70	-6.542
795.01	-5.263
795.32	0.909
795.62	-0.893
795.93	-10.309
796.23	-7.692
796.54	10.526
796.85	-1.370
797.15	-1.389
797.46	-5.479
797.76	-7.042
798.07	6.250
798.37	-10.294
798.68	15.714
798.99	-5.714
799.29	-5.263
799.60	0.000
799.90	-23.611
800.21	-18.750
800.51	-6.349
800.82	-14.754
801.12	-26.316
801.43	-14.085
801.73	-25.424
802.04	-8.197
802.34	-36.364
802.65	-3.846
802.95	-7.407
803.26	-47.500
803.56	-15.385
803.87	-21.053
804.17	-9.677
804.48	-4.615
804.78	-20.513
805.09	-23.256
805.39	-59.375
805.70	-32.075
806.00	-14.035
806.30	-1.351
806.61	4.412
806.91	2.469
807.22	-4.000
807.52	-5.970
807.83	-8.065
808.13	-14.286
808.43	-25.455
808.74	-10.606
809.04	-5.660
809.35	0.000
809.65	1.754
809.95	11.765
810.26	7.843
810.56	-24.000
810.86	-4.082
811.17	-14.286
811.47	0.000
811.77	-45.161
812.08	-36.842
812.38	-7.143
812.69	-10.870
812.99	-12.903
813.29	-35.714
813.59	-62.963
813.90	-2.128
814.20	-30.233
814.50	-12.500
814.81	-35.000
815.11	-26.829
815.41	-36.667
815.72	-20.000
816.02	-25.000
816.32	5.128
816.62	-24.324
816.93	-55.882
817.23	0.000
817.53	-20.588
817.84	-23.529
818.14	-75.000
818.44	-44.828
818.74	-51.613
819.04	-44.444
819.35	-23.333
819.65	-72.000
819.95	-26.667
820.25	-16.000
820.56	-31.579
820.86	-52.500
821.16	-2.128
821.46	-13.793
821.76	-41.026
822.07	-7.500
822.37	-30.233
822.67	-20.000
822.97	-24.324
823.27	-8.108
823.57	-40.000
823.88	-32.432
824.18	-90.476
824.48	-76.923
824.78	-69.231
825.08	-73.913
825.38	-45.833
825.69	-45.833
825.99	-75.000
826.29	-5.405
826.59	-38.235
826.89	-8.000
827.19	-51.429
827.49	-15.789
827.79	-46.875
828.09	-100.000
828.39	21.739
828.70	-41.379
829.00	-48.276
829.30	-27.778
829.60	15.625
829.90	-38.889
830.20	-69.231
830.50	-123.810
830.80	-50.000
831.10	-15.385
831.40	-109.524
831.70	-26.471
832.00	8.333
832.30	-36.842
832.60	-68.750
832.90	-150.000
833.20	-123.529
833.50	-140.000
833.80	-106.667
834.10	-35.000
834.40	-20.833
834.70	-105.556
835.00	-30.769
835.30	-45.833
835.60	10.345
835.90	-77.778
836.20	-236.364
836.50	-191.667
836.80	-20.000
837.10	28.571
837.40	-117.647
837.70	-200.000
838.00	-41.667
838.30	-62.500
838.60	-47.619
838.90	10.000
839.19	-4.348
839.49	-13.043
839.79	-66.667
840.09	-30.435
840.39	-90.909
840.69	-62.500
840.99	-52.632
841.29	-37.500
841.59	-14.286
841.88	-27.778
842.18	-45.833
842.48	-100.000
842.78	-24.138
843.08	-85.714
843.38	-46.154
843.68	-266.667
843.97	-138.462
844.27	-163.636
844.57	-300.000
844.87	-44.000
845.17	-260.000
845.47	-100.000
845.76	-111.111
846.06	0.000
846.36	-650.000
846.66	-170.000
846.96	-63.158
847.25	-50.000
847.55	-141.667
847.85	-6.667
848.15	-160.000
848.44	-3.846
848.74	10.526
849.04	100.000
849.34	-88.889
849.63	-89.474
849.93	0.000
850.23	-130.000
850.53	-19.048
850.82	-36.000
851.12	-10.526
851.42	-1550.000
851.71	-21.429
852.01	-83.333
852.31	-58.824
852.61	-40.000
852.90	-38.095
853.20	-333.333
853.50	-55.556
853.79	-57.895
854.09	-73.333
854.39	-14.286
854.68	-30.435
854.98	-291.667
855.28	-27.586
855.57	-56.250
855.87	-40.000
856.17	-40.000
856.46	0.000
856.76	-53.333
857.05	-117.647
857.35	-138.462
857.65	-136.364
857.94	-33.333
858.24	-157.143
858.53	-107.143
858.83	-108.333
859.13	-111.111
859.42	-4.762
859.72	-175.000
860.01	-366.667
860.31	-100.000
860.60	-340.000
860.90	-222.222
861.20	-75.000
861.49	-271.429
861.79	5.882
862.08	-1350.000
862.38	-166.667
862.67	-46.154
862.97	-35.294
863.26	0.000
863.56	-47.059
863.85	833.333
864.15	-160.000
864.44	-100.000
864.74	-15.000
865.03	-250.000
865.33	-350.000
865.62	-105.882
865.92	-400.000
866.21	-42.857
866.51	-125.000
866.80	-800.000
867.10	-133.333
867.39	-29.412
867.69	0.000
867.98	-114.286
868.27	-260.000
868.57	-68.750
868.86	-145.455
869.16	-11.765
869.45	-116.667
869.75	-185.714
870.04	1400.000
870.33	-25.000
870.63	-320.000
870.92	-155.556
871.22	-75.000
871.51	-45.455
871.80	-108.333
872.10	20.000
>>>>>End Processed Spectral Data<<<<<
