SpectraSuite Data File
++++++++++++++++++++++++++++++++++++
Date: Sat May 16 11:41:24 PDT 2015
User: schluterlab
Dark Spectrum Present: Yes
Reference Spectrum Present: Yes
Number of Sampled Component Spectra: 1
Spectrometers: USB2E3373
Integration Time (usec): 3000 (USB2E3373)
Spectra Averaged: 3 (USB2E3373)
Boxcar Smoothing: 0 (USB2E3373)
Correct for Electrical Dark: No (USB2E3373)
Strobe/Lamp Enabled: No (USB2E3373)
Correct for Detector Non-linearity: No (USB2E3373)
Correct for Stray Light: No (USB2E3373)
Number of Pixels in Processed Spectrum: 2048
>>>>>Begin Processed Spectral Data<<<<<
178.53	0.000
178.91	106.667
179.29	766.667
179.67	-1300.000
180.04	-115.385
180.42	800.000
180.80	225.000
181.18	425.000
181.56	-112.500
181.94	600.000
182.31	600.000
182.69	-76.923
183.07	-433.333
183.45	1500.000
183.83	533.333
184.20	-271.429
184.58	-200.000
184.96	-275.000
185.34	75.000
185.72	-700.000
186.09	233.333
186.47	-287.500
186.85	-187.500
187.23	-62.500
187.61	-425.000
187.98	-300.000
188.36	-100.000
188.74	-150.000
189.12	1900.000
189.49	442.857
189.87	-91.667
190.25	325.000
190.63	-128.571
191.00	-122.222
191.38	380.000
191.76	-6.667
192.14	440.000
192.51	-240.000
192.89	-466.667
193.27	0.000
193.65	11.111
194.02	-185.714
194.40	533.333
194.78	-40.000
195.15	-1400.000
195.53	-18.182
195.91	-283.333
196.29	180.000
196.66	-666.667
197.04	2200.000
197.42	-150.000
197.79	20.000
198.17	-266.667
198.55	-850.000
198.92	-1000.000
199.30	350.000
199.68	-900.000
200.05	-155.556
200.43	-166.667
200.81	-1300.000
201.18	-100.000
201.56	200.000
201.94	-80.000
202.31	-36.364
202.69	70.000
203.07	-10.000
203.44	433.333
203.82	-300.000
204.19	-175.000
204.57	-225.000
204.95	-1300.000
205.32	-25.000
205.70	1100.000
206.08	-1300.000
206.45	-11.111
206.83	-800.000
207.20	-500.000
207.58	-433.333
207.96	-433.333
208.33	-125.000
208.71	-66.667
209.08	180.000
209.46	-371.429
209.84	900.000
210.21	0.000
210.59	45.000
210.96	100.000
211.34	-183.333
211.71	-633.333
212.09	150.000
212.46	650.000
212.84	-2300.000
213.22	566.667
213.59	108.333
213.97	-22.222
214.34	140.000
214.72	-40.000
215.09	-433.333
215.47	-116.667
215.84	10.000
216.22	-70.000
216.59	-60.000
216.97	-425.000
217.34	800.000
217.72	-57.143
218.09	-133.333
218.47	-157.143
218.84	185.714
219.22	-28.571
219.59	0.000
219.97	200.000
220.34	300.000
220.72	237.500
221.09	-61.538
221.47	0.000
221.84	100.000
222.22	-50.000
222.59	2500.000
222.97	-137.500
223.34	-200.000
223.72	-600.000
224.09	-50.000
224.46	-550.000
224.84	14.286
225.21	-200.000
225.59	-136.364
225.96	-137.500
226.34	-128.571
226.71	-133.333
227.08	-20.000
227.46	1000.000
227.83	-28.571
228.21	-200.000
228.58	350.000
228.95	6.250
229.33	-1800.000
229.70	-360.000
230.08	-700.000
230.45	-33.333
230.82	-250.000
231.20	-200.000
231.57	-700.000
231.95	1700.000
232.32	28.571
232.69	-133.333
233.07	-228.571
233.44	-600.000
233.81	-80.000
234.19	-77.778
234.56	-50.000
234.93	25.000
235.31	-114.286
235.68	-42.857
236.05	0.000
236.43	-50.000
236.80	-16.129
237.17	41.667
237.55	4.762
237.92	0.000
238.29	42.857
238.67	29.412
239.04	5.556
239.41	6.452
239.79	-41.026
240.16	16.667
240.53	16.364
240.91	43.590
241.28	45.455
241.65	40.000
242.02	36.066
242.40	22.951
242.77	36.364
243.14	37.288
243.51	44.286
243.89	30.380
244.26	34.831
244.63	44.211
245.00	40.000
245.38	37.288
245.75	41.593
246.12	36.800
246.49	40.945
246.87	34.959
247.24	44.068
247.61	38.983
247.98	40.141
248.36	34.266
248.73	38.608
249.10	32.484
249.47	44.444
249.84	42.614
250.22	36.310
250.59	37.853
250.96	42.932
251.33	40.758
251.70	39.423
252.08	42.654
252.45	40.758
252.82	40.000
253.19	39.149
253.56	41.935
253.94	40.506
254.31	41.631
254.68	41.870
255.05	41.935
255.42	46.429
255.79	40.860
256.16	47.843
256.54	42.279
256.91	42.803
257.28	32.967
257.65	46.099
258.02	44.654
258.39	44.147
258.76	43.919
259.14	42.284
259.51	42.623
259.88	42.378
260.25	45.342
260.62	39.550
260.99	38.872
261.36	41.159
261.73	45.376
262.10	45.000
262.47	44.729
262.85	42.286
263.22	42.980
263.59	38.769
263.96	46.087
264.33	46.070
264.70	44.751
265.07	42.857
265.44	44.444
265.81	43.928
266.18	41.519
266.55	42.402
266.92	48.363
267.29	42.615
267.66	43.704
268.03	43.720
268.40	44.601
268.77	42.410
269.14	42.691
269.51	44.368
269.88	40.596
270.25	41.492
270.62	43.478
270.99	41.892
271.36	43.124
271.73	43.722
272.10	43.936
272.47	42.222
272.84	43.778
273.21	43.578
273.58	43.077
273.95	41.447
274.32	44.570
274.69	45.733
275.06	44.581
275.43	41.964
275.80	46.640
276.17	41.632
276.54	41.955
276.91	42.798
277.28	41.785
277.65	43.182
278.02	42.589
278.39	43.026
278.76	42.430
279.13	43.478
279.50	42.942
279.87	41.015
280.23	42.915
280.60	44.135
280.97	42.913
281.34	41.779
281.71	41.923
282.08	43.347
282.45	44.807
282.82	44.767
283.19	41.818
283.56	41.209
283.92	42.933
284.29	43.494
284.66	39.388
285.03	40.998
285.40	41.513
285.77	42.105
286.14	41.155
286.51	44.227
286.87	41.742
287.24	43.686
287.61	38.347
287.98	39.861
288.35	40.496
288.72	39.559
289.08	40.508
289.45	40.909
289.82	39.100
290.19	40.722
290.56	38.843
290.93	37.997
291.29	37.601
291.66	38.003
292.03	39.246
292.40	38.404
292.77	36.335
293.13	39.024
293.50	37.296
293.87	36.810
294.24	34.691
294.60	34.394
294.97	37.481
295.34	35.852
295.71	35.565
296.08	34.409
296.44	35.336
296.81	36.467
297.18	33.803
297.55	33.192
297.91	35.425
298.28	33.151
298.65	34.031
299.02	34.225
299.38	31.684
299.75	30.978
300.12	32.564
300.48	33.504
300.85	32.241
301.22	32.730
301.59	33.420
301.95	31.612
302.32	30.378
302.69	31.824
303.05	31.013
303.42	30.125
303.79	32.895
304.15	31.280
304.52	30.922
304.89	31.995
305.25	31.502
305.62	31.610
305.99	33.922
306.35	29.967
306.72	31.891
307.09	31.896
307.45	31.555
307.82	29.944
308.19	30.649
308.55	29.847
308.92	30.505
309.29	33.081
309.65	29.905
310.02	30.238
310.38	30.378
310.75	30.123
311.12	30.785
311.48	30.167
311.85	32.029
312.22	31.926
312.58	31.129
312.95	31.193
313.31	32.168
313.68	31.457
314.05	32.344
314.41	31.388
314.78	30.769
315.14	32.083
315.51	33.536
315.87	34.366
316.24	33.528
316.61	34.933
316.97	34.925
317.34	35.067
317.70	35.436
318.07	35.261
318.43	34.738
318.80	36.150
319.16	36.679
319.53	35.902
319.89	37.253
320.26	36.078
320.62	36.538
320.99	37.214
321.35	36.650
321.72	39.304
322.08	40.950
322.45	41.089
322.81	41.499
323.18	42.747
323.54	43.068
323.91	41.335
324.27	44.677
324.64	44.607
325.00	43.543
325.37	45.249
325.73	46.719
326.10	47.033
326.46	48.774
326.83	48.000
327.19	47.623
327.56	51.618
327.92	49.788
328.29	51.602
328.65	52.000
329.01	53.180
329.38	53.078
329.74	54.853
330.11	53.853
330.47	54.950
330.84	55.362
331.20	54.874
331.56	57.521
331.93	57.638
332.29	58.082
332.66	56.716
333.02	57.195
333.38	58.333
333.75	58.237
334.11	60.356
334.48	59.665
334.84	61.242
335.20	59.574
335.57	61.552
335.93	62.757
336.29	61.027
336.66	60.000
337.02	63.153
337.38	60.963
337.75	61.370
338.11	61.360
338.47	64.324
338.84	63.793
339.20	63.708
339.56	63.815
339.93	63.580
340.29	64.216
340.65	62.325
341.02	62.226
341.38	62.174
341.74	62.913
342.11	63.823
342.47	65.322
342.83	63.812
343.20	64.560
343.56	63.020
343.92	64.190
344.28	67.283
344.65	64.109
345.01	65.966
345.37	65.532
345.73	63.257
346.10	60.998
346.46	63.363
346.82	62.711
347.19	64.421
347.55	63.804
347.91	65.984
348.27	63.882
348.63	64.701
349.00	66.269
349.36	63.388
349.72	65.207
350.08	65.196
350.45	65.327
350.81	64.809
351.17	65.675
351.53	63.007
351.89	65.724
352.26	64.496
352.62	64.363
352.98	66.930
353.34	65.867
353.70	62.934
354.07	64.988
354.43	66.640
354.79	66.165
355.15	65.815
355.51	65.156
355.87	66.166
356.24	66.005
356.60	68.251
356.96	66.744
357.32	65.796
357.68	66.973
358.04	65.358
358.40	65.120
358.77	65.765
359.13	66.182
359.49	65.684
359.85	66.692
360.21	67.275
360.57	65.738
360.93	66.741
361.29	67.638
361.66	68.369
362.02	67.751
362.38	67.792
362.74	67.619
363.10	66.499
363.46	67.806
363.82	66.764
364.18	68.017
364.54	67.548
364.90	68.274
365.26	67.047
365.62	68.781
365.98	68.919
366.35	68.028
366.71	67.583
367.07	67.325
367.43	67.811
367.79	67.973
368.15	68.492
368.51	68.951
368.87	69.780
369.23	67.719
369.59	67.639
369.95	68.217
370.31	69.198
370.67	68.257
371.03	69.461
371.39	69.519
371.75	69.886
372.11	71.306
372.47	70.644
372.83	68.985
373.19	70.929
373.55	70.021
373.91	71.124
374.27	69.610
374.63	69.634
374.99	71.419
375.35	69.381
375.71	71.641
376.07	71.047
376.42	70.397
376.78	72.157
377.14	72.000
377.50	71.180
377.86	70.871
378.22	71.671
378.58	71.958
378.94	71.578
379.30	72.821
379.66	72.617
380.02	71.717
380.38	73.837
380.74	73.154
381.09	71.705
381.45	72.971
381.81	72.656
382.17	73.559
382.53	72.158
382.89	74.103
383.25	72.486
383.61	72.995
383.97	74.464
384.32	74.406
384.68	74.123
385.04	74.275
385.40	73.828
385.76	74.512
386.12	74.453
386.48	75.928
386.83	73.190
387.19	75.134
387.55	73.895
387.91	74.452
388.27	74.789
388.62	74.519
388.98	74.016
389.34	74.174
389.70	75.883
390.06	75.016
390.42	75.705
390.77	76.215
391.13	76.522
391.49	76.232
391.85	75.686
392.20	73.665
392.56	75.015
392.92	75.471
393.28	75.373
393.64	76.669
393.99	75.385
394.35	75.608
394.71	75.726
395.07	76.208
395.42	75.805
395.78	74.796
396.14	76.885
396.50	75.413
396.85	75.262
397.21	76.245
397.57	75.745
397.92	77.459
398.28	76.722
398.64	76.264
399.00	76.685
399.35	76.945
399.71	77.875
400.07	77.254
400.42	75.365
400.78	76.804
401.14	77.126
401.49	74.882
401.85	76.876
402.21	76.996
402.57	77.002
402.92	77.785
403.28	76.777
403.63	74.715
403.99	76.569
404.35	76.268
404.70	75.073
405.06	76.701
405.42	76.199
405.77	75.622
406.13	76.434
406.49	75.914
406.84	78.344
407.20	75.206
407.55	75.491
407.91	74.870
408.27	77.145
408.62	75.646
408.98	76.531
409.34	76.051
409.69	76.055
410.05	75.500
410.40	76.579
410.76	76.467
411.11	77.494
411.47	75.767
411.83	77.323
412.18	77.104
412.54	75.961
412.89	76.914
413.25	76.860
413.60	76.367
413.96	75.478
414.31	77.125
414.67	75.810
415.03	77.167
415.38	78.334
415.74	78.995
416.09	77.110
416.45	76.587
416.80	76.203
417.16	76.545
417.51	77.019
417.87	77.087
418.22	77.244
418.58	76.893
418.93	78.112
419.29	77.666
419.64	77.952
420.00	78.190
420.35	78.415
420.71	79.352
421.06	77.337
421.42	76.874
421.77	78.280
422.12	78.791
422.48	77.926
422.83	77.790
423.19	78.341
423.54	78.559
423.90	78.774
424.25	78.733
424.61	80.157
424.96	80.866
425.31	79.430
425.67	78.625
426.02	78.084
426.38	78.524
426.73	81.297
427.09	79.902
427.44	82.500
427.79	80.174
428.15	80.551
428.50	81.877
428.85	80.815
429.21	81.184
429.56	81.667
429.92	80.962
430.27	80.110
430.62	82.027
430.98	79.770
431.33	82.551
431.68	83.539
432.04	82.205
432.39	81.425
432.74	82.434
433.10	82.949
433.45	82.499
433.80	82.363
434.16	83.289
434.51	85.041
434.86	85.882
435.22	83.742
435.57	83.170
435.92	84.701
436.28	84.214
436.63	84.568
436.98	82.761
437.34	83.461
437.69	83.897
438.04	84.855
438.39	85.740
438.75	83.760
439.10	84.620
439.45	85.456
439.81	84.518
440.16	83.532
440.51	85.882
440.86	85.772
441.22	84.688
441.57	85.632
441.92	84.962
442.27	85.065
442.63	86.052
442.98	85.440
443.33	85.338
443.68	85.409
444.03	86.640
444.39	86.246
444.74	87.390
445.09	85.362
445.44	87.282
445.79	87.251
446.15	86.911
446.50	84.976
446.85	86.557
447.20	86.619
447.55	86.519
447.91	87.367
448.26	85.251
448.61	85.965
448.96	88.515
449.31	86.809
449.66	87.922
450.02	86.316
450.37	87.478
450.72	87.684
451.07	89.189
451.42	86.803
451.77	87.313
452.12	86.889
452.47	87.469
452.83	86.838
453.18	89.437
453.53	87.998
453.88	89.593
454.23	85.308
454.58	88.626
454.93	89.610
455.28	89.165
455.63	87.899
455.98	89.819
456.34	88.056
456.69	88.368
457.04	88.261
457.39	88.696
457.74	89.368
458.09	89.849
458.44	88.857
458.79	89.574
459.14	89.161
459.49	89.639
459.84	89.432
460.19	89.499
460.54	88.748
460.89	89.966
461.24	89.617
461.59	88.511
461.94	89.688
462.29	89.220
462.64	89.262
462.99	90.228
463.34	89.061
463.69	90.458
464.04	86.116
464.39	89.068
464.74	87.352
465.09	87.432
465.44	88.325
465.79	89.453
466.14	90.794
466.49	88.083
466.84	89.976
467.19	89.900
467.54	87.342
467.89	90.691
468.24	89.667
468.59	90.693
468.94	91.897
469.29	88.239
469.64	88.477
469.99	90.952
470.34	91.316
470.68	90.988
471.03	89.126
471.38	90.417
471.73	93.147
472.08	91.432
472.43	90.541
472.78	90.067
473.13	92.048
473.48	91.704
473.83	91.067
474.17	92.420
474.52	92.199
474.87	89.394
475.22	90.678
475.57	92.222
475.92	91.955
476.27	91.200
476.61	92.507
476.96	92.677
477.31	92.250
477.66	92.252
478.01	91.842
478.36	90.257
478.70	92.472
479.05	92.482
479.40	92.694
479.75	92.049
480.10	90.823
480.45	89.652
480.79	92.646
481.14	93.377
481.49	93.175
481.84	92.094
482.19	91.914
482.53	92.850
482.88	93.403
483.23	91.221
483.58	91.721
483.92	92.833
484.27	91.449
484.62	91.231
484.97	90.023
485.31	89.408
485.66	87.850
486.01	89.081
486.36	92.345
486.70	94.412
487.05	91.851
487.40	92.094
487.75	90.764
488.09	90.519
488.44	91.915
488.79	90.980
489.13	91.898
489.48	92.781
489.83	92.402
490.17	91.685
490.52	92.754
490.87	93.256
491.22	93.601
491.56	92.963
491.91	93.511
492.26	93.208
492.60	93.102
492.95	92.242
493.30	92.520
493.64	92.337
493.99	93.021
494.34	94.524
494.68	94.569
495.03	93.308
495.37	95.329
495.72	94.008
496.07	94.557
496.41	96.943
496.76	94.292
497.11	94.724
497.45	94.732
497.80	97.249
498.14	92.927
498.49	94.726
498.84	94.612
499.18	95.029
499.53	95.860
499.87	94.836
500.22	95.147
500.56	94.847
500.91	94.581
501.26	94.954
501.60	94.559
501.95	96.377
502.29	94.332
502.64	96.134
502.98	94.106
503.33	95.771
503.67	94.684
504.02	94.785
504.36	95.000
504.71	95.441
505.06	93.859
505.40	95.908
505.75	96.087
506.09	96.512
506.44	95.038
506.78	96.086
507.13	96.138
507.47	97.027
507.82	95.922
508.16	96.943
508.51	96.188
508.85	97.205
509.19	96.756
509.54	95.349
509.88	96.968
510.23	97.327
510.57	98.042
510.92	98.711
511.26	95.322
511.61	96.274
511.95	96.282
512.30	96.921
512.64	97.385
512.98	95.820
513.33	97.748
513.67	96.594
514.02	96.253
514.36	94.958
514.70	96.435
515.05	97.942
515.39	96.597
515.74	98.487
516.08	97.233
516.42	96.714
516.77	98.498
517.11	97.941
517.46	100.060
517.80	99.398
518.14	98.973
518.49	99.342
518.83	98.101
519.17	98.638
519.52	97.397
519.86	100.358
520.20	100.917
520.55	97.169
520.89	97.934
521.23	96.825
521.58	98.621
521.92	100.190
522.26	97.651
522.61	99.620
522.95	99.426
523.29	97.931
523.64	96.877
523.98	100.382
524.32	99.434
524.66	97.578
525.01	98.202
525.35	98.325
525.69	98.764
526.04	99.413
526.38	99.045
526.72	98.531
527.06	100.326
527.41	99.868
527.75	98.152
528.09	99.338
528.43	97.836
528.78	97.550
529.12	100.320
529.46	98.840
529.80	99.742
530.15	98.841
530.49	98.254
530.83	99.542
531.17	99.596
531.51	99.799
531.86	98.486
532.20	100.135
532.54	98.663
532.88	96.574
533.22	101.404
533.57	100.457
533.91	97.316
534.25	98.052
534.59	98.314
534.93	98.320
535.27	99.434
535.62	99.872
535.96	98.190
536.30	99.607
536.64	97.543
536.98	101.483
537.32	100.138
537.66	98.439
538.01	100.550
538.35	99.324
538.69	98.930
539.03	98.917
539.37	98.669
539.71	98.599
540.05	99.383
540.39	101.385
540.73	101.659
541.07	99.795
541.42	99.865
541.76	99.269
542.10	101.283
542.44	98.468
542.78	99.729
543.12	101.901
543.46	98.904
543.80	99.398
544.14	98.858
544.48	100.328
544.82	100.135
545.16	99.262
545.50	98.587
545.84	99.861
546.18	98.682
546.52	100.356
546.86	102.137
547.20	99.648
547.54	98.209
547.88	100.796
548.22	98.624
548.56	100.267
548.90	100.741
549.24	99.159
549.58	100.494
549.92	100.353
550.26	100.795
550.60	98.293
550.94	99.781
551.28	99.699
551.62	101.182
551.96	100.579
552.30	99.721
552.64	101.196
552.98	100.701
553.32	101.010
553.66	101.298
554.00	100.213
554.34	100.072
554.68	100.512
555.02	101.230
555.36	100.144
555.69	100.072
556.03	100.140
556.37	100.853
556.71	102.720
557.05	102.809
557.39	100.445
557.73	102.699
558.07	102.788
558.41	101.945
558.75	101.445
559.08	101.712
559.42	102.450
559.76	102.531
560.10	102.983
560.44	102.746
560.78	101.949
561.12	101.863
561.45	100.342
561.79	101.324
562.13	100.982
562.47	100.000
562.81	99.859
563.15	100.350
563.48	102.281
563.82	101.961
564.16	100.811
564.50	102.016
564.84	100.794
565.17	100.332
565.51	101.173
565.85	104.192
566.19	103.228
566.52	101.109
566.86	101.075
567.20	100.969
567.54	102.776
567.88	100.558
568.21	101.622
568.55	102.227
568.89	99.901
569.23	99.167
569.56	98.403
569.90	100.629
570.24	99.662
570.57	97.680
570.91	97.654
571.25	97.438
571.59	97.627
571.92	96.488
572.26	98.173
572.60	96.711
572.93	95.788
573.27	95.945
573.61	96.329
573.95	97.100
574.28	95.546
574.62	97.585
574.96	96.162
575.29	95.935
575.63	96.735
575.97	95.928
576.30	95.725
576.64	96.501
576.98	95.322
577.31	97.139
577.65	96.891
577.98	95.703
578.32	95.980
578.66	96.440
578.99	97.134
579.33	96.282
579.67	96.525
580.00	96.677
580.34	96.771
580.67	96.788
581.01	95.315
581.35	96.465
581.68	96.145
582.02	96.273
582.35	96.563
582.69	97.424
583.02	98.851
583.36	97.331
583.70	96.851
584.03	98.491
584.37	97.943
584.70	97.568
585.04	96.329
585.37	95.632
585.71	96.952
586.04	97.822
586.38	97.567
586.72	97.802
587.05	97.734
587.39	98.252
587.72	98.089
588.06	98.459
588.39	98.462
588.73	98.793
589.06	98.881
589.40	100.069
589.73	98.017
590.07	99.017
590.40	98.745
590.73	101.279
591.07	100.123
591.40	100.910
591.74	99.783
592.07	100.586
592.41	99.703
592.74	100.038
593.08	99.107
593.41	99.803
593.75	98.286
594.08	102.193
594.41	100.702
594.75	100.000
595.08	100.827
595.42	100.759
595.75	100.074
596.09	101.087
596.42	101.637
596.75	100.776
597.09	101.514
597.42	99.913
597.75	100.133
598.09	101.898
598.42	99.470
598.76	99.917
599.09	100.671
599.42	99.962
599.76	98.867
600.09	99.504
600.42	100.949
600.76	101.431
601.09	100.038
601.42	101.108
601.76	99.299
602.09	100.982
602.42	100.247
602.76	101.039
603.09	101.008
603.42	101.289
603.76	103.311
604.09	100.441
604.42	100.916
604.76	99.913
605.09	100.904
605.42	101.374
605.75	102.674
606.09	100.083
606.42	100.712
606.75	100.687
607.09	101.015
607.42	101.056
607.75	100.397
608.08	101.491
608.42	102.791
608.75	100.327
609.08	101.948
609.41	102.192
609.75	99.902
610.08	102.647
610.41	101.205
610.74	102.563
611.07	102.840
611.41	101.513
611.74	101.748
612.07	105.102
612.40	101.226
612.73	102.531
613.07	102.697
613.40	103.831
613.73	102.452
614.06	101.757
614.39	104.904
614.72	102.682
615.06	101.685
615.39	100.543
615.72	102.390
616.05	102.043
616.38	104.353
616.71	102.583
617.05	101.749
617.38	103.777
617.71	102.457
618.04	105.155
618.37	106.667
618.70	106.519
619.03	102.505
619.36	104.369
619.69	104.164
620.03	102.755
620.36	105.626
620.69	106.820
621.02	107.002
621.35	104.677
621.68	105.328
622.01	106.392
622.34	105.668
622.67	105.469
623.00	106.963
623.33	106.045
623.66	105.539
623.99	104.135
624.32	104.315
624.65	104.783
624.99	105.751
625.32	106.737
625.65	105.672
625.98	105.477
626.31	106.852
626.64	105.188
626.97	106.935
627.30	105.191
627.63	106.304
627.96	107.746
628.29	107.445
628.62	107.354
628.95	108.563
629.28	106.203
629.61	110.206
629.94	106.616
630.26	108.748
630.59	109.045
630.92	108.108
631.25	108.065
631.58	106.772
631.91	108.936
632.24	113.111
632.57	109.222
632.90	109.425
633.23	110.514
633.56	110.877
633.89	111.557
634.22	108.855
634.55	110.457
634.88	111.366
635.20	110.861
635.53	111.705
635.86	110.831
636.19	109.768
636.52	108.722
636.85	109.146
637.18	110.625
637.51	110.285
637.83	113.582
638.16	110.658
638.49	114.345
638.82	111.197
639.15	111.543
639.48	109.857
639.81	114.938
640.13	110.676
640.46	113.105
640.79	111.905
641.12	110.296
641.45	111.765
641.77	113.623
642.10	111.027
642.43	109.408
642.76	113.228
643.09	113.016
643.41	116.032
643.74	111.129
644.07	108.268
644.40	110.859
644.73	115.347
645.05	113.189
645.38	112.252
645.71	114.089
646.04	111.933
646.36	113.438
646.69	115.052
647.02	116.787
647.35	117.148
647.67	113.504
648.00	113.181
648.33	113.322
648.66	110.968
648.98	112.580
649.31	112.615
649.64	114.375
649.96	110.204
650.29	108.852
650.62	113.425
650.94	113.491
651.27	112.478
651.60	112.803
651.92	113.014
652.25	112.521
652.58	115.503
652.90	110.594
653.23	110.000
653.56	113.043
653.88	109.508
654.21	113.087
654.54	112.126
654.86	109.149
655.19	109.456
655.52	107.332
655.84	102.527
656.17	100.000
656.49	100.000
656.82	100.000
657.15	100.000
657.47	100.000
657.80	100.000
658.13	101.653
658.45	98.774
658.78	98.720
659.10	97.011
659.43	96.509
659.75	96.381
660.08	96.094
660.41	93.572
660.73	100.330
661.06	104.203
661.38	113.393
661.71	113.576
662.03	112.298
662.36	118.337
662.68	115.401
663.01	115.711
663.33	121.315
663.66	110.944
663.98	116.518
664.31	116.107
664.63	116.593
664.96	114.100
665.28	111.280
665.61	112.685
665.93	112.551
666.26	113.563
666.58	111.850
666.91	114.254
667.23	113.377
667.56	112.472
667.88	111.991
668.21	116.820
668.53	118.925
668.86	120.323
669.18	116.667
669.50	116.589
669.83	121.655
670.15	112.108
670.48	115.654
670.80	113.440
671.13	115.124
671.45	110.586
671.77	114.133
672.10	112.623
672.42	108.118
672.75	111.818
673.07	109.730
673.39	108.743
673.72	110.236
674.04	116.348
674.37	110.928
674.69	112.500
675.01	108.511
675.34	113.015
675.66	112.095
675.98	109.251
676.31	117.421
676.63	115.862
676.95	108.628
677.28	110.673
677.60	112.896
677.92	114.097
678.25	114.442
678.57	109.877
678.89	115.304
679.22	114.465
679.54	112.229
679.86	111.000
680.18	114.829
680.51	107.821
680.83	111.619
681.15	108.863
681.48	111.156
681.80	108.468
682.12	110.865
682.44	110.020
682.77	109.524
683.09	109.644
683.41	113.938
683.73	113.470
684.06	106.237
684.38	109.205
684.70	110.905
685.02	109.843
685.34	109.162
685.67	109.848
685.99	109.641
686.31	110.952
686.63	105.674
686.96	104.436
687.28	106.551
687.60	112.695
687.92	109.339
688.24	107.087
688.56	106.413
688.89	109.615
689.21	102.626
689.53	112.414
689.85	109.131
690.17	110.090
690.49	111.547
690.82	113.976
691.14	112.028
691.46	108.869
691.78	109.912
692.10	110.169
692.42	107.778
692.74	106.223
693.06	110.337
693.39	108.277
693.71	108.126
694.03	107.127
694.35	105.643
694.67	113.002
694.99	106.650
695.31	109.184
695.63	111.735
695.95	112.655
696.27	112.219
696.59	109.091
696.91	117.978
697.23	112.500
697.56	109.135
697.88	108.333
698.20	106.210
698.52	103.139
698.84	110.922
699.16	107.381
699.48	109.250
699.80	105.263
700.12	108.060
700.44	111.732
700.76	112.536
701.08	108.140
701.40	106.949
701.72	113.889
702.04	116.667
702.36	112.349
702.68	108.683
703.00	109.855
703.32	106.590
703.64	113.235
703.96	109.593
704.28	111.538
704.60	112.658
704.91	113.968
705.23	107.120
705.55	107.770
705.87	106.826
706.19	105.208
706.51	107.986
706.83	111.475
707.15	109.554
707.47	106.612
707.79	109.021
708.11	105.852
708.43	106.733
708.74	102.857
709.06	108.635
709.38	104.023
709.70	107.812
710.02	105.521
710.34	108.581
710.66	103.492
710.98	108.833
711.29	106.452
711.61	105.112
711.93	109.508
712.25	112.292
712.57	105.923
712.89	114.748
713.20	108.935
713.52	111.194
713.84	108.897
714.16	105.246
714.48	106.984
714.80	107.077
715.11	104.323
715.43	102.711
715.75	107.165
716.07	107.213
716.39	109.365
716.70	105.923
717.02	109.630
717.34	107.252
717.66	115.768
717.97	109.836
718.29	117.227
718.61	110.714
718.93	107.885
719.24	103.309
719.56	104.151
719.88	108.364
720.20	108.989
720.51	113.910
720.83	115.261
721.15	112.705
721.46	112.549
721.78	106.130
722.10	112.400
722.42	110.331
722.73	108.765
723.05	110.442
723.37	105.490
723.68	102.024
724.00	106.911
724.32	106.584
724.63	108.714
724.95	105.785
725.27	105.702
725.58	108.621
725.90	105.556
726.22	106.273
726.53	104.183
726.85	106.667
727.16	101.504
727.48	106.154
727.80	104.098
728.11	110.504
728.43	108.264
728.74	105.469
729.06	101.894
729.38	107.782
729.69	103.543
730.01	109.055
730.32	110.359
730.64	105.861
730.96	106.716
731.27	107.857
731.59	100.643
731.90	97.546
732.22	99.387
732.53	102.318
732.85	99.664
733.16	103.261
733.48	99.303
733.80	100.712
734.11	100.345
734.43	105.102
734.74	99.110
735.06	100.627
735.37	100.917
735.69	100.968
736.00	97.306
736.32	98.675
736.63	96.552
736.95	99.275
737.26	99.007
737.58	101.799
737.89	102.867
738.21	104.135
738.52	102.308
738.83	99.609
739.15	107.692
739.46	110.484
739.78	95.804
740.09	100.699
740.41	97.203
740.72	99.270
741.04	94.841
741.35	99.134
741.66	106.481
741.98	95.714
742.29	98.592
742.61	109.626
742.92	106.542
743.23	97.807
743.55	104.955
743.86	102.222
744.18	99.524
744.49	104.433
744.80	106.599
745.12	110.309
745.43	105.025
745.74	105.825
746.06	99.512
746.37	104.405
746.68	106.965
747.00	103.665
747.31	94.712
747.62	104.608
747.94	92.576
748.25	107.907
748.56	102.381
748.88	103.804
749.19	100.000
749.50	100.980
749.82	99.111
750.13	108.370
750.44	99.187
750.75	102.400
751.07	97.500
751.38	100.369
751.69	94.656
752.01	97.692
752.32	100.778
752.63	92.692
752.94	96.429
753.26	102.609
753.57	101.339
753.88	97.414
754.19	102.490
754.51	96.484
754.82	94.862
755.13	100.000
755.44	100.826
755.75	102.469
756.07	99.598
756.38	96.484
756.69	97.473
757.00	97.561
757.31	101.007
757.63	97.508
757.94	91.329
758.25	99.128
758.56	96.226
758.87	94.602
759.18	94.667
759.50	101.068
759.81	98.175
760.12	96.959
760.43	99.353
760.74	104.688
761.05	91.573
761.36	99.102
761.67	93.195
761.99	93.226
762.30	98.913
762.61	92.075
762.92	100.897
763.23	99.526
763.54	98.222
763.85	101.688
764.16	99.592
764.47	100.847
764.78	93.258
765.10	98.201
765.41	90.968
765.72	89.623
766.03	96.113
766.34	95.489
766.65	88.259
766.96	98.000
767.27	97.396
767.58	102.907
767.89	100.000
768.20	103.067
768.51	92.350
768.82	101.081
769.13	105.000
769.44	101.754
769.75	92.641
770.06	94.037
770.37	92.019
770.68	101.562
770.99	101.485
771.30	98.544
771.61	96.296
771.92	91.775
772.23	96.729
772.54	96.277
772.85	94.083
773.16	99.390
773.47	98.795
773.78	89.560
774.09	97.333
774.39	95.679
774.70	85.906
775.01	89.855
775.32	99.254
775.63	98.347
775.94	96.992
776.25	85.714
776.56	90.164
776.87	95.575
777.18	92.035
777.48	87.273
777.79	90.435
778.10	92.661
778.41	87.288
778.72	94.215
779.03	82.836
779.34	96.241
779.65	92.810
779.95	99.275
780.26	83.673
780.57	92.241
780.88	102.778
781.19	102.020
781.50	92.800
781.80	94.771
782.11	96.154
782.42	83.735
782.73	87.591
783.04	81.081
783.34	98.485
783.65	85.271
783.96	97.561
784.27	94.017
784.57	82.927
784.88	84.553
785.19	91.228
785.50	81.443
785.81	88.571
786.11	92.157
786.42	93.636
786.73	86.486
787.04	92.079
787.34	102.857
787.65	78.095
787.96	82.353
788.26	92.793
788.57	87.097
788.88	82.812
789.19	88.889
789.49	86.555
789.80	79.487
790.11	84.956
790.41	88.889
790.72	81.132
791.03	72.222
791.33	78.947
791.64	82.796
791.95	100.000
792.25	78.571
792.56	85.366
792.87	76.531
793.17	90.789
793.48	71.622
793.79	67.606
794.09	92.405
794.40	91.489
794.70	100.935
795.01	73.684
795.32	84.545
795.62	85.714
795.93	83.505
796.23	89.011
796.54	74.737
796.85	75.342
797.15	72.222
797.46	80.822
797.76	90.141
798.07	65.000
798.37	73.529
798.68	88.571
798.99	88.571
799.29	88.158
799.60	75.000
799.90	48.611
800.21	79.688
800.51	73.016
800.82	62.295
801.12	78.947
801.43	61.972
801.73	67.797
802.04	109.836
802.34	69.091
802.65	65.385
802.95	83.333
803.26	82.500
803.56	69.231
803.87	92.105
804.17	70.968
804.48	66.154
804.78	84.615
805.09	88.372
805.39	87.500
805.70	45.283
806.00	107.018
806.30	58.108
806.61	86.765
806.91	62.963
807.22	96.000
807.52	62.687
807.83	75.806
808.13	65.079
808.43	76.364
808.74	87.879
809.04	111.321
809.35	71.233
809.65	87.719
809.95	80.882
810.26	80.392
810.56	58.000
810.86	48.980
811.17	82.857
811.47	82.692
811.77	141.935
812.08	34.211
812.38	40.476
812.69	47.826
812.99	129.032
813.29	52.381
813.59	51.852
813.90	53.191
814.20	51.163
814.50	66.667
814.81	50.000
815.11	85.366
815.41	70.000
815.72	80.000
816.02	44.444
816.32	71.795
816.62	64.865
816.93	11.765
817.23	56.522
817.53	76.471
817.84	85.294
818.14	34.375
818.44	62.069
818.74	45.161
819.04	55.556
819.35	36.667
819.65	80.000
819.95	36.667
820.25	44.000
820.56	39.474
820.86	60.000
821.16	59.574
821.46	50.000
821.76	53.846
822.07	12.500
822.37	55.814
822.67	43.333
822.97	27.027
823.27	54.054
823.57	52.000
823.88	37.838
824.18	52.381
824.48	73.077
824.78	7.692
825.08	8.696
825.38	50.000
825.69	62.500
825.99	10.000
826.29	13.514
826.59	85.294
826.89	88.000
827.19	60.000
827.49	52.632
827.79	62.500
828.09	20.000
828.39	104.348
828.70	6.897
829.00	79.310
829.30	75.000
829.60	90.625
829.90	100.000
830.20	46.154
830.50	-38.095
830.80	7.143
831.10	46.154
831.40	47.619
831.70	38.235
832.00	79.167
832.30	21.053
832.60	68.750
832.90	8.333
833.20	-47.059
833.50	20.000
833.80	13.333
834.10	35.000
834.40	-4.167
834.70	33.333
835.00	30.769
835.30	29.167
835.60	62.069
835.90	33.333
836.20	9.091
836.50	-16.667
836.80	34.286
837.10	71.429
837.40	-5.882
837.70	18.182
838.00	29.167
838.30	-31.250
838.60	23.810
838.90	80.000
839.19	17.391
839.49	56.522
839.79	-38.889
840.09	21.739
840.39	0.000
840.69	43.750
840.99	21.053
841.29	-18.750
841.59	42.857
841.88	22.222
842.18	-16.667
842.48	-11.765
842.78	27.586
843.08	14.286
843.38	-23.077
843.68	-166.667
843.97	38.462
844.27	-63.636
844.57	-160.000
844.87	36.000
845.17	0.000
845.47	-14.286
845.76	-55.556
846.06	0.000
846.36	-350.000
846.66	-200.000
846.96	10.526
847.25	-16.667
847.55	-33.333
847.85	73.333
848.15	10.000
848.44	65.385
848.74	-5.263
849.04	100.000
849.34	11.111
849.63	-57.895
849.93	0.000
850.23	-45.000
850.53	42.857
850.82	40.000
851.12	-15.789
851.42	-450.000
851.71	7.143
852.01	-133.333
852.31	-23.529
852.61	46.667
852.90	9.524
853.20	-366.667
853.50	-72.222
853.79	-26.316
854.09	20.000
854.39	25.000
854.68	17.391
854.98	-66.667
855.28	55.172
855.57	25.000
855.87	10.000
856.17	26.667
856.46	3.448
856.76	6.667
857.05	52.941
857.35	-84.615
857.65	27.273
857.94	11.111
858.24	-78.571
858.53	7.143
858.83	0.000
859.13	11.111
859.42	42.857
859.72	-150.000
860.01	-466.667
860.31	37.500
860.60	-260.000
860.90	-100.000
861.20	-37.500
861.49	-185.714
861.79	29.412
862.08	-650.000
862.38	-58.333
862.67	-38.462
862.97	0.000
863.26	25.000
863.56	-11.765
863.85	866.667
864.15	10.000
864.44	-46.154
864.74	10.000
865.03	-62.500
865.33	-133.333
865.62	-47.059
865.92	-600.000
866.21	-85.714
866.51	-116.667
866.80	-2400.000
867.10	0.000
867.39	-35.294
867.69	-8.696
867.98	-142.857
868.27	-120.000
868.57	-62.500
868.86	-163.636
869.16	29.412
869.45	-66.667
869.75	-85.714
870.04	1500.000
870.33	-75.000
870.63	60.000
870.92	-66.667
871.22	-116.667
871.51	0.000
871.80	-100.000
872.10	-50.000
>>>>>End Processed Spectral Data<<<<<
