SpectraSuite Data File
++++++++++++++++++++++++++++++++++++
Date: Sat May 16 11:42:38 PDT 2015
User: schluterlab
Dark Spectrum Present: Yes
Reference Spectrum Present: Yes
Number of Sampled Component Spectra: 1
Spectrometers: USB2E3373
Integration Time (usec): 3000 (USB2E3373)
Spectra Averaged: 3 (USB2E3373)
Boxcar Smoothing: 0 (USB2E3373)
Correct for Electrical Dark: No (USB2E3373)
Strobe/Lamp Enabled: No (USB2E3373)
Correct for Detector Non-linearity: No (USB2E3373)
Correct for Stray Light: No (USB2E3373)
Number of Pixels in Processed Spectrum: 2048
>>>>>Begin Processed Spectral Data<<<<<
178.53	0.000
178.91	106.667
179.29	633.333
179.67	-1000.000
180.04	-69.231
180.42	1100.000
180.80	425.000
181.18	525.000
181.56	-62.500
181.94	1400.000
182.31	500.000
182.69	-61.538
183.07	-466.667
183.45	1400.000
183.83	566.667
184.20	-114.286
184.58	-275.000
184.96	-25.000
185.34	106.250
185.72	-575.000
186.09	300.000
186.47	-275.000
186.85	-150.000
187.23	-75.000
187.61	-300.000
187.98	-412.500
188.36	-212.500
188.74	-125.000
189.12	1800.000
189.49	342.857
189.87	-58.333
190.25	325.000
190.63	-64.286
191.00	-122.222
191.38	280.000
191.76	-26.667
192.14	360.000
192.51	-200.000
192.89	-166.667
193.27	0.000
193.65	-22.222
194.02	-257.143
194.40	433.333
194.78	-180.000
195.15	-1600.000
195.53	-54.545
195.91	-416.667
196.29	180.000
196.66	-633.333
197.04	2200.000
197.42	-225.000
197.79	-13.333
198.17	-200.000
198.55	-750.000
198.92	-1500.000
199.30	300.000
199.68	-600.000
200.05	-111.111
200.43	-133.333
200.81	-1100.000
201.18	-100.000
201.56	228.571
201.94	-73.333
202.31	22.727
202.69	-30.000
203.07	-230.000
203.44	500.000
203.82	-350.000
204.19	-350.000
204.57	-350.000
204.95	-300.000
205.32	-50.000
205.70	600.000
206.08	-2200.000
206.45	-22.222
206.83	-900.000
207.20	-500.000
207.58	-566.667
207.96	-366.667
208.33	-62.500
208.71	-66.667
209.08	140.000
209.46	-300.000
209.84	1000.000
210.21	0.000
210.59	-10.000
210.96	900.000
211.34	-216.667
211.71	133.333
212.09	575.000
212.46	1100.000
212.84	-2000.000
213.22	833.333
213.59	125.000
213.97	-33.333
214.34	190.000
214.72	-170.000
215.09	-200.000
215.47	-133.333
215.84	-70.000
216.22	-40.000
216.59	20.000
216.97	-625.000
217.34	1050.000
217.72	0.000
218.09	-233.333
218.47	-157.143
218.84	285.714
219.22	-142.857
219.59	0.000
219.97	114.286
220.34	150.000
220.72	175.000
221.09	-53.846
221.47	0.000
221.84	500.000
222.22	-1100.000
222.59	100.000
222.97	-225.000
223.34	-850.000
223.72	-333.333
224.09	-64.286
224.46	-575.000
224.84	-28.571
225.21	-142.857
225.59	-63.636
225.96	-125.000
226.34	-57.143
226.71	-77.778
227.08	-25.000
227.46	1700.000
227.83	-214.286
228.21	-212.500
228.58	-200.000
228.95	-37.500
229.33	-1900.000
229.70	-320.000
230.08	-650.000
230.45	33.333
230.82	-66.667
231.20	-1800.000
231.57	-350.000
231.95	2200.000
232.32	0.000
232.69	-55.556
233.07	-185.714
233.44	-600.000
233.81	-20.000
234.19	-211.111
234.56	-62.500
234.93	15.625
235.31	-214.286
235.68	-57.143
236.05	-29.412
236.43	-68.182
236.80	0.000
237.17	-37.500
237.55	-76.190
237.92	-54.545
238.29	-5.714
238.67	-29.412
239.04	0.000
239.41	-41.935
239.79	-46.154
240.16	-38.095
240.53	-16.364
240.91	-41.026
241.28	-9.091
241.65	3.077
242.02	-1.639
242.40	-21.311
242.77	-15.152
243.14	-37.288
243.51	-24.286
243.89	-18.987
244.26	-4.494
244.63	1.053
245.00	-11.579
245.38	8.475
245.75	-3.540
246.12	-3.200
246.49	-2.362
246.87	-15.447
247.24	-8.475
247.61	-11.017
247.98	-6.338
248.36	-10.490
248.73	-4.430
249.10	-7.643
249.47	1.170
249.84	-0.568
250.22	-7.143
250.59	-0.565
250.96	-6.283
251.33	3.318
251.70	-0.481
252.08	-1.896
252.45	-1.896
252.82	2.857
253.19	-5.106
253.56	-0.403
253.94	-2.110
254.31	0.429
254.68	-3.252
255.05	-8.065
255.42	0.794
255.79	-4.659
256.16	3.137
256.54	-1.103
256.91	-1.136
257.28	-0.366
257.65	-1.064
258.02	4.088
258.39	2.341
258.76	-3.041
259.14	0.617
259.51	4.262
259.88	1.220
260.25	2.795
260.62	0.322
260.99	0.890
261.36	3.963
261.73	1.734
262.10	3.333
262.47	-0.285
262.85	2.000
263.22	-0.573
263.59	-3.692
263.96	-2.029
264.33	0.813
264.70	3.867
265.07	-0.824
265.44	0.258
265.81	-0.517
266.18	-0.253
266.55	1.716
266.92	2.771
267.29	1.211
267.66	1.975
268.03	5.072
268.40	1.174
268.77	1.928
269.14	2.552
269.51	3.218
269.88	-0.688
270.25	0.000
270.62	2.059
270.99	0.450
271.36	-1.166
271.73	1.794
272.10	3.204
272.47	-2.000
272.84	4.222
273.21	1.835
273.58	0.879
273.95	2.851
274.32	0.226
274.69	1.532
275.06	3.067
275.43	0.000
275.80	0.611
276.17	1.464
276.54	3.666
276.91	1.646
277.28	-1.217
277.65	2.893
278.02	0.626
278.39	2.161
278.76	3.386
279.13	2.174
279.50	2.783
279.87	0.846
280.23	3.644
280.60	0.398
280.97	0.777
281.34	-0.193
281.71	2.692
282.08	2.419
282.45	-0.407
282.82	-0.581
283.19	0.727
283.56	4.212
283.92	1.590
284.29	0.929
284.66	1.079
285.03	3.922
285.40	1.292
285.77	2.281
286.14	1.444
286.51	1.066
286.87	1.089
287.24	1.024
287.61	3.140
287.98	1.560
288.35	1.157
288.72	0.679
289.08	1.017
289.45	3.030
289.82	-0.865
290.19	2.135
290.56	0.000
290.93	2.226
291.29	0.648
291.66	1.610
292.03	2.198
292.40	2.861
292.77	0.776
293.13	2.764
293.50	0.892
293.87	1.380
294.24	1.207
294.60	-0.303
294.97	3.187
295.34	-0.148
295.71	1.339
296.08	-0.922
296.44	0.000
296.81	2.849
297.18	0.282
297.55	1.554
297.91	2.789
298.28	0.959
298.65	0.558
299.02	2.273
299.38	0.802
299.75	0.136
300.12	1.410
300.48	2.430
300.85	1.048
301.22	1.940
301.59	1.691
301.95	3.023
302.32	0.000
302.69	2.448
303.05	1.099
303.42	0.250
303.79	2.512
304.15	1.422
304.52	2.100
304.89	0.472
305.25	2.442
305.62	1.645
305.99	3.180
306.35	1.887
306.72	1.253
307.09	2.611
307.45	1.930
307.82	1.453
308.19	2.349
308.55	1.525
308.92	0.859
309.29	1.081
309.65	1.485
310.02	2.052
310.38	0.973
310.75	2.357
311.12	2.686
311.48	2.818
311.85	1.854
312.22	4.119
312.58	2.340
312.95	3.670
313.31	3.197
313.68	4.121
314.05	3.462
314.41	3.018
314.78	2.298
315.14	3.356
315.51	2.938
315.87	4.163
316.24	3.790
316.61	5.374
316.97	5.274
317.34	4.721
317.70	4.545
318.07	5.317
318.43	5.712
318.80	6.761
319.16	5.253
319.53	6.673
319.89	6.773
320.26	5.882
320.62	6.442
320.99	6.965
321.35	6.502
321.72	4.913
322.08	8.704
322.45	8.218
322.81	7.493
323.18	8.453
323.54	9.519
323.91	9.175
324.27	9.125
324.64	8.867
325.00	11.082
325.37	11.674
325.73	13.211
326.10	11.337
326.46	13.398
326.83	13.617
327.19	14.012
327.56	16.099
327.92	14.528
328.29	16.104
328.65	17.636
329.01	18.728
329.38	18.109
329.74	20.421
330.11	18.767
330.47	20.254
330.84	21.082
331.20	21.300
331.56	21.240
331.93	22.025
332.29	23.744
332.66	23.529
333.02	22.805
333.38	23.208
333.75	22.796
334.11	25.333
334.48	23.213
334.84	24.934
335.20	25.089
335.57	25.000
335.93	25.783
336.29	25.332
336.66	24.670
337.02	26.757
337.38	26.203
337.75	25.637
338.11	27.370
338.47	26.779
338.84	25.862
339.20	25.835
339.56	26.827
339.93	26.102
340.29	26.218
340.65	26.049
341.02	26.644
341.38	27.043
341.74	26.418
342.11	26.365
342.47	26.438
342.83	26.952
343.20	26.473
343.56	26.286
343.92	26.544
344.28	27.250
344.65	26.568
345.01	25.966
345.37	27.326
345.73	26.023
346.10	25.511
346.46	26.483
346.82	26.784
347.19	27.116
347.55	26.485
347.91	27.874
348.27	27.765
348.63	28.918
349.00	27.128
349.36	25.371
349.72	26.990
350.08	27.827
350.45	26.084
350.81	27.150
351.17	26.608
351.53	26.094
351.89	27.890
352.26	27.829
352.62	27.419
352.98	28.877
353.34	27.178
353.70	27.259
354.07	28.009
354.43	28.221
354.79	27.734
355.15	28.035
355.51	26.875
355.87	27.747
356.24	28.118
356.60	28.848
356.96	28.560
357.32	28.266
357.68	28.046
358.04	28.099
358.40	28.152
358.77	28.362
359.13	29.151
359.49	28.647
359.85	28.811
360.21	29.452
360.57	29.142
360.93	29.630
361.29	29.223
361.66	28.811
362.02	28.550
362.38	29.934
362.74	29.304
363.10	28.910
363.46	29.558
363.82	29.665
364.18	30.680
364.54	29.878
364.90	30.119
365.26	28.459
365.62	30.007
365.98	31.294
366.35	30.704
366.71	29.387
367.07	30.910
367.43	32.533
367.79	30.378
368.15	30.654
368.51	32.098
368.87	31.868
369.23	31.579
369.59	31.736
369.95	33.051
370.31	32.068
370.67	30.730
371.03	32.799
371.39	29.844
371.75	32.117
372.11	32.425
372.47	32.538
372.83	32.823
373.19	33.071
373.55	33.146
373.91	33.001
374.27	32.649
374.63	32.367
374.99	34.492
375.35	32.705
375.71	34.976
376.07	34.086
376.42	34.040
376.78	34.706
377.14	34.441
377.50	34.494
377.86	34.915
378.22	35.553
378.58	35.207
378.94	34.834
379.30	34.308
379.66	34.851
380.02	34.225
380.38	35.710
380.74	35.111
381.09	35.032
381.45	36.516
381.81	35.451
382.17	36.216
382.53	35.623
382.89	36.962
383.25	36.123
383.61	36.733
383.97	37.416
384.32	38.486
384.68	38.150
385.04	37.440
385.40	37.492
385.76	38.171
386.12	36.914
386.48	39.233
386.83	38.466
387.19	38.733
387.55	38.462
387.91	37.878
388.27	37.515
388.62	38.101
388.98	37.916
389.34	37.944
389.70	39.160
390.06	38.658
390.42	39.359
390.77	38.738
391.13	39.627
391.49	38.989
391.85	39.027
392.20	39.867
392.56	38.852
392.92	40.559
393.28	39.437
393.64	40.830
393.99	40.062
394.35	39.903
394.71	39.284
395.07	41.055
395.42	40.346
395.78	39.912
396.14	40.997
396.50	40.367
396.85	40.592
397.21	39.307
397.57	39.878
397.92	40.984
398.28	41.222
398.64	41.166
399.00	41.629
399.35	40.361
399.71	40.534
400.07	41.254
400.42	40.876
400.78	39.833
401.14	39.521
401.49	40.979
401.85	41.611
402.21	40.584
402.57	39.806
402.92	40.780
403.28	40.135
403.63	39.185
403.99	40.584
404.35	39.312
404.70	40.023
405.06	39.908
405.42	40.467
405.77	40.102
406.13	40.034
406.49	41.222
406.84	40.132
407.20	40.459
407.55	40.849
407.91	39.443
408.27	40.870
408.62	41.431
408.98	40.752
409.34	40.219
409.69	40.958
410.05	40.631
410.40	40.159
410.76	40.605
411.11	40.711
411.47	41.176
411.83	41.198
412.18	40.099
412.54	40.024
412.89	40.826
413.25	40.378
413.60	39.733
413.96	40.912
414.31	41.284
414.67	40.444
415.03	40.298
415.38	41.379
415.74	42.268
416.09	40.153
416.45	40.542
416.80	41.938
417.16	40.664
417.51	42.351
417.87	40.712
418.22	40.834
418.58	41.335
418.93	41.263
419.29	41.343
419.64	40.829
420.00	42.163
420.35	41.218
420.71	41.236
421.06	42.071
421.42	40.808
421.77	41.988
422.12	41.466
422.48	41.261
422.83	41.401
423.19	41.481
423.54	42.997
423.90	41.932
424.25	42.025
424.61	43.245
424.96	42.481
425.31	42.929
425.67	42.063
426.02	42.169
426.38	42.529
426.73	42.490
427.09	43.137
427.44	42.273
427.79	42.384
428.15	43.148
428.50	43.167
428.85	43.885
429.21	43.221
429.56	44.010
429.92	43.086
430.27	43.121
430.62	43.835
430.98	42.603
431.33	43.917
431.68	44.343
432.04	44.600
432.39	44.274
432.74	43.825
433.10	44.626
433.45	43.235
433.80	44.065
434.16	44.331
434.51	44.712
434.86	44.991
435.22	44.599
435.57	45.410
435.92	44.607
436.28	44.273
436.63	45.280
436.98	43.814
437.34	44.832
437.69	43.932
438.04	44.470
438.39	45.187
438.75	45.693
439.10	45.919
439.45	45.202
439.81	44.337
440.16	45.315
440.51	45.588
440.86	45.922
441.22	44.002
441.57	45.474
441.92	44.910
442.27	45.942
442.63	45.762
442.98	45.316
443.33	45.964
443.68	45.805
444.03	44.941
444.39	46.304
444.74	46.806
445.09	45.724
445.44	46.820
445.79	46.456
446.15	46.276
446.50	46.162
446.85	46.485
447.20	46.016
447.55	46.188
447.91	46.828
448.26	45.642
448.61	46.520
448.96	47.059
449.31	46.392
449.66	46.308
450.02	45.540
450.37	46.203
450.72	46.384
451.07	48.272
451.42	45.539
451.77	47.636
452.12	47.139
452.47	45.781
452.83	47.408
453.18	47.249
453.53	48.197
453.88	48.505
454.23	46.735
454.58	48.415
454.93	46.851
455.28	47.482
455.63	47.973
455.98	47.289
456.34	46.379
456.69	47.780
457.04	47.572
457.39	47.368
457.74	47.608
458.09	47.854
458.44	47.921
458.79	47.141
459.14	47.747
459.49	49.497
459.84	47.836
460.19	47.673
460.54	47.731
460.89	48.374
461.24	48.634
461.59	47.421
461.94	47.868
462.29	47.290
462.64	48.814
462.99	49.465
463.34	48.278
463.69	48.410
464.04	48.096
464.39	48.088
464.74	47.340
465.09	47.384
465.44	48.449
465.79	47.265
466.14	48.562
466.49	48.014
466.84	48.800
467.19	49.127
467.54	47.848
467.89	48.829
468.24	47.743
468.59	47.908
468.94	48.553
469.29	48.343
469.64	48.989
469.99	50.034
470.34	49.967
470.68	49.419
471.03	50.585
471.38	48.958
471.73	50.070
472.08	47.657
472.43	48.970
472.78	49.400
473.13	48.509
473.48	49.011
473.83	48.139
474.17	48.662
474.52	50.959
474.87	48.660
475.22	48.083
475.57	48.778
475.92	49.028
476.27	48.743
476.61	48.338
476.96	48.295
477.31	48.439
477.66	49.253
478.01	48.514
478.36	48.559
478.70	48.425
479.05	49.162
479.40	49.689
479.75	48.828
480.10	48.512
480.45	48.501
480.79	49.605
481.14	49.523
481.49	49.564
481.84	48.128
482.19	49.566
482.53	50.237
482.88	49.692
483.23	48.592
483.58	50.370
483.92	49.928
484.27	48.782
484.62	49.158
484.97	48.090
485.31	47.648
485.66	46.836
486.01	47.206
486.36	48.655
486.70	49.877
487.05	48.918
487.40	47.970
487.75	48.372
488.09	48.425
488.44	48.241
488.79	48.391
489.13	49.106
489.48	50.571
489.83	49.432
490.17	48.977
490.52	50.498
490.87	48.822
491.22	49.043
491.56	49.444
491.91	50.000
492.26	49.245
492.60	50.190
492.95	49.881
493.30	49.833
493.64	49.600
493.99	49.570
494.34	48.762
494.68	50.047
495.03	49.379
495.37	50.246
495.72	50.049
496.07	49.789
496.41	50.116
496.76	49.635
497.11	50.683
497.45	50.431
497.80	51.576
498.14	50.786
498.49	50.427
498.84	49.612
499.18	49.366
499.53	50.024
499.87	50.820
500.22	50.294
500.56	50.675
500.91	49.901
501.26	49.636
501.60	49.446
501.95	51.304
502.29	49.740
502.64	50.778
502.98	49.976
503.33	49.530
503.67	50.670
504.02	50.555
504.36	50.441
504.71	50.355
505.06	50.075
505.40	50.250
505.75	51.423
506.09	51.466
506.44	51.579
506.78	51.229
507.13	50.927
507.47	52.165
507.82	50.594
508.16	51.088
508.51	51.108
508.85	51.346
509.19	50.445
509.54	50.264
509.88	50.532
510.23	50.472
510.57	52.116
510.92	53.115
511.26	50.558
511.61	49.460
511.95	51.239
512.30	51.512
512.64	50.696
512.98	52.310
513.33	51.345
513.67	51.647
514.02	51.510
514.36	50.803
514.70	51.273
515.05	52.144
515.39	52.249
515.74	53.054
516.08	51.988
516.42	51.898
516.77	53.322
517.11	52.403
517.46	53.289
517.80	53.610
518.14	53.382
518.49	53.855
518.83	52.760
519.17	52.102
519.52	52.458
519.86	54.241
520.20	54.340
520.55	52.185
520.89	53.162
521.23	54.274
521.58	53.041
521.92	54.275
522.26	53.333
522.61	54.499
522.95	52.265
523.29	52.978
523.64	52.467
523.98	53.978
524.32	53.614
524.66	52.484
525.01	53.051
525.35	54.059
525.69	52.700
526.04	54.373
526.38	55.060
526.72	53.129
527.06	54.036
527.41	53.531
527.75	53.993
528.09	54.666
528.43	54.492
528.78	54.146
529.12	54.289
529.46	54.639
529.80	54.551
530.15	55.184
530.49	54.916
530.83	55.206
531.17	53.401
531.51	53.583
531.86	54.378
532.20	53.104
532.54	53.610
532.88	53.953
533.22	54.612
533.57	53.329
533.91	52.622
534.25	53.488
534.59	53.467
534.93	53.578
535.27	54.437
535.62	54.540
535.96	53.458
536.30	52.291
536.64	52.125
536.98	55.579
537.32	54.112
537.66	53.564
538.01	53.677
538.35	54.527
538.69	54.278
539.03	53.013
539.37	54.025
539.71	54.770
540.05	54.969
540.39	53.947
540.73	54.527
541.07	55.806
541.42	53.477
541.76	51.429
542.10	54.490
542.44	53.098
542.78	54.342
543.12	54.447
543.46	53.356
543.80	52.977
544.14	53.190
544.48	54.134
544.82	54.465
545.16	54.594
545.50	52.894
545.84	54.798
546.18	53.814
546.52	54.552
546.86	55.199
547.20	54.430
547.54	52.548
547.88	53.484
548.22	52.621
548.56	54.175
548.90	53.504
549.24	54.380
549.58	54.128
549.92	55.689
550.26	53.902
550.60	53.272
550.94	53.358
551.28	55.079
551.62	53.028
551.96	53.256
552.30	53.659
552.64	55.172
552.98	54.730
553.32	54.762
553.66	54.939
554.00	54.087
554.34	54.079
554.68	53.289
555.02	54.848
555.36	54.277
555.69	54.728
556.03	54.807
556.37	55.121
556.71	54.545
557.05	56.245
557.39	53.081
557.73	53.902
558.07	55.463
558.41	55.198
558.75	55.133
559.08	55.175
559.42	55.590
559.76	54.601
560.10	54.661
560.44	54.986
560.78	54.697
561.12	53.554
561.45	53.493
561.79	53.659
562.13	54.628
562.47	54.552
562.81	52.900
563.15	53.534
563.48	54.665
563.82	54.564
564.16	54.767
564.50	54.637
564.84	53.108
565.17	53.647
565.51	54.759
565.85	55.849
566.19	54.809
566.52	54.468
566.86	52.781
567.20	54.298
567.54	54.578
567.88	52.094
568.21	53.356
568.55	53.765
568.89	52.883
569.23	52.846
569.56	51.660
569.90	51.731
570.24	52.800
570.57	50.685
570.91	50.901
571.25	50.649
571.59	51.296
571.92	50.536
572.26	50.270
572.60	50.419
572.93	49.706
573.27	50.274
573.61	49.756
573.95	50.266
574.28	50.078
574.62	50.585
574.96	49.377
575.29	49.593
575.63	50.438
575.97	49.865
576.30	49.027
576.64	50.418
576.98	49.366
577.31	49.893
577.65	49.743
577.98	49.346
578.32	49.905
578.66	49.834
578.99	49.678
579.33	49.485
579.67	49.556
580.00	49.851
580.34	50.171
580.67	49.645
581.01	48.332
581.35	49.632
581.68	49.332
582.02	49.697
582.35	49.764
582.69	50.815
583.02	51.127
583.36	50.238
583.70	49.565
584.03	50.700
584.37	50.582
584.70	50.225
585.04	50.228
585.37	49.690
585.71	49.927
586.04	50.861
586.38	50.174
586.72	49.887
587.05	50.467
587.39	50.970
587.72	50.836
588.06	51.169
588.39	50.783
588.73	51.599
589.06	50.831
589.40	51.804
589.73	51.452
590.07	50.765
590.40	50.923
590.73	52.139
591.07	51.066
591.40	52.513
591.74	51.651
592.07	51.982
592.41	51.253
592.74	51.537
593.08	50.704
593.41	50.625
593.75	50.874
594.08	51.905
594.41	52.348
594.75	51.189
595.08	51.541
595.42	51.842
595.75	50.386
596.09	51.921
596.42	51.678
596.75	52.178
597.09	51.915
597.42	52.248
597.75	50.930
598.09	51.514
598.42	50.552
598.76	50.789
599.09	50.237
599.42	50.557
599.76	51.189
600.09	51.908
600.42	51.348
600.76	51.789
601.09	51.348
601.42	51.484
601.76	50.701
602.09	51.247
602.42	51.728
602.76	51.350
603.09	51.573
603.42	50.685
603.76	52.294
604.09	51.822
604.42	51.332
604.76	52.551
605.09	51.356
605.42	52.704
605.75	51.488
606.09	51.183
606.42	50.984
606.75	51.481
607.09	52.007
607.42	51.408
607.75	50.728
608.08	52.282
608.42	51.608
608.75	50.514
609.08	50.999
609.41	51.918
609.75	51.487
610.08	51.667
610.41	52.048
610.74	53.095
611.07	52.383
611.41	50.580
611.74	52.442
612.07	53.759
612.40	51.493
612.73	51.912
613.07	52.394
613.40	53.202
613.73	52.425
614.06	51.345
614.39	53.382
614.72	51.955
615.06	51.141
615.39	51.221
615.72	52.580
616.05	51.739
616.38	53.163
616.71	52.673
617.05	52.654
617.38	54.427
617.71	53.010
618.04	53.416
618.37	53.333
618.70	53.585
619.03	53.555
619.36	53.347
619.69	54.559
620.03	52.755
620.36	52.883
620.69	54.128
621.02	53.729
621.35	55.323
621.68	54.016
622.01	53.803
622.34	53.882
622.67	53.750
623.00	54.093
623.33	53.060
623.66	52.659
623.99	54.361
624.32	53.497
624.65	52.907
624.99	53.771
625.32	52.919
625.65	54.545
625.98	53.052
626.31	54.405
626.64	54.393
626.97	52.740
627.30	55.745
627.63	53.972
627.96	54.743
628.29	54.688
628.62	54.346
628.95	55.906
629.28	54.981
629.61	55.054
629.94	54.159
630.26	54.871
630.59	56.884
630.92	54.555
631.25	54.839
631.58	55.132
631.91	55.851
632.24	56.778
632.57	55.444
632.90	55.862
633.23	55.374
633.56	54.971
633.89	57.311
634.22	56.080
634.55	56.010
634.88	55.381
635.20	55.930
635.53	55.725
635.86	56.045
636.19	55.433
636.52	55.675
636.85	55.836
637.18	54.875
637.51	57.621
637.83	57.656
638.16	56.842
638.49	55.724
638.82	55.341
639.15	56.939
639.48	55.253
639.81	56.846
640.13	56.351
640.46	56.838
640.79	57.703
641.12	57.546
641.45	56.385
641.77	56.587
642.10	53.625
642.43	55.387
642.76	58.110
643.09	55.873
643.41	57.302
643.74	58.029
644.07	57.254
644.40	58.023
644.73	57.096
645.05	55.927
645.38	54.967
645.71	59.107
646.04	56.807
646.36	55.672
646.69	58.478
647.02	57.401
647.35	56.498
647.67	60.219
648.00	57.645
648.33	56.830
648.66	53.871
648.98	55.892
649.31	56.154
649.64	57.969
649.96	55.730
650.29	53.607
650.62	58.348
650.94	56.998
651.27	56.846
651.60	57.439
651.92	58.904
652.25	57.095
652.58	56.559
652.90	53.612
653.23	56.290
653.56	57.860
653.88	56.066
654.21	58.389
654.54	58.306
654.86	55.056
655.19	56.160
655.52	51.247
655.84	48.744
656.17	52.630
656.49	71.524
656.82	73.737
657.15	56.086
657.47	41.520
657.80	31.989
658.13	36.454
658.45	49.415
658.78	48.752
659.10	48.817
659.43	48.224
659.75	49.174
660.08	48.385
660.41	48.283
660.73	50.605
661.06	55.507
661.38	56.429
661.71	56.405
662.03	55.040
662.36	57.356
662.68	55.274
663.01	59.873
663.33	56.236
663.66	58.798
663.98	55.580
664.31	53.468
664.63	56.195
664.96	54.230
665.28	58.351
665.61	55.391
665.93	57.407
666.26	56.680
666.58	55.301
666.91	56.347
667.23	55.044
667.56	54.195
667.88	56.561
668.21	55.991
668.53	57.243
668.86	59.122
669.18	58.676
669.50	57.243
669.83	56.934
670.15	56.502
670.48	55.374
670.80	54.214
671.13	56.659
671.45	55.856
671.77	55.032
672.10	54.832
672.42	53.137
672.75	55.091
673.07	55.495
673.39	53.916
673.72	56.693
674.04	57.749
674.37	52.577
674.69	57.992
675.01	53.617
675.34	54.447
675.66	53.996
675.98	53.744
676.31	56.787
676.63	57.701
676.95	51.327
677.28	54.524
677.60	54.751
677.92	57.930
678.25	55.580
678.57	54.938
678.89	55.556
679.22	54.088
679.54	55.621
679.86	52.400
680.18	55.703
680.51	51.397
680.83	55.429
681.15	53.372
681.48	57.809
681.80	51.815
682.12	52.113
682.44	51.866
682.77	53.680
683.09	52.621
683.41	54.646
683.73	55.251
684.06	52.688
684.38	54.603
684.70	55.556
685.02	53.346
685.34	52.632
685.67	50.947
685.99	51.607
686.31	53.321
686.63	50.177
686.96	52.126
687.28	53.565
687.60	55.273
687.92	48.249
688.24	52.756
688.56	51.503
688.89	51.282
689.21	52.298
689.53	53.563
689.85	51.893
690.17	55.381
690.49	53.349
690.82	53.735
691.14	51.887
691.46	53.215
691.78	55.507
692.10	54.873
692.42	54.000
692.74	53.219
693.06	52.584
693.39	53.244
693.71	52.144
694.03	50.972
694.35	50.790
694.67	51.064
694.99	51.407
695.31	50.765
695.63	52.806
695.95	51.613
696.27	55.112
696.59	55.348
696.91	56.180
697.23	54.688
697.56	52.644
697.88	55.405
698.20	45.610
698.52	52.466
698.84	50.243
699.16	50.952
699.48	50.500
699.80	52.130
700.12	53.652
700.44	53.911
700.76	52.187
701.08	52.326
701.40	54.381
701.72	51.543
702.04	51.603
702.36	53.916
702.68	52.994
703.00	52.464
703.32	51.289
703.64	53.235
703.96	52.035
704.28	50.888
704.60	51.582
704.91	53.333
705.23	51.456
705.55	52.027
705.87	54.608
706.19	45.833
706.51	49.653
706.83	57.377
707.15	50.955
707.47	52.342
707.79	48.711
708.11	47.074
708.43	52.369
708.74	47.532
709.06	52.089
709.38	52.586
709.70	50.938
710.02	53.374
710.34	51.815
710.66	47.937
710.98	51.735
711.29	50.645
711.61	45.048
711.93	47.869
712.25	49.169
712.57	50.523
712.89	55.036
713.20	51.890
713.52	49.254
713.84	49.110
714.16	50.820
714.48	50.159
714.80	50.154
715.11	45.245
715.43	52.108
715.75	50.779
716.07	46.230
716.39	50.836
716.70	54.704
717.02	50.000
717.34	52.290
717.66	51.867
717.97	47.541
718.29	55.042
718.61	51.984
718.93	48.746
719.24	45.221
719.56	48.679
719.88	52.000
720.20	50.562
720.51	55.263
720.83	53.012
721.15	49.590
721.46	54.118
721.78	49.042
722.10	49.200
722.42	54.545
722.73	48.606
723.05	51.004
723.37	52.157
723.68	49.393
724.00	55.691
724.32	53.498
724.63	46.473
724.95	50.413
725.27	40.351
725.58	48.707
725.90	48.016
726.22	55.720
726.53	52.091
726.85	41.176
727.16	48.120
727.48	46.154
727.80	47.951
728.11	50.420
728.43	45.868
728.74	50.781
729.06	48.864
729.38	49.027
729.69	45.669
730.01	45.669
730.32	50.199
730.64	49.084
730.96	53.358
731.27	43.214
731.59	51.768
731.90	47.546
732.22	44.479
732.53	50.993
732.85	45.973
733.16	43.478
733.48	47.735
733.80	45.907
734.11	43.793
734.43	47.959
734.74	45.697
735.06	48.589
735.37	44.954
735.69	44.839
736.00	42.424
736.32	51.987
736.63	38.276
736.95	45.652
737.26	48.013
737.58	47.482
737.89	47.312
738.21	48.496
738.52	46.923
738.83	51.172
739.15	47.009
739.46	45.968
739.78	42.657
740.09	42.308
740.41	44.755
740.72	50.365
741.04	41.270
741.35	46.320
741.66	45.370
741.98	43.810
742.29	45.070
742.61	47.594
742.92	48.131
743.23	42.544
743.55	50.901
743.86	51.111
744.18	42.857
744.49	52.217
744.80	50.254
745.12	50.000
745.43	48.744
745.74	49.029
746.06	48.293
746.37	43.172
746.68	50.249
747.00	48.168
747.31	45.192
747.62	45.622
747.94	43.668
748.25	53.023
748.56	43.810
748.88	44.565
749.19	51.174
749.50	47.549
749.82	47.556
750.13	45.815
750.44	48.780
750.75	55.200
751.07	46.071
751.38	46.863
751.69	38.168
752.01	49.615
752.32	44.747
752.63	44.615
752.94	43.651
753.26	52.174
753.57	50.893
753.88	46.983
754.19	47.718
754.51	42.188
754.82	47.036
755.13	42.387
755.44	47.934
755.75	45.267
756.07	45.783
756.38	44.141
756.69	46.570
757.00	42.160
757.31	46.644
757.63	45.483
757.94	42.775
758.25	43.895
758.56	47.978
758.87	43.466
759.18	41.667
759.50	46.975
759.81	43.796
760.12	40.878
760.43	45.631
760.74	47.188
761.05	43.820
761.36	45.509
761.67	42.899
761.99	40.645
762.30	40.580
762.61	40.377
762.92	45.740
763.23	50.711
763.54	46.667
763.85	45.992
764.16	44.082
764.47	47.034
764.78	41.948
765.10	50.000
765.41	41.613
765.72	45.912
766.03	43.110
766.34	43.985
766.65	44.534
766.96	40.000
767.27	44.271
767.58	51.163
767.89	44.516
768.20	44.785
768.51	44.262
768.82	44.324
769.13	41.500
769.44	43.860
769.75	41.558
770.06	42.661
770.37	46.479
770.68	43.229
770.99	46.535
771.30	47.573
771.61	43.981
771.92	38.095
772.23	39.252
772.54	36.170
772.85	32.544
773.16	50.000
773.47	40.361
773.78	45.055
774.09	37.333
774.39	31.481
774.70	46.309
775.01	35.507
775.32	35.075
775.63	33.884
775.94	41.353
776.25	45.000
776.56	44.262
776.87	36.283
777.18	45.133
777.48	28.182
777.79	42.609
778.10	40.367
778.41	35.593
778.72	40.496
779.03	37.313
779.34	51.880
779.65	44.444
779.95	44.928
780.26	32.653
780.57	37.931
780.88	46.296
781.19	24.242
781.50	36.000
781.80	37.255
782.11	44.872
782.42	30.723
782.73	32.847
783.04	37.838
783.34	38.636
783.65	38.760
783.96	40.650
784.27	35.897
784.57	39.837
784.88	33.333
785.19	36.842
785.50	19.588
785.81	40.000
786.11	26.471
786.42	38.182
786.73	40.541
787.04	35.644
787.34	43.810
787.65	22.857
787.96	29.412
788.26	33.333
788.57	37.097
788.88	29.687
789.19	28.205
789.49	30.252
789.80	33.333
790.11	28.319
790.41	33.333
790.72	43.396
791.03	26.389
791.33	39.474
791.64	37.634
791.95	52.000
792.25	30.000
792.56	39.024
792.87	26.531
793.17	35.526
793.48	22.973
793.79	29.577
794.09	21.519
794.40	45.745
794.70	35.514
795.01	22.807
795.32	28.182
795.62	32.143
795.93	29.897
796.23	23.077
796.54	31.579
796.85	21.918
797.15	16.667
797.46	42.466
797.76	36.620
798.07	52.500
798.37	11.765
798.68	28.571
798.99	24.286
799.29	34.211
799.60	40.000
799.90	16.667
800.21	39.062
800.51	33.333
800.82	37.705
801.12	19.298
801.43	18.310
801.73	30.508
802.04	16.393
802.34	27.273
802.65	44.231
802.95	40.741
803.26	10.000
803.56	34.615
803.87	31.579
804.17	50.000
804.48	21.538
804.78	5.128
805.09	20.930
805.39	3.125
805.70	-15.094
806.00	56.140
806.30	35.135
806.61	17.647
806.91	32.099
807.22	21.333
807.52	26.866
807.83	30.645
808.13	19.048
808.43	16.364
808.74	24.242
809.04	41.509
809.35	31.507
809.65	15.789
809.95	39.706
810.26	17.647
810.56	24.000
810.86	20.408
811.17	40.000
811.47	11.538
811.77	29.032
812.08	2.632
812.38	9.524
812.69	17.391
812.99	32.258
813.29	38.095
813.59	-29.630
813.90	-6.383
814.20	13.953
814.50	16.667
814.81	30.000
815.11	26.829
815.41	6.667
815.72	28.571
816.02	-13.889
816.32	28.205
816.62	2.703
816.93	8.824
817.23	23.913
817.53	32.353
817.84	38.235
818.14	-31.250
818.44	-27.586
818.74	0.000
819.04	-18.519
819.35	-6.667
819.65	0.000
819.95	20.000
820.25	-8.000
820.56	-15.789
820.86	-7.500
821.16	31.915
821.46	17.241
821.76	-7.692
822.07	7.500
822.37	27.907
822.67	-3.333
822.97	18.919
823.27	29.730
823.57	40.000
823.88	-2.703
824.18	-33.333
824.48	3.846
824.78	-30.769
825.08	8.696
825.38	0.000
825.69	12.500
825.99	-30.000
826.29	13.514
826.59	-17.647
826.89	64.000
827.19	25.714
827.49	13.158
827.79	-34.375
828.09	-20.000
828.39	26.087
828.70	-20.690
829.00	-27.586
829.30	-22.222
829.60	31.250
829.90	77.778
830.20	0.000
830.50	-57.143
830.80	-39.286
831.10	23.077
831.40	-52.381
831.70	11.765
832.00	-8.333
832.30	-15.789
832.60	50.000
832.90	-83.333
833.20	-41.176
833.50	-86.667
833.80	26.667
834.10	0.000
834.40	-33.333
834.70	11.111
835.00	7.692
835.30	-20.833
835.60	17.241
835.90	-55.556
836.20	-218.182
836.50	-83.333
836.80	0.000
837.10	31.429
837.40	-47.059
837.70	-136.364
838.00	33.333
838.30	-87.500
838.60	-4.762
838.90	30.000
839.19	-30.435
839.49	-26.087
839.79	-5.556
840.09	-34.783
840.39	0.000
840.69	-75.000
840.99	-15.789
841.29	-87.500
841.59	-28.571
841.88	-72.222
842.18	-20.833
842.48	-23.529
842.78	6.897
843.08	-107.143
843.38	-23.077
843.68	-122.222
843.97	-107.692
844.27	9.091
844.57	-260.000
844.87	12.000
845.17	-100.000
845.47	-92.857
845.76	-144.444
846.06	0.000
846.36	-425.000
846.66	-200.000
846.96	10.526
847.25	-37.500
847.55	25.000
847.85	0.000
848.15	-60.000
848.44	61.538
848.74	-31.579
849.04	366.667
849.34	-111.111
849.63	-26.316
849.93	0.000
850.23	-50.000
850.53	4.762
850.82	-4.000
851.12	-10.526
851.42	-650.000
851.71	-21.429
852.01	-183.333
852.31	-64.706
852.61	-93.333
852.90	-23.810
853.20	-183.333
853.50	-27.778
853.79	-36.842
854.09	-53.333
854.39	0.000
854.68	-43.478
854.98	-183.333
855.28	37.931
855.57	-37.500
855.87	-35.000
856.17	-60.000
856.46	-24.138
856.76	-53.333
857.05	-82.353
857.35	-115.385
857.65	-72.727
857.94	-3.704
858.24	-78.571
858.53	-57.143
858.83	-125.000
859.13	-188.889
859.42	33.333
859.72	-200.000
860.01	-100.000
860.31	-137.500
860.60	-300.000
860.90	-111.111
861.20	-75.000
861.49	-200.000
861.79	-29.412
862.08	-650.000
862.38	-116.667
862.67	-92.308
862.97	11.765
863.26	30.000
863.56	-41.176
863.85	400.000
864.15	-120.000
864.44	-46.154
864.74	-5.000
865.03	-150.000
865.33	-150.000
865.62	-17.647
865.92	-500.000
866.21	-71.429
866.51	-91.667
866.80	-300.000
867.10	-133.333
867.39	-64.706
867.69	17.391
867.98	0.000
868.27	-540.000
868.57	-43.750
868.86	-163.636
869.16	-5.882
869.45	-116.667
869.75	-257.143
870.04	600.000
870.33	-50.000
870.63	-200.000
870.92	-77.778
871.22	-25.000
871.51	45.455
871.80	-83.333
872.10	-40.000
>>>>>End Processed Spectral Data<<<<<
