SpectraSuite Data File
++++++++++++++++++++++++++++++++++++
Date: Sat May 16 11:36:34 PDT 2015
User: schluterlab
Dark Spectrum Present: Yes
Reference Spectrum Present: Yes
Number of Sampled Component Spectra: 1
Spectrometers: USB2E3373
Integration Time (usec): 3000 (USB2E3373)
Spectra Averaged: 3 (USB2E3373)
Boxcar Smoothing: 0 (USB2E3373)
Correct for Electrical Dark: No (USB2E3373)
Strobe/Lamp Enabled: No (USB2E3373)
Correct for Detector Non-linearity: No (USB2E3373)
Correct for Stray Light: No (USB2E3373)
Number of Pixels in Processed Spectrum: 2048
>>>>>Begin Processed Spectral Data<<<<<
178.53	0.000
178.91	113.333
179.29	666.667
179.67	-1200.000
180.04	-46.154
180.42	1000.000
180.80	375.000
181.18	400.000
181.56	-162.500
181.94	1400.000
182.31	275.000
182.69	-15.385
183.07	-533.333
183.45	1650.000
183.83	533.333
184.20	-142.857
184.58	-225.000
184.96	-175.000
185.34	156.250
185.72	-375.000
186.09	100.000
186.47	-275.000
186.85	-212.500
187.23	-25.000
187.61	-275.000
187.98	-237.500
188.36	-162.500
188.74	-100.000
189.12	2000.000
189.49	228.571
189.87	-75.000
190.25	575.000
190.63	-14.286
191.00	-155.556
191.38	280.000
191.76	-100.000
192.14	560.000
192.51	-340.000
192.89	-600.000
193.27	0.000
193.65	-122.222
194.02	-342.857
194.40	633.333
194.78	-170.000
195.15	-1300.000
195.53	-127.273
195.91	-400.000
196.29	300.000
196.66	-666.667
197.04	3000.000
197.42	-300.000
197.79	13.333
198.17	-500.000
198.55	-950.000
198.92	-1500.000
199.30	225.000
199.68	-1000.000
200.05	-100.000
200.43	-255.556
200.81	-1700.000
201.18	-83.333
201.56	200.000
201.94	-73.333
202.31	-13.636
202.69	-60.000
203.07	-140.000
203.44	466.667
203.82	-200.000
204.19	-475.000
204.57	-275.000
204.95	-2300.000
205.32	18.750
205.70	1100.000
206.08	-2200.000
206.45	-50.000
206.83	-750.000
207.20	-200.000
207.58	-666.667
207.96	-433.333
208.33	-200.000
208.71	-200.000
209.08	210.000
209.46	-242.857
209.84	1050.000
210.21	0.000
210.59	-10.000
210.96	500.000
211.34	-366.667
211.71	-400.000
212.09	400.000
212.46	1400.000
212.84	-2300.000
213.22	500.000
213.59	233.333
213.97	-100.000
214.34	160.000
214.72	-100.000
215.09	-333.333
215.47	-200.000
215.84	-150.000
216.22	-190.000
216.59	-13.333
216.97	-450.000
217.34	550.000
217.72	-100.000
218.09	-283.333
218.47	-228.571
218.84	242.857
219.22	-114.286
219.59	0.000
219.97	271.429
220.34	525.000
220.72	200.000
221.09	-184.615
221.47	0.000
221.84	333.333
222.22	-1050.000
222.59	900.000
222.97	-225.000
223.34	-800.000
223.72	-633.333
224.09	-28.571
224.46	-150.000
224.84	-64.286
225.21	-257.143
225.59	-109.091
225.96	-287.500
226.34	14.286
226.71	-200.000
227.08	-40.000
227.46	2600.000
227.83	-185.714
228.21	-287.500
228.58	650.000
228.95	-56.250
229.33	-2000.000
229.70	-280.000
230.08	-1300.000
230.45	-33.333
230.82	-100.000
231.20	-2400.000
231.57	-850.000
231.95	700.000
232.32	-19.048
232.69	-155.556
233.07	-200.000
233.44	-1150.000
233.81	-133.333
234.19	-88.889
234.56	-62.500
234.93	12.500
235.31	-328.571
235.68	-142.857
236.05	-100.000
236.43	-63.636
236.80	-32.258
237.17	-45.833
237.55	-42.857
237.92	-86.364
238.29	-51.429
238.67	-11.765
239.04	-13.889
239.41	12.903
239.79	-48.718
240.16	-7.143
240.53	-16.364
240.91	-23.077
241.28	9.091
241.65	1.538
242.02	-9.836
242.40	-24.590
242.77	-12.121
243.14	-33.898
243.51	-21.429
243.89	-3.797
244.26	-14.607
244.63	-8.421
245.00	5.263
245.38	1.695
245.75	-0.885
246.12	-4.000
246.49	-0.787
246.87	-7.317
247.24	-16.102
247.61	-9.322
247.98	0.704
248.36	-9.790
248.73	-0.633
249.10	-2.548
249.47	1.754
249.84	3.409
250.22	-10.119
250.59	2.825
250.96	4.188
251.33	0.474
251.70	1.442
252.08	4.265
252.45	0.000
252.82	-0.476
253.19	2.128
253.56	1.613
253.94	3.376
254.31	3.004
254.68	0.813
255.05	0.000
255.42	3.175
255.79	-0.717
256.16	4.314
256.54	5.147
256.91	-2.652
257.28	-2.564
257.65	0.355
258.02	6.289
258.39	5.017
258.76	2.027
259.14	-0.617
259.51	2.623
259.88	1.524
260.25	6.832
260.62	-2.894
260.99	4.154
261.36	4.878
261.73	4.046
262.10	6.111
262.47	1.994
262.85	4.286
263.22	7.163
263.59	0.308
263.96	3.768
264.33	2.168
264.70	4.696
265.07	2.747
265.44	3.876
265.81	2.067
266.18	1.519
266.55	3.676
266.92	4.030
267.29	4.843
267.66	1.481
268.03	4.106
268.40	6.573
268.77	3.614
269.14	1.856
269.51	6.667
269.88	1.606
270.25	1.865
270.62	0.686
270.99	4.054
271.36	3.963
271.73	3.139
272.10	4.348
272.47	2.000
272.84	6.000
273.21	1.606
273.58	3.516
273.95	1.754
274.32	4.751
274.69	6.565
275.06	4.703
275.43	1.786
275.80	6.721
276.17	4.812
276.54	6.721
276.91	4.115
277.28	3.854
277.65	4.132
278.02	5.637
278.39	6.090
278.76	0.996
279.13	6.126
279.50	2.982
279.87	3.383
280.23	4.251
280.60	4.374
280.97	4.078
281.34	2.321
281.71	3.077
282.08	2.419
282.45	-0.611
282.82	4.651
283.19	4.545
283.56	6.960
283.92	5.477
284.29	1.487
284.66	6.295
285.03	6.774
285.40	4.244
285.77	5.789
286.14	4.513
286.51	5.151
286.87	2.904
287.24	4.778
287.61	5.785
287.98	3.293
288.35	2.810
288.72	5.942
289.08	5.593
289.45	7.407
289.82	2.422
290.19	4.762
290.56	2.975
290.93	4.610
291.29	4.052
291.66	3.543
292.03	5.338
292.40	5.572
292.77	4.814
293.13	6.667
293.50	5.498
293.87	4.755
294.24	6.184
294.60	3.636
294.97	5.766
295.34	5.333
295.71	4.167
296.08	3.533
296.44	4.721
296.81	5.983
297.18	4.789
297.55	7.203
297.91	5.997
298.28	5.890
298.65	4.324
299.02	6.283
299.38	4.144
299.75	5.842
300.12	6.923
300.48	6.138
300.85	4.849
301.22	7.115
301.59	5.592
301.95	6.675
302.32	4.694
302.69	6.242
303.05	5.495
303.42	5.875
303.79	5.263
304.15	6.517
304.52	6.884
304.89	5.667
305.25	5.861
305.62	7.756
305.99	7.892
306.35	4.994
306.72	5.581
307.09	7.151
307.45	6.810
307.82	6.145
308.19	6.264
308.55	5.773
308.92	5.693
309.29	5.730
309.65	6.363
310.02	6.479
310.38	5.838
310.75	7.275
311.12	7.851
311.48	6.994
311.85	7.209
312.22	7.003
312.58	8.138
312.95	6.626
313.31	7.992
313.68	7.739
314.05	7.814
314.41	6.539
314.78	6.194
315.14	8.193
315.51	6.991
315.87	8.132
316.24	7.775
316.61	8.253
316.97	9.353
317.34	8.285
317.70	7.050
318.07	9.328
318.43	7.491
318.80	9.296
319.16	6.285
319.53	8.553
319.89	8.278
320.26	8.039
320.62	7.308
320.99	8.557
321.35	7.783
321.72	7.165
322.08	7.616
322.45	7.624
322.81	9.414
323.18	7.781
323.54	8.688
323.91	8.434
324.27	8.365
324.64	8.958
325.00	8.813
325.37	8.869
325.73	10.061
326.10	8.503
326.46	9.107
326.83	8.255
327.19	10.008
327.56	9.455
327.92	10.195
328.29	9.524
328.65	8.727
329.01	10.071
329.38	8.475
329.74	8.883
330.11	9.338
330.47	8.992
330.84	11.091
331.20	9.206
331.56	9.298
331.93	10.213
332.29	9.772
332.66	10.009
333.02	8.959
333.38	10.215
333.75	9.795
334.11	9.333
334.48	9.003
334.84	10.849
335.20	9.840
335.57	9.838
335.93	9.848
336.29	9.035
336.66	9.075
337.02	9.730
337.38	8.734
337.75	9.482
338.11	10.197
338.47	9.609
338.84	8.893
339.20	10.105
339.56	10.250
339.93	9.612
340.29	10.363
340.65	9.441
341.02	9.949
341.38	10.362
341.74	9.992
342.11	9.130
342.47	9.356
342.83	8.816
343.20	9.137
343.56	8.735
343.92	9.850
344.28	10.934
344.65	9.983
345.01	8.067
345.37	9.136
345.73	8.265
346.10	7.441
346.46	8.855
346.82	9.944
347.19	8.217
347.55	9.551
347.91	9.685
348.27	8.035
348.63	9.370
349.00	10.740
349.36	8.821
349.72	9.634
350.08	9.543
350.45	8.589
350.81	8.997
351.17	8.923
351.53	8.990
351.89	8.973
352.26	8.915
352.62	10.292
352.98	9.494
353.34	9.273
353.70	9.112
354.07	9.520
354.43	9.565
354.79	8.796
355.15	9.105
355.51	8.359
355.87	8.379
356.24	9.055
356.60	9.670
356.96	9.777
357.32	8.709
357.68	8.659
358.04	8.699
358.40	8.894
358.77	9.428
359.13	8.569
359.49	9.599
359.85	7.927
360.21	9.513
360.57	9.864
360.93	9.481
361.29	9.492
361.66	7.927
362.02	8.950
362.38	9.391
362.74	8.645
363.10	8.178
363.46	9.615
363.82	9.184
364.18	9.986
364.54	10.079
364.90	9.085
365.26	8.845
365.62	8.767
365.98	11.166
366.35	9.225
366.71	8.809
367.07	9.386
367.43	10.021
367.79	9.691
368.15	8.962
368.51	9.371
368.87	9.684
369.23	10.105
369.59	9.375
369.95	10.430
370.31	10.127
370.67	8.604
371.03	9.475
371.39	9.830
371.75	9.871
372.11	10.115
372.47	9.834
372.83	10.501
373.19	8.786
373.55	10.274
373.91	9.744
374.27	9.719
374.63	9.662
374.99	10.431
375.35	8.681
375.71	10.466
376.07	9.993
376.42	9.205
376.78	9.869
377.14	10.237
377.50	10.187
377.86	9.948
378.22	9.548
378.58	9.512
378.94	10.604
379.30	10.116
379.66	10.383
380.02	10.101
380.38	9.607
380.74	10.610
381.09	10.721
381.45	10.680
381.81	9.679
382.17	10.401
382.53	9.970
382.89	10.706
383.25	10.235
383.61	11.026
383.97	11.023
384.32	9.762
384.68	10.157
385.04	10.326
385.40	10.347
385.76	11.037
386.12	10.868
386.48	11.015
386.83	10.982
387.19	11.476
387.55	11.387
387.91	11.381
388.27	10.012
388.62	10.697
388.98	10.418
389.34	10.526
389.70	11.145
390.06	10.938
390.42	11.090
390.77	10.599
391.13	11.429
391.49	11.167
391.85	10.973
392.20	10.680
392.56	10.385
392.92	11.067
393.28	11.596
393.64	11.786
393.99	11.385
394.35	10.523
394.71	11.489
395.07	11.299
395.42	10.608
395.78	10.999
396.14	11.464
396.50	11.376
396.85	10.857
397.21	11.179
397.57	11.064
397.92	11.066
398.28	11.778
398.64	10.946
399.00	11.910
399.35	10.485
399.71	11.150
400.07	12.239
400.42	11.800
400.78	11.389
401.14	11.437
401.49	11.439
401.85	10.982
402.21	10.906
402.57	11.954
402.92	11.705
403.28	12.010
403.63	10.905
403.99	11.436
404.35	11.534
404.70	12.054
405.06	11.419
405.42	10.640
405.77	11.029
406.13	10.960
406.49	11.084
406.84	11.278
407.20	12.073
407.55	11.716
407.91	10.881
408.27	12.010
408.62	12.147
408.98	11.947
409.34	11.395
409.69	11.027
410.05	11.704
410.40	11.465
410.76	11.678
411.11	11.035
411.47	11.317
411.83	11.369
412.18	11.262
412.54	11.592
412.89	11.543
413.25	10.862
413.60	10.510
413.96	11.152
414.31	11.070
414.67	11.238
415.03	12.160
415.38	12.036
415.74	12.049
416.09	11.829
416.45	11.905
416.80	12.614
417.16	11.296
417.51	12.475
417.87	11.974
418.22	11.252
418.58	12.067
418.93	11.772
419.29	11.920
419.64	11.055
420.00	11.968
420.35	12.241
420.71	11.525
421.06	11.716
421.42	10.714
421.77	11.725
422.12	11.696
422.48	11.919
422.83	11.959
423.19	11.971
423.54	11.700
423.90	11.972
424.25	11.878
424.61	12.002
424.96	12.580
425.31	11.683
425.67	11.748
426.02	11.015
426.38	11.797
426.73	11.806
427.09	11.765
427.44	12.216
427.79	12.093
428.15	11.849
428.50	12.141
428.85	12.410
429.21	12.009
429.56	12.656
429.92	12.124
430.27	12.213
430.62	13.218
430.98	12.337
431.33	12.006
431.68	12.279
432.04	12.031
432.39	11.909
432.74	12.170
433.10	12.099
433.45	11.514
433.80	12.542
434.16	12.090
434.51	12.493
434.86	12.712
435.22	12.305
435.57	12.607
435.92	12.603
436.28	12.166
436.63	11.984
436.98	12.085
437.34	12.109
437.69	11.902
438.04	11.741
438.39	12.876
438.75	12.631
439.10	12.160
439.45	11.527
439.81	13.554
440.16	12.777
440.51	13.118
440.86	12.088
441.22	11.940
441.57	12.053
441.92	12.685
442.27	12.067
442.63	12.285
442.98	11.456
443.33	11.971
443.68	12.350
444.03	12.279
444.39	12.482
444.74	12.720
445.09	12.061
445.44	11.761
445.79	12.443
446.15	12.760
446.50	11.649
446.85	12.314
447.20	12.564
447.55	12.541
447.91	12.970
448.26	11.844
448.61	11.828
448.96	12.941
449.31	12.345
449.66	12.536
450.02	12.465
450.37	12.290
450.72	12.260
451.07	12.696
451.42	11.276
451.77	12.867
452.12	12.694
452.47	12.846
452.83	12.522
453.18	12.966
453.53	12.687
453.88	12.679
454.23	12.213
454.58	12.989
454.93	12.720
455.28	12.811
455.63	13.391
455.98	13.554
456.34	11.881
456.69	13.071
457.04	13.276
457.39	13.218
457.74	12.227
458.09	13.631
458.44	13.395
458.79	12.220
459.14	12.379
459.49	13.558
459.84	12.479
460.19	13.246
460.54	12.765
460.89	12.332
461.24	12.508
461.59	13.306
461.94	12.858
462.29	13.699
462.64	12.582
462.99	13.588
463.34	13.032
463.69	12.214
464.04	12.595
464.39	12.186
464.74	13.239
465.09	12.447
465.44	12.183
465.79	13.536
466.14	13.176
466.49	13.184
466.84	13.085
467.19	12.718
467.54	11.835
467.89	13.872
468.24	13.242
468.59	12.742
468.94	12.990
469.29	12.021
469.64	13.410
469.99	13.774
470.34	13.761
470.68	13.372
471.03	13.765
471.38	11.736
471.73	13.007
472.08	12.918
472.43	11.840
472.78	13.400
473.13	12.127
473.48	12.699
473.83	13.027
474.17	12.994
474.52	13.555
474.87	12.937
475.22	12.802
475.57	13.000
475.92	13.445
476.27	13.600
476.61	13.070
476.96	13.862
477.31	13.132
477.66	13.835
478.01	13.398
478.36	13.515
478.70	13.454
479.05	12.980
479.40	13.523
479.75	13.609
480.10	12.698
480.45	12.573
480.79	13.524
481.14	13.347
481.49	14.085
481.84	13.777
482.19	13.659
482.53	13.116
482.88	13.052
483.23	13.005
483.58	13.691
483.92	13.569
484.27	12.583
484.62	13.909
484.97	13.172
485.31	12.960
485.66	12.586
486.01	12.629
486.36	12.966
486.70	13.291
487.05	13.111
487.40	13.221
487.75	13.139
488.09	12.878
488.44	13.126
488.79	13.265
489.13	13.123
489.48	13.091
489.83	13.100
490.17	13.278
490.52	13.315
490.87	13.072
491.22	13.218
491.56	13.241
491.91	13.597
492.26	13.302
492.60	13.463
492.95	13.422
493.30	13.816
493.64	12.694
493.99	13.384
494.34	13.857
494.68	13.717
495.03	12.620
495.37	13.078
495.72	13.851
496.07	13.890
496.41	13.756
496.76	13.242
497.11	13.895
497.45	14.033
497.80	13.207
498.14	13.703
498.49	13.360
498.84	13.592
499.18	13.743
499.53	13.590
499.87	13.224
500.22	13.824
500.56	14.007
500.91	13.350
501.26	13.974
501.60	13.240
501.95	14.300
502.29	13.462
502.64	14.333
502.98	13.704
503.33	13.064
503.67	13.410
504.02	13.472
504.36	14.216
504.71	13.576
505.06	13.979
505.40	14.371
505.75	13.872
506.09	14.105
506.44	14.185
506.78	13.798
507.13	13.234
507.47	13.354
507.82	13.629
508.16	13.420
508.51	13.550
508.85	14.130
509.19	13.396
509.54	13.372
509.88	13.457
510.23	13.574
510.57	14.656
510.92	14.339
511.26	14.035
511.61	13.661
511.95	14.062
512.30	14.184
512.64	12.632
512.98	15.072
513.33	13.729
513.67	14.573
514.02	14.038
514.36	14.681
514.70	14.827
515.05	13.951
515.39	14.072
515.74	14.718
516.08	14.063
516.42	14.221
516.77	15.540
517.11	14.760
517.46	14.833
517.80	13.658
518.14	14.432
518.49	13.927
518.83	14.184
519.17	14.565
519.52	14.575
519.86	15.054
520.20	14.976
520.55	15.015
520.89	13.838
521.23	15.263
521.58	14.483
521.92	14.693
522.26	14.603
522.61	15.082
522.95	14.422
523.29	15.110
523.64	14.179
523.98	14.768
524.32	14.708
524.66	14.783
525.01	14.579
525.35	14.755
525.69	14.834
526.04	14.817
526.38	14.449
526.72	14.623
527.06	14.583
527.41	14.719
527.75	14.917
528.09	15.553
528.43	14.557
528.78	14.322
529.12	16.389
529.46	14.626
529.80	14.138
530.15	16.162
530.49	15.395
530.83	15.783
531.17	14.074
531.51	14.468
531.86	14.944
532.20	14.777
532.54	15.441
532.88	15.152
533.22	14.973
533.57	15.992
533.91	14.357
534.25	15.211
534.59	15.053
534.93	14.561
535.27	15.293
535.62	15.409
535.96	15.579
536.30	14.398
536.64	15.272
536.98	15.254
537.32	14.651
537.66	14.325
538.01	14.983
538.35	16.351
538.69	13.904
539.03	14.895
539.37	14.438
539.71	14.676
540.05	14.668
540.39	15.859
540.73	15.204
541.07	14.686
541.42	14.180
541.76	14.286
542.10	15.530
542.44	14.657
542.78	14.858
543.12	15.614
543.46	13.767
543.80	14.314
544.14	14.305
544.48	15.617
544.82	15.223
545.16	15.292
545.50	14.670
545.84	16.064
546.18	14.840
546.52	15.292
546.86	14.103
547.20	15.260
547.54	15.083
547.88	14.665
548.22	14.548
548.56	15.030
548.90	14.960
549.24	14.996
549.58	15.173
549.92	15.548
550.26	15.607
550.60	15.220
550.94	14.161
551.28	15.049
551.62	14.549
551.96	15.195
552.30	14.634
552.64	14.849
552.98	15.837
553.32	14.214
553.66	14.564
554.00	15.068
554.34	15.235
554.68	15.936
555.02	15.051
555.36	14.666
555.69	14.828
556.03	14.737
556.37	14.936
556.71	14.889
557.05	15.152
557.39	14.922
557.73	15.317
558.07	14.544
558.41	15.108
558.75	15.285
559.08	14.708
559.42	14.931
559.76	15.261
560.10	15.213
560.44	15.462
560.78	14.196
561.12	14.631
561.45	15.274
561.79	14.774
562.13	14.937
562.47	15.056
562.81	14.003
563.15	14.836
563.48	15.411
563.82	14.334
564.16	14.402
564.50	15.054
564.84	15.608
565.17	14.920
565.51	14.798
565.85	15.145
566.19	14.690
566.52	14.938
566.86	14.159
567.20	14.346
567.54	14.885
567.88	14.461
568.21	14.430
568.55	14.528
568.89	13.917
569.23	14.068
569.56	13.745
569.90	14.713
570.24	14.130
570.57	13.708
570.91	13.635
571.25	13.975
571.59	14.205
571.92	13.988
572.26	13.871
572.60	13.776
572.93	13.565
573.27	13.232
573.61	13.020
573.95	13.837
574.28	13.698
574.62	14.006
574.96	13.385
575.29	13.338
575.63	13.671
575.97	13.188
576.30	13.593
576.64	13.368
576.98	13.312
577.31	13.445
577.65	13.442
577.98	13.203
578.32	13.387
578.66	13.487
578.99	12.969
579.33	13.363
579.67	13.315
580.00	13.170
580.34	13.185
580.67	13.484
581.01	12.729
581.35	13.381
581.68	13.244
582.02	13.365
582.35	13.390
582.69	13.685
583.02	14.036
583.36	13.370
583.70	13.185
584.03	13.901
584.37	13.315
584.70	13.719
585.04	13.038
585.37	12.959
585.71	13.425
586.04	13.754
586.38	13.205
586.72	13.613
587.05	13.481
587.39	13.767
587.72	13.459
588.06	13.673
588.39	13.614
588.73	13.820
589.06	14.290
589.40	13.604
589.73	13.952
590.07	13.438
590.40	13.690
590.73	13.515
591.07	14.426
591.40	14.428
591.74	13.640
592.07	13.333
592.41	13.631
592.74	13.720
593.08	14.349
593.41	13.816
593.75	13.353
594.08	13.911
594.41	14.344
594.75	13.892
595.08	13.647
595.42	14.162
595.75	13.304
596.09	13.194
596.42	14.566
596.75	13.972
597.09	14.025
597.42	13.531
597.75	13.463
598.09	13.601
598.42	14.317
598.76	14.078
599.09	13.694
599.42	13.110
599.76	13.628
600.09	14.160
600.42	13.825
600.76	14.313
601.09	14.166
601.42	13.415
601.76	14.097
602.09	13.742
602.42	14.156
602.76	12.879
603.09	13.871
603.42	13.940
603.76	13.801
604.09	13.817
604.42	13.863
604.76	14.653
605.09	13.834
605.42	14.716
605.75	13.454
606.09	13.782
606.42	13.448
606.75	14.126
607.09	14.204
607.42	13.908
607.75	13.819
608.08	14.550
608.42	14.428
608.75	13.598
609.08	14.223
609.41	14.101
609.75	14.237
610.08	14.118
610.41	14.120
610.74	14.410
611.07	14.757
611.41	13.717
611.74	14.602
612.07	15.306
612.40	14.339
612.73	14.647
613.07	14.695
613.40	15.380
613.73	14.496
614.06	13.564
614.39	14.882
614.72	13.073
615.06	14.239
615.39	13.945
615.72	14.883
616.05	13.749
616.38	14.974
616.71	14.715
617.05	15.742
617.38	15.542
617.71	14.066
618.04	14.783
618.37	14.403
618.70	15.254
619.03	14.421
619.36	15.011
619.69	16.009
620.03	14.945
620.36	13.854
620.69	16.009
621.02	14.764
621.35	15.806
621.68	15.164
622.01	15.453
622.34	15.450
622.67	15.312
623.00	15.379
623.33	16.418
623.66	13.885
623.99	16.466
624.32	14.286
624.65	14.864
624.99	14.488
625.32	14.671
625.65	14.685
625.98	14.476
626.31	14.845
626.64	15.565
626.97	15.839
627.30	14.809
627.63	14.853
627.96	16.623
628.29	15.625
628.62	14.327
628.95	16.240
629.28	16.353
629.61	13.739
629.94	15.595
630.26	16.799
630.59	16.382
630.92	16.316
631.25	16.230
631.58	15.661
631.91	13.723
632.24	16.111
632.57	16.222
632.90	15.862
633.23	16.472
633.56	15.439
633.89	15.920
634.22	16.057
634.55	16.106
634.88	17.170
635.20	16.105
635.53	16.794
635.86	15.995
636.19	16.484
636.52	15.771
636.85	16.125
637.18	14.750
637.51	16.481
637.83	14.780
638.16	16.842
638.49	15.724
638.82	17.503
639.15	16.472
639.48	16.602
639.81	17.704
640.13	17.162
640.46	17.521
640.79	18.067
641.12	16.643
641.45	16.499
641.77	17.216
642.10	16.163
642.43	17.451
642.76	16.693
643.09	16.667
643.41	17.143
643.74	17.488
644.07	17.161
644.40	16.856
644.73	16.832
645.05	15.526
645.38	17.881
645.71	20.103
646.04	18.655
646.36	16.579
646.69	17.820
647.02	15.704
647.35	18.592
647.67	18.066
648.00	18.278
648.33	18.212
648.66	16.774
648.98	18.631
649.31	17.231
649.64	16.719
649.96	16.013
650.29	14.754
650.62	17.384
650.94	17.369
651.27	17.158
651.60	16.955
651.92	17.466
652.25	18.030
652.58	15.162
652.90	16.854
653.23	16.129
653.56	16.555
653.88	15.902
654.21	18.456
654.54	17.276
654.86	17.817
655.19	15.759
655.52	15.646
655.84	14.113
656.17	15.070
656.49	20.668
656.82	21.486
657.15	16.098
657.47	11.737
657.80	8.973
658.13	10.506
658.45	13.750
658.78	13.712
659.10	13.649
659.43	13.288
659.75	13.336
660.08	14.062
660.41	12.783
660.73	13.531
661.06	16.377
661.38	16.607
661.71	15.105
662.03	16.935
662.36	18.124
662.68	17.511
663.01	18.896
663.33	17.914
663.66	18.670
663.98	15.402
664.31	13.870
664.63	18.363
664.96	17.354
665.28	19.523
665.61	16.490
665.93	18.313
666.26	18.016
666.58	18.711
666.91	16.927
667.23	18.860
667.56	16.100
667.88	19.231
668.21	17.051
668.53	16.589
668.86	19.169
669.18	20.320
669.50	18.925
669.83	14.599
670.15	18.161
670.48	14.720
670.80	15.718
671.13	14.447
671.45	17.117
671.77	16.060
672.10	15.582
672.42	16.974
672.75	17.273
673.07	15.676
673.39	15.483
673.72	19.488
674.04	16.561
674.37	16.082
674.69	17.213
675.01	17.021
675.34	16.703
675.66	17.711
675.98	17.841
676.31	18.778
676.63	20.920
676.95	16.150
677.28	18.794
677.60	17.421
677.92	17.401
678.25	17.287
678.57	17.078
678.89	18.449
679.22	18.868
679.54	19.329
679.86	16.000
680.18	17.871
680.51	17.132
680.83	17.524
681.15	16.185
681.48	19.473
681.80	16.331
682.12	16.499
682.44	17.092
682.77	13.853
683.09	18.449
683.41	16.150
683.73	15.753
684.06	15.699
684.38	18.201
684.70	18.930
685.02	16.732
685.34	18.324
685.67	13.636
685.99	13.043
686.31	17.953
686.63	17.908
686.96	16.636
687.28	15.607
687.60	16.406
687.92	14.008
688.24	17.520
688.56	14.629
688.89	17.094
689.21	17.287
689.53	17.931
689.85	18.040
690.17	16.816
690.49	17.552
690.82	18.795
691.14	17.453
691.46	18.182
691.78	18.282
692.10	15.890
692.42	15.333
692.74	16.953
693.06	18.427
693.39	15.884
693.71	14.673
694.03	17.063
694.35	15.576
694.67	17.967
694.99	11.253
695.31	14.796
695.63	16.582
695.95	14.888
696.27	17.207
696.59	19.251
696.91	17.416
697.23	16.667
697.56	13.221
697.88	14.865
698.20	15.846
698.52	14.798
698.84	16.990
699.16	16.190
699.48	16.750
699.80	17.794
700.12	17.380
700.44	13.966
700.76	16.618
701.08	16.860
701.40	17.523
701.72	16.358
702.04	16.667
702.36	17.470
702.68	16.168
703.00	20.000
703.32	14.613
703.64	17.941
703.96	22.965
704.28	17.456
704.60	17.722
704.91	14.603
705.23	17.152
705.55	14.527
705.87	19.454
706.19	13.889
706.51	14.931
706.83	19.016
707.15	19.108
707.47	17.080
707.79	15.979
708.11	12.214
708.43	20.200
708.74	14.805
709.06	14.206
709.38	16.379
709.70	14.062
710.02	19.632
710.34	12.541
710.66	16.190
710.98	16.719
711.29	14.194
711.61	12.780
711.93	17.049
712.25	19.934
712.57	18.815
712.89	16.547
713.20	18.900
713.52	15.299
713.84	19.929
714.16	15.410
714.48	20.000
714.80	14.462
715.11	19.597
715.43	24.096
715.75	19.003
716.07	14.426
716.39	18.060
716.70	18.467
717.02	18.519
717.34	14.504
717.66	18.672
717.97	14.344
718.29	13.025
718.61	19.841
718.93	20.072
719.24	9.926
719.56	16.226
719.88	14.909
720.20	13.858
720.51	22.180
720.83	15.663
721.15	19.262
721.46	18.431
721.78	20.307
722.10	17.200
722.42	15.702
722.73	16.335
723.05	19.277
723.37	17.255
723.68	18.623
724.00	23.577
724.32	14.815
724.63	17.012
724.95	19.421
725.27	15.789
725.58	18.966
725.90	17.857
726.22	19.557
726.53	16.350
726.85	12.941
727.16	16.917
727.48	15.000
727.80	7.787
728.11	16.807
728.43	17.355
728.74	16.406
729.06	22.348
729.38	13.230
729.69	14.961
730.01	16.929
730.32	11.155
730.64	20.147
730.96	22.015
731.27	15.357
731.59	16.720
731.90	15.644
732.22	17.178
732.53	19.536
732.85	15.436
733.16	18.116
733.48	10.105
733.80	17.438
734.11	17.931
734.43	16.327
734.74	16.914
735.06	15.674
735.37	18.043
735.69	18.065
736.00	13.468
736.32	15.563
736.63	13.103
736.95	15.942
737.26	18.212
737.58	18.705
737.89	20.072
738.21	12.406
738.52	15.769
738.83	16.797
739.15	13.675
739.46	20.565
739.78	19.231
740.09	13.636
740.41	13.287
740.72	18.613
741.04	11.508
741.35	12.121
741.66	21.296
741.98	13.333
742.29	19.718
742.61	18.717
742.92	21.495
743.23	19.298
743.55	16.667
743.86	22.222
744.18	14.762
744.49	21.182
744.80	26.904
745.12	23.711
745.43	19.095
745.74	17.961
746.06	13.171
746.37	16.740
746.68	17.910
747.00	23.037
747.31	16.346
747.62	17.512
747.94	16.157
748.25	16.279
748.56	14.286
748.88	13.043
749.19	19.249
749.50	20.588
749.82	19.111
750.13	18.502
750.44	16.667
750.75	15.200
751.07	17.500
751.38	16.605
751.69	12.595
752.01	19.615
752.32	17.899
752.63	15.385
752.94	18.651
753.26	19.130
753.57	18.750
753.88	20.259
754.19	12.863
754.51	19.531
754.82	18.577
755.13	22.634
755.44	19.421
755.75	22.222
756.07	14.458
756.38	16.016
756.69	20.217
757.00	18.467
757.31	19.799
757.63	22.118
757.94	15.318
758.25	14.535
758.56	22.372
758.87	17.045
759.18	16.000
759.50	20.641
759.81	13.869
760.12	15.203
760.43	20.388
760.74	17.812
761.05	18.820
761.36	15.269
761.67	18.047
761.99	15.484
762.30	20.652
762.61	17.736
762.92	19.283
763.23	14.218
763.54	20.889
763.85	17.722
764.16	15.918
764.47	22.881
764.78	17.228
765.10	21.223
765.41	15.161
765.72	18.239
766.03	13.428
766.34	16.917
766.65	17.409
766.96	9.500
767.27	19.792
767.58	19.767
767.89	17.419
768.20	20.245
768.51	18.579
768.82	20.000
769.13	11.000
769.44	13.158
769.75	16.017
770.06	17.431
770.37	15.023
770.68	20.312
770.99	14.851
771.30	9.709
771.61	18.056
771.92	16.450
772.23	17.290
772.54	13.830
772.85	11.834
773.16	24.390
773.47	18.675
773.78	22.527
774.09	9.333
774.39	12.346
774.70	15.436
775.01	8.696
775.32	8.209
775.63	12.397
775.94	18.045
776.25	12.857
776.56	13.934
776.87	15.044
777.18	15.044
777.48	11.818
777.79	6.087
778.10	11.927
778.41	8.475
778.72	13.223
779.03	12.687
779.34	18.797
779.65	10.458
779.95	10.145
780.26	8.844
780.57	8.621
780.88	7.407
781.19	3.030
781.50	4.000
781.80	14.379
782.11	17.308
782.42	11.446
782.73	10.219
783.04	14.189
783.34	14.394
783.65	4.651
783.96	19.512
784.27	19.658
784.57	4.065
784.88	17.886
785.19	9.649
785.50	-1.031
785.81	10.476
786.11	2.941
786.42	14.545
786.73	21.622
787.04	11.881
787.34	18.095
787.65	13.333
787.96	10.784
788.26	9.910
788.57	19.355
788.88	15.625
789.19	13.675
789.49	15.126
789.80	7.692
790.11	19.469
790.41	13.131
790.72	19.811
791.03	1.389
791.33	10.526
791.64	24.731
791.95	14.667
792.25	1.429
792.56	20.732
792.87	23.469
793.17	22.368
793.48	-6.757
793.79	-7.042
794.09	3.797
794.40	6.383
794.70	22.430
795.01	0.877
795.32	4.545
795.62	15.179
795.93	10.309
796.23	5.495
796.54	20.000
796.85	-1.370
797.15	5.556
797.46	8.219
797.76	8.451
798.07	25.000
798.37	0.000
798.68	12.857
798.99	12.857
799.29	6.579
799.60	0.000
799.90	0.000
800.21	10.937
800.51	0.000
800.82	9.836
801.12	-7.018
801.43	-4.225
801.73	-6.780
802.04	8.197
802.34	9.091
802.65	-15.385
802.95	7.407
803.26	-35.000
803.56	19.231
803.87	-5.263
804.17	14.516
804.48	6.154
804.78	2.564
805.09	-2.326
805.39	-18.750
805.70	-16.981
806.00	22.807
806.30	14.865
806.61	8.824
806.91	0.000
807.22	1.333
807.52	16.418
807.83	22.581
808.13	-9.524
808.43	1.818
808.74	3.030
809.04	9.434
809.35	10.959
809.65	19.298
809.95	17.647
810.26	7.843
810.56	-20.000
810.86	-12.245
811.17	-14.286
811.47	9.615
811.77	16.129
812.08	-47.368
812.38	-14.286
812.69	10.870
812.99	-19.355
813.29	-23.810
813.59	-44.444
813.90	10.638
814.20	-32.558
814.50	6.250
814.81	10.000
815.11	12.195
815.41	-30.000
815.72	28.571
816.02	-36.111
816.32	2.564
816.62	-16.216
816.93	-41.176
817.23	0.000
817.53	8.824
817.84	8.824
818.14	-28.125
818.44	-31.034
818.74	-16.129
819.04	-29.630
819.35	20.000
819.65	-60.000
819.95	-30.000
820.25	4.000
820.56	7.895
820.86	-7.500
821.16	0.000
821.46	-1.724
821.76	-20.513
822.07	-15.000
822.37	2.326
822.67	-46.667
822.97	-35.135
823.27	5.405
823.57	28.000
823.88	5.405
824.18	-14.286
824.48	19.231
824.78	-107.692
825.08	-43.478
825.38	-20.833
825.69	-41.667
825.99	-75.000
826.29	-18.919
826.59	-14.706
826.89	24.000
827.19	-8.571
827.49	23.684
827.79	-18.750
828.09	-10.000
828.39	-39.130
828.70	-65.517
829.00	3.448
829.30	-30.556
829.60	25.000
829.90	16.667
830.20	-23.077
830.50	-71.429
830.80	14.286
831.10	15.385
831.40	9.524
831.70	5.882
832.00	8.333
832.30	-47.368
832.60	-37.500
832.90	-225.000
833.20	-100.000
833.50	-53.333
833.80	-33.333
834.10	-50.000
834.40	0.000
834.70	-38.889
835.00	-19.231
835.30	-20.833
835.60	3.448
835.90	-116.667
836.20	-218.182
836.50	-83.333
836.80	2.857
837.10	28.571
837.40	-70.588
837.70	-109.091
838.00	-12.500
838.30	-56.250
838.60	-52.381
838.90	15.000
839.19	-56.522
839.49	-39.130
839.79	-100.000
840.09	-73.913
840.39	-36.364
840.69	-62.500
840.99	-21.053
841.29	-87.500
841.59	-57.143
841.88	-77.778
842.18	-25.000
842.48	-70.588
842.78	6.897
843.08	-64.286
843.38	-84.615
843.68	-188.889
843.97	0.000
844.27	-181.818
844.57	-280.000
844.87	-8.000
845.17	-140.000
845.47	-64.286
845.76	-144.444
846.06	0.000
846.36	-550.000
846.66	-240.000
846.96	-78.947
847.25	-66.667
847.55	-100.000
847.85	-6.667
848.15	-140.000
848.44	19.231
848.74	5.263
849.04	700.000
849.34	-133.333
849.63	-68.421
849.93	0.000
850.23	-65.000
850.53	14.286
850.82	-36.000
851.12	-63.158
851.42	-750.000
851.71	-28.571
852.01	-175.000
852.31	-5.882
852.61	-26.667
852.90	-71.429
853.20	-350.000
853.50	-5.556
853.79	-52.632
854.09	-126.667
854.39	-39.286
854.68	-43.478
854.98	-291.667
855.28	-6.897
855.57	-68.750
855.87	-15.000
856.17	-126.667
856.46	-55.172
856.76	-13.333
857.05	-82.353
857.35	-84.615
857.65	-145.455
857.94	-33.333
858.24	-128.571
858.53	-78.571
858.83	-133.333
859.13	-166.667
859.42	-19.048
859.72	-237.500
860.01	-700.000
860.31	-87.500
860.60	-500.000
860.90	-288.889
861.20	-225.000
861.49	-242.857
861.79	-64.706
862.08	-950.000
862.38	-175.000
862.67	-76.923
862.97	0.000
863.26	-5.000
863.56	-117.647
863.85	566.667
864.15	-120.000
864.44	-100.000
864.74	-55.000
865.03	-225.000
865.33	-216.667
865.62	-23.529
865.92	-600.000
866.21	-100.000
866.51	-66.667
866.80	-1100.000
867.10	-333.333
867.39	-82.353
867.69	-17.391
867.98	-185.714
868.27	-480.000
868.57	-87.500
868.86	-181.818
869.16	-82.353
869.45	-283.333
869.75	-128.571
870.04	1300.000
870.33	-100.000
870.63	-300.000
870.92	-122.222
871.22	-41.667
871.51	-90.909
871.80	-66.667
872.10	-50.000
>>>>>End Processed Spectral Data<<<<<
