SpectraSuite Data File
++++++++++++++++++++++++++++++++++++
Date: Sat May 16 11:12:11 PDT 2015
User: schluterlab
Dark Spectrum Present: Yes
Reference Spectrum Present: Yes
Number of Sampled Component Spectra: 1
Spectrometers: USB2E3373
Integration Time (usec): 3000 (USB2E3373)
Spectra Averaged: 3 (USB2E3373)
Boxcar Smoothing: 0 (USB2E3373)
Correct for Electrical Dark: No (USB2E3373)
Strobe/Lamp Enabled: No (USB2E3373)
Correct for Detector Non-linearity: No (USB2E3373)
Correct for Stray Light: No (USB2E3373)
Number of Pixels in Processed Spectrum: 2048
>>>>>Begin Processed Spectral Data<<<<<
178.53	0.000
178.91	26.667
179.29	300.000
179.67	-1000.000
180.04	61.538
180.42	200.000
180.80	275.000
181.18	25.000
181.56	-125.000
181.94	200.000
182.31	300.000
182.69	23.077
183.07	-133.333
183.45	1300.000
183.83	466.667
184.20	14.286
184.58	-100.000
184.96	-100.000
185.34	100.000
185.72	-375.000
186.09	33.333
186.47	-75.000
186.85	-87.500
187.23	62.500
187.61	-50.000
187.98	-150.000
188.36	25.000
188.74	-112.500
189.12	1000.000
189.49	171.429
189.87	33.333
190.25	-75.000
190.63	-14.286
191.00	33.333
191.38	60.000
191.76	13.333
192.14	200.000
192.51	-80.000
192.89	33.333
193.27	0.000
193.65	-55.556
194.02	-214.286
194.40	533.333
194.78	30.000
195.15	-400.000
195.53	-36.364
195.91	-316.667
196.29	-80.000
196.66	-333.333
197.04	1300.000
197.42	50.000
197.79	73.333
198.17	166.667
198.55	-700.000
198.92	-400.000
199.30	125.000
199.68	-250.000
200.05	-88.889
200.43	-55.556
200.81	0.000
201.18	-83.333
201.56	85.714
201.94	-20.000
202.31	68.182
202.69	100.000
203.07	40.000
203.44	333.333
203.82	-216.667
204.19	-100.000
204.57	175.000
204.95	100.000
205.32	18.750
205.70	1000.000
206.08	-300.000
206.45	-5.556
206.83	0.000
207.20	100.000
207.58	-233.333
207.96	-33.333
208.33	50.000
208.71	-77.778
209.08	110.000
209.46	14.286
209.84	300.000
210.21	0.000
210.59	90.000
210.96	-200.000
211.34	-100.000
211.71	-666.667
212.09	150.000
212.46	150.000
212.84	-500.000
213.22	100.000
213.59	25.000
213.97	55.556
214.34	100.000
214.72	-130.000
215.09	-366.667
215.47	33.333
215.84	-120.000
216.22	70.000
216.59	113.333
216.97	-150.000
217.34	400.000
217.72	-85.714
218.09	-116.667
218.47	-71.429
218.84	57.143
219.22	71.429
219.59	0.000
219.97	114.286
220.34	325.000
220.72	112.500
221.09	7.692
221.47	0.000
221.84	-166.667
222.22	-50.000
222.59	800.000
222.97	-112.500
223.34	50.000
223.72	-400.000
224.09	14.286
224.46	-175.000
224.84	-21.429
225.21	-114.286
225.59	18.182
225.96	-37.500
226.34	0.000
226.71	-188.889
227.08	20.000
227.46	1500.000
227.83	57.143
228.21	-50.000
228.58	-300.000
228.95	56.250
229.33	-1100.000
229.70	-200.000
230.08	-250.000
230.45	-16.667
230.82	-50.000
231.20	-400.000
231.57	-200.000
231.95	900.000
232.32	47.619
232.69	66.667
233.07	-71.429
233.44	-150.000
233.81	-60.000
234.19	0.000
234.56	75.000
234.93	75.000
235.31	-14.286
235.68	-92.857
236.05	-35.294
236.43	-31.818
236.80	-12.903
237.17	41.667
237.55	0.000
237.92	9.091
238.29	22.857
238.67	29.412
239.04	41.667
239.41	6.452
239.79	-10.256
240.16	-9.524
240.53	-3.636
240.91	15.385
241.28	38.182
241.65	21.538
242.02	22.951
242.40	19.672
242.77	10.606
243.14	23.729
243.51	15.714
243.89	20.253
244.26	30.337
244.63	28.421
245.00	21.053
245.38	21.186
245.75	38.938
246.12	28.000
246.49	29.921
246.87	28.455
247.24	14.407
247.61	18.644
247.98	18.310
248.36	20.280
248.73	32.911
249.10	21.019
249.47	23.392
249.84	23.295
250.22	16.667
250.59	24.859
250.96	25.131
251.33	27.962
251.70	22.115
252.08	18.483
252.45	23.697
252.82	16.190
253.19	28.085
253.56	19.355
253.94	19.831
254.31	22.747
254.68	23.171
255.05	17.742
255.42	22.619
255.79	21.147
256.16	24.706
256.54	20.956
256.91	19.697
257.28	17.949
257.65	22.695
258.02	25.786
258.39	24.080
258.76	20.608
259.14	21.914
259.51	21.639
259.88	22.256
260.25	22.981
260.62	22.830
260.99	23.442
261.36	22.561
261.73	23.699
262.10	23.333
262.47	19.943
262.85	26.000
263.22	23.209
263.59	20.308
263.96	21.159
264.33	23.848
264.70	24.033
265.07	23.352
265.44	20.672
265.81	19.897
266.18	21.772
266.55	19.608
266.92	22.922
267.29	24.213
267.66	21.235
268.03	23.430
268.40	22.535
268.77	20.482
269.14	17.633
269.51	22.069
269.88	18.349
270.25	19.114
270.62	19.680
270.99	21.622
271.36	20.280
271.73	19.507
272.10	21.510
272.47	21.333
272.84	22.000
273.21	21.560
273.58	19.560
273.95	22.807
274.32	22.398
274.69	22.976
275.06	21.063
275.43	19.866
275.80	21.792
276.17	20.084
276.54	22.811
276.91	22.428
277.28	21.298
277.65	21.488
278.02	22.756
278.39	18.664
278.76	18.127
279.13	22.727
279.50	21.272
279.87	20.296
280.23	23.482
280.60	19.483
280.97	20.583
281.34	17.988
281.71	20.769
282.08	21.976
282.45	18.330
282.82	19.380
283.19	19.636
283.56	22.527
283.92	21.201
284.29	18.587
284.66	21.043
285.03	20.677
285.40	20.111
285.77	20.702
286.14	21.300
286.51	20.249
286.87	20.690
287.24	20.137
287.61	21.653
287.98	16.984
288.35	19.339
288.72	17.657
289.08	19.661
289.45	19.192
289.82	19.896
290.19	21.182
290.56	16.860
290.93	19.396
291.29	19.287
291.66	20.129
292.03	19.152
292.40	19.127
292.77	19.099
293.13	18.211
293.50	18.128
293.87	18.865
294.24	20.060
294.60	16.515
294.97	19.423
295.34	17.926
295.71	19.345
296.08	17.512
296.44	16.166
296.81	17.521
297.18	15.775
297.55	19.350
297.91	19.805
298.28	18.493
298.65	19.526
299.02	18.984
299.38	17.246
299.75	17.255
300.12	18.205
300.48	17.647
300.85	17.562
301.22	18.499
301.59	16.515
301.95	18.640
302.32	17.601
302.69	17.258
303.05	16.972
303.42	17.625
303.79	16.866
304.15	17.891
304.52	17.970
304.89	16.647
305.25	16.606
305.62	17.509
305.99	17.550
306.35	18.091
306.72	16.173
307.09	19.069
307.45	18.275
307.82	18.436
308.19	17.338
308.55	17.865
308.92	18.904
309.29	17.189
309.65	19.406
310.02	19.330
310.38	19.027
310.75	19.980
311.12	21.178
311.48	20.668
311.85	20.288
312.22	19.773
312.58	22.075
312.95	20.082
313.31	22.078
313.68	21.307
314.05	23.244
314.41	21.227
314.78	20.280
315.14	23.791
315.51	22.695
315.87	24.298
316.24	23.518
316.61	25.048
316.97	25.572
317.34	24.759
317.70	24.119
318.07	25.000
318.43	25.281
318.80	28.357
319.16	25.891
319.53	25.564
319.89	25.682
320.26	27.549
320.62	27.404
320.99	27.861
321.35	27.685
321.72	28.557
322.08	27.992
322.45	29.307
322.81	29.971
323.18	30.644
323.54	30.222
323.91	31.881
324.27	33.270
324.64	32.998
325.00	32.199
325.37	34.208
325.73	36.483
326.10	34.012
326.46	36.690
326.83	37.872
327.19	38.616
327.56	38.756
327.92	38.573
328.29	40.173
328.65	40.000
329.01	41.608
329.38	41.124
329.74	43.498
330.11	42.792
330.47	44.414
330.84	43.813
331.20	44.404
331.56	46.035
331.93	45.915
332.29	47.306
332.66	45.742
333.02	45.611
333.38	47.043
333.75	45.770
334.11	47.822
334.48	47.396
334.84	48.381
335.20	45.745
335.57	50.632
335.93	51.656
336.29	47.476
336.66	48.811
337.02	49.099
337.38	48.841
337.75	50.132
338.11	49.732
338.47	50.356
338.84	50.998
339.20	48.946
339.56	50.980
339.93	50.705
340.29	48.981
340.65	50.262
341.02	49.831
341.38	48.526
341.74	48.688
342.11	50.768
342.47	49.270
342.83	49.622
343.20	50.043
343.56	48.245
343.92	49.917
344.28	50.463
344.65	49.835
345.01	50.252
345.37	50.166
345.73	49.100
346.10	49.550
346.46	49.553
346.82	50.040
347.19	49.630
347.55	48.475
347.91	49.685
348.27	49.085
348.63	48.788
349.00	50.040
349.36	48.009
349.72	50.876
350.08	50.200
350.45	48.463
350.81	49.682
351.17	50.643
351.53	47.971
351.89	49.232
352.26	48.760
352.62	49.693
352.98	49.604
353.34	49.800
353.70	48.417
354.07	49.803
354.43	49.170
354.79	50.396
355.15	50.799
355.51	49.687
355.87	49.328
356.24	50.040
356.60	51.168
356.96	48.884
357.32	49.644
357.68	49.425
358.04	48.653
358.40	49.961
358.77	49.923
359.13	49.197
359.49	49.660
359.85	49.390
360.21	49.772
360.57	49.322
360.93	49.556
361.29	51.121
361.66	48.933
362.02	49.038
362.38	49.450
362.74	51.062
363.10	48.565
363.46	50.285
363.82	48.907
364.18	50.724
364.54	50.679
364.90	50.035
365.26	49.429
365.62	50.535
365.98	49.573
366.35	49.366
366.71	48.908
367.07	48.765
367.43	50.172
367.79	49.759
368.15	49.075
368.51	49.930
368.87	51.236
369.23	49.544
369.59	49.028
369.95	49.753
370.31	49.015
370.67	49.313
371.03	49.927
371.39	49.151
371.75	51.144
372.11	50.574
372.47	50.036
372.83	51.321
373.19	50.071
373.55	50.598
373.91	50.640
374.27	50.376
374.63	50.173
374.99	51.947
375.35	51.413
375.71	51.317
376.07	50.992
376.42	49.603
376.78	51.895
377.14	52.610
377.50	51.838
377.86	51.105
378.22	50.754
378.58	52.007
378.94	51.726
379.30	51.554
379.66	50.455
380.02	50.624
380.38	51.178
380.74	51.465
381.09	51.318
381.45	52.088
381.81	52.027
382.17	52.068
382.53	51.611
382.89	52.452
383.25	53.161
383.61	52.005
383.97	52.051
384.32	52.315
384.68	53.507
385.04	52.355
385.40	52.039
385.76	52.988
386.12	53.217
386.48	53.589
386.83	53.252
387.19	53.497
387.55	52.514
387.91	52.460
388.27	50.965
388.62	51.923
388.98	52.029
389.34	52.938
389.70	52.923
390.06	52.704
390.42	54.103
390.77	53.123
391.13	53.727
391.49	53.088
391.85	53.180
392.20	53.398
392.56	52.718
392.92	53.052
393.28	52.641
393.64	53.397
393.99	53.415
394.35	53.528
394.71	52.316
395.07	53.798
395.42	51.907
395.78	52.357
396.14	54.517
396.50	52.722
396.85	53.177
397.21	53.220
397.57	53.556
397.92	53.923
398.28	53.889
398.64	53.718
399.00	53.820
399.35	53.044
399.71	53.833
400.07	52.836
400.42	53.406
400.78	52.236
401.14	53.353
401.49	53.125
401.85	54.606
402.21	53.516
402.57	53.155
402.92	53.996
403.28	53.922
403.63	51.468
403.99	53.014
404.35	53.019
404.70	53.130
405.06	52.941
405.42	52.030
405.77	52.149
406.13	52.981
406.49	53.745
406.84	54.589
407.20	54.005
407.55	53.072
407.91	52.267
408.27	53.186
408.62	52.676
408.98	53.972
409.34	53.016
409.69	51.985
410.05	52.941
410.40	53.219
410.76	52.697
411.11	53.616
411.47	53.261
411.83	52.873
412.18	54.146
412.54	52.837
412.89	54.253
413.25	53.188
413.60	53.220
413.96	52.988
414.31	54.067
414.67	53.079
415.03	53.493
415.38	54.457
415.74	53.866
416.09	53.772
416.45	52.381
416.80	54.356
417.16	54.551
417.51	54.235
417.87	54.563
418.22	55.373
418.58	53.530
418.93	54.690
419.29	53.827
419.64	54.334
420.00	54.982
420.35	55.056
420.71	56.723
421.06	56.036
421.42	56.206
421.77	57.510
422.12	56.519
422.48	56.013
422.83	56.093
423.19	56.403
423.54	55.216
423.90	56.333
424.25	56.448
424.61	57.841
424.96	58.631
425.31	58.692
425.67	57.593
426.02	57.085
426.38	58.621
426.73	58.095
427.09	59.681
427.44	58.580
427.79	59.360
428.15	60.263
428.50	60.293
428.85	59.412
429.21	60.266
429.56	60.312
429.92	59.068
430.27	59.172
430.62	60.763
430.98	59.801
431.33	61.046
431.68	60.268
432.04	61.332
432.39	60.228
432.74	61.571
433.10	60.777
433.45	61.082
433.80	61.814
434.16	62.225
434.51	62.630
434.86	62.507
435.22	62.973
435.57	63.280
435.92	63.189
436.28	62.077
436.63	63.030
436.98	62.314
437.34	63.320
437.69	64.411
438.04	64.152
438.39	64.681
438.75	63.329
439.10	62.798
439.45	64.393
439.81	65.181
440.16	64.509
440.51	64.412
440.86	65.587
441.22	64.677
441.57	65.105
441.92	65.320
442.27	65.639
442.63	66.577
442.98	64.786
443.33	65.513
443.68	65.503
444.03	65.521
444.39	66.128
444.74	66.520
445.09	67.215
445.44	67.023
445.79	67.364
446.15	66.484
446.50	65.433
446.85	65.213
447.20	66.190
447.55	66.740
447.91	68.220
448.26	67.989
448.61	67.289
448.96	67.787
449.31	66.685
449.66	68.746
450.02	66.648
450.37	67.014
450.72	67.345
451.07	69.390
451.42	68.340
451.77	68.761
452.12	69.607
452.47	68.388
452.83	68.608
453.18	69.133
453.53	68.159
453.88	68.720
454.23	69.347
454.58	69.857
454.93	69.018
455.28	68.579
455.63	69.902
455.98	69.759
456.34	67.598
456.69	69.293
457.04	69.883
457.39	68.600
457.74	69.226
458.09	69.026
458.44	70.323
458.79	70.628
459.14	70.165
459.49	69.331
459.84	69.646
460.19	69.212
460.54	69.994
460.89	70.516
461.24	69.885
461.59	71.278
461.94	71.101
462.29	70.399
462.64	71.673
462.99	71.954
463.34	70.695
463.69	71.947
464.04	69.420
464.39	70.908
464.74	70.863
465.09	69.272
465.44	71.404
465.79	71.348
466.14	71.692
466.49	70.581
466.84	70.948
467.19	72.880
467.54	70.443
467.89	71.702
468.24	70.784
468.59	71.955
468.94	73.119
469.29	71.540
469.64	72.035
469.99	72.789
470.34	72.879
470.68	73.547
471.03	71.920
471.38	72.292
471.73	74.196
472.08	74.096
472.43	71.879
472.78	72.667
473.13	72.366
473.48	73.197
473.83	73.263
474.17	73.567
474.52	74.361
474.87	71.270
475.22	74.218
475.57	73.056
475.92	72.246
476.27	72.000
476.61	73.296
476.96	73.449
477.31	73.628
477.66	73.658
478.01	74.392
478.36	72.499
478.70	74.907
479.05	73.878
479.40	72.902
479.75	72.885
480.10	73.214
480.45	72.727
480.79	74.975
481.14	75.715
481.49	74.734
481.84	72.584
482.19	72.636
482.53	73.390
482.88	72.283
483.23	73.286
483.58	73.636
483.92	74.439
484.27	73.416
484.62	73.391
484.97	73.266
485.31	73.344
485.66	71.802
486.01	71.710
486.36	72.036
486.70	74.035
487.05	72.805
487.40	72.783
487.75	72.347
488.09	71.093
488.44	72.057
488.79	71.843
489.13	72.347
489.48	72.349
489.83	75.066
490.17	72.921
490.52	75.408
490.87	74.873
491.22	74.591
491.56	74.306
491.91	74.714
492.26	75.377
492.60	75.880
492.95	74.346
493.30	74.369
493.64	73.625
493.99	74.665
494.34	74.571
494.68	74.485
495.03	74.474
495.37	76.106
495.72	75.933
496.07	75.504
496.41	75.405
496.76	75.662
497.11	75.742
497.45	75.048
497.80	74.837
498.14	75.049
498.49	75.439
498.84	74.272
499.18	75.634
499.53	74.866
499.87	74.759
500.22	74.608
500.56	75.238
500.91	75.419
501.26	75.158
501.60	75.108
501.95	76.087
502.29	75.248
502.64	74.493
502.98	75.276
503.33	73.872
503.67	74.569
504.02	74.746
504.36	74.020
504.71	74.823
505.06	74.089
505.40	76.198
505.75	75.610
506.09	75.329
506.44	74.987
506.78	76.016
507.13	74.150
507.47	75.430
507.82	76.252
508.16	75.440
508.51	75.167
508.85	75.155
509.19	76.033
509.54	75.106
509.88	75.957
510.23	74.948
510.57	75.820
510.92	76.316
511.26	73.791
511.61	75.324
511.95	74.623
512.30	76.745
512.64	74.736
512.98	74.917
513.33	74.574
513.67	75.154
514.02	75.056
514.36	75.180
514.70	74.590
515.05	76.444
515.39	76.182
515.74	76.440
516.08	74.755
516.42	74.164
516.77	76.892
517.11	76.373
517.46	77.033
517.80	75.632
518.14	75.664
518.49	75.912
518.83	75.846
519.17	75.370
519.52	76.460
519.86	75.687
520.20	75.672
520.55	75.323
520.89	75.141
521.23	74.603
521.58	75.047
521.92	76.631
522.26	75.365
522.61	73.701
522.95	75.367
523.29	75.486
523.64	73.954
523.98	75.939
524.32	75.487
524.66	73.665
525.01	74.952
525.35	74.613
525.69	73.845
526.04	75.914
526.38	75.557
526.72	73.308
527.06	76.302
527.41	74.719
527.75	73.993
528.09	74.719
528.43	75.213
528.78	72.927
529.12	74.584
529.46	74.678
529.80	74.887
530.15	72.891
530.49	74.127
530.83	73.739
531.17	74.545
531.51	73.007
531.86	73.074
532.20	75.371
532.54	74.265
532.88	73.518
533.22	74.465
533.57	74.804
533.91	71.473
534.25	73.036
534.59	72.642
534.93	72.433
535.27	72.813
535.62	72.954
535.96	72.657
536.30	71.793
536.64	72.377
536.98	76.766
537.32	72.633
537.66	73.320
538.01	75.670
538.35	73.919
538.69	73.463
539.03	72.986
539.37	73.253
539.71	73.916
540.05	73.269
540.39	72.576
540.73	72.633
541.07	74.249
541.42	72.316
541.76	70.831
542.10	72.721
542.44	71.619
542.78	72.388
543.12	72.641
543.46	70.959
543.80	72.107
544.14	71.726
544.48	71.850
544.82	71.922
545.16	72.233
545.50	72.207
545.84	73.435
546.18	72.677
546.52	72.119
546.86	72.650
547.20	71.519
547.54	70.592
547.88	72.130
548.22	71.298
548.56	73.013
548.90	71.024
549.24	71.409
549.58	70.289
549.92	72.226
550.26	72.254
550.60	70.982
550.94	70.949
551.28	72.235
551.62	71.196
551.96	71.708
552.30	70.383
552.64	71.780
552.98	72.810
553.32	70.779
553.66	73.324
554.00	71.500
554.34	72.491
554.68	70.468
555.02	70.912
555.36	71.100
555.69	71.060
556.03	70.596
556.37	70.057
556.71	72.513
557.05	72.506
557.39	70.304
557.73	70.168
558.07	71.289
558.41	71.204
558.75	69.202
559.08	71.206
559.42	71.669
559.76	70.475
560.10	71.066
560.44	71.965
560.78	70.424
561.12	71.636
561.45	70.753
561.79	70.662
562.13	69.565
562.47	69.188
562.81	70.651
563.15	69.209
563.48	69.178
563.82	70.723
564.16	68.966
564.50	69.086
564.84	69.511
565.17	70.690
565.51	69.948
565.85	69.574
566.19	69.895
566.52	69.863
566.86	69.785
567.20	70.036
567.54	70.230
567.88	67.337
568.21	69.351
568.55	69.459
568.89	67.893
569.23	67.006
569.56	68.012
569.90	67.585
570.24	67.118
570.57	66.116
570.91	65.488
571.25	65.175
571.59	65.782
571.92	64.137
572.26	64.679
572.60	64.164
572.93	63.890
573.27	64.390
573.61	63.321
573.95	64.529
574.28	63.283
574.62	64.464
574.96	63.086
575.29	63.389
575.63	62.994
575.97	63.511
576.30	63.223
576.64	63.551
576.98	63.250
577.31	63.147
577.65	63.677
577.98	62.881
578.32	63.229
578.66	63.166
578.99	62.861
579.33	62.924
579.67	62.592
580.00	62.773
580.34	62.696
580.67	62.932
581.01	62.637
581.35	62.487
581.68	62.729
582.02	62.879
582.35	62.663
582.69	63.111
583.02	63.815
583.36	62.846
583.70	62.007
584.03	62.850
584.37	62.300
584.70	62.913
585.04	62.962
585.37	61.360
585.71	62.313
586.04	62.943
586.38	62.711
586.72	62.514
587.05	63.495
587.39	62.879
587.72	62.888
588.06	62.669
588.39	63.429
588.73	62.613
589.06	63.811
589.40	64.033
589.73	62.288
590.07	63.620
590.40	63.616
590.73	64.134
591.07	61.967
591.40	64.081
591.74	64.553
592.07	65.270
592.41	64.671
592.74	64.835
593.08	64.161
593.41	63.224
593.75	62.282
594.08	64.306
594.41	64.030
594.75	63.458
595.08	63.759
595.42	64.342
595.75	62.955
596.09	63.795
596.42	64.116
596.75	63.648
597.09	64.025
597.42	63.204
597.75	63.685
598.09	64.257
598.42	63.500
598.76	63.621
599.09	63.615
599.42	63.706
599.76	63.231
600.09	64.351
600.42	64.071
600.76	63.879
601.09	63.046
601.42	63.197
601.76	63.318
602.09	62.904
602.42	63.374
602.76	63.025
603.09	63.024
603.42	63.699
603.76	63.542
604.09	63.556
604.42	63.947
604.76	63.716
605.09	64.286
605.42	64.583
605.75	64.338
606.09	62.931
606.42	63.385
606.75	63.117
607.09	63.564
607.42	63.864
607.75	63.576
608.08	63.940
608.42	64.286
608.75	62.944
609.08	63.517
609.41	64.425
609.75	62.457
610.08	64.559
610.41	63.614
610.74	64.120
611.07	64.503
611.41	62.632
611.74	64.422
612.07	64.662
612.40	64.072
612.73	63.328
613.07	64.942
613.40	63.930
613.73	63.324
614.06	64.141
614.39	65.051
614.72	64.022
615.06	63.750
615.39	62.941
615.72	64.422
616.05	63.777
616.38	65.467
616.71	63.784
617.05	64.294
617.38	65.387
617.71	65.172
618.04	64.224
618.37	65.031
618.70	66.558
619.03	64.590
619.36	65.751
619.69	65.973
620.03	64.945
620.36	65.682
620.69	66.691
621.02	64.155
621.35	66.290
621.68	66.803
622.01	68.042
622.34	66.770
622.67	65.078
623.00	65.876
623.33	66.567
623.66	66.396
623.99	66.391
624.32	65.699
624.65	66.519
624.99	67.214
625.32	66.018
625.65	67.754
625.98	65.336
626.31	67.700
626.64	67.113
626.97	64.041
627.30	65.532
627.63	65.889
627.96	67.189
628.29	68.107
628.62	65.234
628.95	69.685
629.28	66.353
629.61	67.517
629.94	68.998
630.26	67.396
630.59	70.854
630.92	66.667
631.25	67.238
631.58	69.206
631.91	67.447
632.24	69.778
632.57	70.000
632.90	70.230
633.23	68.341
633.56	67.953
633.89	70.283
634.22	69.067
634.55	68.990
634.88	68.803
635.20	68.165
635.53	69.975
635.86	68.892
636.19	68.987
636.52	66.069
636.85	67.028
637.18	68.125
637.51	69.145
637.83	71.238
638.16	68.684
638.49	71.310
638.82	68.597
639.15	69.261
639.48	67.704
639.81	73.167
640.13	69.054
640.46	71.083
640.79	68.768
641.12	70.381
641.45	68.867
641.77	70.210
642.10	70.393
642.43	68.437
642.76	71.811
643.09	73.968
643.41	72.857
643.74	72.496
644.07	73.011
644.40	71.799
644.73	70.462
645.05	69.950
645.38	71.523
645.71	74.399
646.04	74.118
646.36	74.346
646.69	69.723
647.02	70.397
647.35	71.661
647.67	74.270
648.00	71.880
648.33	70.995
648.66	67.258
648.98	73.248
649.31	69.385
649.64	70.000
649.96	70.487
650.29	69.016
650.62	72.633
650.94	68.128
651.27	70.017
651.60	68.512
651.92	71.747
652.25	69.950
652.58	71.550
652.90	69.502
653.23	70.323
653.56	71.405
653.88	69.508
654.21	72.819
654.54	70.100
654.86	67.897
655.19	66.762
655.52	65.457
655.84	62.889
656.17	67.555
656.49	88.990
656.82	90.918
657.15	68.480
657.47	50.672
657.80	39.438
658.13	44.576
658.45	58.714
658.78	58.429
659.10	57.111
659.43	56.522
659.75	57.081
660.08	56.979
660.41	58.145
660.73	61.056
661.06	65.942
661.38	70.000
661.71	70.363
662.03	74.395
662.36	69.723
662.68	72.785
663.01	73.673
663.33	73.696
663.66	74.249
663.98	74.777
664.31	74.497
664.63	75.885
664.96	72.017
665.28	75.488
665.61	73.573
665.93	71.193
666.26	71.255
666.58	71.102
666.91	72.829
667.23	73.465
667.56	72.562
667.88	75.113
668.21	72.120
668.53	74.299
668.86	73.672
669.18	74.886
669.50	72.430
669.83	74.696
670.15	74.888
670.48	71.262
670.80	71.982
671.13	74.041
671.45	70.045
671.77	73.662
672.10	69.822
672.42	70.664
672.75	69.636
673.07	69.009
673.39	70.128
673.72	70.669
674.04	74.098
674.37	66.186
674.69	71.721
675.01	69.149
675.34	71.150
675.66	72.570
675.98	72.687
676.31	75.113
676.63	72.414
676.95	71.018
677.28	70.766
677.60	70.814
677.92	73.128
678.25	74.398
678.57	71.193
678.89	70.860
679.22	70.650
679.54	72.387
679.86	68.800
680.18	70.532
680.51	68.156
680.83	67.238
681.15	68.979
681.48	70.994
681.80	67.944
682.12	69.819
682.44	68.566
682.77	69.048
683.09	68.763
683.41	71.460
683.73	71.005
684.06	70.538
684.38	68.828
684.70	74.280
685.02	68.701
685.34	70.370
685.67	71.591
685.99	69.187
686.31	71.454
686.63	66.135
686.96	68.022
687.28	68.208
687.60	70.312
687.92	70.428
688.24	69.291
688.56	68.337
688.89	68.590
689.21	69.365
689.53	74.253
689.85	72.160
690.17	70.179
690.49	68.360
690.82	72.530
691.14	70.991
691.46	71.619
691.78	69.163
692.10	70.127
692.42	71.333
692.74	68.026
693.06	69.663
693.39	68.680
693.71	70.203
694.03	69.546
694.35	69.526
694.67	69.504
694.99	70.077
695.31	73.469
695.63	69.898
695.95	71.464
696.27	70.574
696.59	73.529
696.91	73.876
697.23	72.917
697.56	71.154
697.88	72.973
698.20	66.381
698.52	67.489
698.84	71.117
699.16	67.143
699.48	68.500
699.80	71.178
700.12	70.277
700.44	73.184
700.76	73.761
701.08	67.733
701.40	73.716
701.72	74.691
702.04	76.282
702.36	69.277
702.68	75.449
703.00	73.333
703.32	67.049
703.64	75.294
703.96	71.221
704.28	73.373
704.60	69.620
704.91	68.571
705.23	74.757
705.55	72.635
705.87	71.672
706.19	69.792
706.51	74.653
706.83	78.361
707.15	76.115
707.47	73.003
707.79	71.649
708.11	70.738
708.43	73.067
708.74	67.273
709.06	71.031
709.38	66.954
709.70	72.500
710.02	75.460
710.34	68.647
710.66	69.841
710.98	74.448
711.29	69.355
711.61	67.412
711.93	70.492
712.25	74.419
712.57	70.383
712.89	74.101
713.20	71.821
713.52	74.254
713.84	72.954
714.16	68.852
714.48	68.571
714.80	69.231
715.11	68.588
715.43	74.699
715.75	72.586
716.07	71.475
716.39	72.575
716.70	71.777
717.02	70.741
717.34	67.939
717.66	73.859
717.97	75.410
718.29	70.588
718.61	76.984
718.93	65.950
719.24	71.324
719.56	66.415
719.88	69.818
720.20	72.285
720.51	73.684
720.83	72.289
721.15	76.639
721.46	76.078
721.78	71.264
722.10	74.800
722.42	69.421
722.73	74.104
723.05	75.904
723.37	73.725
723.68	72.065
724.00	72.764
724.32	69.136
724.63	73.859
724.95	67.769
725.27	69.737
725.58	77.586
725.90	71.429
726.22	67.897
726.53	74.144
726.85	70.588
727.16	69.549
727.48	70.000
727.80	69.672
728.11	74.370
728.43	75.620
728.74	73.437
729.06	71.212
729.38	71.206
729.69	69.685
730.01	72.047
730.32	76.096
730.64	72.161
730.96	77.239
731.27	70.000
731.59	66.559
731.90	71.472
732.22	70.859
732.53	73.179
732.85	69.799
733.16	72.464
733.48	67.944
733.80	71.886
734.11	71.379
734.43	71.088
734.74	70.326
735.06	74.922
735.37	69.113
735.69	66.452
736.00	66.667
736.32	69.868
736.63	67.586
736.95	69.565
737.26	66.225
737.58	72.662
737.89	73.477
738.21	69.173
738.52	71.154
738.83	73.828
739.15	69.658
739.46	73.387
739.78	68.182
740.09	65.035
740.41	70.629
740.72	70.438
741.04	70.635
741.35	69.264
741.66	79.167
741.98	71.429
742.29	69.953
742.61	79.679
742.92	72.897
743.23	67.982
743.55	72.072
743.86	71.556
744.18	65.714
744.49	77.340
744.80	71.066
745.12	80.928
745.43	76.382
745.74	72.816
746.06	74.146
746.37	71.366
746.68	75.124
747.00	71.204
747.31	75.962
747.62	65.438
747.94	69.432
748.25	82.791
748.56	74.286
748.88	77.174
749.19	68.545
749.50	82.843
749.82	78.222
750.13	72.247
750.44	71.951
750.75	71.200
751.07	66.786
751.38	65.314
751.69	63.740
752.01	71.154
752.32	72.374
752.63	70.385
752.94	69.048
753.26	76.957
753.57	75.446
753.88	72.414
754.19	67.220
754.51	71.094
754.82	72.332
755.13	68.313
755.44	72.727
755.75	75.720
756.07	69.478
756.38	74.609
756.69	70.397
757.00	70.732
757.31	71.477
757.63	72.586
757.94	66.763
758.25	74.128
758.56	69.811
758.87	67.614
759.18	71.667
759.50	71.530
759.81	71.533
760.12	68.919
760.43	71.845
760.74	71.875
761.05	66.011
761.36	68.862
761.67	65.680
761.99	66.452
762.30	69.203
762.61	68.302
762.92	73.991
763.23	72.038
763.54	68.000
763.85	72.574
764.16	68.163
764.47	73.729
764.78	67.041
765.10	75.899
765.41	65.161
765.72	66.667
766.03	68.551
766.34	75.188
766.65	72.470
766.96	74.500
767.27	73.958
767.58	70.930
767.89	75.484
768.20	82.209
768.51	72.131
768.82	76.757
769.13	74.000
769.44	68.421
769.75	74.026
770.06	69.725
770.37	66.667
770.68	73.437
770.99	70.297
771.30	68.932
771.61	72.222
771.92	66.667
772.23	70.093
772.54	69.681
772.85	72.189
773.16	77.439
773.47	77.711
773.78	67.582
774.09	76.667
774.39	73.457
774.70	65.772
775.01	72.464
775.32	67.164
775.63	75.207
775.94	75.940
776.25	70.000
776.56	68.852
776.87	78.761
777.18	77.876
777.48	70.909
777.79	68.696
778.10	79.817
778.41	65.254
778.72	76.033
779.03	81.343
779.34	81.955
779.65	73.203
779.95	72.464
780.26	59.864
780.57	75.862
780.88	79.630
781.19	72.727
781.50	72.000
781.80	70.588
782.11	69.231
782.42	65.663
782.73	70.803
783.04	68.919
783.34	80.303
783.65	67.442
783.96	72.358
784.27	73.504
784.57	69.919
784.88	69.919
785.19	74.561
785.50	72.165
785.81	80.000
786.11	72.549
786.42	57.273
786.73	73.874
787.04	74.257
787.34	67.619
787.65	71.429
787.96	70.588
788.26	77.477
788.57	66.129
788.88	63.281
789.19	64.103
789.49	68.067
789.80	66.667
790.11	73.451
790.41	64.646
790.72	70.755
791.03	75.000
791.33	81.579
791.64	67.742
791.95	78.667
792.25	84.286
792.56	70.732
792.87	65.306
793.17	53.947
793.48	59.459
793.79	70.423
794.09	64.557
794.40	75.532
794.70	72.897
795.01	57.895
795.32	73.636
795.62	70.536
795.93	65.979
796.23	70.330
796.54	72.632
796.85	69.863
797.15	52.778
797.46	67.123
797.76	63.380
798.07	67.500
798.37	89.706
798.68	84.286
798.99	60.000
799.29	81.579
799.60	75.000
799.90	44.444
800.21	65.625
800.51	63.492
800.82	86.885
801.12	92.982
801.43	66.197
801.73	44.068
802.04	75.410
802.34	70.909
802.65	48.077
802.95	79.630
803.26	75.000
803.56	78.846
803.87	102.632
804.17	74.194
804.48	61.538
804.78	64.103
805.09	58.140
805.39	62.500
805.70	62.264
806.00	87.719
806.30	79.730
806.61	75.000
806.91	74.074
807.22	68.000
807.52	67.164
807.83	75.806
808.13	66.667
808.43	74.545
808.74	83.333
809.04	75.472
809.35	68.493
809.65	77.193
809.95	64.706
810.26	72.549
810.56	52.000
810.86	59.184
811.17	82.857
811.47	53.846
811.77	116.129
812.08	36.842
812.38	73.810
812.69	73.913
812.99	83.871
813.29	52.381
813.59	55.556
813.90	68.085
814.20	58.140
814.50	62.500
814.81	50.000
815.11	51.220
815.41	106.667
815.72	94.286
816.02	52.778
816.32	94.872
816.62	59.459
816.93	52.941
817.23	60.870
817.53	79.412
817.84	50.000
818.14	40.625
818.44	68.966
818.74	70.968
819.04	51.852
819.35	103.333
819.65	40.000
819.95	73.333
820.25	28.000
820.56	71.053
820.86	62.500
821.16	61.702
821.46	65.517
821.76	48.718
822.07	42.500
822.37	60.465
822.67	73.333
822.97	43.243
823.27	32.432
823.57	76.000
823.88	54.054
824.18	100.000
824.48	57.692
824.78	23.077
825.08	69.565
825.38	66.667
825.69	91.667
825.99	60.000
826.29	64.865
826.59	64.706
826.89	92.000
827.19	40.000
827.49	57.895
827.79	53.125
828.09	73.333
828.39	65.217
828.70	24.138
829.00	48.276
829.30	63.889
829.60	87.500
829.90	100.000
830.20	46.154
830.50	57.143
830.80	42.857
831.10	58.974
831.40	66.667
831.70	52.941
832.00	75.000
832.30	89.474
832.60	18.750
832.90	33.333
833.20	5.882
833.50	26.667
833.80	133.333
834.10	35.000
834.40	83.333
834.70	77.778
835.00	38.462
835.30	41.667
835.60	82.759
835.90	33.333
836.20	36.364
836.50	100.000
836.80	8.571
837.10	77.143
837.40	70.588
837.70	27.273
838.00	25.000
838.30	62.500
838.60	61.905
838.90	85.000
839.19	65.217
839.49	56.522
839.79	50.000
840.09	4.348
840.39	18.182
840.69	-31.250
840.99	31.579
841.29	25.000
841.59	35.714
841.88	33.333
842.18	45.833
842.48	11.765
842.78	27.586
843.08	35.714
843.38	92.308
843.68	-33.333
843.97	-7.692
844.27	9.091
844.57	220.000
844.87	40.000
845.17	20.000
845.47	14.286
845.76	-22.222
846.06	0.000
846.36	-250.000
846.66	-40.000
846.96	42.105
847.25	37.500
847.55	-75.000
847.85	66.667
848.15	-30.000
848.44	96.154
848.74	84.211
849.04	-200.000
849.34	11.111
849.63	-57.895
849.93	0.000
850.23	5.000
850.53	42.857
850.82	16.000
851.12	78.947
851.42	200.000
851.71	78.571
852.01	-50.000
852.31	-5.882
852.61	66.667
852.90	4.762
853.20	116.667
853.50	33.333
853.79	63.158
854.09	0.000
854.39	64.286
854.68	47.826
854.98	-58.333
855.28	51.724
855.57	0.000
855.87	-15.000
856.17	-6.667
856.46	48.276
856.76	53.333
857.05	58.824
857.35	-15.385
857.65	72.727
857.94	40.741
858.24	42.857
858.53	14.286
858.83	16.667
859.13	100.000
859.42	61.905
859.72	-87.500
860.01	33.333
860.31	137.500
860.60	-140.000
860.90	77.778
861.20	62.500
861.49	42.857
861.79	82.353
862.08	200.000
862.38	-50.000
862.67	-53.846
862.97	88.235
863.26	95.000
863.56	-5.882
863.85	-0.000
864.15	0.000
864.44	15.385
864.74	50.000
865.03	12.500
865.33	-66.667
865.62	47.059
865.92	-475.000
866.21	-78.571
866.51	-58.333
866.80	-400.000
867.10	500.000
867.39	23.529
867.69	17.391
867.98	214.286
868.27	-200.000
868.57	25.000
868.86	-63.636
869.16	23.529
869.45	116.667
869.75	-100.000
870.04	-200.000
870.33	0.000
870.63	-40.000
870.92	-11.111
871.22	75.000
871.51	-90.909
871.80	25.000
872.10	130.000
>>>>>End Processed Spectral Data<<<<<
