SpectraSuite Data File
++++++++++++++++++++++++++++++++++++
Date: Sat May 16 11:18:58 PDT 2015
User: schluterlab
Dark Spectrum Present: Yes
Reference Spectrum Present: Yes
Number of Sampled Component Spectra: 1
Spectrometers: USB2E3373
Integration Time (usec): 3000 (USB2E3373)
Spectra Averaged: 3 (USB2E3373)
Boxcar Smoothing: 0 (USB2E3373)
Correct for Electrical Dark: No (USB2E3373)
Strobe/Lamp Enabled: No (USB2E3373)
Correct for Detector Non-linearity: No (USB2E3373)
Correct for Stray Light: No (USB2E3373)
Number of Pixels in Processed Spectrum: 2048
>>>>>Begin Processed Spectral Data<<<<<
178.53	0.000
178.91	86.667
179.29	-200.000
179.67	-800.000
180.04	-76.923
180.42	1900.000
180.80	275.000
181.18	500.000
181.56	0.000
181.94	1100.000
182.31	300.000
182.69	-46.154
183.07	33.333
183.45	1100.000
183.83	400.000
184.20	-128.571
184.58	-125.000
184.96	-350.000
185.34	137.500
185.72	-675.000
186.09	316.667
186.47	-225.000
186.85	-225.000
187.23	-100.000
187.61	-200.000
187.98	-262.500
188.36	-50.000
188.74	-37.500
189.12	1200.000
189.49	442.857
189.87	-58.333
190.25	400.000
190.63	14.286
191.00	-122.222
191.38	520.000
191.76	6.667
192.14	320.000
192.51	0.000
192.89	-166.667
193.27	0.000
193.65	0.000
194.02	-100.000
194.40	300.000
194.78	10.000
195.15	-1200.000
195.53	-118.182
195.91	-350.000
196.29	180.000
196.66	-766.667
197.04	2200.000
197.42	-175.000
197.79	20.000
198.17	-266.667
198.55	-600.000
198.92	-1500.000
199.30	212.500
199.68	-700.000
200.05	-33.333
200.43	-122.222
200.81	-600.000
201.18	-158.333
201.56	214.286
201.94	33.333
202.31	4.545
202.69	-90.000
203.07	-190.000
203.44	433.333
203.82	-233.333
204.19	-500.000
204.57	-275.000
204.95	-1600.000
205.32	-12.500
205.70	700.000
206.08	-1700.000
206.45	-16.667
206.83	-650.000
207.20	-300.000
207.58	-766.667
207.96	-200.000
208.33	-150.000
208.71	-111.111
209.08	240.000
209.46	-228.571
209.84	500.000
210.21	0.000
210.59	40.000
210.96	400.000
211.34	-300.000
211.71	-33.333
212.09	175.000
212.46	1350.000
212.84	-1500.000
213.22	366.667
213.59	133.333
213.97	77.778
214.34	140.000
214.72	-20.000
215.09	-233.333
215.47	-16.667
215.84	-20.000
216.22	-10.000
216.59	6.667
216.97	-200.000
217.34	850.000
217.72	-185.714
218.09	-183.333
218.47	-357.143
218.84	85.714
219.22	-214.286
219.59	0.000
219.97	285.714
220.34	500.000
220.72	150.000
221.09	-23.077
221.47	0.000
221.84	100.000
222.22	-550.000
222.59	200.000
222.97	-225.000
223.34	-600.000
223.72	-266.667
224.09	-7.143
224.46	-225.000
224.84	0.000
225.21	-114.286
225.59	-145.455
225.96	-25.000
226.34	-228.571
226.71	-77.778
227.08	-10.000
227.46	1600.000
227.83	-200.000
228.21	-237.500
228.58	650.000
228.95	-50.000
229.33	-1100.000
229.70	-200.000
230.08	-850.000
230.45	-16.667
230.82	-33.333
231.20	-800.000
231.57	-350.000
231.95	1300.000
232.32	-9.524
232.69	-133.333
233.07	-228.571
233.44	-750.000
233.81	-53.333
234.19	-66.667
234.56	-100.000
234.93	25.000
235.31	-300.000
235.68	-85.714
236.05	0.000
236.43	-63.636
236.80	-16.129
237.17	-33.333
237.55	-23.810
237.92	-104.545
238.29	-25.714
238.67	2.941
239.04	-8.333
239.41	-41.935
239.79	-64.103
240.16	-16.667
240.53	-25.455
240.91	-5.128
241.28	1.818
241.65	9.231
242.02	-13.115
242.40	-9.836
242.77	-7.576
243.14	-25.424
243.51	-24.286
243.89	-25.316
244.26	-3.371
244.63	-4.211
245.00	-6.316
245.38	2.542
245.75	-7.965
246.12	-12.000
246.49	-7.087
246.87	-4.065
247.24	-8.475
247.61	-14.407
247.98	-9.859
248.36	-9.091
248.73	2.532
249.10	-3.822
249.47	-4.094
249.84	-1.705
250.22	-7.738
250.59	0.565
250.96	-2.618
251.33	0.948
251.70	-1.923
252.08	0.948
252.45	-3.318
252.82	-1.905
253.19	-0.851
253.56	-3.629
253.94	-0.422
254.31	-3.433
254.68	-0.407
255.05	-1.210
255.42	0.000
255.79	-1.434
256.16	0.000
256.54	-1.103
256.91	-3.409
257.28	-5.128
257.65	-2.837
258.02	3.459
258.39	1.003
258.76	-2.365
259.14	-1.543
259.51	-2.295
259.88	1.829
260.25	1.242
260.62	-3.859
260.99	-1.187
261.36	-0.915
261.73	-1.734
262.10	1.944
262.47	0.000
262.85	2.286
263.22	-0.287
263.59	-3.692
263.96	-1.449
264.33	2.981
264.70	-0.276
265.07	-2.747
265.44	-2.584
265.81	-1.292
266.18	-3.797
266.55	0.245
266.92	-0.252
267.29	0.969
267.66	-2.716
268.03	2.899
268.40	1.408
268.77	0.000
269.14	-0.696
269.51	2.069
269.88	-2.294
270.25	-0.932
270.62	0.458
270.99	0.676
271.36	-0.466
271.73	-1.121
272.10	0.229
272.47	-2.667
272.84	3.556
273.21	1.147
273.58	1.099
273.95	0.877
274.32	-1.131
274.69	1.969
275.06	1.431
275.43	-2.679
275.80	2.037
276.17	-1.674
276.54	3.666
276.91	-0.412
277.28	0.609
277.65	-0.826
278.02	-0.835
278.39	2.554
278.76	2.390
279.13	-0.198
279.50	1.590
279.87	0.423
280.23	2.227
280.60	-1.392
280.97	0.194
281.34	0.967
281.71	1.538
282.08	1.411
282.45	-3.259
282.82	0.194
283.19	1.455
283.56	0.366
283.92	2.120
284.29	2.230
284.66	0.719
285.03	2.674
285.40	-0.369
285.77	1.930
286.14	1.444
286.51	-0.178
286.87	1.452
287.24	0.512
287.61	2.645
287.98	-0.867
288.35	-0.661
288.72	0.679
289.08	-0.339
289.45	-0.337
289.82	-0.173
290.19	0.985
290.56	0.826
290.93	0.795
291.29	-0.648
291.66	1.932
292.03	2.355
292.40	1.355
292.77	1.398
293.13	1.626
293.50	1.783
293.87	1.380
294.24	1.961
294.60	-0.303
294.97	2.276
295.34	1.333
295.71	2.083
296.08	-0.922
296.44	1.288
296.81	1.994
297.18	0.986
297.55	2.260
297.91	2.092
298.28	0.548
298.65	-0.139
299.02	3.743
299.38	2.273
299.75	2.853
300.12	1.795
300.48	3.069
300.85	1.835
301.22	3.881
301.59	2.471
301.95	3.904
302.32	2.999
302.69	2.570
303.05	1.709
303.42	2.375
303.79	2.990
304.15	2.251
304.52	3.967
304.89	4.014
305.25	2.076
305.62	3.055
305.99	4.594
306.35	5.105
306.72	1.936
307.09	3.859
307.45	3.292
307.82	3.464
308.19	4.251
308.55	3.268
308.92	3.222
309.29	2.270
309.65	3.606
310.02	4.212
310.38	2.595
310.75	4.406
311.12	5.269
311.48	4.489
311.85	5.252
312.22	4.840
312.58	4.374
312.95	5.097
313.31	5.694
313.68	6.030
314.05	6.528
314.41	4.427
314.78	4.296
315.14	5.923
315.51	5.066
315.87	6.292
316.24	5.831
316.61	6.526
316.97	7.264
317.34	6.744
317.70	6.215
318.07	7.369
318.43	5.993
318.80	7.230
319.16	5.347
319.53	7.519
319.89	6.021
320.26	6.373
320.62	6.731
320.99	6.965
321.35	6.995
321.72	7.984
322.08	9.298
322.45	7.525
322.81	9.030
323.18	8.453
323.54	9.150
323.91	8.804
324.27	8.650
324.64	10.146
325.00	10.558
325.37	10.045
325.73	12.073
326.10	10.009
326.46	12.084
326.83	11.319
327.19	13.845
327.56	12.606
327.92	12.319
328.29	13.420
328.65	12.909
329.01	13.958
329.38	14.451
329.74	15.385
330.11	15.322
330.47	15.531
330.84	17.140
331.20	17.058
331.56	17.229
331.93	17.229
332.29	18.721
332.66	16.506
333.02	17.557
333.38	18.548
333.75	18.255
334.11	16.978
334.48	17.564
334.84	19.423
335.20	18.262
335.57	18.231
335.93	19.696
336.29	17.981
336.66	17.621
337.02	19.099
337.38	18.182
337.75	17.998
338.11	18.784
338.47	19.751
338.84	19.238
339.20	19.244
339.56	20.143
339.93	18.342
340.29	17.272
340.65	17.220
341.02	18.297
341.38	18.450
341.74	18.544
342.11	17.833
342.47	18.541
342.83	17.968
343.20	18.446
343.56	16.735
343.92	19.282
344.28	19.008
344.65	18.812
345.01	17.731
345.37	19.020
345.73	18.003
346.10	17.334
346.46	17.384
346.82	17.803
347.19	16.763
347.55	18.058
347.91	18.740
348.27	18.138
348.63	18.982
349.00	18.457
349.36	16.784
349.72	18.551
350.08	17.642
350.45	17.021
350.81	18.312
351.17	18.328
351.53	17.025
351.89	16.896
352.26	17.519
352.62	17.819
352.98	17.880
353.34	19.185
353.70	17.529
354.07	18.096
354.43	18.103
354.79	16.957
355.15	18.211
355.51	17.812
355.87	16.680
356.24	17.554
356.60	18.453
356.96	17.475
357.32	17.181
357.68	17.471
358.04	18.553
358.40	17.092
358.77	17.311
359.13	16.144
359.49	17.158
359.85	18.140
360.21	17.960
360.57	18.373
360.93	18.519
361.29	18.610
361.66	17.454
362.02	17.678
362.38	18.122
362.74	18.242
363.10	16.786
363.46	18.519
363.82	17.347
364.18	16.860
364.54	18.728
364.90	17.540
365.26	16.690
365.62	18.959
365.98	18.706
366.35	17.817
366.71	17.829
367.07	17.078
367.43	18.600
367.79	17.595
368.15	17.354
368.51	18.462
368.87	19.780
369.23	18.246
369.59	19.028
369.95	18.675
370.31	18.776
370.67	17.064
371.03	18.076
371.39	17.610
371.75	18.026
372.11	18.006
372.47	18.004
372.83	19.054
373.19	18.857
373.55	18.438
373.91	18.563
374.27	18.001
374.63	18.565
374.99	18.846
375.35	18.035
375.71	19.379
376.07	19.439
376.42	17.748
376.78	19.216
377.14	18.780
377.50	19.213
377.86	18.466
378.22	18.781
378.58	19.580
378.94	18.557
379.30	18.403
379.66	19.065
380.02	19.608
380.38	18.369
380.74	18.640
381.09	20.035
381.45	18.854
381.81	19.056
382.17	19.048
382.53	18.845
382.89	19.498
383.25	19.326
383.61	18.632
383.97	18.861
384.32	19.212
384.68	19.710
385.04	18.357
385.40	19.233
385.76	20.366
386.12	19.675
386.48	19.988
386.83	19.018
387.19	19.964
387.55	19.443
387.91	20.213
388.27	17.732
388.62	18.990
388.98	19.685
389.34	19.706
389.70	19.549
390.06	18.894
390.42	19.551
390.77	19.243
391.13	20.745
391.49	19.464
391.85	18.828
392.20	19.903
392.56	17.899
392.92	19.624
393.28	19.920
393.64	19.062
393.99	19.815
394.35	19.526
394.71	19.209
395.07	19.021
395.42	18.832
395.78	18.856
396.14	20.062
396.50	19.388
396.85	19.247
397.21	19.684
397.57	19.149
397.92	19.262
398.28	19.778
398.64	19.334
399.00	20.506
399.35	18.940
399.71	19.977
400.07	19.403
400.42	19.100
400.78	19.261
401.14	19.222
401.49	19.045
401.85	19.402
402.21	19.309
402.57	18.993
402.92	19.383
403.28	18.995
403.63	19.353
403.99	19.329
404.35	17.995
404.70	19.075
405.06	18.973
405.42	19.127
405.77	17.704
406.13	18.285
406.49	18.933
406.84	18.476
407.20	18.610
407.55	18.493
407.91	17.746
408.27	18.015
408.62	17.498
408.98	18.253
409.34	18.282
409.69	18.399
410.05	18.617
410.40	18.394
410.76	19.028
411.11	18.392
411.47	18.286
411.83	17.971
412.18	18.193
412.54	17.572
412.89	18.834
413.25	17.710
413.60	18.044
413.96	17.067
414.31	18.410
414.67	18.413
415.03	17.529
415.38	18.803
415.74	18.557
416.09	18.670
416.45	17.460
416.80	17.490
417.16	18.007
417.51	19.238
417.87	18.447
418.22	18.268
418.58	18.228
418.93	19.191
419.29	18.507
419.64	17.462
420.00	19.137
420.35	18.805
420.71	18.727
421.06	18.580
421.42	17.799
421.77	18.481
422.12	19.194
422.48	18.332
422.83	18.565
423.19	18.374
423.54	18.501
423.90	18.450
424.25	18.609
424.61	19.059
424.96	19.427
425.31	19.061
425.67	19.427
426.02	18.933
426.38	19.480
426.73	19.696
427.09	19.118
427.44	18.920
427.79	18.779
428.15	19.569
428.50	19.296
428.85	19.544
429.21	18.926
429.56	19.219
429.92	19.188
430.27	19.242
430.62	19.540
430.98	19.132
431.33	18.303
431.68	19.946
432.04	19.978
432.39	20.456
432.74	19.245
433.10	20.259
433.45	18.710
433.80	19.373
434.16	19.344
434.51	19.726
434.86	19.684
435.22	20.323
435.57	20.196
435.92	19.754
436.28	20.356
436.63	19.220
436.98	20.332
437.34	20.260
437.69	19.837
438.04	20.023
438.39	20.217
438.75	20.838
439.10	19.822
439.45	20.036
439.81	20.482
440.16	19.591
440.51	20.941
440.86	20.127
441.22	19.016
441.57	20.000
441.92	20.307
442.27	19.751
442.63	20.333
442.98	19.357
443.33	19.769
443.68	19.750
444.03	20.187
444.39	20.901
444.74	20.595
445.09	20.285
445.44	19.809
445.79	20.041
446.15	20.044
446.50	20.305
446.85	19.856
447.20	20.174
447.55	20.276
447.91	20.887
448.26	19.777
448.61	19.751
448.96	20.560
449.31	19.391
449.66	20.149
450.02	19.612
450.37	19.884
450.72	20.282
451.07	20.805
451.42	20.012
451.77	20.347
452.12	20.441
452.47	20.970
452.83	20.326
453.18	21.189
453.53	20.896
453.88	21.053
454.23	19.770
454.58	21.504
454.93	20.781
455.28	20.841
455.63	20.823
455.98	21.024
456.34	19.695
456.69	21.513
457.04	20.959
457.39	20.634
457.74	20.555
458.09	20.650
458.44	20.497
458.79	20.908
459.14	20.936
459.49	20.545
459.84	20.742
460.19	20.286
460.54	20.327
460.89	20.291
461.24	21.433
461.59	21.278
461.94	21.515
462.29	21.084
462.64	21.278
462.99	20.817
463.34	20.324
463.69	20.674
464.04	20.562
464.39	20.609
464.74	20.981
465.09	20.024
465.44	20.023
465.79	21.376
466.14	21.001
466.49	21.128
466.84	21.008
467.19	20.761
467.54	20.570
467.89	22.195
468.24	21.081
468.59	21.174
468.94	20.322
469.29	20.923
469.64	20.283
469.99	20.662
470.34	21.109
470.68	22.166
471.03	21.198
471.38	20.694
471.73	21.608
472.08	21.218
472.43	20.592
472.78	20.600
473.13	20.345
473.48	20.549
473.83	20.533
474.17	21.210
474.52	21.419
474.87	21.037
475.22	20.413
475.57	19.889
475.92	20.518
476.27	21.029
476.61	20.394
476.96	21.185
477.31	20.291
477.66	21.029
478.01	21.448
478.36	20.377
478.70	20.448
479.05	21.201
479.40	20.259
479.75	21.152
480.10	20.635
480.45	20.309
480.79	20.385
481.14	21.676
481.49	20.571
481.84	20.342
482.19	20.831
482.53	21.165
482.88	21.215
483.23	20.986
483.58	21.323
483.92	22.169
484.27	20.027
484.62	20.864
484.97	20.070
485.31	20.128
485.66	19.693
486.01	19.430
486.36	20.309
486.70	20.604
487.05	20.117
487.40	20.646
487.75	20.298
488.09	20.167
488.44	20.974
488.79	20.835
489.13	20.084
489.48	21.248
489.83	21.135
490.17	20.853
490.52	21.422
490.87	20.370
491.22	20.738
491.56	20.139
491.91	21.088
492.26	21.321
492.60	20.742
492.95	21.180
493.30	20.629
493.64	20.357
493.99	20.841
494.34	20.857
494.68	21.489
495.03	20.411
495.37	20.796
495.72	21.611
496.07	21.023
496.41	21.538
496.76	21.005
497.11	20.961
497.45	20.738
497.80	21.011
498.14	21.169
498.49	20.542
498.84	20.291
499.18	20.712
499.53	20.604
499.87	20.367
500.22	21.176
500.56	21.211
500.91	21.281
501.26	20.524
501.60	20.655
501.95	20.966
502.29	20.359
502.64	21.216
502.98	20.412
503.33	21.006
503.67	20.498
504.02	20.956
504.36	21.471
504.71	20.517
505.06	21.218
505.40	21.208
505.75	19.868
506.09	20.829
506.44	21.153
506.78	20.572
507.13	21.164
507.47	21.805
507.82	20.805
508.16	20.881
508.51	20.247
508.85	20.859
509.19	21.193
509.54	21.617
509.88	21.277
510.23	20.283
510.57	20.899
510.92	21.267
511.26	21.053
511.61	20.032
511.95	21.121
512.30	20.671
512.64	20.089
512.98	20.737
513.33	21.307
513.67	20.826
514.02	20.638
514.36	21.496
514.70	20.770
515.05	20.926
515.39	21.223
515.74	22.106
516.08	21.326
516.42	21.133
516.77	21.086
517.11	20.995
517.46	21.352
517.80	21.179
518.14	20.894
518.49	21.160
518.83	20.297
519.17	21.196
519.52	20.474
519.86	22.222
520.20	20.477
520.55	21.046
520.89	19.912
521.23	22.161
521.58	21.191
521.92	21.659
522.26	21.778
522.61	20.659
522.95	20.740
523.29	21.442
523.64	20.550
523.98	21.197
524.32	21.307
524.66	20.435
525.01	21.387
525.35	21.392
525.69	20.494
526.04	20.627
526.38	20.369
526.72	21.137
527.06	21.224
527.41	20.396
527.75	20.396
528.09	21.244
528.43	20.721
528.78	20.729
529.12	21.639
529.46	20.232
529.80	20.529
530.15	21.571
530.49	20.569
530.83	22.397
531.17	20.943
531.51	19.558
531.86	20.540
532.20	21.727
532.54	20.254
532.88	19.697
533.22	20.789
533.57	21.540
533.91	20.100
534.25	21.559
534.59	20.175
534.93	20.348
535.27	20.831
535.62	21.292
535.96	21.008
536.30	19.764
536.64	21.182
536.98	20.127
537.32	20.525
537.66	20.231
538.01	20.481
538.35	21.419
538.69	19.586
539.03	20.447
539.37	19.627
539.71	20.147
540.05	19.808
540.39	20.776
540.73	21.216
541.07	21.038
541.42	20.594
541.76	18.472
542.10	21.269
542.44	20.120
542.78	20.896
543.12	21.453
543.46	19.795
543.80	19.331
544.14	19.476
544.48	20.735
544.82	21.245
545.16	20.121
545.50	19.246
545.84	21.071
546.18	20.388
546.52	20.982
546.86	20.940
547.20	20.323
547.54	19.904
547.88	20.571
548.22	18.742
548.56	19.572
548.90	20.418
549.24	19.552
549.58	20.042
549.92	20.283
550.26	20.520
550.60	20.341
550.94	20.000
551.28	19.639
551.62	20.532
551.96	21.780
552.30	20.418
552.64	19.916
552.98	20.883
553.32	20.851
553.66	21.702
554.00	20.256
554.34	19.567
554.68	20.395
555.02	20.695
555.36	20.633
555.69	20.201
556.03	20.491
556.37	20.270
556.71	20.974
557.05	20.251
557.39	19.525
557.73	20.569
558.07	20.271
558.41	19.521
558.75	19.696
559.08	19.300
559.42	20.291
559.76	20.245
560.10	20.656
560.44	20.809
560.78	19.415
561.12	20.014
561.45	21.027
561.79	20.279
562.13	19.705
562.47	20.938
562.81	19.024
563.15	19.874
563.48	19.903
563.82	19.405
564.16	20.757
564.50	19.086
564.84	20.106
565.17	19.164
565.51	19.492
565.85	20.014
566.19	20.619
566.52	19.961
566.86	19.216
567.20	19.068
567.54	20.083
567.88	18.537
568.21	19.128
568.55	19.247
568.89	19.085
569.23	18.649
569.56	17.991
569.90	19.197
570.24	19.128
570.57	18.453
570.91	18.769
571.25	18.742
571.59	18.764
571.92	18.155
572.26	18.364
572.60	18.647
572.93	17.993
573.27	18.171
573.61	18.067
573.95	18.707
574.28	18.099
574.62	18.175
574.96	17.996
575.29	18.039
575.63	18.158
575.97	17.584
576.30	17.978
576.64	18.016
576.98	18.313
577.31	18.069
577.65	18.050
577.98	17.604
578.32	17.702
578.66	17.776
578.99	17.769
579.33	17.935
579.67	17.804
580.00	17.808
580.34	17.637
580.67	17.946
581.01	17.573
581.35	17.652
581.68	17.271
582.02	17.900
582.35	17.432
582.69	18.132
583.02	18.391
583.36	18.184
583.70	17.870
584.03	19.019
584.37	17.781
584.70	17.949
585.04	17.797
585.37	17.160
585.71	17.973
586.04	17.680
586.38	18.043
586.72	18.010
587.05	17.899
587.39	18.164
587.72	18.105
588.06	17.992
588.39	17.801
588.73	18.014
589.06	19.054
589.40	18.276
589.73	18.732
590.07	18.026
590.40	18.155
590.73	17.953
591.07	18.443
591.40	19.194
591.74	18.853
592.07	18.243
592.41	18.429
592.74	18.563
593.08	17.817
593.41	17.993
593.75	17.540
594.08	18.332
594.41	18.743
594.75	18.196
595.08	17.932
595.42	18.208
595.75	17.751
596.09	18.277
596.42	18.126
596.75	17.982
597.09	18.166
597.42	18.682
597.75	18.556
598.09	18.120
598.42	18.559
598.76	17.899
599.09	17.482
599.42	18.185
599.76	17.856
600.09	18.473
600.42	18.002
600.76	18.456
601.09	18.002
601.42	17.570
601.76	17.835
602.09	17.464
602.42	17.778
602.76	17.865
603.09	17.540
603.42	17.969
603.76	18.428
604.09	18.182
604.42	18.027
604.76	17.968
605.09	17.450
605.42	17.642
605.75	17.119
606.09	18.016
606.42	18.098
606.75	17.132
607.09	18.218
607.42	17.826
607.75	17.572
608.08	18.934
608.42	18.685
608.75	17.944
609.08	17.876
609.41	18.934
609.75	17.991
610.08	17.696
610.41	18.361
610.74	18.714
611.07	19.067
611.41	17.448
611.74	19.486
612.07	17.991
612.40	17.857
612.73	17.663
613.07	17.942
613.40	18.719
613.73	18.256
614.06	17.024
614.39	18.038
614.72	17.821
615.06	17.609
615.39	17.906
615.72	18.197
616.05	18.001
616.38	18.920
616.71	18.378
617.05	18.758
617.38	18.576
617.71	18.120
618.04	18.882
618.37	18.491
618.70	18.318
619.03	18.077
619.36	18.887
619.69	17.875
620.03	18.044
620.36	17.440
620.69	18.162
621.02	18.569
621.35	18.871
621.68	19.180
622.01	18.528
622.34	18.401
622.67	18.359
623.00	19.281
623.33	18.731
623.66	17.947
623.99	18.496
624.32	17.932
624.65	17.881
624.99	17.700
625.32	17.740
625.65	18.104
625.98	17.684
626.31	18.923
626.64	19.749
626.97	17.979
627.30	18.894
627.63	18.307
627.96	18.973
628.29	18.474
628.62	17.096
628.95	18.996
629.28	17.669
629.61	18.449
629.94	19.282
630.26	21.173
630.59	20.201
630.92	18.418
631.25	20.161
631.58	18.730
631.91	16.489
632.24	18.667
632.57	20.111
632.90	18.506
633.23	19.743
633.56	18.480
633.89	18.986
634.22	18.300
634.55	17.909
634.88	18.259
635.20	18.727
635.53	20.483
635.86	16.877
636.19	18.559
636.52	19.713
636.85	19.013
637.18	17.250
637.51	19.455
637.83	19.707
638.16	18.158
638.49	18.345
638.82	18.404
639.15	21.401
639.48	18.936
639.81	21.024
640.13	18.108
640.46	20.228
640.79	19.048
641.12	19.182
641.45	18.938
641.77	19.910
642.10	19.940
642.43	19.272
642.76	19.685
643.09	20.476
643.41	19.841
643.74	21.622
644.07	20.281
644.40	20.097
644.73	21.122
645.05	18.531
645.38	19.702
645.71	19.759
646.04	20.840
646.36	19.197
646.69	20.415
647.02	21.480
647.35	19.134
647.67	19.343
648.00	21.090
648.33	21.585
648.66	19.032
648.98	18.949
649.31	19.692
649.64	21.719
649.96	18.995
650.29	18.689
650.62	19.449
650.94	18.718
651.27	18.718
651.60	19.031
651.92	21.747
652.25	18.865
652.58	16.865
652.90	17.817
653.23	17.903
653.56	19.398
653.88	17.705
654.21	22.315
654.54	20.100
654.86	18.459
655.19	18.052
655.52	17.989
655.84	15.766
656.17	17.212
656.49	23.596
656.82	24.174
657.15	18.279
657.47	13.706
657.80	10.506
658.13	12.159
658.45	15.579
658.78	16.142
659.10	16.189
659.43	15.952
659.75	16.208
660.08	16.562
660.41	15.559
660.73	15.182
661.06	19.275
661.38	19.643
661.71	18.547
662.03	17.540
662.36	18.124
662.68	17.932
663.01	21.868
663.33	17.234
663.66	21.459
663.98	16.071
664.31	15.660
664.63	19.690
664.96	19.306
665.28	16.269
665.61	15.011
665.93	20.370
666.26	19.433
666.58	22.661
666.91	19.154
667.23	20.833
667.56	18.141
667.88	20.814
668.21	15.899
668.53	19.626
668.86	21.247
669.18	19.406
669.50	16.589
669.83	21.168
670.15	18.834
670.48	16.355
670.80	15.945
671.13	14.447
671.45	16.667
671.77	18.844
672.10	19.527
672.42	16.974
672.75	18.182
673.07	16.577
673.39	18.033
673.72	19.094
674.04	17.410
674.37	18.557
674.69	19.672
675.01	18.085
675.34	17.354
675.66	19.006
675.98	16.300
676.31	22.172
676.63	20.000
676.95	16.814
677.28	15.777
677.60	19.231
677.92	21.366
678.25	18.381
678.57	19.753
678.89	18.658
679.22	20.545
679.54	21.302
679.86	16.600
680.18	16.540
680.51	15.270
680.83	17.524
681.15	17.726
681.48	20.487
681.80	18.952
682.12	17.907
682.44	17.289
682.77	17.100
683.09	19.078
683.41	19.469
683.73	16.210
684.06	19.785
684.38	16.946
684.70	17.695
685.02	16.142
685.34	18.129
685.67	15.152
685.99	14.556
686.31	17.415
686.63	16.844
686.96	16.636
687.28	18.497
687.60	18.359
687.92	15.370
688.24	15.945
688.56	18.036
688.89	14.957
689.21	17.505
689.53	14.943
689.85	18.263
690.17	16.592
690.49	18.476
690.82	15.663
691.14	17.217
691.46	19.956
691.78	16.740
692.10	17.161
692.42	14.667
692.74	17.811
693.06	17.528
693.39	16.555
693.71	17.156
694.03	18.359
694.35	16.253
694.67	19.622
694.99	15.345
695.31	20.153
695.63	14.796
695.95	16.625
696.27	16.958
696.59	16.310
696.91	16.011
697.23	16.667
697.56	12.740
697.88	19.144
698.20	16.488
698.52	15.247
698.84	16.748
699.16	17.381
699.48	14.000
699.80	17.794
700.12	19.395
700.44	13.687
700.76	12.828
701.08	15.116
701.40	14.502
701.72	19.444
702.04	18.910
702.36	20.482
702.68	12.874
703.00	15.652
703.32	14.613
703.64	17.647
703.96	16.860
704.28	16.864
704.60	16.456
704.91	12.698
705.23	19.094
705.55	16.554
705.87	15.358
706.19	12.500
706.51	17.014
706.83	19.016
707.15	17.197
707.47	14.601
707.79	16.237
708.11	17.557
708.43	16.958
708.74	15.844
709.06	15.320
709.38	17.529
709.70	15.312
710.02	18.405
710.34	13.201
710.66	15.873
710.98	20.189
711.29	10.323
711.61	13.738
711.93	14.426
712.25	16.279
712.57	15.679
712.89	17.626
713.20	19.931
713.52	13.433
713.84	17.438
714.16	16.066
714.48	13.968
714.80	14.769
715.11	13.256
715.43	17.169
715.75	16.199
716.07	13.115
716.39	16.388
716.70	17.770
717.02	15.556
717.34	16.412
717.66	18.257
717.97	16.393
718.29	9.664
718.61	16.667
718.93	16.487
719.24	11.397
719.56	10.566
719.88	12.727
720.20	13.483
720.51	20.301
720.83	16.064
721.15	15.984
721.46	21.569
721.78	14.943
722.10	15.600
722.42	11.157
722.73	17.131
723.05	18.876
723.37	16.471
723.68	12.551
724.00	14.634
724.32	16.049
724.63	17.012
724.95	20.661
725.27	14.474
725.58	12.931
725.90	19.444
726.22	19.188
726.53	17.490
726.85	10.588
727.16	15.789
727.48	12.308
727.80	11.885
728.11	13.025
728.43	14.876
728.74	14.453
729.06	15.152
729.38	12.062
729.69	13.780
730.01	17.323
730.32	14.343
730.64	15.018
730.96	14.925
731.27	10.357
731.59	17.685
731.90	14.417
732.22	15.337
732.53	16.225
732.85	12.416
733.16	12.319
733.48	13.240
733.80	11.744
734.11	15.862
734.43	12.245
734.74	12.760
735.06	11.599
735.37	14.373
735.69	10.968
736.00	14.815
736.32	14.901
736.63	11.379
736.95	11.232
737.26	19.205
737.58	10.791
737.89	16.129
738.21	15.414
738.52	15.385
738.83	15.234
739.15	12.393
739.46	15.726
739.78	10.490
740.09	15.734
740.41	14.685
740.72	17.883
741.04	12.698
741.35	9.091
741.66	17.130
741.98	10.000
742.29	21.127
742.61	12.834
742.92	18.224
743.23	14.912
743.55	13.964
743.86	19.556
744.18	12.381
744.49	19.704
744.80	14.213
745.12	15.464
745.43	13.568
745.74	15.534
746.06	12.683
746.37	16.740
746.68	14.428
747.00	17.801
747.31	11.538
747.62	14.747
747.94	14.847
748.25	14.419
748.56	16.190
748.88	9.783
749.19	15.493
749.50	23.039
749.82	15.111
750.13	20.264
750.44	16.667
750.75	8.000
751.07	16.071
751.38	11.808
751.69	9.160
752.01	13.462
752.32	13.230
752.63	11.154
752.94	8.730
753.26	12.609
753.57	17.411
753.88	14.224
754.19	10.373
754.51	15.234
754.82	16.601
755.13	13.992
755.44	9.504
755.75	13.169
756.07	4.418
756.38	11.719
756.69	16.606
757.00	13.240
757.31	13.423
757.63	19.315
757.94	12.428
758.25	10.756
758.56	15.094
758.87	14.773
759.18	13.333
759.50	15.658
759.81	9.124
760.12	6.419
760.43	17.152
760.74	15.937
761.05	15.730
761.36	14.072
761.67	11.243
761.99	14.194
762.30	14.493
762.61	15.472
762.92	13.901
763.23	14.692
763.54	10.667
763.85	20.253
764.16	11.837
764.47	16.102
764.78	12.360
765.10	15.108
765.41	12.258
765.72	16.352
766.03	2.827
766.34	11.278
766.65	10.526
766.96	11.000
767.27	13.542
767.58	15.698
767.89	6.452
768.20	13.497
768.51	13.115
768.82	14.595
769.13	11.500
769.44	12.281
769.75	16.017
770.06	10.550
770.37	15.023
770.68	10.417
770.99	12.376
771.30	11.650
771.61	12.037
771.92	12.121
772.23	14.486
772.54	13.298
772.85	5.325
773.16	18.293
773.47	12.651
773.78	20.330
774.09	10.667
774.39	11.728
774.70	8.054
775.01	7.971
775.32	7.463
775.63	14.050
775.94	17.293
776.25	15.000
776.56	9.016
776.87	8.850
777.18	13.274
777.48	6.364
777.79	2.609
778.10	0.000
778.41	4.237
778.72	9.091
779.03	5.224
779.34	17.293
779.65	13.725
779.95	10.870
780.26	6.803
780.57	0.862
780.88	14.815
781.19	0.000
781.50	3.200
781.80	6.536
782.11	7.692
782.42	7.831
782.73	0.000
783.04	10.135
783.34	9.848
783.65	7.752
783.96	7.317
784.27	6.838
784.57	7.317
784.88	4.065
785.19	15.789
785.50	0.000
785.81	8.571
786.11	-7.843
786.42	4.545
786.73	7.207
787.04	9.901
787.34	9.524
787.65	-2.857
787.96	16.667
788.26	5.405
788.57	13.710
788.88	9.375
789.19	7.692
789.49	1.681
789.80	7.692
790.11	6.195
790.41	8.081
790.72	12.264
791.03	-6.944
791.33	7.895
791.64	12.903
791.95	16.000
792.25	11.429
792.56	-3.659
792.87	18.367
793.17	0.000
793.48	-12.162
793.79	0.000
794.09	5.063
794.40	13.830
794.70	8.411
795.01	0.000
795.32	3.636
795.62	8.036
795.93	2.062
796.23	4.396
796.54	17.895
796.85	5.479
797.15	-2.778
797.46	4.110
797.76	7.042
798.07	11.250
798.37	8.824
798.68	12.857
798.99	-1.429
799.29	9.211
799.60	-16.667
799.90	-5.556
800.21	-7.813
800.51	-7.937
800.82	4.918
801.12	5.263
801.43	-4.225
801.73	-1.695
802.04	21.311
802.34	-10.909
802.65	-15.385
802.95	-3.704
803.26	-37.500
803.56	0.000
803.87	-28.947
804.17	3.226
804.48	-1.538
804.78	-10.256
805.09	-16.279
805.39	-15.625
805.70	-15.094
806.00	31.579
806.30	8.108
806.61	2.941
806.91	9.877
807.22	24.000
807.52	-10.448
807.83	-6.452
808.13	-14.286
808.43	-16.364
808.74	-7.576
809.04	5.660
809.35	15.068
809.65	15.789
809.95	4.412
810.26	3.922
810.56	-8.000
810.86	-16.327
811.17	-5.714
811.47	9.615
811.77	-9.677
812.08	-34.211
812.38	19.048
812.69	-8.696
812.99	-22.581
813.29	21.429
813.59	-100.000
813.90	-21.277
814.20	-48.837
814.50	6.250
814.81	3.333
815.11	-7.317
815.41	-53.333
815.72	22.857
816.02	-25.000
816.32	12.821
816.62	-16.216
816.93	-23.529
817.23	-10.870
817.53	11.765
817.84	-2.941
818.14	-9.375
818.44	-65.517
818.74	-32.258
819.04	-29.630
819.35	3.333
819.65	-60.000
819.95	3.333
820.25	-20.000
820.56	-31.579
820.86	-30.000
821.16	2.128
821.46	20.690
821.76	-38.462
822.07	-35.000
822.37	16.279
822.67	-23.333
822.97	-8.108
823.27	-8.108
823.57	24.000
823.88	13.514
824.18	-66.667
824.48	-11.538
824.78	-153.846
825.08	-4.348
825.38	-58.333
825.69	-12.500
825.99	-50.000
826.29	-24.324
826.59	-29.412
826.89	-8.000
827.19	8.571
827.49	-5.263
827.79	-40.625
828.09	3.333
828.39	-8.696
828.70	-58.621
829.00	-34.483
829.30	-5.556
829.60	21.875
829.90	-5.556
830.20	-15.385
830.50	-33.333
830.80	0.000
831.10	23.077
831.40	-66.667
831.70	5.882
832.00	-37.500
832.30	-26.316
832.60	-62.500
832.90	-133.333
833.20	-35.294
833.50	-60.000
833.80	-73.333
834.10	5.000
834.40	8.333
834.70	38.889
835.00	0.000
835.30	-37.500
835.60	-24.138
835.90	-66.667
836.20	-127.273
836.50	-175.000
836.80	-5.714
837.10	45.714
837.40	-35.294
837.70	-54.545
838.00	-25.000
838.30	-37.500
838.60	-33.333
838.90	0.000
839.19	-43.478
839.49	-17.391
839.79	-66.667
840.09	-39.130
840.39	-22.727
840.69	-62.500
840.99	-21.053
841.29	-31.250
841.59	-92.857
841.88	-72.222
842.18	-25.000
842.48	-76.471
842.78	10.345
843.08	-64.286
843.38	-61.538
843.68	-155.556
843.97	-46.154
844.27	-154.545
844.57	-320.000
844.87	20.000
845.17	-180.000
845.47	-100.000
845.76	-188.889
846.06	0.000
846.36	-100.000
846.66	-80.000
846.96	-57.895
847.25	-29.167
847.55	-116.667
847.85	-33.333
848.15	-110.000
848.44	61.538
848.74	-15.789
849.04	800.000
849.34	-133.333
849.63	-52.632
849.93	0.000
850.23	-40.000
850.53	-47.619
850.82	-28.000
851.12	-10.526
851.42	-650.000
851.71	-35.714
852.01	-100.000
852.31	-64.706
852.61	-46.667
852.90	-33.333
853.20	-316.667
853.50	-94.444
853.79	-31.579
854.09	-173.333
854.39	-25.000
854.68	-13.043
854.98	-191.667
855.28	0.000
855.57	-43.750
855.87	-10.000
856.17	-80.000
856.46	-24.138
856.76	-66.667
857.05	-70.588
857.35	-130.769
857.65	-109.091
857.94	0.000
858.24	-85.714
858.53	-57.143
858.83	-25.000
859.13	-155.556
859.42	23.810
859.72	-175.000
860.01	-466.667
860.31	-100.000
860.60	-300.000
860.90	-188.889
861.20	-50.000
861.49	-128.571
861.79	-17.647
862.08	-1000.000
862.38	-100.000
862.67	-69.231
862.97	29.412
863.26	30.000
863.56	0.000
863.85	333.333
864.15	-60.000
864.44	-84.615
864.74	25.000
865.03	-275.000
865.33	-183.333
865.62	-29.412
865.92	-375.000
866.21	-85.714
866.51	-100.000
866.80	-800.000
867.10	-100.000
867.39	0.000
867.69	-17.391
867.98	0.000
868.27	-340.000
868.57	-87.500
868.86	-109.091
869.16	5.882
869.45	-133.333
869.75	-42.857
870.04	200.000
870.33	8.333
870.63	40.000
870.92	-111.111
871.22	-50.000
871.51	-45.455
871.80	-25.000
872.10	90.000
>>>>>End Processed Spectral Data<<<<<
