SpectraSuite Data File
++++++++++++++++++++++++++++++++++++
Date: Sat May 16 11:09:29 PDT 2015
User: schluterlab
Dark Spectrum Present: Yes
Reference Spectrum Present: Yes
Number of Sampled Component Spectra: 1
Spectrometers: USB2E3373
Integration Time (usec): 3000 (USB2E3373)
Spectra Averaged: 3 (USB2E3373)
Boxcar Smoothing: 0 (USB2E3373)
Correct for Electrical Dark: No (USB2E3373)
Strobe/Lamp Enabled: No (USB2E3373)
Correct for Detector Non-linearity: No (USB2E3373)
Correct for Stray Light: No (USB2E3373)
Number of Pixels in Processed Spectrum: 2048
>>>>>Begin Processed Spectral Data<<<<<
178.53	0.000
178.91	40.000
179.29	200.000
179.67	1100.000
180.04	23.077
180.42	700.000
180.80	100.000
181.18	75.000
181.56	87.500
181.94	-800.000
182.31	125.000
182.69	7.692
183.07	-366.667
183.45	500.000
183.83	266.667
184.20	-100.000
184.58	37.500
184.96	25.000
185.34	50.000
185.72	-100.000
186.09	33.333
186.47	-87.500
186.85	25.000
187.23	75.000
187.61	25.000
187.98	-262.500
188.36	137.500
188.74	-62.500
189.12	-0.000
189.49	128.571
189.87	-25.000
190.25	-25.000
190.63	0.000
191.00	55.556
191.38	220.000
191.76	66.667
192.14	400.000
192.51	-200.000
192.89	-133.333
193.27	0.000
193.65	-88.889
194.02	-85.714
194.40	-0.000
194.78	-20.000
195.15	200.000
195.53	36.364
195.91	-116.667
196.29	-0.000
196.66	-233.333
197.04	1200.000
197.42	25.000
197.79	66.667
198.17	-100.000
198.55	50.000
198.92	-200.000
199.30	112.500
199.68	150.000
200.05	22.222
200.43	66.667
200.81	600.000
201.18	0.000
201.56	57.143
201.94	26.667
202.31	63.636
202.69	40.000
203.07	40.000
203.44	166.667
203.82	-66.667
204.19	-75.000
204.57	75.000
204.95	-400.000
205.32	50.000
205.70	600.000
206.08	-500.000
206.45	38.889
206.83	-400.000
207.20	350.000
207.58	-300.000
207.96	-33.333
208.33	-12.500
208.71	-11.111
209.08	110.000
209.46	28.571
209.84	350.000
210.21	0.000
210.59	75.000
210.96	200.000
211.34	-266.667
211.71	-66.667
212.09	100.000
212.46	950.000
212.84	-1700.000
213.22	33.333
213.59	8.333
213.97	11.111
214.34	-30.000
214.72	-20.000
215.09	-33.333
215.47	33.333
215.84	0.000
216.22	-30.000
216.59	53.333
216.97	0.000
217.34	250.000
217.72	100.000
218.09	50.000
218.47	-157.143
218.84	100.000
219.22	114.286
219.59	0.000
219.97	200.000
220.34	225.000
220.72	137.500
221.09	84.615
221.47	0.000
221.84	33.333
222.22	150.000
222.59	400.000
222.97	-25.000
223.34	200.000
223.72	0.000
224.09	-85.714
224.46	-25.000
224.84	28.571
225.21	-28.571
225.59	9.091
225.96	-100.000
226.34	0.000
226.71	-55.556
227.08	10.000
227.46	1000.000
227.83	0.000
228.21	-62.500
228.58	150.000
228.95	6.250
229.33	-600.000
229.70	-20.000
230.08	-200.000
230.45	58.333
230.82	0.000
231.20	200.000
231.57	-350.000
231.95	1700.000
232.32	38.095
232.69	-22.222
233.07	-128.571
233.44	-600.000
233.81	-106.667
234.19	-33.333
234.56	-56.250
234.93	31.250
235.31	-14.286
235.68	-35.714
236.05	23.529
236.43	-4.545
236.80	12.903
237.17	16.667
237.55	-14.286
237.92	-27.273
238.29	2.857
238.67	20.588
239.04	5.556
239.41	6.452
239.79	0.000
240.16	16.667
240.53	-1.818
240.91	12.821
241.28	3.636
241.65	29.231
242.02	16.393
242.40	11.475
242.77	12.121
243.14	5.085
243.51	5.714
243.89	-5.063
244.26	4.494
244.63	16.842
245.00	11.579
245.38	16.949
245.75	15.929
246.12	11.200
246.49	7.874
246.87	10.569
247.24	8.475
247.61	13.559
247.98	18.310
248.36	11.189
248.73	15.823
249.10	9.554
249.47	13.450
249.84	17.614
250.22	4.167
250.59	12.994
250.96	13.613
251.33	17.062
251.70	13.462
252.08	14.692
252.45	11.848
252.82	6.190
253.19	10.638
253.56	9.677
253.94	9.283
254.31	11.588
254.68	13.008
255.05	7.661
255.42	10.317
255.79	15.412
256.16	12.549
256.54	11.765
256.91	11.364
257.28	10.989
257.65	14.539
258.02	13.836
258.39	11.706
258.76	13.851
259.14	11.728
259.51	14.754
259.88	10.976
260.25	16.149
260.62	10.611
260.99	11.869
261.36	11.280
261.73	10.405
262.10	14.167
262.47	8.547
262.85	15.714
263.22	13.181
263.59	10.769
263.96	15.652
264.33	13.008
264.70	14.641
265.07	10.714
265.44	16.796
265.81	12.920
266.18	11.899
266.55	12.500
266.92	13.602
267.29	13.317
267.66	13.827
268.03	14.734
268.40	11.972
268.77	11.084
269.14	14.385
269.51	13.333
269.88	10.550
270.25	8.858
270.62	10.755
270.99	13.514
271.36	13.753
271.73	12.780
272.10	10.297
272.47	12.667
272.84	14.889
273.21	11.697
273.58	13.187
273.95	13.377
274.32	10.407
274.69	12.035
275.06	12.883
275.43	12.500
275.80	14.868
276.17	12.343
276.54	13.646
276.91	10.082
277.28	13.185
277.65	10.331
278.02	12.735
278.39	11.984
278.76	12.749
279.13	14.032
279.50	11.531
279.87	13.742
280.23	11.336
280.60	12.922
280.97	12.039
281.34	11.992
281.71	12.885
282.08	11.694
282.45	11.405
282.82	10.465
283.19	11.455
283.56	14.652
283.92	12.367
284.29	11.524
284.66	13.489
285.03	15.152
285.40	14.945
285.77	12.982
286.14	12.816
286.51	11.545
286.87	11.434
287.24	12.287
287.61	12.397
287.98	11.612
288.35	10.579
288.72	10.017
289.08	9.661
289.45	11.448
289.82	10.900
290.19	13.300
290.56	9.917
290.93	9.698
291.29	9.400
291.66	11.272
292.03	11.617
292.40	11.145
292.77	10.404
293.13	12.846
293.50	12.481
293.87	11.656
294.24	10.106
294.60	10.152
294.97	11.533
295.34	10.519
295.71	11.607
296.08	8.756
296.44	8.727
296.81	9.117
297.18	9.155
297.55	9.746
297.91	10.879
298.28	9.178
298.65	9.066
299.02	11.631
299.38	9.893
299.75	9.103
300.12	10.000
300.48	9.079
300.85	8.650
301.22	9.832
301.59	8.843
301.95	9.446
302.32	7.692
302.69	9.792
303.05	9.402
303.42	8.500
303.79	9.569
304.15	9.123
304.52	10.268
304.89	8.264
305.25	8.181
305.62	7.521
305.99	9.423
306.35	9.767
306.72	9.453
307.09	9.875
307.45	8.967
307.82	8.380
308.19	9.284
308.55	7.843
308.92	9.452
309.29	8.973
309.65	7.741
310.02	8.855
310.38	8.108
310.75	7.070
311.12	9.607
311.48	9.395
311.85	8.342
312.22	8.445
312.58	9.969
312.95	8.869
313.31	9.291
313.68	10.251
314.05	10.188
314.41	6.439
314.78	7.293
315.14	8.095
315.51	8.004
315.87	8.712
316.24	9.621
316.61	9.117
316.97	9.453
317.34	8.767
317.70	9.462
318.07	9.515
318.43	8.989
318.80	9.390
319.16	7.505
319.53	8.459
319.89	7.432
320.26	8.431
320.62	8.558
320.99	9.254
321.35	6.995
321.72	7.984
322.08	9.693
322.45	8.416
322.81	9.222
323.18	7.781
323.54	8.780
323.91	8.063
324.27	8.365
324.64	8.592
325.00	9.075
325.37	8.688
325.73	9.449
326.10	8.149
326.46	8.757
326.83	8.511
327.19	8.757
327.56	9.881
327.92	8.411
328.29	9.264
328.65	6.727
329.01	8.922
329.38	8.653
329.74	9.615
330.11	8.522
330.47	8.174
330.84	9.716
331.20	8.574
331.56	8.751
331.93	8.171
332.29	8.493
332.66	9.570
333.02	7.511
333.38	8.961
333.75	9.795
334.11	7.911
334.48	7.767
334.84	9.449
335.20	8.333
335.57	9.928
335.93	8.774
336.29	7.883
336.66	8.106
337.02	7.928
337.38	7.487
337.75	8.077
338.11	8.050
338.47	8.541
338.84	8.076
339.20	8.436
339.56	8.913
339.93	9.259
340.29	8.326
340.65	9.091
341.02	8.347
341.38	7.498
341.74	9.314
342.11	9.044
342.47	8.069
342.83	7.809
343.20	8.113
343.56	8.082
343.92	8.848
344.28	8.579
344.65	8.168
345.01	8.067
345.37	8.306
345.73	7.692
346.10	8.177
346.46	8.205
346.82	7.779
347.19	8.463
347.55	8.748
347.91	7.559
348.27	6.285
348.63	8.562
349.00	8.831
349.36	6.557
349.72	9.156
350.08	7.618
350.45	6.541
350.81	8.678
351.17	7.235
351.53	7.239
351.89	7.922
352.26	8.372
352.62	9.063
352.98	7.911
353.34	8.313
353.70	7.568
354.07	8.655
354.43	8.933
354.79	7.448
355.15	6.949
355.51	7.109
355.87	7.747
356.24	6.672
356.60	8.219
356.96	8.545
357.32	7.443
357.68	8.046
358.04	7.929
358.40	8.198
358.77	6.723
359.13	8.340
359.49	8.390
359.85	7.012
360.21	8.295
360.57	7.154
360.93	8.741
361.29	8.072
361.66	6.250
362.02	6.879
362.38	7.337
362.74	7.399
363.10	7.245
363.46	7.977
363.82	8.163
364.18	7.887
364.54	8.506
364.90	7.757
365.26	7.703
365.62	7.555
365.98	7.824
366.35	7.958
366.71	7.893
367.07	7.551
367.43	8.922
367.79	8.110
368.15	6.828
368.51	8.182
368.87	8.860
369.23	7.509
369.59	7.986
369.95	8.316
370.31	8.158
370.67	7.086
371.03	7.580
371.39	7.143
371.75	7.868
372.11	7.030
372.47	7.592
372.83	8.206
373.19	6.500
373.55	8.867
373.91	7.610
374.27	7.734
374.63	7.798
374.99	7.093
375.35	7.604
375.71	8.103
376.07	6.982
376.42	6.755
376.78	8.301
377.14	7.119
377.50	7.866
377.86	7.802
378.22	7.789
378.58	7.288
378.94	7.645
379.30	8.410
379.66	7.347
380.02	7.487
380.38	7.251
380.74	7.737
381.09	8.377
381.45	8.353
381.81	6.957
382.17	7.268
382.53	6.930
382.89	7.835
383.25	7.646
383.61	7.960
383.97	7.777
384.32	7.071
384.68	7.981
385.04	7.307
385.40	7.425
385.76	7.256
386.12	7.058
386.48	7.921
386.83	7.055
387.19	7.591
387.55	7.329
387.91	7.410
388.27	6.876
388.62	7.632
388.98	7.268
389.34	6.977
389.70	7.004
390.06	7.831
390.42	7.500
390.77	7.003
391.13	7.329
391.49	7.299
391.85	7.918
392.20	8.434
392.56	6.659
392.92	7.473
393.28	7.635
393.64	7.276
393.99	6.462
394.35	7.117
394.71	7.721
395.07	7.721
395.42	6.853
395.78	7.291
396.14	8.100
396.50	7.095
396.85	6.663
397.21	7.655
397.57	7.538
397.92	7.728
398.28	7.333
398.64	7.496
399.00	8.034
399.35	7.215
399.71	7.956
400.07	8.000
400.42	7.421
400.78	6.738
401.14	7.485
401.49	7.429
401.85	6.894
402.21	7.390
402.57	7.767
402.92	7.426
403.28	7.659
403.63	7.190
403.99	7.520
404.35	6.884
404.70	7.782
405.06	8.074
405.42	6.888
405.77	7.127
406.13	7.439
406.49	7.190
406.84	7.379
407.20	7.597
407.55	7.346
407.91	6.412
408.27	8.395
408.62	7.517
408.98	8.429
409.34	7.130
409.69	7.372
410.05	7.156
410.40	7.603
410.76	7.528
411.11	7.107
411.47	7.673
411.83	7.274
412.18	7.673
412.54	6.772
412.89	8.688
413.25	6.375
413.60	6.865
413.96	7.209
414.31	7.768
414.67	7.302
415.03	8.215
415.38	8.003
415.74	7.152
416.09	7.033
416.45	6.878
416.80	7.867
417.16	7.774
417.51	8.142
417.87	7.184
418.22	6.827
418.58	7.510
418.93	8.032
419.29	7.905
419.64	7.161
420.00	7.837
420.35	7.156
420.71	6.903
421.06	7.988
421.42	6.616
421.77	7.761
422.12	7.890
422.48	7.483
422.83	8.144
423.19	6.626
423.54	7.089
423.90	7.114
424.25	6.391
424.61	8.082
424.96	7.607
425.31	6.875
425.67	7.106
426.02	6.598
426.38	7.623
426.73	7.832
427.09	7.843
427.44	7.841
427.79	6.512
428.15	8.139
428.50	7.977
428.85	7.674
429.21	7.471
429.56	7.396
429.92	7.014
430.27	7.627
430.62	7.158
430.98	7.214
431.33	7.150
431.68	7.882
432.04	7.443
432.39	7.635
432.74	7.314
433.10	7.710
433.45	7.542
433.80	7.503
434.16	7.630
434.51	6.959
434.86	8.612
435.22	8.408
435.57	7.344
435.92	7.855
436.28	7.834
436.63	6.614
436.98	7.216
437.34	7.679
437.69	7.118
438.04	6.920
438.39	7.641
438.75	6.752
439.10	8.384
439.45	6.759
439.81	7.169
440.16	7.893
440.51	7.471
440.86	7.056
441.22	6.357
441.57	6.789
441.92	7.468
442.27	7.468
442.63	7.672
442.98	6.603
443.33	7.688
443.68	7.400
444.03	7.171
444.39	7.000
444.74	7.874
445.09	7.785
445.44	7.597
445.79	7.139
446.15	7.722
446.50	6.859
446.85	7.440
447.20	7.303
447.55	7.956
447.91	7.692
448.26	7.374
448.61	7.583
448.96	7.507
449.31	7.441
449.66	7.384
450.02	7.313
450.37	7.246
450.72	7.175
451.07	7.165
451.42	7.001
451.77	7.421
452.12	7.867
452.47	7.620
452.83	7.280
453.18	7.147
453.53	7.774
453.88	8.373
454.23	6.953
454.58	7.520
454.93	7.305
455.28	6.820
455.63	7.924
455.98	7.771
456.34	7.306
456.69	7.567
457.04	7.191
457.39	7.117
457.74	7.561
458.09	7.715
458.44	6.813
458.79	7.175
459.14	8.214
459.49	7.578
459.84	7.251
460.19	7.876
460.54	6.836
460.89	7.287
461.24	7.347
461.59	7.562
461.94	7.957
462.29	7.207
462.64	7.378
462.99	7.898
463.34	6.887
463.69	7.506
464.04	7.557
464.39	7.945
464.74	8.333
465.09	6.915
465.44	7.783
465.79	7.896
466.14	7.940
466.49	7.830
466.84	7.623
467.19	7.357
467.54	7.152
467.89	7.337
468.24	8.135
468.59	6.808
468.94	7.846
469.29	7.018
469.64	6.873
469.99	8.373
470.34	7.548
470.68	7.922
471.03	7.020
471.38	7.153
471.73	6.364
472.08	6.560
472.43	7.079
472.78	7.933
473.13	6.826
473.48	7.722
473.83	7.382
474.17	6.815
474.52	8.184
474.87	7.867
475.22	6.549
475.57	7.222
475.92	7.829
476.27	7.029
476.61	7.493
476.96	7.267
477.31	8.235
477.66	6.973
478.01	7.726
478.36	7.543
478.70	8.062
479.05	7.788
479.40	7.979
479.75	7.390
480.10	7.540
480.45	6.625
480.79	7.502
481.14	7.827
481.49	7.309
481.84	7.397
482.19	8.132
482.53	8.097
482.88	7.309
483.23	7.793
483.58	8.002
483.92	7.740
484.27	7.000
484.62	7.559
484.97	7.755
485.31	7.264
485.66	7.199
486.01	7.316
486.36	7.672
486.70	7.293
487.05	7.103
487.40	7.185
487.75	7.103
488.09	7.412
488.44	7.713
488.79	7.924
489.13	7.113
489.48	7.749
489.83	7.511
490.17	7.444
490.52	8.107
490.87	7.390
491.22	7.333
491.56	8.333
491.91	7.824
492.26	7.594
492.60	7.279
492.95	7.758
493.30	7.670
493.64	7.616
493.99	7.170
494.34	7.381
494.68	7.818
495.03	7.600
495.37	6.981
495.72	7.220
496.07	7.743
496.41	8.013
496.76	7.443
497.11	8.008
497.45	7.759
497.80	6.753
498.14	7.367
498.49	6.730
498.84	7.670
499.18	7.164
499.53	6.965
499.87	7.625
500.22	7.745
500.56	8.154
500.91	7.291
501.26	8.103
501.60	6.837
501.95	7.488
502.29	7.416
502.64	8.345
502.98	7.427
503.33	7.942
503.67	7.040
504.02	7.967
504.36	7.647
504.71	7.295
505.06	7.089
505.40	8.184
505.75	6.911
506.09	7.685
506.44	7.569
506.78	7.777
507.13	7.827
507.47	8.033
507.82	7.744
508.16	8.238
508.51	7.522
508.85	7.298
509.19	7.012
509.54	8.140
509.88	8.404
510.23	8.071
510.57	7.672
510.92	8.378
511.26	8.134
511.61	7.235
511.95	7.381
512.30	7.916
512.64	7.290
512.98	7.536
513.33	7.853
513.67	8.375
514.02	7.494
514.36	8.033
514.70	7.583
515.05	7.947
515.39	7.382
515.74	8.319
516.08	7.954
516.42	7.932
516.77	8.203
517.11	7.609
517.46	8.433
517.80	8.243
518.14	7.126
518.49	8.010
518.83	7.478
519.17	8.289
519.52	7.403
519.86	8.244
520.20	8.068
520.55	7.077
520.89	7.702
521.23	8.242
521.58	7.586
521.92	8.613
522.26	7.937
522.61	7.921
522.95	7.403
523.29	8.401
523.64	7.933
523.98	7.320
524.32	8.108
524.66	7.826
525.01	8.028
525.35	7.539
525.69	7.742
526.04	8.094
526.38	8.339
526.72	7.344
527.06	7.812
527.41	7.129
527.75	7.063
528.09	7.809
528.43	7.148
528.78	8.354
529.12	8.067
529.46	7.732
529.80	8.134
530.15	8.435
530.49	8.409
530.83	8.710
531.17	8.148
531.51	7.636
531.86	8.756
532.20	8.772
532.54	8.222
532.88	8.762
533.22	8.021
533.57	8.159
533.91	7.990
534.25	8.297
534.59	7.933
534.93	8.152
535.27	8.181
535.62	8.568
535.96	7.628
536.30	7.395
536.64	8.433
536.98	8.263
537.32	7.256
537.66	8.418
538.01	7.560
538.35	9.527
538.69	8.222
539.03	7.786
539.37	7.651
539.71	8.339
540.05	8.156
540.39	8.380
540.73	7.740
541.07	8.675
541.42	7.225
541.76	7.110
542.10	8.710
542.44	7.861
542.78	8.005
543.12	8.282
543.46	6.986
543.80	7.358
544.14	7.790
544.48	8.071
544.82	8.390
545.16	7.914
545.50	7.066
545.84	7.510
546.18	8.530
546.52	7.752
546.86	8.262
547.20	8.861
547.54	7.576
547.88	7.697
548.22	6.750
548.56	7.548
548.90	8.491
549.24	7.148
549.58	7.551
549.92	8.269
550.26	8.092
550.60	8.393
550.94	8.248
551.28	7.675
551.62	8.493
551.96	8.611
552.30	8.293
552.64	8.234
552.98	8.479
553.32	7.431
553.66	8.580
554.00	7.889
554.34	8.231
554.68	7.749
555.02	9.407
555.36	8.339
555.69	8.166
556.03	7.860
556.37	8.393
556.71	8.017
557.05	8.130
557.39	7.498
557.73	8.534
558.07	7.460
558.41	7.928
558.75	7.757
559.08	5.992
559.42	8.270
559.76	8.819
560.10	8.576
560.44	9.176
560.78	8.142
561.12	7.591
561.45	8.767
561.79	8.223
562.13	7.714
562.47	7.773
562.81	7.214
563.15	7.978
563.48	8.155
563.82	8.181
564.16	8.384
564.50	7.325
564.84	8.532
565.17	7.626
565.51	8.018
565.85	8.249
566.19	8.300
566.52	7.958
566.86	7.206
567.20	9.080
567.54	9.096
567.88	7.705
568.21	7.383
568.55	7.953
568.89	8.151
569.23	8.052
569.56	8.029
569.90	8.497
570.24	7.854
570.57	7.592
570.91	7.752
571.25	8.074
571.59	7.836
571.92	8.006
572.26	8.149
572.60	7.943
572.93	7.680
573.27	7.927
573.61	7.972
573.95	8.196
574.28	7.872
574.62	8.236
574.96	7.851
575.29	7.800
575.63	8.150
575.97	7.929
576.30	8.139
576.64	7.937
576.98	8.012
577.31	7.747
577.65	8.007
577.98	8.262
578.32	7.893
578.66	7.959
578.99	7.977
579.33	7.988
579.67	8.116
580.00	7.812
580.34	7.583
580.67	8.164
581.01	7.541
581.35	7.806
581.68	7.939
582.02	7.986
582.35	7.838
582.69	8.010
583.02	8.179
583.36	7.888
583.70	7.962
584.03	7.732
584.37	8.363
584.70	7.904
585.04	7.848
585.37	7.924
585.71	8.079
586.04	7.903
586.38	7.752
586.72	8.089
587.05	7.647
587.39	7.949
587.72	7.964
588.06	7.758
588.39	7.946
588.73	7.936
589.06	8.216
589.40	8.279
589.73	8.215
590.07	7.866
590.40	8.007
590.73	7.877
591.07	8.525
591.40	8.146
591.74	8.427
592.07	7.928
592.41	7.856
592.74	8.263
593.08	8.033
593.41	7.730
593.75	7.517
594.08	7.549
594.41	8.688
594.75	8.456
595.08	7.820
595.42	8.490
595.75	7.607
596.09	7.683
596.42	8.347
596.75	7.934
597.09	8.192
597.42	7.551
597.75	7.750
598.09	8.721
598.42	7.998
598.76	7.849
599.09	7.972
599.42	7.843
599.76	7.928
600.09	8.206
600.42	8.204
600.76	8.211
601.09	8.469
601.42	7.677
601.76	8.333
602.09	7.648
602.42	8.107
602.76	7.520
603.09	8.024
603.42	8.259
603.76	8.097
604.09	8.370
604.42	7.410
604.76	7.719
605.09	7.595
605.42	8.865
605.75	7.331
606.09	7.763
606.42	7.792
606.75	7.943
607.09	8.469
607.42	7.702
607.75	7.903
608.08	8.360
608.42	7.663
608.75	7.804
609.08	7.745
609.41	8.122
609.75	7.899
610.08	8.431
610.41	8.000
610.74	8.366
611.07	8.164
611.41	7.766
611.74	8.997
612.07	7.734
612.40	7.996
612.73	8.670
613.07	7.815
613.40	8.210
613.73	7.793
614.06	7.359
614.39	8.625
614.72	8.212
615.06	8.152
615.39	7.868
615.72	7.279
616.05	7.565
616.38	8.009
616.71	7.808
617.05	8.444
617.38	8.173
617.71	7.064
618.04	7.702
618.37	8.176
618.70	8.931
619.03	7.583
619.36	7.681
619.69	9.261
620.03	8.815
620.36	8.087
620.69	8.112
621.02	7.839
621.35	7.419
621.68	7.295
622.01	8.010
622.34	8.696
622.67	7.344
623.00	8.646
623.33	9.179
623.66	7.903
623.99	7.594
624.32	8.631
624.65	7.653
624.99	7.916
625.32	7.260
625.65	7.770
625.98	7.903
626.31	7.830
626.64	8.368
626.97	7.705
627.30	7.915
627.63	7.772
627.96	8.529
628.29	7.261
628.62	7.832
628.95	8.268
629.28	7.613
629.61	6.968
629.94	8.601
630.26	8.151
630.59	8.241
630.92	7.608
631.25	7.762
631.58	8.677
631.91	7.234
632.24	7.889
632.57	7.333
632.90	8.621
633.23	7.477
633.56	6.433
633.89	9.670
634.22	8.501
634.55	7.933
634.88	6.651
635.20	6.991
635.53	7.888
635.86	7.053
636.19	8.425
636.52	8.722
636.85	5.054
637.18	7.125
637.51	7.807
637.83	6.525
638.16	8.947
638.49	6.345
638.82	8.752
639.15	8.560
639.48	7.652
639.81	8.852
640.13	7.838
640.46	7.407
640.79	6.583
641.12	7.898
641.45	8.178
641.77	7.335
642.10	7.100
642.43	8.498
642.76	9.291
643.09	8.095
643.41	7.937
643.74	9.539
644.07	10.140
644.40	8.590
644.73	9.076
645.05	8.180
645.38	9.106
645.71	10.481
646.04	9.916
646.36	6.981
646.69	8.478
647.02	5.957
647.35	8.664
647.67	6.387
648.00	11.248
648.33	9.612
648.66	5.000
648.98	8.917
649.31	7.692
649.64	9.375
649.96	9.890
650.29	6.557
650.62	8.262
650.94	8.600
651.27	7.626
651.60	8.651
651.92	10.103
652.25	9.182
652.58	6.474
652.90	8.989
653.23	9.032
653.56	6.020
653.88	7.049
654.21	7.718
654.54	10.465
654.86	8.989
655.19	8.596
655.52	7.937
655.84	7.645
656.17	8.456
656.49	11.550
656.82	12.138
657.15	9.520
657.47	6.917
657.80	5.317
658.13	6.115
658.45	8.336
658.78	8.180
659.10	8.643
659.43	8.573
659.75	9.402
660.08	8.854
660.41	8.766
660.73	7.811
661.06	10.000
661.38	8.036
661.71	6.692
662.03	9.274
662.36	9.168
662.68	7.173
663.01	6.369
663.33	10.204
663.66	9.227
663.98	6.027
664.31	6.935
664.63	8.850
664.96	6.508
665.28	6.508
665.61	7.400
665.93	9.465
666.26	8.704
666.58	10.187
666.91	8.463
667.23	7.675
667.56	7.710
667.88	10.181
668.21	7.604
668.53	7.710
668.86	9.238
669.18	10.502
669.50	9.346
669.83	6.326
670.15	9.865
670.48	7.243
670.80	6.834
671.13	4.740
671.45	8.784
671.77	8.779
672.10	9.073
672.42	7.934
672.75	6.182
673.07	7.027
673.39	6.193
673.72	8.858
674.04	8.493
674.37	7.423
674.69	8.607
675.01	6.383
675.34	9.761
675.66	8.207
675.98	7.709
676.31	7.692
676.63	8.506
676.95	6.195
677.28	10.209
677.60	9.276
677.92	8.811
678.25	7.877
678.57	10.494
678.89	5.660
679.22	7.338
679.54	8.876
679.86	6.600
680.18	6.084
680.51	5.587
680.83	10.286
681.15	8.478
681.48	8.925
681.80	7.661
682.12	8.652
682.44	9.234
682.77	4.978
683.09	8.805
683.41	11.504
683.73	5.023
684.06	7.742
684.38	7.741
684.70	7.407
685.02	9.252
685.34	7.797
685.67	8.523
685.99	5.671
686.31	7.361
686.63	7.624
686.96	8.503
687.28	6.358
687.60	7.031
687.92	5.837
688.24	5.512
688.56	8.016
688.89	7.906
689.21	8.534
689.53	10.345
689.85	7.795
690.17	8.072
690.49	7.852
690.82	7.229
691.14	6.368
691.46	8.869
691.78	8.590
692.10	8.475
692.42	5.556
692.74	6.438
693.06	8.315
693.39	7.383
693.71	6.772
694.03	10.367
694.35	5.869
694.67	7.092
694.99	5.627
695.31	9.949
695.63	5.612
695.95	6.700
696.27	7.481
696.59	9.626
696.91	9.551
697.23	9.375
697.56	6.250
697.88	9.685
698.20	6.424
698.52	6.726
698.84	7.767
699.16	6.667
699.48	5.250
699.80	9.273
700.12	9.068
700.44	5.028
700.76	4.665
701.08	5.523
701.40	6.647
701.72	6.481
702.04	9.936
702.36	13.554
702.68	8.383
703.00	7.826
703.32	4.298
703.64	9.118
703.96	10.465
704.28	8.284
704.60	6.329
704.91	3.810
705.23	6.796
705.55	2.703
705.87	10.922
706.19	6.597
706.51	6.250
706.83	9.180
707.15	6.369
707.47	11.295
707.79	9.021
708.11	4.835
708.43	10.224
708.74	6.753
709.06	5.292
709.38	6.322
709.70	5.625
710.02	10.736
710.34	6.931
710.66	5.079
710.98	7.256
711.29	2.581
711.61	10.224
711.93	7.541
712.25	6.312
712.57	6.272
712.89	10.072
713.20	8.591
713.52	7.463
713.84	7.117
714.16	8.525
714.48	10.794
714.80	8.615
715.11	9.510
715.43	10.542
715.75	9.034
716.07	6.230
716.39	9.365
716.70	9.408
717.02	4.444
717.34	8.779
717.66	9.959
717.97	9.016
718.29	7.983
718.61	10.714
718.93	11.828
719.24	7.721
719.56	3.019
719.88	6.545
720.20	3.371
720.51	8.271
720.83	8.032
721.15	9.016
721.46	8.627
721.78	6.897
722.10	10.400
722.42	6.612
722.73	6.375
723.05	7.631
723.37	9.804
723.68	8.502
724.00	12.602
724.32	8.230
724.63	4.149
724.95	12.397
725.27	7.456
725.58	0.862
725.90	7.540
726.22	12.177
726.53	11.407
726.85	5.882
727.16	8.647
727.48	9.231
727.80	5.738
728.11	6.303
728.43	5.785
728.74	12.500
729.06	9.848
729.38	9.728
729.69	5.512
730.01	8.268
730.32	3.984
730.64	5.861
730.96	8.582
731.27	8.929
731.59	3.215
731.90	7.975
732.22	9.202
732.53	13.576
732.85	8.389
733.16	7.246
733.48	6.272
733.80	7.117
734.11	7.931
734.43	12.245
734.74	10.979
735.06	4.389
735.37	7.339
735.69	6.129
736.00	7.407
736.32	11.258
736.63	6.552
736.95	6.522
737.26	8.609
737.58	6.115
737.89	10.753
738.21	8.271
738.52	8.077
738.83	10.547
739.15	5.128
739.46	9.677
739.78	6.993
740.09	4.895
740.41	7.692
740.72	9.854
741.04	5.159
741.35	7.792
741.66	6.944
741.98	11.429
742.29	13.146
742.61	8.556
742.92	10.280
743.23	9.649
743.55	9.009
743.86	17.333
744.18	4.762
744.49	12.315
744.80	6.091
745.12	15.464
745.43	12.563
745.74	8.252
746.06	3.415
746.37	14.537
746.68	11.940
747.00	3.141
747.31	6.731
747.62	8.295
747.94	6.987
748.25	6.047
748.56	9.048
748.88	0.000
749.19	11.268
749.50	14.216
749.82	10.222
750.13	6.167
750.44	4.878
750.75	9.200
751.07	6.429
751.38	4.797
751.69	4.198
752.01	8.077
752.32	8.560
752.63	6.923
752.94	9.921
753.26	10.870
753.57	11.161
753.88	7.759
754.19	6.639
754.51	8.984
754.82	6.719
755.13	9.465
755.44	6.612
755.75	8.642
756.07	2.811
756.38	5.078
756.69	6.137
757.00	9.059
757.31	9.732
757.63	12.773
757.94	6.069
758.25	7.849
758.56	10.243
758.87	7.386
759.18	5.333
759.50	5.338
759.81	1.460
760.12	7.770
760.43	9.061
760.74	10.937
761.05	8.427
761.36	5.689
761.67	5.917
761.99	6.452
762.30	7.609
762.61	9.434
762.92	8.969
763.23	7.109
763.54	5.333
763.85	13.502
764.16	7.755
764.47	8.898
764.78	8.989
765.10	10.072
765.41	6.129
765.72	9.119
766.03	1.413
766.34	6.767
766.65	8.097
766.96	5.000
767.27	2.604
767.58	6.977
767.89	0.000
768.20	3.681
768.51	6.557
768.82	8.108
769.13	5.500
769.44	7.895
769.75	4.762
770.06	7.339
770.37	10.329
770.68	10.937
770.99	6.436
771.30	5.340
771.61	1.852
771.92	4.329
772.23	9.813
772.54	3.723
772.85	2.367
773.16	13.415
773.47	7.831
773.78	11.538
774.09	2.000
774.39	12.963
774.70	4.698
775.01	-2.899
775.32	15.672
775.63	8.264
775.94	5.263
776.25	10.000
776.56	4.098
776.87	20.354
777.18	8.850
777.48	7.273
777.79	1.739
778.10	1.835
778.41	5.932
778.72	13.223
779.03	10.448
779.34	9.023
779.65	9.804
779.95	15.217
780.26	0.680
780.57	1.724
780.88	0.926
781.19	-2.020
781.50	-1.600
781.80	2.614
782.11	8.333
782.42	13.253
782.73	-1.460
783.04	6.757
783.34	8.333
783.65	3.876
783.96	10.569
784.27	5.128
784.57	8.130
784.88	-2.439
785.19	15.789
785.50	-11.340
785.81	16.190
786.11	-2.941
786.42	0.000
786.73	17.117
787.04	2.970
787.34	6.667
787.65	-3.810
787.96	8.824
788.26	9.910
788.57	14.516
788.88	7.031
789.19	11.111
789.49	15.966
789.80	11.111
790.11	10.619
790.41	0.000
790.72	14.151
791.03	-9.722
791.33	-6.579
791.64	5.376
791.95	6.667
792.25	-14.286
792.56	1.220
792.87	20.408
793.17	10.526
793.48	-5.405
793.79	5.634
794.09	8.861
794.40	10.638
794.70	9.346
795.01	0.000
795.32	1.818
795.62	15.179
795.93	3.093
796.23	-3.297
796.54	8.421
796.85	4.110
797.15	6.944
797.46	15.068
797.76	-1.408
798.07	15.000
798.37	14.706
798.68	17.143
798.99	0.000
799.29	14.474
799.60	6.667
799.90	0.000
800.21	-9.375
800.51	7.937
800.82	11.475
801.12	-15.789
801.43	7.042
801.73	-11.864
802.04	4.918
802.34	-12.727
802.65	0.000
802.95	9.259
803.26	-10.000
803.56	30.769
803.87	-13.158
804.17	30.645
804.48	9.231
804.78	-17.949
805.09	-11.628
805.39	0.000
805.70	-24.528
806.00	24.561
806.30	16.216
806.61	0.000
806.91	14.815
807.22	10.667
807.52	29.851
807.83	11.290
808.13	-11.111
808.43	-1.818
808.74	16.667
809.04	-7.547
809.35	12.329
809.65	8.772
809.95	5.882
810.26	9.804
810.56	14.000
810.86	0.000
811.17	-31.429
811.47	11.538
811.77	-22.581
812.08	-21.053
812.38	23.810
812.69	-4.348
812.99	6.452
813.29	-21.429
813.59	-37.037
813.90	-6.383
814.20	-9.302
814.50	-8.333
814.81	-13.333
815.11	-17.073
815.41	-20.000
815.72	5.714
816.02	-11.111
816.32	7.692
816.62	-5.405
816.93	2.941
817.23	-2.174
817.53	14.706
817.84	26.471
818.14	-18.750
818.44	-6.897
818.74	-3.226
819.04	-3.704
819.35	-3.333
819.65	-20.000
819.95	0.000
820.25	-16.000
820.56	-18.421
820.86	-10.000
821.16	4.255
821.46	27.586
821.76	-10.256
822.07	-35.000
822.37	13.953
822.67	-10.000
822.97	5.405
823.27	13.514
823.57	44.000
823.88	-2.703
824.18	-28.571
824.48	-38.462
824.78	-107.692
825.08	0.000
825.38	20.833
825.69	-12.500
825.99	-40.000
826.29	-35.135
826.59	8.824
826.89	32.000
827.19	22.857
827.49	26.316
827.79	12.500
828.09	16.667
828.39	30.435
828.70	-3.448
829.00	-6.897
829.30	8.333
829.60	37.500
829.90	-16.667
830.20	-26.923
830.50	-71.429
830.80	-7.143
831.10	28.205
831.40	-42.857
831.70	-2.941
832.00	8.333
832.30	15.789
832.60	-6.250
832.90	-33.333
833.20	-76.471
833.50	-33.333
833.80	-6.667
834.10	-5.000
834.40	-16.667
834.70	-22.222
835.00	-19.231
835.30	4.167
835.60	24.138
835.90	-22.222
836.20	-136.364
836.50	-33.333
836.80	14.286
837.10	25.714
837.40	-29.412
837.70	0.000
838.00	12.500
838.30	-37.500
838.60	-9.524
838.90	0.000
839.19	-4.348
839.49	47.826
839.79	-27.778
840.09	-8.696
840.39	-40.909
840.69	-56.250
840.99	-5.263
841.29	-6.250
841.59	7.143
841.88	-27.778
842.18	-4.167
842.48	-88.235
842.78	17.241
843.08	14.286
843.38	-38.462
843.68	-44.444
843.97	-107.692
844.27	-18.182
844.57	-200.000
844.87	48.000
845.17	120.000
845.47	42.857
845.76	66.667
846.06	0.000
846.36	0.000
846.66	-40.000
846.96	-31.579
847.25	8.333
847.55	-33.333
847.85	13.333
848.15	-50.000
848.44	38.462
848.74	21.053
849.04	133.333
849.34	11.111
849.63	-47.368
849.93	0.000
850.23	-30.000
850.53	-47.619
850.82	4.000
851.12	-21.053
851.42	-750.000
851.71	-14.286
852.01	-25.000
852.31	17.647
852.61	73.333
852.90	14.286
853.20	-66.667
853.50	0.000
853.79	-10.526
854.09	-26.667
854.39	-10.714
854.68	13.043
854.98	-175.000
855.28	20.690
855.57	-93.750
855.87	-5.000
856.17	-13.333
856.46	3.448
856.76	-20.000
857.05	-17.647
857.35	-53.846
857.65	18.182
857.94	11.111
858.24	-71.429
858.53	0.000
858.83	-108.333
859.13	-22.222
859.42	28.571
859.72	-87.500
860.01	33.333
860.31	50.000
860.60	-160.000
860.90	-88.889
861.20	-12.500
861.49	-57.143
861.79	5.882
862.08	-100.000
862.38	-75.000
862.67	46.154
862.97	41.176
863.26	50.000
863.56	0.000
863.85	200.000
864.15	-50.000
864.44	-61.538
864.74	60.000
865.03	-187.500
865.33	-216.667
865.62	23.529
865.92	-50.000
866.21	-21.429
866.51	-50.000
866.80	-1000.000
867.10	66.667
867.39	47.059
867.69	56.522
867.98	114.286
868.27	-340.000
868.57	37.500
868.86	-90.909
869.16	47.059
869.45	116.667
869.75	-85.714
870.04	500.000
870.33	58.333
870.63	240.000
870.92	-77.778
871.22	8.333
871.51	-27.273
871.80	25.000
872.10	0.000
>>>>>End Processed Spectral Data<<<<<
