SpectraSuite Data File
++++++++++++++++++++++++++++++++++++
Date: Sat May 16 11:08:36 PDT 2015
User: schluterlab
Dark Spectrum Present: Yes
Reference Spectrum Present: Yes
Number of Sampled Component Spectra: 1
Spectrometers: USB2E3373
Integration Time (usec): 3000 (USB2E3373)
Spectra Averaged: 3 (USB2E3373)
Boxcar Smoothing: 0 (USB2E3373)
Correct for Electrical Dark: No (USB2E3373)
Strobe/Lamp Enabled: No (USB2E3373)
Correct for Detector Non-linearity: No (USB2E3373)
Correct for Stray Light: No (USB2E3373)
Number of Pixels in Processed Spectrum: 2048
>>>>>Begin Processed Spectral Data<<<<<
178.53	0.000
178.91	40.000
179.29	33.333
179.67	-100.000
180.04	69.231
180.42	-100.000
180.80	-75.000
181.18	-25.000
181.56	-12.500
181.94	200.000
182.31	350.000
182.69	-15.385
183.07	-66.667
183.45	1050.000
183.83	133.333
184.20	42.857
184.58	-37.500
184.96	75.000
185.34	56.250
185.72	-250.000
186.09	-166.667
186.47	-62.500
186.85	-100.000
187.23	75.000
187.61	-50.000
187.98	-162.500
188.36	162.500
188.74	25.000
189.12	-200.000
189.49	200.000
189.87	25.000
190.25	-0.000
190.63	35.714
191.00	22.222
191.38	120.000
191.76	80.000
192.14	200.000
192.51	-60.000
192.89	-100.000
193.27	0.000
193.65	-11.111
194.02	-100.000
194.40	-66.667
194.78	110.000
195.15	700.000
195.53	54.545
195.91	-133.333
196.29	140.000
196.66	-466.667
197.04	300.000
197.42	175.000
197.79	66.667
198.17	-66.667
198.55	-550.000
198.92	-700.000
199.30	75.000
199.68	100.000
200.05	55.556
200.43	-33.333
200.81	100.000
201.18	-58.333
201.56	185.714
201.94	66.667
202.31	31.818
202.69	140.000
203.07	40.000
203.44	266.667
203.82	-150.000
204.19	100.000
204.57	-125.000
204.95	0.000
205.32	50.000
205.70	100.000
206.08	-100.000
206.45	27.778
206.83	-400.000
207.20	150.000
207.58	-266.667
207.96	-300.000
208.33	0.000
208.71	22.222
209.08	170.000
209.46	0.000
209.84	350.000
210.21	0.000
210.59	60.000
210.96	-500.000
211.34	-150.000
211.71	-100.000
212.09	-25.000
212.46	450.000
212.84	-1400.000
213.22	-233.333
213.59	75.000
213.97	55.556
214.34	30.000
214.72	-60.000
215.09	-233.333
215.47	33.333
215.84	130.000
216.22	90.000
216.59	6.667
216.97	-250.000
217.34	250.000
217.72	-85.714
218.09	33.333
218.47	-142.857
218.84	142.857
219.22	57.143
219.59	0.000
219.97	14.286
220.34	175.000
220.72	125.000
221.09	61.538
221.47	0.000
221.84	66.667
222.22	-100.000
222.59	-0.000
222.97	-125.000
223.34	50.000
223.72	-366.667
224.09	21.429
224.46	-200.000
224.84	21.429
225.21	57.143
225.59	63.636
225.96	-12.500
226.34	114.286
226.71	44.444
227.08	40.000
227.46	500.000
227.83	-100.000
228.21	-250.000
228.58	-450.000
228.95	43.750
229.33	100.000
229.70	-60.000
230.08	-350.000
230.45	-16.667
230.82	16.667
231.20	-600.000
231.57	150.000
231.95	900.000
232.32	47.619
232.69	22.222
233.07	-114.286
233.44	-600.000
233.81	26.667
234.19	55.556
234.56	25.000
234.93	34.375
235.31	-128.571
235.68	0.000
236.05	-23.529
236.43	-9.091
236.80	12.903
237.17	-12.500
237.55	9.524
237.92	-36.364
238.29	-8.571
238.67	29.412
239.04	30.556
239.41	-29.032
239.79	-23.077
240.16	-23.810
240.53	1.818
240.91	28.205
241.28	14.545
241.65	4.615
242.02	-3.279
242.40	1.639
242.77	13.636
243.14	-6.780
243.51	-10.000
243.89	3.797
244.26	1.124
244.63	6.316
245.00	6.316
245.38	7.627
245.75	7.080
246.12	5.600
246.49	11.811
246.87	-6.504
247.24	5.085
247.61	4.237
247.98	5.634
248.36	3.497
248.73	6.329
249.10	-0.637
249.47	5.263
249.84	9.659
250.22	-2.381
250.59	1.130
250.96	5.759
251.33	9.953
251.70	5.769
252.08	5.213
252.45	0.474
252.82	3.810
253.19	8.085
253.56	4.435
253.94	5.485
254.31	6.009
254.68	9.350
255.05	5.645
255.42	6.349
255.79	1.075
256.16	5.098
256.54	4.412
256.91	6.818
257.28	1.099
257.65	6.383
258.02	9.119
258.39	4.013
258.76	5.068
259.14	3.086
259.51	7.213
259.88	5.183
260.25	5.901
260.62	3.215
260.99	3.858
261.36	5.488
261.73	5.202
262.10	7.500
262.47	1.994
262.85	8.857
263.22	4.585
263.59	4.615
263.96	6.377
264.33	6.775
264.70	6.906
265.07	2.198
265.44	5.168
265.81	5.426
266.18	4.051
266.55	5.147
266.92	7.053
267.29	6.295
267.66	6.173
268.03	6.280
268.40	8.920
268.77	4.337
269.14	4.640
269.51	6.207
269.88	3.899
270.25	3.497
270.62	3.432
270.99	4.955
271.36	5.828
271.73	4.484
272.10	4.805
272.47	3.556
272.84	6.889
273.21	7.569
273.58	3.736
273.95	5.921
274.32	5.430
274.69	8.096
275.06	5.726
275.43	5.357
275.80	7.739
276.17	6.695
276.54	6.110
276.91	4.321
277.28	5.274
277.65	2.893
278.02	5.846
278.39	6.680
278.76	5.378
279.13	5.929
279.50	6.958
279.87	6.765
280.23	5.061
280.60	5.765
280.97	6.019
281.34	6.770
281.71	8.269
282.08	5.645
282.45	3.055
282.82	3.682
283.19	5.091
283.56	6.410
283.92	5.300
284.29	7.249
284.66	3.597
285.03	7.665
285.40	5.535
285.77	7.544
286.14	5.776
286.51	5.329
286.87	7.078
287.24	7.850
287.61	6.281
287.98	5.546
288.35	5.785
288.72	5.433
289.08	4.237
289.45	5.892
289.82	4.671
290.19	7.225
290.56	5.455
290.93	5.723
291.29	4.538
291.66	5.314
292.03	7.378
292.40	4.970
292.77	6.832
293.13	5.691
293.50	7.132
293.87	6.902
294.24	6.938
294.60	4.697
294.97	6.070
295.34	6.074
295.71	6.101
296.08	5.530
296.44	6.009
296.81	4.843
297.18	6.761
297.55	6.780
297.91	7.671
298.28	5.616
298.65	5.300
299.02	6.684
299.38	7.086
299.75	7.745
300.12	7.821
300.48	6.650
300.85	7.077
301.22	7.115
301.59	6.632
301.95	8.564
302.32	4.433
302.69	7.099
303.05	5.739
303.42	5.500
303.79	7.297
304.15	7.464
304.52	7.468
304.89	7.556
305.25	7.570
305.62	6.698
305.99	8.363
306.35	6.992
306.72	6.948
307.09	7.378
307.45	7.151
307.82	6.034
308.19	7.942
308.55	7.843
308.92	6.767
309.29	7.027
309.65	6.893
310.02	7.991
310.38	7.459
310.75	7.070
311.12	7.025
311.48	7.724
311.85	8.342
312.22	7.415
312.58	7.935
312.95	8.461
313.31	7.592
313.68	8.643
314.05	8.111
314.41	6.640
314.78	6.494
315.14	7.700
315.51	7.700
315.87	8.616
316.24	7.872
316.61	8.061
316.97	9.652
317.34	8.478
317.70	7.421
318.07	7.183
318.43	8.427
318.80	8.638
319.16	7.411
319.53	7.425
319.89	6.773
320.26	8.333
320.62	7.692
320.99	9.353
321.35	7.586
321.72	6.960
322.08	8.012
322.45	7.525
322.81	8.934
323.18	8.549
323.54	8.872
323.91	9.453
324.27	9.030
324.64	9.049
325.00	9.162
325.37	9.593
325.73	11.636
326.10	9.477
326.46	9.457
326.83	10.128
327.19	10.676
327.56	11.329
327.92	10.875
328.29	11.429
328.65	10.364
329.01	12.456
329.38	11.686
329.74	13.004
330.11	12.874
330.47	12.171
330.84	13.566
331.20	13.087
331.56	14.859
331.93	14.387
332.29	14.886
332.66	14.223
333.02	15.747
333.38	16.039
333.75	16.741
334.11	16.444
334.48	16.946
334.84	18.285
335.20	18.262
335.57	16.877
335.93	18.174
336.29	17.626
336.66	18.238
337.02	18.919
337.38	18.271
337.75	19.666
338.11	19.589
338.47	19.128
338.84	19.147
339.20	19.420
339.56	20.677
339.93	19.577
340.29	17.538
340.65	19.318
341.02	20.489
341.38	19.798
341.74	20.745
342.11	19.283
342.47	21.116
342.83	20.739
343.20	19.983
343.56	19.755
343.92	20.952
344.28	21.531
344.65	20.710
345.01	19.076
345.37	19.934
345.73	18.985
346.10	18.479
346.46	19.415
346.82	19.567
347.19	19.474
347.55	19.342
347.91	20.472
348.27	19.411
348.63	19.952
349.00	20.207
349.36	19.984
349.72	20.939
350.08	21.091
350.45	19.543
350.81	20.780
351.17	19.855
351.53	19.411
351.89	19.240
352.26	20.620
352.62	21.505
352.98	19.778
353.34	19.105
353.70	19.228
354.07	20.535
354.43	20.711
354.79	20.919
355.15	19.808
355.51	18.984
355.87	19.526
356.24	20.175
356.60	21.676
356.96	20.092
357.32	19.794
357.68	19.540
358.04	20.477
358.40	20.263
358.77	20.093
359.13	20.581
359.49	20.484
359.85	19.131
360.21	19.863
360.57	21.009
360.93	21.333
361.29	19.955
361.66	19.741
362.02	19.453
362.38	20.470
362.74	19.853
363.10	20.230
363.46	20.442
363.82	20.627
364.18	20.043
364.54	21.444
364.90	21.034
365.26	19.900
365.62	21.026
365.98	20.982
366.35	20.352
366.71	20.648
367.07	20.748
367.43	21.345
367.79	21.100
368.15	20.982
368.51	20.839
368.87	21.429
369.23	21.053
369.59	21.319
369.95	20.578
370.31	21.449
370.67	19.740
371.03	20.991
371.39	21.004
371.75	21.173
372.11	21.162
372.47	21.041
372.83	21.349
373.19	21.500
373.55	22.942
373.91	22.119
374.27	20.876
374.63	21.532
374.99	21.488
375.35	21.063
375.71	21.540
376.07	22.177
376.42	20.662
376.78	22.353
377.14	22.102
377.50	22.244
377.86	22.367
378.22	22.048
378.58	21.989
378.94	21.887
379.30	22.669
379.66	22.769
380.02	22.222
380.38	22.598
380.74	22.157
381.09	22.613
381.45	23.449
381.81	22.686
382.17	22.744
382.53	21.520
382.89	21.890
383.25	22.818
383.61	22.877
383.97	23.637
384.32	23.342
384.68	23.942
385.04	22.524
385.40	22.459
385.76	22.683
386.12	23.798
386.48	24.443
386.83	23.865
387.19	23.790
387.55	23.743
387.91	23.711
388.27	22.919
388.62	23.077
388.98	22.956
389.34	23.439
389.70	23.447
390.06	22.871
390.42	23.205
390.77	24.164
391.13	24.534
391.49	22.333
391.85	23.441
392.20	23.483
392.56	23.458
392.92	23.959
393.28	23.364
393.64	24.173
393.99	23.692
394.35	23.540
394.71	23.595
395.07	24.419
395.42	23.421
395.78	23.444
396.14	24.050
396.50	23.914
396.85	23.257
397.21	23.876
397.57	23.708
397.92	24.005
398.28	23.611
398.64	22.963
399.00	23.989
399.35	23.224
399.71	24.390
400.07	23.343
400.42	24.513
400.78	23.077
401.14	23.952
401.49	23.762
401.85	23.856
402.21	23.421
402.57	23.240
402.92	23.663
403.28	22.978
403.63	23.247
403.99	23.804
404.35	22.343
404.70	23.054
405.06	23.760
405.42	22.817
405.77	22.907
406.13	23.055
406.49	23.008
406.84	22.795
407.20	25.324
407.55	22.926
407.91	22.345
408.27	23.652
408.62	22.670
408.98	22.680
409.34	23.644
409.69	22.495
410.05	22.984
410.40	23.912
410.76	22.288
411.11	22.693
411.47	23.082
411.83	23.044
412.18	22.834
412.54	23.429
412.89	23.086
413.25	22.609
413.60	22.296
413.96	23.105
414.31	22.202
414.67	22.730
415.03	23.027
415.38	23.813
415.74	23.325
416.09	23.465
416.45	22.222
416.80	22.432
417.16	22.791
417.51	23.244
417.87	22.718
418.22	22.566
418.58	22.657
418.93	24.218
419.29	23.714
419.64	23.555
420.00	23.086
420.35	23.596
420.71	23.109
421.06	24.201
421.42	22.951
421.77	23.283
422.12	22.999
422.48	23.517
422.83	22.893
423.19	23.330
423.54	23.977
423.90	23.250
424.25	23.303
424.61	23.884
424.96	25.219
425.31	23.756
425.67	23.897
426.02	22.490
426.38	24.501
426.73	24.547
427.09	24.755
427.44	24.602
427.79	24.419
428.15	23.279
428.50	24.457
428.85	23.441
429.21	24.405
429.56	24.010
429.92	24.299
430.27	23.230
430.62	24.033
430.98	23.523
431.33	24.120
431.68	24.182
432.04	24.734
432.39	24.330
432.74	24.041
433.10	24.930
433.45	24.928
433.80	24.748
434.16	24.933
434.51	24.384
434.86	25.015
435.22	24.610
435.57	23.256
435.92	24.853
436.28	25.341
436.63	24.760
436.98	24.055
437.34	25.753
437.69	24.737
438.04	25.014
438.39	24.248
438.75	24.040
439.10	25.319
439.45	24.080
439.81	24.217
440.16	25.099
440.51	25.706
440.86	24.639
441.22	24.378
441.57	25.105
441.92	25.627
442.27	25.162
442.63	24.678
442.98	24.153
443.33	25.096
443.68	24.805
444.03	25.982
444.39	25.159
444.74	25.220
445.09	24.836
445.44	24.367
445.79	25.242
446.15	26.068
446.50	24.279
446.85	24.577
447.20	24.464
447.55	25.414
447.91	25.154
448.26	24.637
448.61	25.410
448.96	25.938
449.31	24.577
449.66	26.445
450.02	24.211
450.37	25.043
450.72	25.254
451.07	25.644
451.42	24.783
451.77	24.596
452.12	26.639
452.47	25.756
452.83	24.811
453.18	26.376
453.53	26.368
453.88	26.435
454.23	25.574
454.58	25.792
454.93	26.259
455.28	25.366
455.63	25.184
455.98	26.687
456.34	23.952
456.69	25.704
457.04	25.814
457.39	25.598
457.74	25.222
458.09	26.392
458.44	26.790
458.79	25.224
459.14	25.556
459.49	25.459
459.84	25.801
460.19	25.000
460.54	25.408
460.89	25.000
461.24	26.230
461.59	26.319
461.94	25.843
462.29	26.027
462.64	26.877
462.99	26.372
463.34	24.510
463.69	25.827
464.04	25.308
464.39	25.269
464.74	26.182
465.09	25.195
465.44	25.268
465.79	25.832
466.14	26.064
466.49	25.676
466.84	26.230
467.19	26.122
467.54	24.620
467.89	25.647
468.24	25.534
468.59	25.859
468.94	25.852
469.29	26.056
469.64	26.415
469.99	26.334
470.34	25.518
470.68	27.035
471.03	26.153
471.38	25.347
471.73	26.014
472.08	26.372
472.43	26.126
472.78	26.133
473.13	24.917
473.48	25.718
473.83	25.744
474.17	25.541
474.52	26.471
474.87	25.699
475.22	25.251
475.57	25.944
475.92	26.674
476.27	25.200
476.61	25.803
476.96	25.936
477.31	25.296
477.66	25.180
478.01	26.202
478.36	25.773
478.70	26.268
479.05	25.744
479.40	25.907
479.75	25.535
480.10	24.851
480.45	23.694
480.79	26.900
481.14	26.693
481.49	26.041
481.84	25.243
482.19	26.359
482.53	25.994
482.88	25.724
483.23	26.338
483.58	26.688
483.92	25.753
484.27	25.343
484.62	25.572
484.97	25.682
485.31	25.152
485.66	24.553
486.01	24.651
486.36	24.857
486.70	25.000
487.05	24.787
487.40	25.374
487.75	25.154
488.09	24.830
488.44	25.947
488.79	25.327
489.13	26.284
489.48	26.468
489.83	26.114
490.17	26.252
490.52	26.540
490.87	25.681
491.22	26.063
491.56	26.250
491.91	26.288
492.26	26.415
492.60	26.261
492.95	26.654
493.30	25.917
493.64	26.375
493.99	25.813
494.34	26.571
494.68	27.013
495.03	25.478
495.37	26.598
495.72	26.081
496.07	25.763
496.41	26.679
496.76	26.164
497.11	25.954
497.45	26.628
497.80	25.863
498.14	25.982
498.49	26.369
498.84	26.117
499.18	27.388
499.53	26.839
499.87	26.110
500.22	26.176
500.56	27.564
500.91	27.094
501.26	26.395
501.60	25.421
501.95	26.715
502.29	26.358
502.64	27.534
502.98	26.210
503.33	27.021
503.67	25.958
504.02	25.350
504.36	27.059
504.71	26.444
505.06	25.761
505.40	26.098
505.75	26.321
506.09	26.997
506.44	26.767
506.78	26.091
507.13	26.571
507.47	27.074
507.82	27.052
508.16	27.098
508.51	26.018
508.85	26.190
509.19	25.536
509.54	26.004
509.88	26.862
510.23	26.782
510.57	27.460
510.92	26.853
511.26	27.220
511.61	26.620
511.95	27.101
512.30	26.773
512.64	26.266
512.98	26.953
513.33	26.524
513.67	26.521
514.02	26.342
514.36	26.482
514.70	26.599
515.05	26.987
515.39	27.163
515.74	27.225
516.08	27.147
516.42	26.516
516.77	26.632
517.11	27.002
517.46	28.589
517.80	26.835
518.14	26.510
518.49	26.838
518.83	26.884
519.17	26.702
519.52	26.027
519.86	27.658
520.20	27.628
520.55	27.138
520.89	27.239
521.23	27.473
521.58	26.395
521.92	27.486
522.26	28.444
522.61	27.567
522.95	26.611
523.29	27.022
523.64	27.420
523.98	26.671
524.32	27.404
524.66	27.081
525.01	27.489
525.35	27.835
525.69	27.261
526.04	27.219
526.38	26.798
526.72	25.479
527.06	26.562
527.41	27.195
527.75	26.271
528.09	26.142
528.43	26.689
528.78	27.324
529.12	27.593
529.46	25.838
529.80	27.179
530.15	26.787
530.49	27.361
530.83	28.553
531.17	27.609
531.51	26.926
531.86	26.860
532.20	26.923
532.54	27.741
532.88	27.075
533.22	27.273
533.57	27.219
533.91	25.780
534.25	26.587
534.59	26.171
534.93	26.385
535.27	27.439
535.62	26.790
535.96	26.826
536.30	26.309
536.64	26.892
536.98	27.754
537.32	26.607
537.66	26.612
538.01	27.973
538.35	26.486
538.69	27.206
539.03	27.217
539.37	27.146
539.71	25.884
540.05	26.388
540.39	27.147
540.73	27.989
541.07	28.210
541.42	26.739
541.76	26.047
542.10	27.752
542.44	26.915
542.78	27.408
543.12	27.088
543.46	25.137
543.80	25.418
544.14	26.461
544.48	26.969
544.82	26.319
545.16	26.626
545.50	25.841
545.84	26.078
546.18	27.462
546.52	26.245
546.86	25.997
547.20	27.004
547.54	25.689
547.88	26.808
548.22	25.098
548.56	25.585
548.90	26.550
549.24	26.279
549.58	27.311
549.92	27.279
550.26	28.179
550.60	26.600
550.94	27.737
551.28	27.540
551.62	26.662
551.96	26.628
552.30	25.923
552.64	26.601
552.98	26.139
553.32	26.623
553.66	26.532
554.00	27.221
554.34	26.570
554.68	26.827
555.02	26.483
555.36	26.671
555.69	26.504
556.03	27.158
556.37	25.676
556.71	26.056
557.05	26.977
557.39	26.281
557.73	26.623
558.07	26.225
558.41	27.599
558.75	26.084
559.08	25.837
559.42	27.259
559.76	27.377
560.10	26.846
560.44	27.312
560.78	27.001
561.12	26.225
561.45	27.260
561.79	26.551
562.13	26.157
562.47	26.751
562.81	26.379
563.15	26.382
563.48	25.985
563.82	26.640
564.16	26.437
564.50	26.344
564.84	27.050
565.17	24.469
565.51	26.532
565.85	26.234
566.19	26.548
566.52	26.093
566.86	25.601
567.20	26.271
567.54	26.462
567.88	24.958
568.21	26.063
568.55	25.451
568.89	24.602
569.23	24.572
569.56	24.548
569.90	24.469
570.24	24.840
570.57	24.359
570.91	23.835
571.25	24.189
571.59	24.009
571.92	23.690
572.26	24.296
572.60	23.425
572.93	24.280
573.27	23.140
573.61	22.828
573.95	23.443
574.28	23.692
574.62	23.386
574.96	23.280
575.29	23.247
575.63	23.361
575.97	22.843
576.30	23.212
576.64	23.708
576.98	22.642
577.31	22.837
577.65	23.239
577.98	22.960
578.32	22.648
578.66	23.038
578.99	23.215
579.33	23.386
579.67	23.130
580.00	23.313
580.34	23.434
580.67	23.388
581.01	22.875
581.35	23.206
581.68	22.538
582.02	22.581
582.35	22.946
582.69	22.660
583.02	23.077
583.36	22.998
583.70	23.093
584.03	23.922
584.37	23.735
584.70	22.865
585.04	23.215
585.37	22.888
585.71	23.246
586.04	23.202
586.38	22.908
586.72	23.563
587.05	23.478
587.39	23.026
587.72	23.387
588.06	23.521
588.39	23.270
588.73	23.808
589.06	23.402
589.40	24.425
589.73	23.690
590.07	23.452
590.40	23.911
590.73	23.271
591.07	24.057
591.40	24.653
591.74	24.370
592.07	24.369
592.41	24.416
592.74	23.982
593.08	24.133
593.41	23.092
593.75	22.915
594.08	23.544
594.41	24.140
594.75	23.179
595.08	24.135
595.42	24.025
595.75	24.035
596.09	23.360
596.42	24.673
596.75	24.407
597.09	24.844
597.42	23.614
597.75	23.782
598.09	24.446
598.42	23.553
598.76	23.339
599.09	23.757
599.42	23.453
599.76	23.518
600.09	23.397
600.42	24.117
600.76	23.390
601.09	23.509
601.42	23.229
601.76	23.715
602.09	23.885
602.42	24.609
602.76	23.432
603.09	23.226
603.42	23.771
603.76	24.053
604.09	23.628
604.42	23.855
604.76	24.248
605.09	24.051
605.42	24.291
605.75	23.976
606.09	23.869
606.42	22.958
606.75	23.229
607.09	23.555
607.42	23.592
607.75	24.018
608.08	24.853
608.42	23.557
608.75	24.252
609.08	24.647
609.41	24.564
609.75	23.647
610.08	23.824
610.41	23.807
610.74	23.549
611.07	23.935
611.41	23.853
611.74	24.884
612.07	24.436
612.40	25.000
612.73	23.910
613.07	24.326
613.40	25.068
613.73	24.523
614.06	23.888
614.39	24.746
614.72	23.743
615.06	23.696
615.39	24.091
615.72	24.280
616.05	24.020
616.38	24.202
616.71	23.964
617.05	25.392
617.38	25.944
617.71	24.263
618.04	24.161
618.37	24.906
618.70	25.359
619.03	23.968
619.36	24.806
619.69	25.556
620.03	23.829
620.36	24.895
620.69	24.838
621.02	24.658
621.35	25.726
621.68	26.148
622.01	26.375
622.34	24.845
622.67	25.234
623.00	26.090
623.33	26.343
623.66	24.520
623.99	24.211
624.32	25.818
624.65	25.092
624.99	24.869
625.32	24.027
625.65	24.709
625.98	25.430
626.31	26.427
626.64	25.523
626.97	24.743
627.30	26.979
627.63	25.734
627.96	25.413
628.29	26.838
628.62	25.692
628.95	26.772
629.28	25.846
629.61	25.417
629.94	27.410
630.26	26.541
630.59	27.035
630.92	26.627
631.25	26.310
631.58	25.079
631.91	25.426
632.24	27.778
632.57	26.889
632.90	27.471
633.23	28.271
633.56	25.965
633.89	29.009
634.22	26.328
634.55	28.005
634.88	27.932
635.20	25.718
635.53	26.845
635.86	26.700
636.19	27.228
636.52	27.360
636.85	25.872
637.18	26.500
637.51	28.377
637.83	27.430
638.16	26.579
638.49	28.552
638.82	25.225
639.15	26.848
639.48	26.329
639.81	29.599
640.13	29.189
640.46	26.496
640.79	27.731
641.12	29.055
641.45	27.403
641.77	27.994
642.10	28.701
642.43	27.618
642.76	29.134
643.09	26.984
643.41	28.254
643.74	28.617
644.07	28.861
644.40	27.229
644.73	28.218
645.05	24.541
645.38	28.974
645.71	31.443
646.04	30.084
646.36	28.447
646.69	30.104
647.02	27.617
647.35	28.159
647.67	28.102
648.00	29.174
648.33	32.040
648.66	26.935
648.98	26.592
649.31	26.769
649.64	26.563
649.96	27.002
650.29	29.508
650.62	29.604
650.94	28.499
651.27	27.383
651.60	28.028
651.92	28.767
652.25	26.043
652.58	25.724
652.90	25.201
653.23	27.581
653.56	26.923
653.88	26.230
654.21	29.530
654.54	27.575
654.86	27.448
655.19	25.931
655.52	23.885
655.84	20.359
656.17	22.413
656.49	30.402
656.82	31.382
657.15	23.796
657.47	17.721
657.80	13.648
658.13	15.771
658.45	21.369
658.78	21.198
659.10	21.893
659.43	22.505
659.75	22.738
660.08	24.115
660.41	24.251
660.73	24.092
661.06	26.957
661.38	29.107
661.71	27.916
662.03	28.226
662.36	32.623
662.68	26.371
663.01	30.786
663.33	30.159
663.66	28.541
663.98	27.455
664.31	28.859
664.63	30.973
664.96	27.115
665.28	30.152
665.61	26.004
665.93	27.984
666.26	28.543
666.58	28.482
666.91	31.626
667.23	29.605
667.56	26.757
667.88	28.733
668.21	25.346
668.53	26.402
668.86	29.561
669.18	29.909
669.50	28.505
669.83	27.737
670.15	24.439
670.48	27.570
670.80	29.385
671.13	27.765
671.45	29.730
671.77	28.908
672.10	27.219
672.42	26.937
672.75	27.273
673.07	26.847
673.39	28.233
673.72	26.378
674.04	27.176
674.37	24.742
674.69	27.664
675.01	26.596
675.34	27.115
675.66	30.022
675.98	25.991
676.31	28.281
676.63	28.046
676.95	24.558
677.28	25.058
677.60	30.090
677.92	29.515
678.25	28.884
678.57	29.835
678.89	25.577
679.22	25.996
679.54	26.036
679.86	24.800
680.18	26.426
680.51	25.326
680.83	28.762
681.15	26.590
681.48	28.600
681.80	25.806
682.12	26.358
682.44	26.326
682.77	28.788
683.09	26.205
683.41	28.540
683.73	26.712
684.06	24.731
684.38	27.615
684.70	27.778
685.02	25.000
685.34	25.341
685.67	25.379
685.99	26.465
686.31	26.212
686.63	26.241
686.96	25.139
687.28	23.892
687.60	25.586
687.92	21.790
688.24	26.772
688.56	26.453
688.89	28.205
689.21	26.915
689.53	28.736
689.85	24.276
690.17	26.682
690.49	27.714
690.82	25.783
691.14	26.179
691.46	28.160
691.78	28.634
692.10	23.729
692.42	22.667
692.74	24.678
693.06	25.618
693.39	25.951
693.71	25.056
694.03	26.782
694.35	23.251
694.67	26.005
694.99	24.041
695.31	28.316
695.63	24.235
695.95	26.055
696.27	27.182
696.59	29.679
696.91	28.933
697.23	25.260
697.56	24.760
697.88	26.577
698.20	25.482
698.52	22.197
698.84	24.272
699.16	24.524
699.48	25.750
699.80	26.566
700.12	27.960
700.44	24.581
700.76	27.405
701.08	27.035
701.40	22.659
701.72	29.630
702.04	30.449
702.36	30.422
702.68	26.946
703.00	27.246
703.32	22.063
703.64	30.000
703.96	25.291
704.28	28.698
704.60	25.316
704.91	25.397
705.23	27.832
705.55	22.297
705.87	32.423
706.19	27.083
706.51	25.694
706.83	31.148
707.15	26.115
707.47	30.303
707.79	23.711
708.11	22.901
708.43	22.943
708.74	23.377
709.06	23.398
709.38	23.851
709.70	26.875
710.02	29.448
710.34	26.073
710.66	23.492
710.98	23.028
711.29	22.258
711.61	23.642
711.93	26.230
712.25	27.243
712.57	23.693
712.89	26.619
713.20	28.522
713.52	21.642
713.84	24.199
714.16	23.934
714.48	24.444
714.80	25.231
715.11	28.242
715.43	26.205
715.75	28.660
716.07	23.934
716.39	26.756
716.70	27.875
717.02	27.037
717.34	27.481
717.66	33.610
717.97	18.443
718.29	28.992
718.61	30.952
718.93	27.599
719.24	25.000
719.56	21.509
719.88	27.273
720.20	26.592
720.51	26.316
720.83	25.703
721.15	26.230
721.46	29.020
721.78	27.969
722.10	24.400
722.42	26.860
722.73	27.888
723.05	27.711
723.37	31.765
723.68	25.101
724.00	29.268
724.32	27.984
724.63	23.237
724.95	28.926
725.27	21.930
725.58	25.431
725.90	21.032
726.22	31.734
726.53	28.137
726.85	21.961
727.16	27.068
727.48	23.077
727.80	25.000
728.11	22.689
728.43	26.446
728.74	22.656
729.06	25.758
729.38	24.903
729.69	18.898
730.01	25.984
730.32	19.920
730.64	25.275
730.96	25.373
731.27	22.857
731.59	24.437
731.90	22.393
732.22	22.699
732.53	29.139
732.85	23.154
733.16	25.000
733.48	26.481
733.80	20.996
734.11	23.448
734.43	23.129
734.74	21.958
735.06	23.824
735.37	22.324
735.69	19.355
736.00	24.242
736.32	22.185
736.63	20.690
736.95	23.188
737.26	27.152
737.58	20.144
737.89	25.090
738.21	25.564
738.52	24.231
738.83	24.609
739.15	26.068
739.46	25.806
739.78	24.476
740.09	19.231
740.41	26.224
740.72	22.628
741.04	26.190
741.35	21.645
741.66	26.389
741.98	22.381
742.29	27.700
742.61	31.016
742.92	28.972
743.23	25.877
743.55	22.973
743.86	28.444
744.18	19.524
744.49	27.586
744.80	25.888
745.12	29.381
745.43	34.171
745.74	27.670
746.06	24.390
746.37	30.837
746.68	30.348
747.00	28.272
747.31	24.038
747.62	23.502
747.94	17.904
748.25	24.651
748.56	27.143
748.88	20.652
749.19	27.230
749.50	26.471
749.82	28.889
750.13	26.872
750.44	25.203
750.75	24.800
751.07	22.143
751.38	25.830
751.69	17.939
752.01	26.538
752.32	22.568
752.63	21.154
752.94	23.016
753.26	26.522
753.57	26.786
753.88	21.983
754.19	23.651
754.51	20.703
754.82	27.273
755.13	21.399
755.44	26.446
755.75	29.218
756.07	22.490
756.38	16.797
756.69	24.910
757.00	22.648
757.31	25.839
757.63	24.299
757.94	22.254
758.25	21.802
758.56	22.911
758.87	21.307
759.18	20.333
759.50	25.979
759.81	16.058
760.12	19.932
760.43	23.301
760.74	21.562
761.05	20.225
761.36	21.257
761.67	22.189
761.99	19.677
762.30	23.913
762.61	26.415
762.92	23.318
763.23	19.905
763.54	24.000
763.85	29.536
764.16	23.673
764.47	25.424
764.78	20.974
765.10	25.899
765.41	16.129
765.72	24.214
766.03	20.141
766.34	22.932
766.65	19.028
766.96	26.500
767.27	22.396
767.58	17.442
767.89	18.710
768.20	22.086
768.51	25.683
768.82	20.541
769.13	21.000
769.44	20.175
769.75	25.974
770.06	22.477
770.37	21.596
770.68	27.604
770.99	21.287
771.30	22.330
771.61	19.444
771.92	21.212
772.23	21.963
772.54	23.936
772.85	24.260
773.16	29.268
773.47	31.325
773.78	26.374
774.09	16.667
774.39	25.309
774.70	30.201
775.01	26.087
775.32	22.388
775.63	13.223
775.94	22.556
776.25	20.000
776.56	27.049
776.87	29.204
777.18	27.434
777.48	17.273
777.79	18.261
778.10	26.606
778.41	25.424
778.72	26.446
779.03	19.403
779.34	27.068
779.65	22.876
779.95	25.362
780.26	21.088
780.57	14.655
780.88	15.741
781.19	9.091
781.50	19.200
781.80	29.412
782.11	19.231
782.42	16.867
782.73	16.788
783.04	26.351
783.34	16.667
783.65	25.581
783.96	26.829
784.27	24.786
784.57	9.756
784.88	20.325
785.19	24.561
785.50	12.371
785.81	26.667
786.11	23.529
786.42	29.091
786.73	30.631
787.04	24.752
787.34	15.238
787.65	20.000
787.96	7.843
788.26	25.225
788.57	22.581
788.88	20.312
789.19	26.496
789.49	15.966
789.80	23.077
790.11	26.549
790.41	13.131
790.72	22.642
791.03	25.000
791.33	21.053
791.64	21.505
791.95	22.667
792.25	17.143
792.56	23.171
792.87	34.694
793.17	14.474
793.48	12.162
793.79	15.493
794.09	11.392
794.40	19.149
794.70	19.626
795.01	10.526
795.32	17.273
795.62	22.321
795.93	16.495
796.23	16.484
796.54	34.737
796.85	26.027
797.15	20.833
797.46	13.699
797.76	19.718
798.07	11.250
798.37	33.824
798.68	28.571
798.99	14.286
799.29	27.632
799.60	15.000
799.90	4.167
800.21	29.687
800.51	7.937
800.82	22.951
801.12	29.825
801.43	21.127
801.73	8.475
802.04	29.508
802.34	36.364
802.65	23.077
802.95	25.926
803.26	30.000
803.56	23.077
803.87	-10.526
804.17	46.774
804.48	23.077
804.78	10.256
805.09	18.605
805.39	18.750
805.70	9.434
806.00	45.614
806.30	29.730
806.61	25.000
806.91	23.457
807.22	26.667
807.52	29.851
807.83	22.581
808.13	9.524
808.43	7.273
808.74	15.152
809.04	33.962
809.35	17.808
809.65	45.614
809.95	36.765
810.26	21.569
810.56	-2.000
810.86	10.204
811.17	14.286
811.47	30.769
811.77	45.161
812.08	-26.316
812.38	30.952
812.69	21.739
812.99	35.484
813.29	9.524
813.59	7.407
813.90	19.149
814.20	-11.628
814.50	4.167
814.81	30.000
815.11	31.707
815.41	-3.333
815.72	22.857
816.02	13.889
816.32	35.897
816.62	13.514
816.93	11.765
817.23	19.565
817.53	8.824
817.84	2.941
818.14	-9.375
818.44	-3.448
818.74	-9.677
819.04	11.111
819.35	10.000
819.65	-8.000
819.95	20.000
820.25	-4.000
820.56	10.526
820.86	20.000
821.16	14.894
821.46	17.241
821.76	10.256
822.07	-2.500
822.37	-25.581
822.67	20.000
822.97	0.000
823.27	24.324
823.57	84.000
823.88	0.000
824.18	-19.048
824.48	-26.923
824.78	-23.077
825.08	43.478
825.38	50.000
825.69	66.667
825.99	20.000
826.29	27.027
826.59	44.118
826.89	-4.000
827.19	22.857
827.49	18.421
827.79	25.000
828.09	20.000
828.39	34.783
828.70	10.345
829.00	34.483
829.30	58.333
829.60	53.125
829.90	22.222
830.20	-15.385
830.50	19.048
830.80	17.857
831.10	28.205
831.40	0.000
831.70	47.059
832.00	20.833
832.30	31.579
832.60	-37.500
832.90	-25.000
833.20	-41.176
833.50	20.000
833.80	0.000
834.10	0.000
834.40	29.167
834.70	22.222
835.00	30.769
835.30	4.167
835.60	27.586
835.90	22.222
836.20	-63.636
836.50	-25.000
836.80	8.571
837.10	68.571
837.40	64.706
837.70	-27.273
838.00	50.000
838.30	25.000
838.60	38.095
838.90	35.000
839.19	13.043
839.49	60.870
839.79	-33.333
840.09	52.174
840.39	18.182
840.69	-31.250
840.99	57.895
841.29	-25.000
841.59	50.000
841.88	11.111
842.18	45.833
842.48	-58.824
842.78	17.241
843.08	50.000
843.38	-7.692
843.68	11.111
843.97	-23.077
844.27	45.455
844.57	-100.000
844.87	64.000
845.17	40.000
845.47	0.000
845.76	-11.111
846.06	0.000
846.36	-125.000
846.66	10.000
846.96	5.263
847.25	-12.500
847.55	33.333
847.85	-13.333
848.15	-60.000
848.44	96.154
848.74	31.579
849.04	133.333
849.34	-22.222
849.63	-15.789
849.93	0.000
850.23	0.000
850.53	57.143
850.82	-4.000
851.12	36.842
851.42	-700.000
851.71	35.714
852.01	75.000
852.31	23.529
852.61	6.667
852.90	76.190
853.20	50.000
853.50	-16.667
853.79	-57.895
854.09	-40.000
854.39	32.143
854.68	47.826
854.98	-91.667
855.28	37.931
855.57	6.250
855.87	55.000
856.17	-33.333
856.46	10.345
856.76	-6.667
857.05	-29.412
857.35	-100.000
857.65	-36.364
857.94	33.333
858.24	-7.143
858.53	71.429
858.83	-91.667
859.13	0.000
859.42	85.714
859.72	62.500
860.01	-266.667
860.31	-50.000
860.60	-180.000
860.90	88.889
861.20	25.000
861.49	-100.000
861.79	29.412
862.08	-50.000
862.38	-116.667
862.67	84.615
862.97	82.353
863.26	55.000
863.56	35.294
863.85	266.667
864.15	30.000
864.44	30.769
864.74	45.000
865.03	50.000
865.33	100.000
865.62	5.882
865.92	-250.000
866.21	42.857
866.51	8.333
866.80	500.000
867.10	100.000
867.39	23.529
867.69	47.826
867.98	-57.143
868.27	-160.000
868.57	-68.750
868.86	-172.727
869.16	47.059
869.45	33.333
869.75	14.286
870.04	200.000
870.33	141.667
870.63	140.000
870.92	55.556
871.22	25.000
871.51	-18.182
871.80	16.667
872.10	30.000
>>>>>End Processed Spectral Data<<<<<
