SpectraSuite Data File
++++++++++++++++++++++++++++++++++++
Date: Sat May 16 11:41:00 PDT 2015
User: schluterlab
Dark Spectrum Present: Yes
Reference Spectrum Present: Yes
Number of Sampled Component Spectra: 1
Spectrometers: USB2E3373
Integration Time (usec): 3000 (USB2E3373)
Spectra Averaged: 3 (USB2E3373)
Boxcar Smoothing: 0 (USB2E3373)
Correct for Electrical Dark: No (USB2E3373)
Strobe/Lamp Enabled: No (USB2E3373)
Correct for Detector Non-linearity: No (USB2E3373)
Correct for Stray Light: No (USB2E3373)
Number of Pixels in Processed Spectrum: 2048
>>>>>Begin Processed Spectral Data<<<<<
178.53	0.000
178.91	146.667
179.29	433.333
179.67	-1600.000
180.04	-69.231
180.42	2200.000
180.80	400.000
181.18	350.000
181.56	-200.000
181.94	1600.000
182.31	625.000
182.69	-76.923
183.07	-566.667
183.45	800.000
183.83	400.000
184.20	-228.571
184.58	-225.000
184.96	-175.000
185.34	168.750
185.72	-400.000
186.09	350.000
186.47	-200.000
186.85	-275.000
187.23	-137.500
187.61	-250.000
187.98	-350.000
188.36	-112.500
188.74	-150.000
189.12	2000.000
189.49	242.857
189.87	-83.333
190.25	350.000
190.63	-35.714
191.00	-211.111
191.38	460.000
191.76	-6.667
192.14	680.000
192.51	-360.000
192.89	-600.000
193.27	0.000
193.65	-166.667
194.02	-314.286
194.40	600.000
194.78	-60.000
195.15	-1100.000
195.53	-154.545
195.91	-333.333
196.29	280.000
196.66	-800.000
197.04	2700.000
197.42	-350.000
197.79	20.000
198.17	-533.333
198.55	-700.000
198.92	-2300.000
199.30	100.000
199.68	-350.000
200.05	-200.000
200.43	-188.889
200.81	-1200.000
201.18	-125.000
201.56	357.143
201.94	13.333
202.31	-13.636
202.69	-60.000
203.07	-50.000
203.44	466.667
203.82	-383.333
204.19	-525.000
204.57	-150.000
204.95	-2000.000
205.32	-25.000
205.70	500.000
206.08	-1400.000
206.45	-33.333
206.83	-550.000
207.20	200.000
207.58	-466.667
207.96	-266.667
208.33	-237.500
208.71	-155.556
209.08	280.000
209.46	-242.857
209.84	900.000
210.21	0.000
210.59	20.000
210.96	900.000
211.34	-216.667
211.71	-433.333
212.09	275.000
212.46	950.000
212.84	-3400.000
213.22	733.333
213.59	200.000
213.97	-11.111
214.34	220.000
214.72	-130.000
215.09	-500.000
215.47	-150.000
215.84	-80.000
216.22	-20.000
216.59	6.667
216.97	-275.000
217.34	300.000
217.72	-214.286
218.09	-350.000
218.47	-185.714
218.84	400.000
219.22	-200.000
219.59	0.000
219.97	228.571
220.34	425.000
220.72	262.500
221.09	-200.000
221.47	0.000
221.84	533.333
222.22	-700.000
222.59	1400.000
222.97	-225.000
223.34	-950.000
223.72	-533.333
224.09	-64.286
224.46	-475.000
224.84	-57.143
225.21	-242.857
225.59	-18.182
225.96	-187.500
226.34	-271.429
226.71	-66.667
227.08	-50.000
227.46	1500.000
227.83	-142.857
228.21	-150.000
228.58	300.000
228.95	-50.000
229.33	-2100.000
229.70	-140.000
230.08	-1050.000
230.45	-75.000
230.82	-216.667
231.20	-400.000
231.57	-600.000
231.95	1900.000
232.32	-28.571
232.69	-144.444
233.07	-100.000
233.44	-950.000
233.81	-60.000
234.19	-33.333
234.56	-87.500
234.93	12.500
235.31	-357.143
235.68	-128.571
236.05	-47.059
236.43	-40.909
236.80	-9.677
237.17	-12.500
237.55	4.762
237.92	-50.000
238.29	0.000
238.67	-2.941
239.04	19.444
239.41	-38.710
239.79	-61.538
240.16	7.143
240.53	-9.091
240.91	7.692
241.28	34.545
241.65	24.615
242.02	34.426
242.40	1.639
242.77	18.182
243.14	1.695
243.51	11.429
243.89	13.924
244.26	20.225
244.63	29.474
245.00	32.632
245.38	20.339
245.75	21.239
246.12	30.400
246.49	32.283
246.87	26.016
247.24	31.356
247.61	23.729
247.98	32.394
248.36	30.070
248.73	31.646
249.10	30.573
249.47	39.181
249.84	27.841
250.22	27.381
250.59	31.073
250.96	32.984
251.33	36.493
251.70	31.731
252.08	33.175
252.45	29.858
252.82	25.714
253.19	29.362
253.56	33.871
253.94	31.224
254.31	33.906
254.68	31.707
255.05	28.629
255.42	30.556
255.79	29.749
256.16	40.784
256.54	37.868
256.91	32.576
257.28	31.136
257.65	32.979
258.02	34.277
258.39	34.448
258.76	32.770
259.14	33.025
259.51	32.787
259.88	37.500
260.25	33.230
260.62	32.797
260.99	32.047
261.36	32.927
261.73	35.260
262.10	38.056
262.47	34.758
262.85	37.714
263.22	33.524
263.59	33.231
263.96	33.043
264.33	34.959
264.70	38.122
265.07	32.692
265.44	35.917
265.81	34.109
266.18	34.684
266.55	34.804
266.92	38.539
267.29	32.203
267.66	33.827
268.03	35.507
268.40	32.394
268.77	33.976
269.14	34.803
269.51	33.563
269.88	33.028
270.25	32.168
270.62	38.215
270.99	34.009
271.36	35.431
271.73	33.632
272.10	34.096
272.47	33.778
272.84	35.333
273.21	35.092
273.58	32.967
273.95	34.211
274.32	36.652
274.69	35.230
275.06	34.151
275.43	34.375
275.80	37.475
276.17	34.728
276.54	33.198
276.91	33.333
277.28	33.063
277.65	33.471
278.02	34.029
278.39	33.595
278.76	34.661
279.13	32.806
279.50	35.785
279.87	31.712
280.23	36.842
280.60	33.797
280.97	34.563
281.34	31.915
281.71	34.038
282.08	35.282
282.45	32.179
282.82	34.302
283.19	32.909
283.56	35.348
283.92	33.746
284.29	34.015
284.66	32.194
285.03	32.977
285.40	35.055
285.77	32.632
286.14	33.032
286.51	32.860
286.87	33.757
287.24	34.812
287.61	32.397
287.98	32.062
288.35	32.066
288.72	29.881
289.08	30.508
289.45	30.303
289.82	31.488
290.19	33.005
290.56	27.603
290.93	29.094
291.29	31.605
291.66	31.723
292.03	31.240
292.40	28.765
292.77	29.503
293.13	29.431
293.50	27.043
293.87	27.761
294.24	27.903
294.60	27.576
294.97	28.983
295.34	26.074
295.71	28.274
296.08	26.421
296.44	27.897
296.81	25.071
297.18	26.479
297.55	26.130
297.91	27.615
298.28	25.205
298.65	26.360
299.02	26.070
299.38	25.267
299.75	23.777
300.12	25.769
300.48	24.680
300.85	25.426
301.22	24.321
301.59	23.017
301.95	25.567
302.32	24.120
302.69	23.745
303.05	23.565
303.42	22.500
303.79	24.163
304.15	25.118
304.52	24.271
304.89	23.022
305.25	22.711
305.62	23.502
305.99	25.442
306.35	23.307
306.72	23.918
307.09	24.745
307.45	22.701
307.82	21.341
308.19	22.371
308.55	22.549
308.92	22.019
309.29	24.865
309.65	22.800
310.02	23.434
310.38	22.595
310.75	23.258
311.12	23.244
311.48	24.217
311.85	21.524
312.22	23.584
312.58	22.889
312.95	21.101
313.31	22.877
313.68	23.015
314.05	22.651
314.41	21.026
314.78	22.677
315.14	22.507
315.51	22.391
315.87	22.362
316.24	22.449
316.61	21.881
316.97	20.995
317.34	23.025
317.70	21.707
318.07	21.549
318.43	22.940
318.80	22.066
319.16	21.482
319.53	21.992
319.89	20.414
320.26	22.941
320.62	21.250
320.99	22.388
321.35	21.379
321.72	20.471
322.08	21.761
322.45	20.594
322.81	20.557
323.18	20.845
323.54	20.887
323.91	20.853
324.27	21.198
324.64	21.664
325.00	20.332
325.37	21.629
325.73	23.185
326.10	21.612
326.46	21.716
326.83	19.915
327.19	20.934
327.56	22.317
327.92	21.240
328.29	21.472
328.65	20.182
329.01	21.113
329.38	19.625
329.74	21.886
330.11	22.031
330.47	20.163
330.84	21.173
331.20	20.848
331.56	21.878
331.93	21.403
332.29	21.826
332.66	21.510
333.02	21.357
333.38	21.237
333.75	21.015
334.11	20.533
334.48	20.477
334.84	21.610
335.20	20.479
335.57	20.126
335.93	22.650
336.29	21.789
336.66	19.912
337.02	20.541
337.38	20.410
337.75	20.369
338.11	21.109
338.47	19.929
338.84	20.417
339.20	20.123
339.56	20.945
339.93	20.370
340.29	19.575
340.65	20.717
341.02	18.634
341.38	19.798
341.74	20.660
342.11	19.966
342.47	19.742
342.83	20.067
343.20	18.873
343.56	19.265
343.92	20.868
344.28	21.447
344.65	19.142
345.01	18.739
345.37	21.844
345.73	18.576
346.10	19.787
346.46	19.253
346.82	19.086
347.19	19.803
347.55	19.583
347.91	20.945
348.27	19.332
348.63	20.194
349.00	19.491
349.36	18.033
349.72	20.064
350.08	19.246
350.45	18.991
350.81	19.188
351.17	17.765
351.53	18.298
351.89	19.402
352.26	20.000
352.62	20.276
352.98	19.146
353.34	20.304
353.70	17.761
354.07	19.119
354.43	18.893
354.79	18.859
355.15	18.450
355.51	19.141
355.87	19.684
356.24	18.983
356.60	19.017
356.96	19.092
357.32	18.448
357.68	18.391
358.04	19.784
358.40	18.871
358.77	18.856
359.13	19.204
359.49	19.652
359.85	18.750
360.21	18.189
360.57	18.524
360.93	19.852
361.29	19.133
361.66	18.750
362.02	18.343
362.38	19.076
362.74	18.974
363.10	19.082
363.46	19.017
363.82	19.169
364.18	19.320
364.54	20.014
364.90	17.959
365.26	18.474
365.62	19.957
365.98	19.346
366.35	18.803
366.71	17.759
367.07	18.843
367.43	20.041
367.79	18.694
368.15	18.919
368.51	18.601
368.87	19.505
369.23	20.070
369.59	19.167
369.95	19.591
370.31	19.972
370.67	18.221
371.03	19.461
371.39	17.963
371.75	18.097
372.11	17.575
372.47	18.510
372.83	18.985
373.19	18.643
373.55	18.860
373.91	18.563
374.27	18.344
374.63	18.910
374.99	19.750
375.35	17.833
375.71	18.704
376.07	18.617
376.42	16.887
376.78	19.346
377.14	18.237
377.50	18.569
377.86	18.466
378.22	18.216
378.58	18.530
378.94	18.002
379.30	18.282
379.66	18.822
380.02	17.647
380.38	18.429
380.74	18.581
381.09	18.453
381.45	18.377
381.81	18.693
382.17	18.484
382.53	18.116
382.89	18.002
383.25	18.964
383.61	18.396
383.97	18.310
384.32	18.648
384.68	18.682
385.04	17.754
385.40	18.624
385.76	18.171
386.12	18.364
386.48	19.245
386.83	17.301
387.19	18.709
387.55	18.655
387.91	17.487
388.27	18.034
388.62	17.668
388.98	17.081
389.34	18.237
389.70	18.514
390.06	17.589
390.42	18.846
390.77	17.792
391.13	18.634
391.49	18.964
391.85	18.267
392.20	17.779
392.56	18.082
392.92	18.197
393.28	18.829
393.64	18.280
393.99	19.138
394.35	17.822
394.71	18.221
395.07	18.456
395.42	17.104
395.78	17.599
396.14	18.816
396.50	18.287
396.85	18.692
397.21	18.591
397.57	18.237
397.92	18.677
398.28	19.111
398.64	18.203
399.00	18.427
399.35	18.264
399.71	18.235
400.07	19.045
400.42	19.404
400.78	17.949
401.14	17.904
401.49	18.632
401.85	18.304
402.21	18.594
402.57	18.143
402.92	18.880
403.28	18.811
403.63	17.615
403.99	18.583
404.35	17.935
404.70	19.310
405.06	18.512
405.42	16.913
405.77	18.100
406.13	17.547
406.49	19.053
406.84	17.337
407.20	19.494
407.55	18.556
407.91	18.070
408.27	18.566
408.62	18.761
408.98	18.617
409.34	18.342
409.69	18.336
410.05	19.042
410.40	18.761
410.76	18.791
411.11	18.641
411.47	18.926
411.83	18.460
412.18	18.936
412.54	17.877
412.89	18.955
413.25	18.182
413.60	18.348
413.96	17.498
414.31	18.226
414.67	18.603
415.03	18.305
415.38	18.282
415.74	19.072
416.09	18.286
416.45	18.452
416.80	18.596
417.16	17.608
417.51	18.582
417.87	17.605
418.22	18.963
418.58	17.843
418.93	17.842
419.29	17.754
419.64	19.347
420.00	18.955
420.35	18.628
420.71	18.247
421.06	18.462
421.42	17.916
421.77	17.979
422.12	18.523
422.48	19.027
422.83	18.964
423.19	18.263
423.54	18.790
423.90	18.855
424.25	17.251
424.61	18.938
424.96	18.724
425.31	17.887
425.67	18.567
426.02	17.269
426.38	18.875
426.73	18.469
427.09	17.586
427.44	18.580
427.79	17.733
428.15	18.253
428.50	18.768
428.85	18.046
429.21	17.986
429.56	19.167
429.92	18.888
430.27	18.794
430.62	18.548
430.98	17.355
431.33	19.104
431.68	19.303
432.04	18.355
432.39	18.348
432.74	17.866
433.10	17.727
433.45	17.501
433.80	18.869
434.16	18.861
434.51	18.630
434.86	18.688
435.22	18.374
435.57	17.075
435.92	18.054
436.28	18.635
436.63	18.372
436.98	17.182
437.34	17.956
437.69	18.261
438.04	18.208
438.39	18.412
438.75	17.637
439.10	18.490
439.45	17.562
439.81	18.795
440.16	18.569
440.51	18.471
440.86	17.814
441.22	17.579
441.57	18.947
441.92	18.363
442.27	17.370
442.63	19.099
442.98	18.228
443.33	18.287
443.68	18.812
444.03	18.566
444.39	18.600
444.74	18.998
445.09	18.805
445.44	18.177
445.79	18.664
446.15	19.168
446.50	18.236
446.85	17.958
447.20	18.590
447.55	19.006
447.91	19.315
448.26	17.542
448.61	17.600
448.96	19.328
449.31	18.658
449.66	17.573
450.02	18.393
450.37	18.087
450.72	18.418
451.07	18.793
451.42	18.216
451.77	18.372
452.12	19.070
452.47	17.821
452.83	18.404
453.18	19.102
453.53	18.346
453.88	19.199
454.23	18.077
454.58	18.769
454.93	18.955
455.28	18.228
455.63	17.752
455.98	18.735
456.34	17.853
456.69	20.138
457.04	18.869
457.39	18.660
457.74	18.015
458.09	18.735
458.44	18.591
458.79	17.993
459.14	19.053
459.49	19.834
459.84	19.337
460.19	18.556
460.54	18.512
460.89	17.545
461.24	18.033
461.59	18.757
461.94	18.396
462.29	18.523
462.64	19.302
462.99	18.541
463.34	17.488
463.69	18.448
464.04	18.102
464.39	18.160
464.74	18.026
465.09	18.641
465.44	18.500
465.79	19.346
466.14	18.182
466.49	18.653
466.84	18.067
467.19	18.828
467.54	18.354
467.89	18.496
468.24	17.933
468.59	17.739
468.94	17.556
469.29	18.064
469.64	18.464
469.99	18.163
470.34	17.769
470.68	18.823
471.03	17.894
471.38	17.153
471.73	17.832
472.08	17.403
472.43	17.889
472.78	17.867
473.13	17.164
473.48	18.124
473.83	18.052
474.17	17.834
474.52	18.031
474.87	18.765
475.22	17.699
475.57	17.889
475.92	18.359
476.27	18.114
476.61	18.310
476.96	17.999
477.31	18.030
477.66	18.152
478.01	18.206
478.36	17.706
478.70	18.633
479.05	18.064
479.40	17.565
479.75	17.686
480.10	18.552
480.45	17.166
480.79	18.509
481.14	18.063
481.49	19.361
481.84	18.585
482.19	17.999
482.53	18.419
482.88	18.130
483.23	17.793
483.58	18.455
483.92	18.490
484.27	17.988
484.62	18.013
484.97	18.550
485.31	17.792
485.66	19.051
486.01	19.375
486.36	19.754
486.70	19.433
487.05	18.949
487.40	19.311
487.75	17.715
488.09	18.067
488.44	16.915
488.79	17.757
489.13	17.041
489.48	17.496
489.83	18.079
490.17	18.372
490.52	18.569
490.87	17.968
491.22	17.375
491.56	17.454
491.91	18.416
492.26	17.830
492.60	17.317
492.95	18.372
493.30	18.009
493.64	17.913
493.99	17.543
494.34	18.143
494.68	18.212
495.03	17.495
495.37	17.650
495.72	18.075
496.07	18.677
496.41	18.342
496.76	17.945
497.11	17.711
497.45	18.103
497.80	16.858
498.14	17.976
498.49	16.926
498.84	17.476
499.18	18.713
499.53	18.266
499.87	17.616
500.22	18.382
500.56	18.309
500.91	17.488
501.26	19.068
501.60	17.429
501.95	18.647
502.29	17.430
502.64	18.529
502.98	17.729
503.33	18.374
503.67	18.056
504.02	17.190
504.36	18.039
504.71	18.186
505.06	17.574
505.40	18.513
505.75	17.785
506.09	18.554
506.44	18.296
506.78	18.816
507.13	18.383
507.47	17.736
507.82	17.088
508.16	18.290
508.51	17.568
508.85	17.340
509.19	16.954
509.54	17.230
509.88	18.404
510.23	17.610
510.57	18.624
510.92	18.045
511.26	17.384
511.61	16.901
511.95	18.588
512.30	17.482
512.64	16.305
512.98	18.042
513.33	18.506
513.67	17.476
514.02	16.275
514.36	18.116
514.70	17.883
515.05	17.724
515.39	16.897
515.74	17.219
516.08	18.040
516.42	17.677
516.77	17.851
517.11	17.677
517.46	18.361
517.80	17.930
518.14	17.391
518.49	17.334
518.83	17.389
519.17	17.288
519.52	17.120
519.86	16.965
520.20	17.543
520.55	16.738
520.89	16.781
521.23	17.399
521.58	16.740
521.92	17.479
522.26	17.905
522.61	16.603
522.95	16.465
523.29	17.304
523.64	17.864
523.98	17.823
524.32	17.662
524.66	16.708
525.01	16.699
525.35	17.010
525.69	17.437
526.04	17.820
526.38	18.269
526.72	17.241
527.06	17.448
527.41	17.030
527.75	15.512
528.09	16.744
528.43	16.393
528.78	17.399
529.12	18.182
529.46	17.461
529.80	17.301
530.15	18.158
530.49	17.594
530.83	18.009
531.17	17.037
531.51	16.410
531.86	17.248
532.20	17.814
532.54	17.513
532.88	17.062
533.22	17.447
533.57	17.755
533.91	16.604
534.25	17.410
534.59	17.364
534.93	17.237
535.27	17.747
535.62	17.711
535.96	17.776
536.30	16.819
536.64	17.795
536.98	17.373
537.32	15.895
537.66	17.312
538.01	17.595
538.35	17.230
538.69	17.781
539.03	17.265
539.37	17.033
539.71	16.945
540.05	18.506
540.39	17.798
540.73	17.554
541.07	16.872
541.42	17.758
541.76	16.744
542.10	19.311
542.44	17.388
542.78	17.775
543.12	18.398
543.46	17.260
543.80	17.726
544.14	17.260
544.48	17.520
544.82	17.456
545.16	16.700
545.50	16.824
545.84	17.663
546.18	17.961
546.52	16.643
546.86	17.949
547.20	17.792
547.54	16.391
547.88	17.585
548.22	17.562
548.56	16.433
548.90	17.183
549.24	18.080
549.58	17.008
549.92	17.456
550.26	18.064
550.60	17.496
550.94	17.372
551.28	18.360
551.62	16.839
551.96	17.873
552.30	17.909
552.64	17.875
552.98	17.800
553.32	17.749
553.66	17.808
554.00	17.342
554.34	17.256
554.68	17.617
555.02	17.366
555.36	17.685
555.69	17.335
556.03	17.474
556.37	17.781
556.71	18.110
557.05	17.960
557.39	17.149
557.73	18.745
558.07	18.086
558.41	18.100
558.75	17.567
559.08	15.875
559.42	17.458
559.76	17.255
560.10	18.792
560.44	19.075
560.78	18.372
561.12	18.012
561.45	17.877
561.79	17.770
562.13	18.163
562.47	17.577
562.81	16.761
563.15	17.845
563.48	18.798
563.82	18.729
564.16	18.053
564.50	18.548
564.84	18.122
565.17	18.037
565.51	17.862
565.85	18.256
566.19	18.841
566.52	18.069
566.86	17.320
567.20	19.249
567.54	19.728
567.88	18.816
568.21	18.345
568.55	18.664
568.89	18.439
569.23	19.852
569.56	19.042
569.90	19.394
570.24	19.842
570.57	19.086
570.91	19.687
571.25	20.071
571.59	19.856
571.92	20.268
572.26	19.712
572.60	20.168
572.93	19.170
573.27	19.512
573.61	19.386
573.95	20.303
574.28	19.187
574.62	20.285
574.96	20.115
575.29	19.334
575.63	19.910
575.97	19.040
576.30	19.622
576.64	19.661
576.98	19.856
577.31	19.928
577.65	20.197
577.98	19.909
578.32	20.080
578.66	19.766
578.99	19.489
579.33	19.894
579.67	19.224
580.00	19.494
580.34	19.423
580.67	19.515
581.01	19.081
581.35	19.882
581.68	20.210
582.02	20.672
582.35	20.227
582.69	20.306
583.02	19.828
583.36	19.852
583.70	19.508
584.03	19.208
584.37	19.188
584.70	19.323
585.04	19.544
585.37	19.189
585.71	19.642
586.04	19.757
586.38	19.620
586.72	19.729
587.05	20.164
587.39	19.995
587.72	20.016
588.06	19.890
588.39	19.596
588.73	19.493
589.06	19.533
589.40	19.684
589.73	19.157
590.07	18.718
590.40	19.151
590.73	19.032
591.07	18.975
591.40	19.237
591.74	19.592
592.07	18.874
592.41	19.618
592.74	19.523
593.08	20.288
593.41	19.671
593.75	19.585
594.08	19.842
594.41	20.370
594.75	20.008
595.08	18.835
595.42	19.364
595.75	19.147
596.09	18.588
596.42	19.149
596.75	18.542
597.09	19.145
597.42	19.031
597.75	19.176
598.09	18.934
598.42	19.355
598.76	19.145
599.09	19.534
599.42	19.608
599.76	18.951
600.09	19.847
600.42	19.977
600.76	19.322
601.09	19.256
601.42	19.232
601.76	19.081
602.09	19.305
602.42	19.177
602.76	18.779
603.09	19.153
603.42	19.782
603.76	19.864
604.09	19.263
604.42	19.067
604.76	19.058
605.09	19.349
605.42	19.326
605.75	19.103
606.09	19.469
606.42	19.397
606.75	19.493
607.09	18.968
607.42	19.102
607.75	18.764
608.08	19.385
608.42	18.543
608.75	18.879
609.08	18.607
609.41	18.485
609.75	18.820
610.08	19.412
610.41	20.000
610.74	18.810
611.07	18.864
611.41	18.154
611.74	19.537
612.07	19.066
612.40	18.603
612.73	18.309
613.07	18.492
613.40	18.938
613.73	18.147
614.06	19.220
614.39	19.222
614.72	18.324
615.06	18.370
615.39	17.960
615.72	18.414
616.05	18.277
616.38	18.630
616.71	18.859
617.05	19.240
617.38	18.328
617.71	18.366
618.04	19.193
618.37	19.308
618.70	18.057
619.03	17.603
619.36	17.759
619.69	19.311
620.03	18.251
620.36	18.143
620.69	18.378
621.02	17.428
621.35	18.065
621.68	17.541
622.01	17.961
622.34	18.789
622.67	17.734
623.00	18.592
623.33	18.060
623.66	18.242
623.99	18.120
624.32	17.857
624.65	18.028
624.99	17.700
625.32	17.066
625.65	17.560
625.98	17.371
626.31	17.618
626.64	18.159
626.97	17.637
627.30	16.596
627.63	15.976
627.96	16.536
628.29	17.555
628.62	17.192
628.95	16.535
629.28	16.823
629.61	15.800
629.94	17.769
630.26	17.495
630.59	17.186
630.92	16.016
631.25	17.238
631.58	17.037
631.91	15.000
632.24	16.667
632.57	16.778
632.90	16.207
633.23	16.472
633.56	13.801
633.89	16.274
634.22	17.001
634.55	16.947
634.88	17.050
635.20	15.855
635.53	16.539
635.86	16.877
636.19	15.629
636.52	15.890
636.85	15.162
637.18	14.750
637.51	15.489
637.83	16.245
638.16	13.421
638.49	14.759
638.82	15.701
639.15	15.564
639.48	15.694
639.81	15.906
640.13	14.865
640.46	16.952
640.79	17.087
641.12	17.207
641.45	15.925
641.77	14.970
642.10	15.559
642.43	14.719
642.76	14.488
643.09	14.921
643.41	16.667
643.74	16.057
644.07	16.069
644.40	16.370
644.73	15.677
645.05	14.190
645.38	16.722
645.71	14.261
646.04	14.958
646.36	13.089
646.69	14.879
647.02	14.801
647.35	15.523
647.67	14.051
648.00	16.872
648.33	15.852
648.66	14.355
648.98	17.038
649.31	15.077
649.64	15.781
649.96	16.013
650.29	15.410
650.62	14.286
650.94	14.840
651.27	15.425
651.60	16.436
651.92	15.411
652.25	14.691
652.58	15.503
652.90	17.657
653.23	15.806
653.56	14.716
653.88	14.098
654.21	16.275
654.54	16.445
654.86	15.730
655.19	16.332
655.52	19.501
655.84	22.902
656.17	25.120
656.49	33.793
656.82	33.479
657.15	24.335
657.47	17.567
657.80	13.169
658.13	14.390
658.45	18.069
658.78	16.164
659.10	15.965
659.43	15.187
659.75	14.516
660.08	14.062
660.41	13.660
660.73	13.531
661.06	13.333
661.38	13.036
661.71	12.237
662.03	14.718
662.36	15.352
662.68	14.135
663.01	15.287
663.33	12.698
663.66	12.661
663.98	12.500
664.31	13.199
664.63	14.823
664.96	11.280
665.28	14.100
665.61	9.091
665.93	15.021
666.26	13.360
666.58	12.474
666.91	16.036
667.23	13.158
667.56	12.245
667.88	13.348
668.21	13.825
668.53	12.617
668.86	13.626
669.18	13.242
669.50	11.449
669.83	12.409
670.15	15.695
670.48	11.916
670.80	12.528
671.13	12.190
671.45	12.162
671.77	15.203
672.10	14.793
672.42	14.945
672.75	14.727
673.07	13.874
673.39	15.665
673.72	13.189
674.04	13.588
674.37	10.722
674.69	13.320
675.01	11.489
675.34	13.666
675.66	13.823
675.98	12.775
676.31	16.290
676.63	14.023
676.95	14.159
677.28	13.225
677.60	15.158
677.92	14.758
678.25	15.536
678.57	17.490
678.89	12.159
679.22	13.627
679.54	16.568
679.86	13.400
680.18	15.970
680.51	12.849
680.83	17.524
681.15	13.487
681.48	16.024
681.80	12.097
682.12	14.085
682.44	13.163
682.77	12.554
683.09	14.675
683.41	15.708
683.73	11.872
684.06	14.624
684.38	12.971
684.70	15.021
685.02	14.173
685.34	11.891
685.67	12.879
685.99	11.342
686.31	16.517
686.63	14.716
686.96	13.494
687.28	13.102
687.60	17.188
687.92	14.202
688.24	16.339
688.56	13.226
688.89	12.179
689.21	15.317
689.53	13.103
689.85	13.808
690.17	12.780
690.49	15.012
690.82	12.530
691.14	11.792
691.46	12.417
691.78	18.282
692.10	16.314
692.42	11.778
692.74	15.880
693.06	13.034
693.39	14.094
693.71	13.995
694.03	15.983
694.35	13.544
694.67	11.348
694.99	12.788
695.31	15.816
695.63	11.480
695.95	10.174
696.27	14.963
696.59	13.636
696.91	12.921
697.23	14.062
697.56	13.221
697.88	15.991
698.20	13.919
698.52	12.780
698.84	13.592
699.16	13.095
699.48	10.250
699.80	14.035
700.12	17.632
700.44	6.983
700.76	8.746
701.08	13.663
701.40	9.668
701.72	12.037
702.04	13.782
702.36	13.554
702.68	11.377
703.00	10.725
703.32	9.169
703.64	15.294
703.96	14.244
704.28	13.609
704.60	11.709
704.91	8.889
705.23	11.974
705.55	10.811
705.87	13.311
706.19	8.681
706.51	6.944
706.83	10.820
707.15	12.102
707.47	16.529
707.79	11.856
708.11	10.687
708.43	15.960
708.74	12.468
709.06	13.370
709.38	9.770
709.70	10.625
710.02	12.577
710.34	8.911
710.66	9.206
710.98	12.618
711.29	6.774
711.61	11.182
711.93	9.180
712.25	11.296
712.57	10.105
712.89	17.266
713.20	16.151
713.52	10.821
713.84	9.964
714.16	13.770
714.48	13.333
714.80	12.000
715.11	15.562
715.43	15.060
715.75	12.150
716.07	11.803
716.39	13.378
716.70	12.892
717.02	12.963
717.34	8.397
717.66	12.448
717.97	10.246
718.29	11.765
718.61	13.095
718.93	10.753
719.24	7.721
719.56	9.434
719.88	14.182
720.20	10.112
720.51	15.038
720.83	14.859
721.15	12.295
721.46	13.333
721.78	9.962
722.10	9.600
722.42	8.678
722.73	6.375
723.05	11.245
723.37	13.725
723.68	13.765
724.00	13.821
724.32	16.049
724.63	7.054
724.95	15.702
725.27	10.526
725.58	9.052
725.90	7.143
726.22	13.653
726.53	12.928
726.85	5.098
727.16	12.030
727.48	13.846
727.80	4.508
728.11	12.605
728.43	12.397
728.74	11.719
729.06	15.530
729.38	7.393
729.69	6.299
730.01	14.173
730.32	8.367
730.64	7.692
730.96	14.925
731.27	15.357
731.59	14.148
731.90	15.951
732.22	12.883
732.53	12.914
732.85	10.403
733.16	9.420
733.48	11.150
733.80	8.185
734.11	14.483
734.43	13.605
734.74	15.134
735.06	14.734
735.37	13.456
735.69	6.452
736.00	10.438
736.32	12.914
736.63	9.655
736.95	14.493
737.26	16.887
737.58	10.791
737.89	16.129
738.21	10.902
738.52	13.077
738.83	10.547
739.15	12.393
739.46	11.290
739.78	11.538
740.09	13.287
740.41	10.839
740.72	13.504
741.04	10.317
741.35	9.524
741.66	7.407
741.98	0.952
742.29	9.859
742.61	14.973
742.92	15.421
743.23	7.018
743.55	9.009
743.86	16.000
744.18	8.095
744.49	18.227
744.80	15.736
745.12	11.856
745.43	9.548
745.74	9.709
746.06	7.317
746.37	11.894
746.68	15.423
747.00	8.901
747.31	8.654
747.62	7.834
747.94	13.974
748.25	13.953
748.56	10.476
748.88	4.348
749.19	11.268
749.50	13.725
749.82	18.222
750.13	13.656
750.44	13.008
750.75	10.000
751.07	14.643
751.38	10.701
751.69	7.252
752.01	12.692
752.32	8.171
752.63	10.385
752.94	11.111
753.26	9.565
753.57	14.286
753.88	8.190
754.19	8.714
754.51	11.328
754.82	11.067
755.13	9.877
755.44	7.438
755.75	10.700
756.07	8.434
756.38	7.031
756.69	15.162
757.00	11.847
757.31	11.074
757.63	16.822
757.94	13.295
758.25	12.791
758.56	17.790
758.87	13.636
759.18	10.333
759.50	14.235
759.81	9.854
760.12	14.189
760.43	11.650
760.74	14.062
761.05	14.326
761.36	16.467
761.67	14.497
761.99	7.419
762.30	13.406
762.61	11.698
762.92	8.072
763.23	11.848
763.54	9.333
763.85	17.300
764.16	11.429
764.47	16.102
764.78	15.730
765.10	16.187
765.41	12.258
765.72	14.780
766.03	6.360
766.34	10.902
766.65	10.121
766.96	11.500
767.27	7.812
767.58	11.047
767.89	7.742
768.20	12.883
768.51	10.383
768.82	9.730
769.13	12.000
769.44	15.789
769.75	12.987
770.06	12.385
770.37	6.103
770.68	11.458
770.99	10.396
771.30	13.592
771.61	11.111
771.92	10.823
772.23	12.617
772.54	12.234
772.85	5.325
773.16	8.537
773.47	12.048
773.78	17.033
774.09	12.000
774.39	7.407
774.70	5.369
775.01	1.449
775.32	7.463
775.63	-3.306
775.94	14.286
776.25	12.143
776.56	9.836
776.87	9.735
777.18	10.619
777.48	0.909
777.79	-10.435
778.10	0.917
778.41	0.847
778.72	9.917
779.03	12.687
779.34	9.774
779.65	7.190
779.95	10.870
780.26	7.483
780.57	0.000
780.88	-0.926
781.19	-2.020
781.50	4.800
781.80	6.536
782.11	7.692
782.42	3.614
782.73	0.730
783.04	10.135
783.34	3.030
783.65	5.426
783.96	8.130
784.27	17.949
784.57	8.943
784.88	5.691
785.19	15.789
785.50	-13.402
785.81	-6.667
786.11	4.902
786.42	-8.182
786.73	2.703
787.04	-2.970
787.34	3.810
787.65	5.714
787.96	4.902
788.26	9.009
788.57	8.065
788.88	5.469
789.19	4.274
789.49	9.244
789.80	-4.274
790.11	12.389
790.41	-1.010
790.72	20.755
791.03	-22.222
791.33	-7.895
791.64	10.753
791.95	2.667
792.25	-5.714
792.56	3.659
792.87	8.163
793.17	-1.316
793.48	6.757
793.79	-7.042
794.09	-8.861
794.40	0.000
794.70	0.000
795.01	0.877
795.32	7.273
795.62	2.679
795.93	5.155
796.23	-6.593
796.54	6.316
796.85	-20.548
797.15	-15.278
797.46	-4.110
797.76	-15.493
798.07	-2.500
798.37	-2.941
798.68	8.571
798.99	-14.286
799.29	-3.947
799.60	-21.667
799.90	-9.722
800.21	-15.625
800.51	-17.460
800.82	-3.279
801.12	1.754
801.43	-8.451
801.73	-23.729
802.04	-1.639
802.34	-23.636
802.65	1.923
802.95	3.704
803.26	-25.000
803.56	-13.462
803.87	-47.368
804.17	6.452
804.48	-1.538
804.78	-41.026
805.09	-27.907
805.39	-34.375
805.70	-28.302
806.00	19.298
806.30	18.919
806.61	-7.353
806.91	1.235
807.22	13.333
807.52	-2.985
807.83	3.226
808.13	-6.349
808.43	-32.727
808.74	-4.545
809.04	1.887
809.35	16.438
809.65	-7.018
809.95	8.824
810.26	-5.882
810.56	-16.000
810.86	-6.122
811.17	-37.143
811.47	-23.077
811.77	-41.935
812.08	-68.421
812.38	-14.286
812.69	-23.913
812.99	-41.935
813.29	-35.714
813.59	-51.852
813.90	-42.553
814.20	-39.535
814.50	-16.667
814.81	-11.667
815.11	-17.073
815.41	-36.667
815.72	-45.714
816.02	-30.556
816.32	-25.641
816.62	-43.243
816.93	-52.941
817.23	-23.913
817.53	-29.412
817.84	-35.294
818.14	-53.125
818.44	-37.931
818.74	-25.806
819.04	-40.741
819.35	-36.667
819.65	-80.000
819.95	-6.667
820.25	-64.000
820.56	-23.684
820.86	-10.000
821.16	-14.894
821.46	10.345
821.76	-25.641
822.07	-37.500
822.37	-37.209
822.67	-73.333
822.97	-54.054
823.27	2.703
823.57	-16.000
823.88	-35.135
824.18	-71.429
824.48	-38.462
824.78	-107.692
825.08	-73.913
825.38	-33.333
825.69	-66.667
825.99	-100.000
826.29	-56.757
826.59	-32.353
826.89	-4.000
827.19	-20.000
827.49	-28.947
827.79	-68.750
828.09	-56.667
828.39	-78.261
828.70	-51.724
829.00	-13.793
829.30	2.778
829.60	15.625
829.90	-11.111
830.20	-34.615
830.50	-47.619
830.80	-71.429
831.10	-33.333
831.40	-80.952
831.70	-23.529
832.00	-41.667
832.30	-52.632
832.60	-100.000
832.90	-108.333
833.20	-94.118
833.50	-106.667
833.80	-86.667
834.10	-105.000
834.40	-54.167
834.70	-77.778
835.00	-15.385
835.30	-66.667
835.60	-27.586
835.90	-55.556
836.20	-163.636
836.50	-108.333
836.80	-14.286
837.10	20.000
837.40	-82.353
837.70	-181.818
838.00	-83.333
838.30	-75.000
838.60	-42.857
838.90	-50.000
839.19	-52.174
839.49	-56.522
839.79	-111.111
840.09	-73.913
840.39	-77.273
840.69	-93.750
840.99	-63.158
841.29	-12.500
841.59	-100.000
841.88	-88.889
842.18	-45.833
842.48	-135.294
842.78	-41.379
843.08	-78.571
843.38	-84.615
843.68	-244.444
843.97	-69.231
844.27	-218.182
844.57	-320.000
844.87	-4.000
845.17	-220.000
845.47	-42.857
845.76	-111.111
846.06	0.000
846.36	-575.000
846.66	-100.000
846.96	-31.579
847.25	-16.667
847.55	-183.333
847.85	-106.667
848.15	-110.000
848.44	0.000
848.74	42.105
849.04	900.000
849.34	-144.444
849.63	-94.737
849.93	0.000
850.23	-25.000
850.53	-23.810
850.82	-24.000
851.12	-73.684
851.42	-1350.000
851.71	-21.429
852.01	-75.000
852.31	-88.235
852.61	-106.667
852.90	-42.857
853.20	-300.000
853.50	-11.111
853.79	-42.105
854.09	-66.667
854.39	-39.286
854.68	-78.261
854.98	-158.333
855.28	-34.483
855.57	-93.750
855.87	-25.000
856.17	-126.667
856.46	-6.897
856.76	-73.333
857.05	-41.176
857.35	-176.923
857.65	-81.818
857.94	-29.630
858.24	-107.143
858.53	-121.429
858.83	-158.333
859.13	-177.778
859.42	-28.571
859.72	-100.000
860.01	-366.667
860.31	-112.500
860.60	-400.000
860.90	-155.556
861.20	-212.500
861.49	-200.000
861.79	-47.059
862.08	-600.000
862.38	-100.000
862.67	-38.462
862.97	0.000
863.26	-30.000
863.56	-82.353
863.85	466.667
864.15	-40.000
864.44	-130.769
864.74	-15.000
865.03	-237.500
865.33	-416.667
865.62	-70.588
865.92	-675.000
866.21	-128.571
866.51	-175.000
866.80	-1000.000
867.10	-566.667
867.39	11.765
867.69	-26.087
867.98	-57.143
868.27	-100.000
868.57	-112.500
868.86	-154.545
869.16	-5.882
869.45	-200.000
869.75	-214.286
870.04	600.000
870.33	-108.333
870.63	-280.000
870.92	-177.778
871.22	0.000
871.51	-172.727
871.80	-50.000
872.10	-90.000
>>>>>End Processed Spectral Data<<<<<
