SpectraSuite Data File
++++++++++++++++++++++++++++++++++++
Date: Sat May 16 11:32:51 PDT 2015
User: schluterlab
Dark Spectrum Present: Yes
Reference Spectrum Present: Yes
Number of Sampled Component Spectra: 1
Spectrometers: USB2E3373
Integration Time (usec): 3000 (USB2E3373)
Spectra Averaged: 3 (USB2E3373)
Boxcar Smoothing: 0 (USB2E3373)
Correct for Electrical Dark: No (USB2E3373)
Strobe/Lamp Enabled: No (USB2E3373)
Correct for Detector Non-linearity: No (USB2E3373)
Correct for Stray Light: No (USB2E3373)
Number of Pixels in Processed Spectrum: 2048
>>>>>Begin Processed Spectral Data<<<<<
178.53	0.000
178.91	60.000
179.29	300.000
179.67	-1000.000
180.04	53.846
180.42	-500.000
180.80	375.000
181.18	500.000
181.56	125.000
181.94	2000.000
182.31	550.000
182.69	-107.692
183.07	-433.333
183.45	1450.000
183.83	833.333
184.20	-157.143
184.58	-225.000
184.96	-300.000
185.34	162.500
185.72	-600.000
186.09	233.333
186.47	-262.500
186.85	-250.000
187.23	-87.500
187.61	150.000
187.98	-312.500
188.36	-150.000
188.74	-112.500
189.12	1800.000
189.49	342.857
189.87	-75.000
190.25	500.000
190.63	-128.571
191.00	-222.222
191.38	440.000
191.76	-6.667
192.14	560.000
192.51	-200.000
192.89	-133.333
193.27	0.000
193.65	-166.667
194.02	-285.714
194.40	400.000
194.78	-150.000
195.15	-900.000
195.53	-145.455
195.91	-366.667
196.29	140.000
196.66	-400.000
197.04	2300.000
197.42	-225.000
197.79	-40.000
198.17	-533.333
198.55	-600.000
198.92	-1500.000
199.30	200.000
199.68	-550.000
200.05	-88.889
200.43	-88.889
200.81	-2000.000
201.18	-116.667
201.56	271.429
201.94	-53.333
202.31	4.545
202.69	60.000
203.07	-230.000
203.44	500.000
203.82	-216.667
204.19	-350.000
204.57	-100.000
204.95	-800.000
205.32	-43.750
205.70	1300.000
206.08	-1600.000
206.45	-38.889
206.83	-1450.000
207.20	-650.000
207.58	-700.000
207.96	-466.667
208.33	-175.000
208.71	0.000
209.08	170.000
209.46	-285.714
209.84	700.000
210.21	0.000
210.59	-5.000
210.96	1200.000
211.34	-250.000
211.71	-200.000
212.09	275.000
212.46	850.000
212.84	-1700.000
213.22	500.000
213.59	175.000
213.97	-55.556
214.34	210.000
214.72	-20.000
215.09	-466.667
215.47	-150.000
215.84	-160.000
216.22	-40.000
216.59	-33.333
216.97	-475.000
217.34	1200.000
217.72	-57.143
218.09	-250.000
218.47	-100.000
218.84	228.571
219.22	-42.857
219.59	0.000
219.97	285.714
220.34	275.000
220.72	300.000
221.09	-146.154
221.47	0.000
221.84	500.000
222.22	-800.000
222.59	400.000
222.97	-125.000
223.34	-800.000
223.72	-533.333
224.09	-78.571
224.46	-250.000
224.84	-78.571
225.21	-171.429
225.59	-72.727
225.96	-175.000
226.34	-100.000
226.71	-88.889
227.08	-55.000
227.46	1800.000
227.83	-228.571
228.21	-150.000
228.58	-150.000
228.95	-37.500
229.33	-1500.000
229.70	-280.000
230.08	-1050.000
230.45	-33.333
230.82	-183.333
231.20	-1600.000
231.57	-450.000
231.95	1800.000
232.32	0.000
232.69	-122.222
233.07	-257.143
233.44	-500.000
233.81	-20.000
234.19	-88.889
234.56	-81.250
234.93	25.000
235.31	-100.000
235.68	-92.857
236.05	23.529
236.43	-18.182
236.80	25.806
237.17	-20.833
237.55	0.000
237.92	-81.818
238.29	2.857
238.67	47.059
239.04	44.444
239.41	9.677
239.79	-10.256
240.16	9.524
240.53	10.909
240.91	12.821
241.28	47.273
241.65	43.077
242.02	37.705
242.40	19.672
242.77	48.485
243.14	38.983
243.51	34.286
243.89	50.633
244.26	26.966
244.63	51.579
245.00	36.842
245.38	38.136
245.75	42.478
246.12	45.600
246.49	41.732
246.87	34.959
247.24	31.356
247.61	50.000
247.98	30.282
248.36	45.455
248.73	39.873
249.10	38.217
249.47	47.368
249.84	42.045
250.22	38.095
250.59	48.588
250.96	45.550
251.33	49.763
251.70	47.115
252.08	42.180
252.45	45.498
252.82	42.857
253.19	39.574
253.56	39.919
253.94	42.194
254.31	45.494
254.68	48.780
255.05	44.355
255.42	51.190
255.79	40.143
256.16	50.980
256.54	47.794
256.91	45.833
257.28	45.788
257.65	53.191
258.02	47.484
258.39	48.161
258.76	45.270
259.14	41.975
259.51	46.557
259.88	46.951
260.25	49.689
260.62	53.698
260.99	45.104
261.36	50.915
261.73	51.445
262.10	49.444
262.47	46.439
262.85	51.714
263.22	46.705
263.59	48.923
263.96	46.087
264.33	46.883
264.70	51.934
265.07	53.571
265.44	48.062
265.81	48.320
266.18	47.089
266.55	46.078
266.92	51.889
267.29	49.153
267.66	45.185
268.03	49.034
268.40	47.887
268.77	48.675
269.14	47.332
269.51	46.667
269.88	45.872
270.25	45.688
270.62	49.886
270.99	48.874
271.36	49.184
271.73	48.655
272.10	51.030
272.47	50.444
272.84	50.889
273.21	50.459
273.58	46.154
273.95	45.833
274.32	51.810
274.69	50.766
275.06	48.466
275.43	46.652
275.80	49.898
276.17	49.163
276.54	49.695
276.91	48.560
277.28	46.450
277.65	50.207
278.02	48.017
278.39	50.884
278.76	47.809
279.13	48.221
279.50	46.521
279.87	46.512
280.23	46.154
280.60	47.316
280.97	47.961
281.34	48.936
281.71	47.885
282.08	47.984
282.45	49.084
282.82	46.318
283.19	47.091
283.56	49.084
283.92	45.583
284.29	47.584
284.66	44.784
285.03	47.594
285.40	47.786
285.77	46.667
286.14	47.292
286.51	48.313
286.87	47.187
287.24	46.587
287.61	43.306
287.98	43.674
288.35	44.793
288.72	44.143
289.08	44.068
289.45	43.098
289.82	43.426
290.19	43.186
290.56	41.653
290.93	41.176
291.29	42.139
291.66	42.834
292.03	41.758
292.40	39.759
292.77	42.547
293.13	42.764
293.50	39.525
293.87	40.031
294.24	39.065
294.60	35.909
294.97	39.150
295.34	37.630
295.71	40.476
296.08	38.402
296.44	38.197
296.81	40.171
297.18	38.028
297.55	37.853
297.91	39.609
298.28	36.986
298.65	36.960
299.02	36.898
299.38	35.829
299.75	35.734
300.12	35.256
300.48	37.084
300.85	35.518
301.22	36.869
301.59	35.241
301.95	36.902
302.32	35.854
302.69	35.496
303.05	33.333
303.42	34.000
303.79	35.526
304.15	34.123
304.52	34.772
304.89	34.593
305.25	34.432
305.62	32.785
305.99	34.747
306.35	32.630
306.72	33.257
307.09	35.755
307.45	32.009
307.82	31.620
308.19	32.774
308.55	32.789
308.92	31.794
309.29	33.622
309.65	31.919
310.02	32.181
310.38	30.811
310.75	32.480
311.12	32.128
311.48	31.733
311.85	32.235
312.22	33.162
312.58	31.740
312.95	29.358
313.31	32.667
313.68	31.357
314.05	32.839
314.41	30.885
314.78	31.169
315.14	32.280
315.51	32.320
315.87	31.946
316.24	30.515
316.61	31.286
316.97	32.338
317.34	30.925
317.70	30.427
318.07	30.877
318.43	31.180
318.80	32.300
319.16	30.019
319.53	30.263
319.89	29.539
320.26	30.294
320.62	31.154
320.99	30.249
321.35	28.670
321.72	30.604
322.08	29.773
322.45	28.911
322.81	30.259
323.18	30.932
323.54	30.037
323.91	28.730
324.27	30.133
324.64	29.525
325.00	29.843
325.37	31.312
325.73	32.021
326.10	28.787
326.46	28.722
326.83	31.064
327.19	29.358
327.56	31.346
327.92	30.161
328.29	30.043
328.65	28.273
329.01	30.124
329.38	28.724
329.74	30.403
330.11	29.556
330.47	28.610
330.84	30.339
331.20	29.783
331.56	28.441
331.93	29.840
332.29	29.589
332.66	28.797
333.02	28.778
333.38	29.211
333.75	28.673
334.11	28.800
334.48	29.479
334.84	29.834
335.20	28.369
335.57	28.700
335.93	30.707
336.29	28.964
336.66	28.899
337.02	29.189
337.38	28.075
337.75	29.061
338.11	29.159
338.47	29.093
338.84	28.312
339.20	27.856
339.56	29.679
339.93	28.483
340.29	27.458
340.65	27.972
341.02	27.150
341.38	26.874
341.74	29.721
342.11	28.157
342.47	27.983
342.83	27.708
343.20	27.839
343.56	26.367
343.92	27.963
344.28	28.175
344.65	27.393
345.01	27.899
345.37	28.571
345.73	27.414
346.10	26.901
346.46	26.807
346.82	27.185
347.19	28.431
347.55	27.127
347.91	27.638
348.27	26.253
348.63	27.706
349.00	28.401
349.36	27.322
349.72	28.185
350.08	26.544
350.45	26.872
350.81	26.831
351.17	26.447
351.53	26.173
351.89	27.971
352.26	26.977
352.62	27.496
352.98	27.611
353.34	26.779
353.70	25.560
354.07	26.515
354.43	26.561
354.79	25.911
355.15	27.077
355.51	25.625
355.87	28.300
356.24	26.847
356.60	27.075
356.96	27.021
357.32	26.683
357.68	27.356
358.04	26.790
358.40	26.527
358.77	26.275
359.13	25.249
359.49	26.379
359.85	26.067
360.21	26.484
360.57	26.807
360.93	26.000
361.29	26.532
361.66	25.381
362.02	25.740
362.38	25.899
362.74	27.253
363.10	27.116
363.46	27.493
363.82	26.093
364.18	26.990
364.54	27.019
364.90	25.437
365.26	25.321
365.62	26.158
365.98	26.529
366.35	27.113
366.71	25.511
367.07	26.676
367.43	26.905
367.79	26.529
368.15	26.387
368.51	26.434
368.87	26.442
369.23	26.386
369.59	25.556
369.95	25.934
370.31	26.934
370.67	24.873
371.03	26.531
371.39	25.743
371.75	26.609
372.11	25.825
372.47	24.729
372.83	26.287
373.19	25.643
373.55	26.319
373.91	26.245
374.27	25.325
374.63	25.328
374.99	25.591
375.35	25.841
375.71	26.739
376.07	25.941
376.42	24.901
376.78	26.405
377.14	26.983
377.50	25.274
377.86	25.878
378.22	25.440
378.58	26.004
378.94	24.908
379.30	25.777
379.66	25.926
380.02	25.253
380.38	26.647
380.74	25.733
381.09	25.835
381.45	26.253
381.81	25.045
382.17	25.376
382.53	25.897
382.89	25.000
383.25	25.647
383.61	26.297
383.97	24.923
384.32	24.656
384.68	25.030
385.04	25.121
385.40	25.685
385.76	25.488
386.12	25.234
386.48	26.733
386.83	25.828
387.19	25.463
387.55	25.803
387.91	25.015
388.27	24.849
388.62	24.579
388.98	25.076
389.34	24.725
389.70	24.665
390.06	24.736
390.42	25.000
390.77	24.479
391.13	25.280
391.49	25.515
391.85	24.127
392.20	24.697
392.56	24.435
392.92	25.214
393.28	25.660
393.64	24.895
393.99	25.538
394.35	25.122
394.71	25.571
395.07	25.110
395.42	24.493
395.78	24.513
396.14	26.168
396.50	25.138
396.85	25.848
397.21	25.456
397.57	25.350
397.92	25.585
398.28	25.056
398.64	25.521
399.00	25.730
399.35	25.310
399.71	25.494
400.07	25.612
400.42	25.730
400.78	24.508
401.14	24.611
401.49	25.295
401.85	25.747
402.21	25.209
402.57	25.061
402.92	26.369
403.28	25.184
403.63	25.404
403.99	25.171
404.35	25.060
404.70	25.102
405.06	25.433
405.42	25.215
405.77	25.000
406.13	25.610
406.49	24.985
406.84	25.795
407.20	25.618
407.55	25.776
407.91	23.834
408.27	24.816
408.62	25.676
408.98	24.924
409.34	25.107
409.69	25.016
410.05	25.591
410.40	25.628
410.76	25.193
411.11	26.122
411.47	24.616
411.83	25.611
412.18	25.124
412.54	25.076
412.89	24.970
413.25	24.144
413.60	24.605
413.96	24.214
414.31	25.443
414.67	24.698
415.03	25.485
415.38	24.789
415.74	25.966
416.09	25.064
416.45	25.000
416.80	25.683
417.16	24.651
417.51	26.527
417.87	25.372
418.22	25.664
418.58	25.610
418.93	25.812
419.29	26.098
419.64	24.497
420.00	25.456
420.35	25.310
420.71	25.030
421.06	25.503
421.42	24.707
421.77	25.293
422.12	25.853
422.48	24.693
422.83	25.626
423.19	26.169
423.54	25.303
423.90	25.795
424.25	24.491
424.61	24.668
424.96	26.097
425.31	25.210
425.67	25.158
426.02	23.982
426.38	25.590
426.73	25.424
427.09	25.797
427.44	25.284
427.79	25.058
428.15	25.434
428.50	25.279
428.85	25.060
429.21	24.571
429.56	25.573
429.92	24.950
430.27	25.324
430.62	25.496
430.98	25.144
431.33	26.681
431.68	25.737
432.04	25.965
432.39	25.470
432.74	25.180
433.10	24.873
433.45	23.777
433.80	25.420
434.16	25.094
434.51	25.425
434.86	26.186
435.22	25.668
435.57	26.132
435.92	25.029
436.28	25.638
436.63	25.382
436.98	24.513
437.34	25.162
437.69	24.679
438.04	25.808
438.39	25.572
438.75	25.029
439.10	25.763
439.45	24.864
439.81	25.843
440.16	25.213
440.51	26.235
440.86	25.275
441.22	25.318
441.57	25.474
441.92	25.320
442.27	25.000
442.63	25.912
442.98	24.661
443.33	25.206
443.68	25.117
444.03	25.196
444.39	25.698
444.74	25.551
445.09	25.000
445.44	25.549
445.79	25.395
446.15	25.192
446.50	24.823
446.85	25.398
447.20	25.587
447.55	25.912
447.91	25.435
448.26	25.084
448.61	25.241
448.96	25.770
449.31	25.986
449.66	25.587
450.02	25.263
450.37	25.159
450.72	24.746
451.07	25.770
451.42	24.721
451.77	25.314
452.12	25.685
452.47	25.378
452.83	25.335
453.18	25.996
453.53	25.373
453.88	26.256
454.23	25.816
454.58	25.420
454.93	26.071
455.28	25.048
455.63	24.693
455.98	26.446
456.34	25.604
456.69	25.578
457.04	25.138
457.39	25.299
457.74	25.103
458.09	26.160
458.44	26.386
458.79	25.953
459.14	26.298
459.49	26.406
459.84	25.576
460.19	25.358
460.54	26.195
460.89	25.729
461.24	25.865
461.59	26.084
461.94	25.780
462.29	26.087
462.64	26.350
462.99	26.439
463.34	25.186
463.69	26.399
464.04	25.425
464.39	25.508
464.74	26.832
465.09	24.534
465.44	25.606
465.79	25.494
466.14	26.410
466.49	25.331
466.84	26.651
467.19	26.122
467.54	25.696
467.89	25.524
468.24	25.772
468.59	25.609
468.94	27.010
469.29	26.901
469.64	26.078
469.99	26.063
470.34	26.453
470.68	25.799
471.03	26.290
471.38	26.250
471.73	26.573
472.08	25.770
472.43	25.547
472.78	26.200
473.13	25.447
473.48	27.122
473.83	26.427
474.17	26.497
474.52	27.621
474.87	25.699
475.22	26.077
475.57	25.722
475.92	25.972
476.27	26.114
476.61	25.972
476.96	25.936
477.31	25.996
477.66	26.397
478.01	27.012
478.36	25.720
478.70	27.015
479.05	26.501
479.40	26.891
479.75	25.994
480.10	27.183
480.45	25.242
480.79	26.407
481.14	26.944
481.49	26.912
481.84	26.768
482.19	26.450
482.53	25.805
482.88	26.293
483.23	26.056
483.58	27.012
483.92	25.991
484.27	25.255
484.62	26.739
484.97	26.150
485.31	25.120
485.66	24.989
486.01	25.864
486.36	25.777
486.70	26.007
487.05	25.930
487.40	26.202
487.75	25.940
488.09	24.985
488.44	24.797
488.79	25.752
489.13	25.561
489.48	26.387
489.83	25.852
490.17	25.816
490.52	25.951
490.87	26.236
491.22	26.997
491.56	26.667
491.91	26.288
492.26	26.698
492.60	26.784
492.95	26.797
493.30	26.775
493.64	25.858
493.99	27.199
494.34	27.190
494.68	27.341
495.03	27.342
495.37	26.401
495.72	25.982
496.07	26.513
496.41	27.605
496.76	26.393
497.11	26.660
497.45	27.011
497.80	27.514
498.14	26.817
498.49	26.871
498.84	26.117
499.18	26.462
499.53	26.547
499.87	27.075
500.22	27.108
500.56	27.314
500.91	27.291
501.26	27.559
501.60	27.395
501.95	27.101
502.29	26.027
502.64	27.251
502.98	25.635
503.33	26.974
503.67	26.437
504.02	27.571
504.36	27.892
504.71	26.798
505.06	26.760
505.40	27.395
505.75	27.287
506.09	27.250
506.44	27.769
506.78	27.496
507.13	26.262
507.47	26.239
507.82	26.433
508.16	27.254
508.51	27.512
508.85	26.656
509.19	26.426
509.54	27.167
509.88	27.447
510.23	28.040
510.57	27.566
510.92	28.088
511.26	27.060
511.61	27.052
511.95	27.694
512.30	27.488
512.64	26.210
512.98	27.723
513.33	26.963
513.67	27.638
514.02	27.181
514.36	27.756
514.70	26.938
515.05	27.787
515.39	27.970
515.74	28.679
516.08	28.127
516.42	27.252
516.77	27.903
517.11	27.288
517.46	28.230
517.80	28.400
518.14	26.812
518.49	27.794
518.83	27.715
519.17	28.242
519.52	27.126
519.86	28.495
520.20	29.584
520.55	27.508
520.89	28.053
521.23	27.961
521.58	28.527
521.92	28.436
522.26	27.873
522.61	28.517
522.95	28.079
523.29	28.777
523.64	27.545
523.98	27.498
524.32	27.467
524.66	27.578
525.01	26.333
525.35	29.510
525.69	28.757
526.04	28.786
526.38	28.708
526.72	27.905
527.06	29.167
527.41	29.439
527.75	27.723
528.09	27.995
528.43	27.934
528.78	27.952
529.12	29.257
529.46	27.384
529.80	27.889
530.15	27.495
530.49	27.361
530.83	28.815
531.17	28.283
531.51	28.399
531.86	27.979
532.20	28.003
532.54	28.743
532.88	27.997
533.22	28.676
533.57	28.133
533.91	27.591
534.25	28.347
534.59	27.483
534.93	28.251
535.27	28.005
535.62	27.558
535.96	28.378
536.30	27.683
536.64	28.552
536.98	28.178
537.32	27.505
537.66	28.038
538.01	27.560
538.35	27.568
538.69	28.075
539.03	28.436
539.37	27.878
539.71	28.019
540.05	27.896
540.39	29.086
540.73	29.233
541.07	28.415
541.42	27.346
541.76	26.711
542.10	28.022
542.44	27.448
542.78	27.137
543.12	27.970
543.46	26.712
543.80	27.559
544.14	28.475
544.48	27.362
544.82	28.687
545.16	28.169
545.50	27.052
545.84	27.121
546.18	27.878
546.52	28.592
546.86	27.707
547.20	28.059
547.54	27.066
547.88	27.472
548.22	27.785
548.56	27.455
548.90	27.965
549.24	26.840
549.58	27.100
549.92	28.127
550.26	28.902
550.60	27.027
550.94	28.467
551.28	27.916
551.62	27.031
551.96	27.713
552.30	27.038
552.64	28.149
552.98	29.012
553.32	27.778
553.66	28.118
554.00	28.216
554.34	27.509
554.68	27.485
555.02	29.305
555.36	27.894
555.69	28.009
556.03	27.649
556.37	27.098
556.71	27.917
557.05	27.938
557.39	27.468
557.73	28.519
558.07	28.862
558.41	27.898
558.75	28.061
559.08	27.393
559.42	28.790
559.76	28.758
560.10	28.412
560.44	29.480
560.78	28.323
561.12	27.674
561.45	28.082
561.79	28.571
562.13	28.822
562.47	27.101
562.81	27.723
563.15	28.341
563.48	28.542
563.82	27.857
564.16	28.668
564.50	27.755
564.84	27.579
565.17	28.183
565.51	28.618
565.85	27.789
566.19	27.866
566.52	27.723
566.86	27.560
567.20	29.782
567.54	27.761
567.88	27.080
568.21	26.902
568.55	26.670
568.89	26.392
569.23	26.423
569.56	25.725
569.90	26.397
570.24	26.381
570.57	26.081
570.91	26.114
571.25	26.297
571.59	26.101
571.92	25.685
572.26	25.644
572.60	25.690
572.93	25.457
573.27	25.030
573.61	25.065
573.95	25.652
574.28	24.780
574.62	25.343
574.96	24.626
575.29	25.279
575.63	25.352
575.97	24.811
576.30	25.048
576.64	24.674
576.98	24.359
577.31	25.054
577.65	25.162
577.98	24.974
578.32	24.837
578.66	24.939
578.99	24.504
579.33	24.994
579.67	24.803
580.00	24.702
580.34	24.413
580.67	24.369
581.01	24.337
581.35	24.784
581.68	24.618
582.02	25.372
582.35	25.307
582.69	24.834
583.02	25.332
583.36	24.523
583.70	24.373
584.03	25.027
584.37	25.007
584.70	24.372
585.04	24.987
585.37	24.224
585.71	24.480
586.04	24.924
586.38	24.646
586.72	24.352
587.05	25.375
587.39	24.392
587.72	24.608
588.06	24.567
588.39	24.722
588.73	25.558
589.06	24.936
589.40	25.352
589.73	25.425
590.07	25.310
590.40	25.203
590.73	25.310
591.07	24.508
591.40	25.303
591.74	25.456
592.07	25.360
592.41	26.030
592.74	25.480
593.08	25.644
593.41	25.296
593.75	24.893
594.08	25.557
594.41	26.433
594.75	26.085
595.08	25.226
595.42	25.975
595.75	25.064
596.09	25.184
596.42	25.696
596.75	25.140
597.09	26.759
597.42	25.229
597.75	25.421
598.09	26.028
598.42	24.878
598.76	25.623
599.09	25.178
599.42	25.759
599.76	25.217
600.09	25.534
600.42	26.168
600.76	25.650
601.09	25.218
601.42	25.010
601.76	25.701
602.09	25.031
602.42	25.350
602.76	25.426
603.09	25.161
603.42	25.745
603.76	25.489
604.09	25.431
604.42	25.396
604.76	25.382
605.09	25.000
605.42	25.975
605.75	25.226
606.09	25.322
606.42	25.765
606.75	25.505
607.09	25.761
607.42	25.176
607.75	25.166
608.08	25.169
608.42	26.727
608.75	25.421
609.08	25.085
609.41	25.062
609.75	25.792
610.08	26.225
610.41	25.831
610.74	26.306
611.07	26.572
611.41	24.458
611.74	26.581
612.07	26.369
612.40	25.426
612.73	25.794
613.07	25.812
613.40	26.984
613.73	26.649
614.06	25.535
614.39	26.776
614.72	24.972
615.06	25.109
615.39	25.556
615.72	25.638
616.05	25.290
616.38	26.756
616.71	27.027
617.05	26.055
617.38	26.502
617.71	25.491
618.04	25.839
618.37	25.597
618.70	26.141
619.03	25.660
619.36	26.850
619.69	27.351
620.03	26.928
620.36	26.301
620.69	26.849
621.02	25.495
621.35	26.855
621.68	26.803
622.01	26.780
622.34	27.873
622.67	25.859
623.00	27.008
623.33	27.985
623.66	26.071
623.99	27.293
624.32	26.562
624.65	27.079
624.99	26.438
625.32	26.722
625.65	26.729
625.98	26.526
626.31	28.222
626.64	27.029
626.97	28.425
627.30	27.404
627.63	26.511
627.96	26.893
628.29	26.746
628.62	26.552
628.95	27.264
629.28	27.632
629.61	26.889
629.94	26.749
630.26	29.125
630.59	30.251
630.92	27.027
631.25	28.226
631.58	28.889
631.91	26.383
632.24	30.000
632.57	28.778
632.90	28.736
633.23	29.206
633.56	28.655
633.89	29.245
634.22	27.509
634.55	27.885
634.88	29.141
635.20	29.338
635.53	27.354
635.86	28.463
636.19	27.961
636.52	28.315
636.85	27.798
637.18	28.250
637.51	28.996
637.83	28.096
638.16	27.895
638.49	29.655
638.82	27.156
639.15	28.794
639.48	27.237
639.81	28.077
640.13	27.838
640.46	29.915
640.79	28.571
641.12	30.748
641.45	28.264
641.77	26.647
642.10	27.795
642.43	28.376
642.76	28.819
643.09	27.143
643.41	28.571
643.74	29.412
644.07	29.485
644.40	27.553
644.73	29.868
645.05	29.382
645.38	29.636
645.71	32.474
646.04	28.739
646.36	30.541
646.69	29.239
647.02	31.588
647.35	31.227
647.67	27.372
648.00	28.647
648.33	30.354
648.66	26.935
648.98	29.140
649.31	29.077
649.64	30.313
649.96	28.885
650.29	27.377
650.62	30.637
650.94	27.993
651.27	28.423
651.60	28.547
651.92	28.938
652.25	29.048
652.58	27.768
652.90	27.608
653.23	29.677
653.56	27.926
653.88	25.574
654.21	31.711
654.54	29.236
654.86	29.213
655.19	27.077
655.52	25.548
655.84	24.825
656.17	27.939
656.49	37.303
656.82	37.417
657.15	27.679
657.47	19.844
657.80	15.549
658.13	17.589
658.45	22.784
658.78	22.239
659.10	21.345
659.43	20.361
659.75	20.181
660.08	21.302
660.41	20.891
660.73	21.892
661.06	27.681
661.38	28.393
661.71	27.533
662.03	28.629
662.36	28.358
662.68	28.270
663.01	32.059
663.33	31.066
663.66	30.687
663.98	26.562
664.31	26.846
664.63	31.195
664.96	27.549
665.28	29.501
665.61	28.753
665.93	32.510
666.26	28.745
666.58	32.432
666.91	27.617
667.23	29.167
667.56	26.077
667.88	31.674
668.21	27.419
668.53	27.336
668.86	31.871
669.18	30.822
669.50	30.374
669.83	30.657
670.15	28.251
670.48	29.439
670.80	28.702
671.13	26.411
671.45	27.928
671.77	27.623
672.10	29.586
672.42	27.491
672.75	26.000
673.07	27.027
673.39	28.597
673.72	29.528
674.04	27.389
674.37	28.247
674.69	28.893
675.01	26.170
675.34	31.020
675.66	27.214
675.98	27.533
676.31	30.090
676.63	28.506
676.95	29.425
677.28	25.290
677.60	28.959
677.92	31.057
678.25	28.884
678.57	28.807
678.89	26.205
679.22	28.092
679.54	31.164
679.86	29.400
680.18	26.426
680.51	25.698
680.83	29.333
681.15	28.902
681.48	27.992
681.80	27.419
682.12	27.163
682.44	26.719
682.77	25.541
683.09	27.883
683.41	29.646
683.73	26.484
684.06	28.602
684.38	29.707
684.70	26.955
685.02	25.000
685.34	29.825
685.67	25.379
685.99	27.032
686.31	27.648
686.63	26.418
686.96	27.542
687.28	26.590
687.60	28.711
687.92	23.735
688.24	26.772
688.56	29.259
688.89	26.282
689.21	26.477
689.53	27.126
689.85	27.617
690.17	26.457
690.49	25.635
690.82	26.988
691.14	27.830
691.46	28.160
691.78	26.432
692.10	25.847
692.42	23.556
692.74	28.326
693.06	24.494
693.39	25.951
693.71	27.540
694.03	25.702
694.35	26.185
694.67	24.586
694.99	23.529
695.31	28.571
695.63	25.765
695.95	27.295
696.27	29.177
696.59	27.273
696.91	28.090
697.23	25.521
697.56	27.644
697.88	24.775
698.20	22.912
698.52	22.422
698.84	26.699
699.16	23.571
699.48	27.250
699.80	21.303
700.12	26.196
700.44	26.816
700.76	25.073
701.08	24.709
701.40	23.867
701.72	28.704
702.04	30.128
702.36	24.699
702.68	26.946
703.00	25.217
703.32	26.361
703.64	27.647
703.96	26.744
704.28	27.811
704.60	24.051
704.91	22.540
705.23	28.155
705.55	25.338
705.87	27.986
706.19	27.778
706.51	26.042
706.83	26.230
707.15	23.567
707.47	29.201
707.79	26.031
708.11	24.682
708.43	29.426
708.74	24.935
709.06	25.070
709.38	28.736
709.70	24.687
710.02	28.528
710.34	22.112
710.66	25.714
710.98	26.498
711.29	23.871
711.61	23.962
711.93	22.951
712.25	25.581
712.57	24.390
712.89	24.101
713.20	31.959
713.52	25.000
713.84	23.488
714.16	29.836
714.48	27.619
714.80	26.462
715.11	25.648
715.43	27.410
715.75	27.726
716.07	25.246
716.39	27.090
716.70	23.693
717.02	25.185
717.34	24.809
717.66	31.535
717.97	22.541
718.29	23.109
718.61	26.984
718.93	25.806
719.24	23.897
719.56	23.019
719.88	23.273
720.20	27.341
720.51	25.940
720.83	21.687
721.15	24.590
721.46	27.451
721.78	23.372
722.10	29.600
722.42	27.686
722.73	21.514
723.05	28.916
723.37	23.922
723.68	21.862
724.00	26.829
724.32	25.926
724.63	25.311
724.95	29.752
725.27	26.754
725.58	26.293
725.90	23.413
726.22	32.841
726.53	24.335
726.85	22.745
727.16	27.068
727.48	23.462
727.80	25.820
728.11	25.630
728.43	27.273
728.74	26.172
729.06	28.788
729.38	27.237
729.69	23.228
730.01	23.622
730.32	24.701
730.64	25.641
730.96	31.343
731.27	27.143
731.59	25.723
731.90	23.926
732.22	22.393
732.53	28.146
732.85	25.503
733.16	22.101
733.48	24.739
733.80	23.488
734.11	25.172
734.43	23.810
734.74	25.223
735.06	26.019
735.37	24.159
735.69	21.290
736.00	23.232
736.32	23.510
736.63	20.690
736.95	25.725
737.26	23.179
737.58	26.619
737.89	22.222
738.21	19.173
738.52	21.923
738.83	27.344
739.15	25.214
739.46	25.000
739.78	24.825
740.09	23.776
740.41	23.776
740.72	29.197
741.04	24.603
741.35	19.048
741.66	18.981
741.98	14.762
742.29	25.352
742.61	26.738
742.92	27.570
743.23	18.421
743.55	24.324
743.86	34.667
744.18	22.857
744.49	27.586
744.80	23.858
745.12	23.711
745.43	28.141
745.74	24.272
746.06	24.390
746.37	26.432
746.68	23.383
747.00	25.131
747.31	21.154
747.62	23.502
747.94	24.454
748.25	22.326
748.56	22.381
748.88	24.457
749.19	27.230
749.50	29.412
749.82	27.111
750.13	29.515
750.44	22.764
750.75	24.800
751.07	26.786
751.38	24.723
751.69	20.611
752.01	26.154
752.32	19.066
752.63	20.000
752.94	22.619
753.26	30.000
753.57	22.321
753.88	24.569
754.19	18.672
754.51	25.781
754.82	19.368
755.13	23.045
755.44	21.488
755.75	23.045
756.07	20.080
756.38	24.219
756.69	25.271
757.00	20.209
757.31	21.812
757.63	24.299
757.94	22.254
758.25	22.965
758.56	28.032
758.87	21.875
759.18	21.667
759.50	24.911
759.81	19.708
760.12	22.973
760.43	27.184
760.74	23.125
761.05	23.596
761.36	24.850
761.67	22.485
761.99	25.161
762.30	26.449
762.61	24.528
762.92	24.664
763.23	28.436
763.54	24.444
763.85	25.316
764.16	24.490
764.47	24.153
764.78	22.097
765.10	31.655
765.41	22.581
765.72	21.698
766.03	20.141
766.34	20.677
766.65	21.862
766.96	22.500
767.27	22.396
767.58	22.093
767.89	27.097
768.20	23.313
768.51	16.940
768.82	19.459
769.13	21.000
769.44	20.614
769.75	24.675
770.06	24.312
770.37	20.657
770.68	24.479
770.99	20.297
771.30	21.359
771.61	19.444
771.92	20.779
772.23	24.766
772.54	21.809
772.85	15.976
773.16	21.951
773.47	30.120
773.78	24.725
774.09	14.667
774.39	20.370
774.70	20.134
775.01	17.391
775.32	11.940
775.63	18.182
775.94	24.812
776.25	17.143
776.56	32.787
776.87	21.239
777.18	14.159
777.48	17.273
777.79	14.783
778.10	18.349
778.41	8.475
778.72	19.835
779.03	20.149
779.34	15.789
779.65	30.065
779.95	21.739
780.26	12.925
780.57	16.379
780.88	28.704
781.19	17.172
781.50	15.200
781.80	16.340
782.11	18.590
782.42	23.494
782.73	10.219
783.04	22.973
783.34	21.212
783.65	19.380
783.96	17.886
784.27	15.385
784.57	17.073
784.88	13.008
785.19	22.807
785.50	7.216
785.81	17.143
786.11	9.804
786.42	14.545
786.73	14.414
787.04	14.851
787.34	9.524
787.65	14.286
787.96	18.627
788.26	17.117
788.57	15.323
788.88	15.625
789.19	11.966
789.49	15.966
789.80	23.077
790.11	19.469
790.41	19.192
790.72	14.151
791.03	2.778
791.33	17.105
791.64	12.903
791.95	13.333
792.25	15.714
792.56	15.854
792.87	25.510
793.17	7.895
793.48	-5.405
793.79	-5.634
794.09	15.190
794.40	30.851
794.70	26.168
795.01	9.649
795.32	11.818
795.62	18.750
795.93	4.124
796.23	21.978
796.54	21.053
796.85	12.329
797.15	6.944
797.46	9.589
797.76	8.451
798.07	7.500
798.37	19.118
798.68	25.714
798.99	10.000
799.29	19.737
799.60	6.667
799.90	-5.556
800.21	4.688
800.51	11.111
800.82	14.754
801.12	3.509
801.43	2.817
801.73	-6.780
802.04	24.590
802.34	-5.455
802.65	-5.769
802.95	0.000
803.26	15.000
803.56	13.462
803.87	7.895
804.17	8.065
804.48	9.231
804.78	-7.692
805.09	-9.302
805.39	-31.250
805.70	3.774
806.00	21.053
806.30	25.676
806.61	25.000
806.91	4.938
807.22	6.667
807.52	7.463
807.83	0.000
808.13	9.524
808.43	3.636
808.74	12.121
809.04	11.321
809.35	20.548
809.65	24.561
809.95	1.471
810.26	27.451
810.56	0.000
810.86	-30.612
811.17	-2.857
811.47	3.846
811.77	12.903
812.08	-28.947
812.38	4.762
812.69	4.348
812.99	-29.032
813.29	-16.667
813.59	-96.296
813.90	4.255
814.20	-9.302
814.50	-6.250
814.81	6.667
815.11	-7.317
815.41	-3.333
815.72	-11.429
816.02	11.111
816.32	5.128
816.62	16.216
816.93	-32.353
817.23	-26.087
817.53	17.647
817.84	11.765
818.14	-15.625
818.44	6.897
818.74	-54.839
819.04	-7.407
819.35	0.000
819.65	-20.000
819.95	0.000
820.25	8.000
820.56	-2.632
820.86	0.000
821.16	14.894
821.46	5.172
821.76	-15.385
822.07	-35.000
822.37	0.000
822.67	6.667
822.97	-27.027
823.27	10.811
823.57	-28.000
823.88	8.108
824.18	-4.762
824.48	-30.769
824.78	-153.846
825.08	-34.783
825.38	-20.833
825.69	-33.333
825.99	-65.000
826.29	-10.811
826.59	-35.294
826.89	0.000
827.19	-5.714
827.49	28.947
827.79	-37.500
828.09	6.667
828.39	0.000
828.70	-31.034
829.00	-10.345
829.30	-11.111
829.60	25.000
829.90	-27.778
830.20	-34.615
830.50	-38.095
830.80	-42.857
831.10	-15.385
831.40	0.000
831.70	-5.882
832.00	-25.000
832.30	-84.211
832.60	-31.250
832.90	-75.000
833.20	-76.471
833.50	-146.667
833.80	-66.667
834.10	-55.000
834.40	-25.000
834.70	-22.222
835.00	-30.769
835.30	-50.000
835.60	-6.897
835.90	-100.000
836.20	-100.000
836.50	-108.333
836.80	5.714
837.10	-28.571
837.40	-35.294
837.70	-63.636
838.00	-25.000
838.30	-18.750
838.60	-42.857
838.90	15.000
839.19	-39.130
839.49	8.696
839.79	-72.222
840.09	-43.478
840.39	-68.182
840.69	-75.000
840.99	-89.474
841.29	-125.000
841.59	-64.286
841.88	-77.778
842.18	0.000
842.48	-105.882
842.78	-20.690
843.08	-35.714
843.38	-38.462
843.68	-122.222
843.97	-92.308
844.27	-72.727
844.57	-280.000
844.87	-4.000
845.17	-140.000
845.47	-35.714
845.76	-166.667
846.06	0.000
846.36	-500.000
846.66	-240.000
846.96	10.526
847.25	-41.667
847.55	-91.667
847.85	-40.000
848.15	-250.000
848.44	11.538
848.74	5.263
849.04	600.000
849.34	-66.667
849.63	-5.263
849.93	0.000
850.23	-45.000
850.53	-4.762
850.82	-28.000
851.12	-47.368
851.42	-750.000
851.71	-21.429
852.01	25.000
852.31	-17.647
852.61	-46.667
852.90	-14.286
853.20	-116.667
853.50	-33.333
853.79	-21.053
854.09	-86.667
854.39	10.714
854.68	-17.391
854.98	-283.333
855.28	10.345
855.57	-56.250
855.87	-75.000
856.17	-60.000
856.46	13.793
856.76	-46.667
857.05	-58.824
857.35	-200.000
857.65	-54.545
857.94	-11.111
858.24	-78.571
858.53	-28.571
858.83	-141.667
859.13	-66.667
859.42	4.762
859.72	-175.000
860.01	-366.667
860.31	-62.500
860.60	-460.000
860.90	-166.667
861.20	-100.000
861.49	-171.429
861.79	-11.765
862.08	-650.000
862.38	-183.333
862.67	-84.615
862.97	-17.647
863.26	-20.000
863.56	-52.941
863.85	500.000
864.15	-50.000
864.44	-53.846
864.74	-5.000
865.03	-325.000
865.33	-200.000
865.62	-5.882
865.92	-425.000
866.21	-185.714
866.51	-50.000
866.80	-1400.000
867.10	-66.667
867.39	-17.647
867.69	-8.696
867.98	0.000
868.27	-300.000
868.57	-93.750
868.86	-209.091
869.16	-70.588
869.45	-250.000
869.75	-157.143
870.04	1400.000
870.33	0.000
870.63	-60.000
870.92	-122.222
871.22	-141.667
871.51	-118.182
871.80	8.333
872.10	-30.000
>>>>>End Processed Spectral Data<<<<<
