SpectraSuite Data File
++++++++++++++++++++++++++++++++++++
Date: Sat May 16 11:12:47 PDT 2015
User: schluterlab
Dark Spectrum Present: Yes
Reference Spectrum Present: Yes
Number of Sampled Component Spectra: 1
Spectrometers: USB2E3373
Integration Time (usec): 3000 (USB2E3373)
Spectra Averaged: 3 (USB2E3373)
Boxcar Smoothing: 0 (USB2E3373)
Correct for Electrical Dark: No (USB2E3373)
Strobe/Lamp Enabled: No (USB2E3373)
Correct for Detector Non-linearity: No (USB2E3373)
Correct for Stray Light: No (USB2E3373)
Number of Pixels in Processed Spectrum: 2048
>>>>>Begin Processed Spectral Data<<<<<
178.53	0.000
178.91	33.333
179.29	233.333
179.67	-400.000
180.04	-53.846
180.42	1000.000
180.80	300.000
181.18	200.000
181.56	62.500
181.94	600.000
182.31	475.000
182.69	53.846
183.07	-166.667
183.45	1150.000
183.83	-33.333
184.20	-214.286
184.58	75.000
184.96	-350.000
185.34	68.750
185.72	-350.000
186.09	33.333
186.47	-50.000
186.85	-125.000
187.23	37.500
187.61	125.000
187.98	-162.500
188.36	-50.000
188.74	62.500
189.12	1200.000
189.49	242.857
189.87	-8.333
190.25	325.000
190.63	-35.714
191.00	-77.778
191.38	460.000
191.76	20.000
192.14	400.000
192.51	100.000
192.89	-133.333
193.27	0.000
193.65	77.778
194.02	-71.429
194.40	233.333
194.78	-20.000
195.15	-1500.000
195.53	-90.909
195.91	-266.667
196.29	60.000
196.66	-533.333
197.04	1000.000
197.42	0.000
197.79	-20.000
198.17	200.000
198.55	150.000
198.92	-1200.000
199.30	150.000
199.68	-300.000
200.05	-133.333
200.43	-188.889
200.81	-1400.000
201.18	-33.333
201.56	85.714
201.94	-13.333
202.31	72.727
202.69	70.000
203.07	-80.000
203.44	366.667
203.82	-200.000
204.19	-175.000
204.57	-150.000
204.95	-400.000
205.32	-31.250
205.70	300.000
206.08	-900.000
206.45	-22.222
206.83	-750.000
207.20	500.000
207.58	-200.000
207.96	-266.667
208.33	-37.500
208.71	-55.556
209.08	160.000
209.46	-142.857
209.84	300.000
210.21	0.000
210.59	55.000
210.96	-100.000
211.34	-266.667
211.71	33.333
212.09	-100.000
212.46	200.000
212.84	-1200.000
213.22	33.333
213.59	100.000
213.97	-55.556
214.34	70.000
214.72	-70.000
215.09	-133.333
215.47	-116.667
215.84	50.000
216.22	0.000
216.59	46.667
216.97	-50.000
217.34	500.000
217.72	0.000
218.09	-83.333
218.47	-57.143
218.84	57.143
219.22	-71.429
219.59	0.000
219.97	142.857
220.34	325.000
220.72	162.500
221.09	-53.846
221.47	0.000
221.84	-0.000
222.22	-450.000
222.59	600.000
222.97	-37.500
223.34	-700.000
223.72	-633.333
224.09	-50.000
224.46	-175.000
224.84	-14.286
225.21	-128.571
225.59	-63.636
225.96	-75.000
226.34	-85.714
226.71	-100.000
227.08	35.000
227.46	1500.000
227.83	-85.714
228.21	-100.000
228.58	200.000
228.95	62.500
229.33	-900.000
229.70	-100.000
230.08	-500.000
230.45	41.667
230.82	-83.333
231.20	-700.000
231.57	-350.000
231.95	600.000
232.32	71.429
232.69	-133.333
233.07	0.000
233.44	-350.000
233.81	-26.667
234.19	22.222
234.56	6.250
234.93	21.875
235.31	-42.857
235.68	-100.000
236.05	5.882
236.43	0.000
236.80	0.000
237.17	-33.333
237.55	-42.857
237.92	-4.545
238.29	-11.429
238.67	5.882
239.04	16.667
239.41	-29.032
239.79	-28.205
240.16	7.143
240.53	7.273
240.91	0.000
241.28	14.545
241.65	26.154
242.02	6.557
242.40	-3.279
242.77	9.091
243.14	5.085
243.51	-14.286
243.89	6.329
244.26	10.112
244.63	7.368
245.00	7.368
245.38	7.627
245.75	11.504
246.12	11.200
246.49	19.685
246.87	8.130
247.24	-1.695
247.61	5.085
247.98	4.225
248.36	4.196
248.73	7.595
249.10	-1.274
249.47	15.789
249.84	15.341
250.22	3.571
250.59	14.124
250.96	10.471
251.33	14.218
251.70	10.096
252.08	9.479
252.45	6.635
252.82	5.238
253.19	11.064
253.56	7.258
253.94	8.439
254.31	8.155
254.68	15.041
255.05	8.871
255.42	11.111
255.79	5.735
256.16	11.373
256.54	7.721
256.91	9.091
257.28	5.861
257.65	4.255
258.02	10.377
258.39	11.706
258.76	10.473
259.14	9.568
259.51	7.213
259.88	10.671
260.25	11.801
260.62	8.360
260.99	9.199
261.36	10.976
261.73	9.827
262.10	14.167
262.47	9.402
262.85	13.714
263.22	10.029
263.59	7.077
263.96	10.725
264.33	10.569
264.70	8.011
265.07	7.692
265.44	9.561
265.81	8.527
266.18	6.835
266.55	9.559
266.92	11.587
267.29	11.138
267.66	9.136
268.03	9.903
268.40	11.972
268.77	8.916
269.14	11.601
269.51	14.023
269.88	6.881
270.25	9.557
270.62	9.153
270.99	10.135
271.36	8.392
271.73	10.314
272.10	10.069
272.47	9.111
272.84	11.111
273.21	10.550
273.58	11.209
273.95	11.184
274.32	14.706
274.69	10.722
275.06	13.292
275.43	9.152
275.80	10.794
276.17	9.205
276.54	13.849
276.91	9.259
277.28	9.939
277.65	10.331
278.02	9.395
278.39	10.413
278.76	8.566
279.13	9.486
279.50	9.940
279.87	8.457
280.23	12.753
280.60	9.344
280.97	9.903
281.34	9.284
281.71	9.808
282.08	10.081
282.45	8.147
282.82	9.690
283.19	8.545
283.56	10.256
283.92	11.837
284.29	8.922
284.66	7.014
285.03	11.408
285.40	10.517
285.77	11.579
286.14	11.733
286.51	8.881
286.87	12.523
287.24	12.287
287.61	10.579
287.98	9.879
288.35	8.926
288.72	7.301
289.08	7.288
289.45	7.744
289.82	8.997
290.19	9.195
290.56	9.421
290.93	8.585
291.29	8.104
291.66	9.984
292.03	11.774
292.40	9.337
292.77	11.180
293.13	9.268
293.50	8.024
293.87	10.123
294.24	9.050
294.60	5.152
294.97	8.953
295.34	8.444
295.71	9.226
296.08	6.452
296.44	6.152
296.81	8.405
297.18	8.451
297.55	9.746
297.91	9.763
298.28	7.671
298.65	9.623
299.02	9.492
299.38	8.021
299.75	7.065
300.12	7.564
300.48	8.312
300.85	8.126
301.22	9.314
301.59	7.022
301.95	9.698
302.32	6.258
302.69	7.956
303.05	8.059
303.42	6.000
303.79	7.416
304.15	7.583
304.52	8.285
304.89	8.855
305.25	7.204
305.62	6.933
305.99	8.952
306.35	8.213
306.72	6.150
307.09	8.627
307.45	6.470
307.82	7.374
308.19	6.711
308.55	7.952
308.92	7.519
309.29	7.135
309.65	6.893
310.02	7.235
310.38	6.486
310.75	6.660
311.12	7.645
311.48	8.246
311.85	7.312
312.22	7.312
312.58	8.138
312.95	7.849
313.31	7.393
313.68	7.538
314.05	7.715
314.41	5.734
314.78	7.293
315.14	7.305
315.51	6.890
315.87	7.648
316.24	7.289
316.61	8.541
316.97	7.065
317.34	7.322
317.70	6.679
318.07	7.090
318.43	7.022
318.80	7.042
319.16	6.567
319.53	6.955
319.89	6.961
320.26	8.627
320.62	7.404
320.99	7.363
321.35	6.798
321.72	6.551
322.08	6.627
322.45	6.931
322.81	8.261
323.18	7.301
323.54	7.948
323.91	8.434
324.27	7.795
324.64	7.952
325.00	7.679
325.37	6.878
325.73	8.924
326.10	7.174
326.46	8.144
326.83	6.383
327.19	7.756
327.56	8.773
327.92	7.477
328.29	6.926
328.65	6.273
329.01	7.597
329.38	7.493
329.74	7.418
330.11	7.616
330.47	6.449
330.84	8.891
331.20	7.491
331.56	6.746
331.93	6.217
332.29	6.575
332.66	7.550
333.02	8.235
333.38	7.616
333.75	7.836
334.11	7.911
334.48	7.944
334.84	8.399
335.20	8.333
335.57	6.859
335.93	7.968
336.29	7.086
336.66	7.577
337.02	7.838
337.38	7.932
337.75	6.585
338.11	7.603
338.47	6.406
338.84	7.895
339.20	7.206
339.56	8.645
339.93	7.672
340.29	7.529
340.65	7.168
341.02	8.010
341.38	7.161
341.74	8.213
342.11	7.082
342.47	7.554
342.83	7.473
343.20	7.686
343.56	6.122
343.92	8.932
344.28	8.242
344.65	7.261
345.01	7.899
345.37	8.472
345.73	6.219
346.10	6.705
346.46	6.742
346.82	7.458
347.19	6.163
347.55	7.865
347.91	6.772
348.27	7.637
348.63	8.481
349.00	7.876
349.36	5.621
349.72	7.643
350.08	7.378
350.45	6.856
350.81	7.404
351.17	6.431
351.53	6.762
351.89	7.276
352.26	7.907
352.62	9.217
352.98	7.199
353.34	7.194
353.70	6.873
354.07	6.688
354.43	7.747
354.79	7.448
355.15	6.709
355.51	6.016
355.87	7.668
356.24	6.910
356.60	7.010
356.96	7.929
357.32	6.572
357.68	6.973
358.04	8.006
358.40	6.651
358.77	7.419
359.13	7.039
359.49	7.332
359.85	7.393
360.21	7.534
360.57	8.283
360.93	7.630
361.29	8.296
361.66	5.107
362.02	7.396
362.38	7.337
362.74	6.886
363.10	6.385
363.46	8.333
363.82	8.017
364.18	7.598
364.54	7.863
364.90	7.338
365.26	6.633
365.62	7.413
365.98	7.468
366.35	6.831
366.71	7.047
367.07	7.410
367.43	7.550
367.79	7.491
368.15	6.259
368.51	7.483
368.87	7.761
369.23	6.807
369.59	7.292
369.95	6.906
370.31	7.454
370.67	6.146
371.03	7.726
371.39	6.506
371.75	7.368
372.11	7.102
372.47	6.941
372.83	8.136
373.19	6.929
373.55	6.685
373.91	7.041
374.27	6.913
374.63	7.591
374.99	8.067
375.35	7.537
375.71	7.968
376.07	7.324
376.42	6.291
376.78	7.320
377.14	7.525
377.50	7.608
377.86	7.802
378.22	6.910
378.58	6.485
378.94	7.090
379.30	6.947
379.66	7.407
380.02	7.190
380.38	6.647
380.74	7.386
381.09	8.202
381.45	7.518
381.81	7.260
382.17	6.955
382.53	7.112
382.89	7.297
383.25	7.405
383.61	6.840
383.97	7.226
384.32	7.509
384.68	7.920
385.04	6.884
385.40	6.817
385.76	8.049
386.12	7.495
386.48	7.426
386.83	7.669
387.19	7.651
387.55	7.450
387.91	6.639
388.27	6.876
388.62	7.813
388.98	7.329
389.34	7.772
389.70	7.491
390.06	7.085
390.42	8.013
390.77	7.445
391.13	8.075
391.49	7.424
391.85	8.105
392.20	7.342
392.56	7.269
392.92	7.359
393.28	7.692
393.64	7.336
393.99	7.815
394.35	7.664
394.71	7.659
395.07	7.972
395.42	6.734
395.78	7.102
396.14	7.788
396.50	7.401
396.85	6.601
397.21	7.594
397.57	7.720
397.92	7.553
398.28	7.667
398.64	7.971
399.00	7.303
399.35	8.005
399.71	7.840
400.07	7.881
400.42	7.725
400.78	7.096
401.14	6.766
401.49	7.547
401.85	6.894
402.21	8.045
402.57	7.585
402.92	7.992
403.28	7.721
403.63	7.190
403.99	7.769
404.35	7.005
404.70	7.899
405.06	8.074
405.42	7.073
405.77	7.692
406.13	7.666
406.49	7.909
406.84	7.139
407.20	8.422
407.55	7.536
407.91	7.254
408.27	8.640
408.62	7.637
408.98	7.338
409.34	7.313
409.69	7.940
410.05	7.520
410.40	8.461
410.76	7.469
411.11	7.668
411.47	7.609
411.83	7.152
412.18	7.859
412.54	7.200
412.89	7.290
413.25	6.494
413.60	7.169
413.96	6.839
414.31	7.095
414.67	6.603
415.03	7.762
415.38	7.222
415.74	7.732
416.09	8.184
416.45	6.812
416.80	7.672
417.16	6.512
417.51	8.930
417.87	6.731
418.22	7.080
418.58	7.574
418.93	7.664
419.29	7.905
419.64	6.595
420.00	8.141
420.35	7.096
420.71	7.083
421.06	7.870
421.42	7.026
421.77	8.152
422.12	7.443
422.48	7.322
422.83	7.631
423.19	6.904
423.54	7.896
423.90	7.692
424.25	7.127
424.61	7.238
424.96	8.426
425.31	8.217
425.67	8.252
426.02	6.713
426.38	7.623
426.73	7.715
427.09	8.456
427.44	7.955
427.79	7.500
428.15	8.438
428.50	7.801
428.85	7.974
429.21	7.416
429.56	8.021
429.92	7.365
430.27	7.577
430.62	7.941
430.98	7.162
431.33	7.204
431.68	7.346
432.04	7.611
432.39	7.920
432.74	8.213
433.10	7.203
433.45	7.196
433.80	7.671
434.16	7.845
434.51	8.000
434.86	7.967
435.22	7.962
435.57	6.854
435.92	7.444
436.28	8.071
436.63	7.575
436.98	7.216
437.34	8.033
437.69	7.585
438.04	7.374
438.39	7.822
438.75	7.800
439.10	8.329
439.45	7.604
439.81	8.072
440.16	7.609
440.51	7.647
440.86	7.230
441.22	7.629
441.57	7.684
441.92	7.877
442.27	7.359
442.63	7.886
442.98	6.716
443.33	7.798
443.68	7.660
444.03	8.055
444.39	7.783
444.74	7.764
445.09	7.785
445.44	7.653
445.79	7.547
446.15	8.817
446.50	7.077
446.85	8.107
447.20	7.865
447.55	7.956
447.91	7.861
448.26	7.765
448.61	7.923
448.96	8.571
449.31	7.441
449.66	7.899
450.02	7.313
450.37	6.725
450.72	7.797
451.07	8.297
451.42	6.877
451.77	7.720
452.12	7.688
452.47	7.809
452.83	7.338
453.18	8.223
453.53	7.649
453.88	8.792
454.23	7.437
454.58	8.390
454.93	8.060
455.28	8.604
455.63	8.661
455.98	7.711
456.34	7.052
456.69	7.505
457.04	8.113
457.39	8.373
457.74	8.269
458.09	7.889
458.44	7.794
458.79	6.895
459.14	8.671
459.49	7.874
459.84	7.870
460.19	7.876
460.54	7.562
460.89	8.520
461.24	6.982
461.59	7.620
461.94	8.530
462.29	7.266
462.64	8.169
462.99	8.166
463.34	7.562
463.69	7.952
464.04	8.026
464.39	7.826
464.74	7.447
465.09	7.757
465.44	8.009
465.79	8.404
466.14	8.170
466.49	8.405
466.84	8.523
467.19	8.167
467.54	7.911
467.89	8.076
468.24	8.254
468.59	7.808
468.94	7.588
469.29	8.317
469.64	8.625
469.99	8.103
470.34	8.216
470.68	8.939
471.03	8.534
471.38	7.778
471.73	7.483
472.08	7.764
472.43	7.658
472.78	8.267
473.13	6.826
473.48	7.913
473.83	7.878
474.17	7.580
474.52	8.696
474.87	8.508
475.22	8.024
475.57	7.333
475.92	8.315
476.27	7.657
476.61	8.113
476.96	8.385
477.31	7.535
477.66	8.246
478.01	8.698
478.36	8.591
478.70	7.902
479.05	8.653
479.40	8.135
479.75	7.645
480.10	8.532
480.45	7.495
480.79	8.638
481.14	8.229
481.49	8.519
481.84	8.460
482.19	8.132
482.53	8.049
482.88	7.784
483.23	8.685
483.58	9.066
483.92	8.743
484.27	7.754
484.62	7.991
484.97	8.379
485.31	7.936
485.66	7.795
486.01	7.886
486.36	8.210
486.70	8.299
487.05	7.979
487.40	8.040
487.75	8.001
488.09	7.443
488.44	7.679
488.79	8.171
489.13	7.607
489.48	8.564
489.83	9.039
490.17	8.010
490.52	8.469
490.87	7.898
491.22	8.174
491.56	8.704
491.91	8.254
492.26	8.443
492.60	8.611
492.95	8.329
493.30	8.576
493.64	8.369
493.99	7.792
494.34	8.476
494.68	9.129
495.03	8.843
495.37	8.505
495.72	8.890
496.07	8.728
496.41	8.569
496.76	8.356
497.11	8.950
497.45	8.716
497.80	8.354
498.14	8.841
498.49	8.388
498.84	8.155
499.18	9.211
499.53	8.378
499.87	7.963
500.22	8.235
500.56	7.954
500.91	8.966
501.26	9.364
501.60	8.281
501.95	9.082
502.29	9.258
502.64	9.335
502.98	8.385
503.33	8.553
503.67	8.429
504.02	8.064
504.36	9.118
504.71	8.359
505.06	8.038
505.40	9.082
505.75	8.232
506.09	9.454
506.44	9.574
506.78	8.329
507.13	8.599
507.47	9.494
507.82	8.983
508.16	8.653
508.51	8.707
508.85	8.230
509.19	8.739
509.54	8.721
509.88	9.362
510.23	8.805
510.57	9.788
510.92	9.130
511.26	9.197
511.61	8.315
511.95	8.567
512.30	8.961
512.64	8.347
512.98	9.406
513.33	9.116
513.67	9.101
514.02	8.781
514.36	9.474
514.70	8.998
515.05	9.949
515.39	8.708
515.74	10.006
516.08	9.971
516.42	8.895
516.77	8.897
517.11	9.268
517.46	9.031
517.80	9.386
518.14	8.756
518.49	9.384
518.83	8.902
519.17	9.947
519.52	9.254
519.86	10.215
520.20	8.435
520.55	8.923
520.89	8.203
521.23	9.768
521.58	9.154
521.92	8.803
522.26	9.778
522.61	8.935
522.95	9.126
523.29	9.843
523.64	9.119
523.98	8.721
524.32	9.177
524.66	9.379
525.01	8.157
525.35	9.472
525.69	9.239
526.04	9.726
526.38	9.421
526.72	8.812
527.06	9.049
527.41	8.779
527.75	8.647
528.09	9.464
528.43	9.049
528.78	10.113
529.12	9.731
529.46	9.214
529.80	9.684
530.15	10.367
530.49	9.961
530.83	10.544
531.17	9.226
531.51	8.774
531.86	9.809
532.20	9.177
532.54	9.826
532.88	9.486
533.22	9.425
533.57	9.269
533.91	8.427
534.25	9.365
534.59	9.182
534.93	8.899
535.27	9.566
535.62	9.655
535.96	9.567
536.30	8.639
536.64	9.495
536.98	9.958
537.32	8.984
537.66	9.708
538.01	9.072
538.35	10.068
538.69	9.358
539.03	9.953
539.37	9.581
539.71	10.073
540.05	9.801
540.39	9.626
540.73	10.021
541.07	9.836
541.42	9.115
541.76	9.037
542.10	10.196
542.44	9.594
542.78	8.616
543.12	9.165
543.46	9.178
543.80	9.498
544.14	9.469
544.48	10.499
544.82	9.608
545.16	9.993
545.50	8.614
545.84	9.597
546.18	9.986
546.52	10.171
546.86	9.473
547.20	9.986
547.54	8.815
547.88	8.825
548.22	9.174
548.56	9.552
548.90	9.030
549.24	9.180
549.58	9.668
549.92	10.035
550.26	10.116
550.60	9.388
550.94	9.708
551.28	10.534
551.62	9.380
551.96	9.624
552.30	10.035
552.64	9.500
552.98	9.671
553.32	9.307
553.66	10.094
554.00	9.950
554.34	9.242
554.68	9.868
555.02	10.203
555.36	9.490
555.69	9.169
556.03	9.333
556.37	9.957
556.71	10.021
557.05	9.978
557.39	9.948
557.73	11.379
558.07	9.269
558.41	9.948
558.75	9.506
559.08	8.716
559.42	10.031
559.76	9.969
560.10	10.142
560.44	9.827
560.78	8.977
561.12	9.386
561.45	10.205
561.79	10.105
562.13	8.766
562.47	10.014
562.81	9.760
563.15	8.607
563.48	9.675
563.82	9.128
564.16	9.263
564.50	8.938
564.84	9.854
565.17	9.151
565.51	9.518
565.85	9.601
566.19	10.013
566.52	9.720
566.86	9.292
567.20	10.230
567.54	10.455
567.88	9.436
568.21	9.564
568.55	9.014
568.89	8.946
569.23	9.671
569.56	8.869
569.90	8.733
570.24	9.433
570.57	8.682
570.91	8.671
571.25	8.949
571.59	8.773
571.92	9.375
572.26	9.017
572.60	8.626
572.93	8.795
573.27	9.024
573.61	8.603
573.95	8.701
574.28	8.389
574.62	8.643
574.96	8.325
575.29	8.765
575.63	8.521
575.97	8.414
576.30	8.358
576.64	8.668
576.98	8.335
577.31	8.534
577.65	8.522
577.98	8.844
578.32	8.314
578.66	8.180
578.99	8.646
579.33	8.415
579.67	8.293
580.00	8.408
580.34	8.268
580.67	8.384
581.01	8.272
581.35	8.731
581.68	8.378
582.02	8.482
582.35	8.442
582.69	8.372
583.02	8.908
583.36	8.556
583.70	8.653
584.03	8.244
584.37	8.552
584.70	8.089
585.04	8.810
585.37	8.496
585.71	8.902
586.04	8.308
586.38	8.019
586.72	8.963
587.05	8.638
587.39	8.276
587.72	8.946
588.06	8.721
588.39	8.317
588.73	8.811
589.06	8.632
589.40	8.966
589.73	9.030
590.07	8.594
590.40	8.930
590.73	8.756
591.07	8.934
591.40	9.489
591.74	8.905
592.07	8.829
592.41	8.832
592.74	8.762
593.08	9.337
593.41	8.717
593.75	8.506
594.08	8.591
594.41	9.020
594.75	8.720
595.08	8.496
595.42	8.671
595.75	8.416
596.09	8.964
596.42	9.165
596.75	8.797
597.09	9.305
597.42	8.468
597.75	8.680
598.09	9.128
598.42	8.926
598.76	8.887
599.09	8.524
599.42	8.381
599.76	8.758
600.09	9.427
600.42	9.001
600.76	9.190
601.09	9.077
601.42	8.508
601.76	9.579
602.09	9.162
602.42	8.807
602.76	8.392
603.09	9.234
603.42	8.461
603.76	9.055
604.09	9.371
604.42	8.784
604.76	9.202
605.09	8.996
605.42	9.176
605.75	8.538
606.09	8.717
606.42	8.714
606.75	9.017
607.09	8.955
607.42	8.055
607.75	8.962
608.08	9.128
608.42	8.467
608.75	9.019
609.08	8.768
609.41	8.869
609.75	9.508
610.08	9.167
610.41	9.446
610.74	9.043
611.07	9.533
611.41	8.674
611.74	9.409
612.07	9.721
612.40	9.275
612.73	8.885
613.07	9.081
613.40	9.469
613.73	9.918
614.06	8.951
614.39	9.639
614.72	8.827
615.06	8.641
615.39	8.736
615.72	8.854
616.05	8.614
616.38	9.518
616.71	8.889
617.05	9.590
617.38	9.288
617.71	9.029
618.04	9.193
618.37	8.931
618.70	9.844
619.03	9.614
619.36	9.443
619.69	9.691
620.03	9.780
620.36	9.001
620.69	9.763
621.02	9.361
621.35	9.839
621.68	8.934
622.01	9.871
622.34	10.093
622.67	9.531
623.00	10.406
623.33	10.224
623.66	8.641
623.99	9.850
624.32	9.152
624.65	10.007
624.99	9.335
625.32	9.356
625.65	10.101
625.98	9.390
626.31	9.951
626.64	9.874
626.97	9.161
627.30	9.532
627.63	8.895
627.96	10.096
628.29	9.375
628.62	8.787
628.95	11.417
629.28	9.774
629.61	9.421
629.94	9.735
630.26	9.443
630.59	9.548
630.92	9.610
631.25	10.484
631.58	9.735
631.91	10.106
632.24	9.889
632.57	10.889
632.90	10.920
633.23	10.631
633.56	9.825
633.89	9.906
634.22	10.153
634.55	10.337
634.88	10.278
635.20	10.362
635.53	10.178
635.86	8.816
636.19	9.768
636.52	10.155
636.85	8.544
637.18	9.625
637.51	10.533
637.83	9.188
638.16	8.289
638.49	9.103
638.82	9.781
639.15	10.117
639.48	8.820
639.81	11.203
640.13	10.676
640.46	9.259
640.79	10.924
641.12	11.566
641.45	10.904
641.77	11.078
642.10	10.272
642.43	11.229
642.76	10.709
643.09	9.841
643.41	10.635
643.74	9.857
644.07	12.012
644.40	11.507
644.73	11.716
645.05	10.184
645.38	12.583
645.71	12.715
646.04	12.941
646.36	8.901
646.69	12.803
647.02	9.747
647.35	8.845
647.67	11.131
648.00	11.072
648.33	11.467
648.66	10.000
648.98	9.554
649.31	10.462
649.64	10.469
649.96	10.832
650.29	9.508
650.62	12.392
650.94	11.636
651.27	10.399
651.60	9.689
651.92	11.986
652.25	9.516
652.58	6.985
652.90	10.112
653.23	11.290
653.56	9.197
653.88	11.639
654.21	10.738
654.54	11.130
654.86	11.236
655.19	8.883
655.52	9.599
655.84	8.217
656.17	8.825
656.49	12.046
656.82	12.421
657.15	9.204
657.47	6.746
657.80	5.214
658.13	5.938
658.45	7.884
658.78	7.399
659.10	7.821
659.43	7.287
659.75	7.868
660.08	7.552
660.41	7.597
660.73	7.481
661.06	11.304
661.38	11.607
661.71	9.943
662.03	11.492
662.36	10.235
662.68	8.650
663.01	11.040
663.33	8.844
663.66	11.588
663.98	10.938
664.31	10.738
664.63	12.832
664.96	7.158
665.28	10.629
665.61	8.034
665.93	11.111
666.26	12.753
666.58	11.850
666.91	12.027
667.23	10.526
667.56	11.111
667.88	11.991
668.21	9.677
668.53	13.318
668.86	13.164
669.18	10.046
669.50	11.682
669.83	9.002
670.15	11.659
670.48	10.514
670.80	9.112
671.13	9.255
671.45	9.910
671.77	10.064
672.10	10.651
672.42	11.624
672.75	9.818
673.07	9.369
673.39	10.929
673.72	10.236
674.04	7.643
674.37	8.247
674.69	13.115
675.01	9.149
675.34	9.978
675.66	12.959
675.98	11.233
676.31	10.407
676.63	12.874
676.95	10.841
677.28	11.137
677.60	9.955
677.92	11.674
678.25	10.722
678.57	9.877
678.89	8.386
679.22	9.644
679.54	11.440
679.86	9.400
680.18	8.175
680.51	8.566
680.83	11.238
681.15	10.019
681.48	11.765
681.80	10.282
682.12	11.268
682.44	10.806
682.77	8.009
683.09	10.273
683.41	12.611
683.73	7.991
684.06	9.677
684.38	10.879
684.70	9.053
685.02	11.024
685.34	10.721
685.67	7.765
685.99	7.183
686.31	9.874
686.63	11.170
686.96	10.166
687.28	9.056
687.60	10.547
687.92	7.782
688.24	9.843
688.56	7.615
688.89	7.906
689.21	9.190
689.53	10.345
689.85	10.022
690.17	8.296
690.49	11.316
690.82	7.952
691.14	8.962
691.46	7.317
691.78	10.793
692.10	11.229
692.42	8.222
692.74	10.730
693.06	9.213
693.39	9.620
693.71	8.126
694.03	9.503
694.35	9.932
694.67	6.619
694.99	9.463
695.31	9.184
695.63	8.673
695.95	8.933
696.27	10.973
696.59	9.893
696.91	9.831
697.23	11.719
697.56	5.048
697.88	7.432
698.20	8.779
698.52	8.072
698.84	10.437
699.16	8.571
699.48	7.750
699.80	11.529
700.12	10.831
700.44	7.542
700.76	8.746
701.08	7.849
701.40	6.042
701.72	9.568
702.04	9.936
702.36	10.843
702.68	6.886
703.00	10.435
703.32	4.298
703.64	13.824
703.96	12.209
704.28	7.692
704.60	6.646
704.91	6.984
705.23	6.796
705.55	9.122
705.87	11.263
706.19	5.903
706.51	8.333
706.83	11.148
707.15	7.006
707.47	7.438
707.79	10.825
708.11	7.379
708.43	10.723
708.74	9.091
709.06	8.078
709.38	11.494
709.70	6.562
710.02	13.804
710.34	7.921
710.66	8.889
710.98	8.833
711.29	8.710
711.61	6.390
711.93	8.852
712.25	9.302
712.57	9.059
712.89	11.871
713.20	12.027
713.52	3.731
713.84	8.541
714.16	8.525
714.48	8.889
714.80	10.769
715.11	10.951
715.43	10.843
715.75	9.657
716.07	8.197
716.39	9.030
716.70	10.105
717.02	11.852
717.34	8.397
717.66	8.714
717.97	11.066
718.29	7.983
718.61	17.063
718.93	11.111
719.24	8.088
719.56	7.547
719.88	9.818
720.20	8.989
720.51	13.158
720.83	10.442
721.15	8.197
721.46	8.627
721.78	10.345
722.10	14.000
722.42	7.851
722.73	7.968
723.05	9.639
723.37	8.627
723.68	6.883
724.00	10.569
724.32	7.819
724.63	4.979
724.95	12.397
725.27	5.702
725.58	5.603
725.90	5.952
726.22	14.391
726.53	11.787
726.85	4.706
727.16	12.782
727.48	6.154
727.80	7.377
728.11	6.723
728.43	7.438
728.74	12.500
729.06	6.818
729.38	6.226
729.69	5.118
730.01	9.055
730.32	6.773
730.64	8.791
730.96	7.090
731.27	6.429
731.59	15.756
731.90	7.055
732.22	9.816
732.53	10.596
732.85	7.383
733.16	7.971
733.48	6.969
733.80	6.050
734.11	6.897
734.43	5.102
734.74	10.089
735.06	8.777
735.37	8.869
735.69	5.806
736.00	8.418
736.32	9.934
736.63	7.586
736.95	10.145
737.26	7.616
737.58	7.554
737.89	9.319
738.21	9.023
738.52	11.154
738.83	8.203
739.15	5.128
739.46	10.081
739.78	8.042
740.09	8.392
740.41	7.692
740.72	7.664
741.04	8.333
741.35	5.628
741.66	8.333
741.98	6.190
742.29	7.042
742.61	6.417
742.92	9.346
743.23	4.386
743.55	3.153
743.86	15.111
744.18	6.667
744.49	13.793
744.80	12.183
745.12	10.309
745.43	3.015
745.74	13.592
746.06	5.854
746.37	8.811
746.68	10.448
747.00	2.618
747.31	5.769
747.62	13.825
747.94	11.790
748.25	12.093
748.56	8.571
748.88	5.435
749.19	9.859
749.50	16.176
749.82	10.667
750.13	8.370
750.44	6.504
750.75	9.200
751.07	11.786
751.38	7.380
751.69	4.580
752.01	13.462
752.32	9.339
752.63	6.538
752.94	3.571
753.26	9.565
753.57	9.821
753.88	8.190
754.19	7.469
754.51	7.812
754.82	5.534
755.13	4.527
755.44	8.678
755.75	9.053
756.07	2.410
756.38	6.641
756.69	9.747
757.00	7.666
757.31	7.047
757.63	10.280
757.94	6.069
758.25	7.849
758.56	12.129
758.87	6.818
759.18	8.333
759.50	10.320
759.81	5.109
760.12	3.716
760.43	7.443
760.74	10.625
761.05	9.831
761.36	5.988
761.67	6.805
761.99	7.419
762.30	6.884
762.61	8.302
762.92	9.865
763.23	10.900
763.54	7.111
763.85	8.017
764.16	11.020
764.47	11.441
764.78	8.989
765.10	10.072
765.41	8.065
765.72	8.176
766.03	0.000
766.34	7.143
766.65	9.717
766.96	5.500
767.27	6.250
767.58	9.302
767.89	4.516
768.20	10.429
768.51	6.011
768.82	5.946
769.13	4.000
769.44	5.263
769.75	10.390
770.06	6.422
770.37	4.695
770.68	5.208
770.99	8.416
771.30	12.136
771.61	5.093
771.92	4.329
772.23	7.944
772.54	7.447
772.85	7.692
773.16	9.146
773.47	13.253
773.78	12.088
774.09	5.333
774.39	8.025
774.70	8.054
775.01	0.000
775.32	2.239
775.63	9.917
775.94	12.030
776.25	13.571
776.56	0.000
776.87	12.389
777.18	15.044
777.48	-1.818
777.79	-6.087
778.10	1.835
778.41	-1.695
778.72	0.826
779.03	10.448
779.34	13.534
779.65	9.804
779.95	8.696
780.26	2.721
780.57	-1.724
780.88	4.630
781.19	1.010
781.50	0.000
781.80	0.000
782.11	11.538
782.42	7.229
782.73	-4.380
783.04	11.486
783.34	9.848
783.65	9.302
783.96	14.634
784.27	9.402
784.57	0.000
784.88	5.691
785.19	9.649
785.50	-10.309
785.81	-6.667
786.11	0.000
786.42	-6.364
786.73	7.207
787.04	13.861
787.34	12.381
787.65	5.714
787.96	4.902
788.26	1.802
788.57	12.097
788.88	8.594
789.19	-2.564
789.49	4.202
789.80	5.983
790.11	10.619
790.41	9.091
790.72	17.925
791.03	-8.333
791.33	6.579
791.64	5.376
791.95	9.333
792.25	-15.714
792.56	3.659
792.87	12.245
793.17	5.263
793.48	6.757
793.79	2.817
794.09	-6.329
794.40	4.255
794.70	5.607
795.01	-10.526
795.32	8.182
795.62	-0.893
795.93	-2.062
796.23	5.495
796.54	18.947
796.85	6.849
797.15	-6.944
797.46	-2.740
797.76	15.493
798.07	6.250
798.37	0.000
798.68	15.714
798.99	4.286
799.29	2.632
799.60	18.333
799.90	-12.500
800.21	-6.250
800.51	20.635
800.82	1.639
801.12	-12.281
801.43	0.000
801.73	-15.254
802.04	18.033
802.34	-7.273
802.65	19.231
802.95	1.852
803.26	-20.000
803.56	5.769
803.87	5.263
804.17	12.903
804.48	4.615
804.78	-17.949
805.09	4.651
805.39	-31.250
805.70	-3.774
806.00	29.825
806.30	24.324
806.61	1.471
806.91	-4.938
807.22	17.333
807.52	1.493
807.83	-6.452
808.13	1.587
808.43	-5.455
808.74	4.545
809.04	-1.887
809.35	1.370
809.65	15.789
809.95	27.941
810.26	-7.843
810.56	8.000
810.86	-2.041
811.17	0.000
811.47	19.231
811.77	-22.581
812.08	-42.105
812.38	7.143
812.69	6.522
812.99	0.000
813.29	-9.524
813.59	-70.370
813.90	-17.021
814.20	-32.558
814.50	2.083
814.81	-23.333
815.11	-29.268
815.41	-6.667
815.72	5.714
816.02	-47.222
816.32	25.641
816.62	-8.108
816.93	-41.176
817.23	-13.043
817.53	11.765
817.84	0.000
818.14	-25.000
818.44	-27.586
818.74	-41.935
819.04	-14.815
819.35	-10.000
819.65	12.000
819.95	-6.667
820.25	-12.000
820.56	-23.684
820.86	-12.500
821.16	10.638
821.46	6.897
821.76	-15.385
822.07	-32.500
822.37	-23.256
822.67	-3.333
822.97	-40.541
823.27	13.514
823.57	4.000
823.88	-8.108
824.18	-52.381
824.48	11.538
824.78	-100.000
825.08	17.391
825.38	-20.833
825.69	-8.333
825.99	-95.000
826.29	-10.811
826.59	-2.941
826.89	8.000
827.19	-51.429
827.49	10.526
827.79	-34.375
828.09	-6.667
828.39	-65.217
828.70	-34.483
829.00	-24.138
829.30	-13.889
829.60	40.625
829.90	0.000
830.20	-3.846
830.50	-71.429
830.80	-10.714
831.10	2.564
831.40	-14.286
831.70	14.706
832.00	-16.667
832.30	-15.789
832.60	-68.750
832.90	-58.333
833.20	-29.412
833.50	-93.333
833.80	6.667
834.10	-15.000
834.40	-16.667
834.70	11.111
835.00	15.385
835.30	-20.833
835.60	-3.448
835.90	-27.778
836.20	-81.818
836.50	-100.000
836.80	-11.429
837.10	37.143
837.40	29.412
837.70	-63.636
838.00	-16.667
838.30	-50.000
838.60	14.286
838.90	45.000
839.19	-43.478
839.49	-30.435
839.79	-72.222
840.09	-43.478
840.39	4.545
840.69	-75.000
840.99	36.842
841.29	0.000
841.59	-28.571
841.88	-55.556
842.18	0.000
842.48	-117.647
842.78	27.586
843.08	-50.000
843.38	7.692
843.68	-155.556
843.97	-76.923
844.27	-27.273
844.57	-160.000
844.87	28.000
845.17	-20.000
845.47	-57.143
845.76	-177.778
846.06	0.000
846.36	-325.000
846.66	-70.000
846.96	15.789
847.25	-8.333
847.55	25.000
847.85	86.667
848.15	0.000
848.44	53.846
848.74	21.053
849.04	666.667
849.34	-11.111
849.63	-5.263
849.93	0.000
850.23	-55.000
850.53	-19.048
850.82	-12.000
851.12	15.789
851.42	-750.000
851.71	0.000
852.01	-33.333
852.31	-29.412
852.61	-86.667
852.90	14.286
853.20	-200.000
853.50	-72.222
853.79	-52.632
854.09	-80.000
854.39	3.571
854.68	-8.696
854.98	-83.333
855.28	17.241
855.57	12.500
855.87	15.000
856.17	-60.000
856.46	-10.345
856.76	13.333
857.05	-41.176
857.35	-76.923
857.65	-109.091
857.94	-18.519
858.24	-28.571
858.53	-135.714
858.83	-83.333
859.13	-122.222
859.42	61.905
859.72	-112.500
860.01	33.333
860.31	-50.000
860.60	-280.000
860.90	-77.778
861.20	-162.500
861.49	-57.143
861.79	5.882
862.08	-650.000
862.38	-41.667
862.67	53.846
862.97	-35.294
863.26	85.000
863.56	11.765
863.85	300.000
864.15	-80.000
864.44	-46.154
864.74	45.000
865.03	-162.500
865.33	-166.667
865.62	5.882
865.92	-250.000
866.21	-85.714
866.51	25.000
866.80	-400.000
867.10	-233.333
867.39	17.647
867.69	30.435
867.98	28.571
868.27	-260.000
868.57	-75.000
868.86	-100.000
869.16	70.588
869.45	-166.667
869.75	-100.000
870.04	400.000
870.33	8.333
870.63	-100.000
870.92	-55.556
871.22	-25.000
871.51	-118.182
871.80	0.000
872.10	80.000
>>>>>End Processed Spectral Data<<<<<
