SpectraSuite Data File
++++++++++++++++++++++++++++++++++++
Date: Sat May 16 11:12:50 PDT 2015
User: schluterlab
Dark Spectrum Present: Yes
Reference Spectrum Present: Yes
Number of Sampled Component Spectra: 1
Spectrometers: USB2E3373
Integration Time (usec): 3000 (USB2E3373)
Spectra Averaged: 3 (USB2E3373)
Boxcar Smoothing: 0 (USB2E3373)
Correct for Electrical Dark: No (USB2E3373)
Strobe/Lamp Enabled: No (USB2E3373)
Correct for Detector Non-linearity: No (USB2E3373)
Correct for Stray Light: No (USB2E3373)
Number of Pixels in Processed Spectrum: 2048
>>>>>Begin Processed Spectral Data<<<<<
178.53	0.000
178.91	33.333
179.29	133.333
179.67	-100.000
180.04	-7.692
180.42	200.000
180.80	200.000
181.18	175.000
181.56	25.000
181.94	-200.000
182.31	475.000
182.69	-7.692
183.07	-366.667
183.45	1150.000
183.83	266.667
184.20	-171.429
184.58	87.500
184.96	25.000
185.34	31.250
185.72	-175.000
186.09	83.333
186.47	-200.000
186.85	-37.500
187.23	-25.000
187.61	-175.000
187.98	-262.500
188.36	-175.000
188.74	-100.000
189.12	1000.000
189.49	171.429
189.87	50.000
190.25	-0.000
190.63	-78.571
191.00	-133.333
191.38	180.000
191.76	6.667
192.14	520.000
192.51	-100.000
192.89	-400.000
193.27	0.000
193.65	-55.556
194.02	-214.286
194.40	400.000
194.78	0.000
195.15	-300.000
195.53	0.000
195.91	-383.333
196.29	20.000
196.66	-233.333
197.04	1100.000
197.42	-100.000
197.79	60.000
198.17	200.000
198.55	-550.000
198.92	-700.000
199.30	12.500
199.68	-700.000
200.05	-33.333
200.43	-177.778
200.81	-1000.000
201.18	16.667
201.56	128.571
201.94	26.667
202.31	18.182
202.69	50.000
203.07	-90.000
203.44	333.333
203.82	-300.000
204.19	0.000
204.57	125.000
204.95	-1100.000
205.32	12.500
205.70	-100.000
206.08	-500.000
206.45	50.000
206.83	-650.000
207.20	200.000
207.58	-200.000
207.96	-200.000
208.33	25.000
208.71	-77.778
209.08	230.000
209.46	-114.286
209.84	600.000
210.21	0.000
210.59	75.000
210.96	-300.000
211.34	-100.000
211.71	-166.667
212.09	200.000
212.46	750.000
212.84	-1800.000
213.22	500.000
213.59	83.333
213.97	-100.000
214.34	170.000
214.72	20.000
215.09	-266.667
215.47	-33.333
215.84	-80.000
216.22	50.000
216.59	-13.333
216.97	-500.000
217.34	600.000
217.72	0.000
218.09	-166.667
218.47	-228.571
218.84	100.000
219.22	-28.571
219.59	0.000
219.97	200.000
220.34	100.000
220.72	87.500
221.09	-38.462
221.47	0.000
221.84	100.000
222.22	-500.000
222.59	700.000
222.97	-125.000
223.34	-200.000
223.72	-433.333
224.09	-14.286
224.46	-75.000
224.84	-28.571
225.21	-28.571
225.59	-45.455
225.96	-112.500
226.34	-100.000
226.71	-33.333
227.08	-35.000
227.46	1300.000
227.83	-57.143
228.21	-162.500
228.58	-0.000
228.95	50.000
229.33	-700.000
229.70	-280.000
230.08	-600.000
230.45	16.667
230.82	-100.000
231.20	-600.000
231.57	-150.000
231.95	1300.000
232.32	14.286
232.69	-100.000
233.07	-142.857
233.44	-650.000
233.81	26.667
234.19	33.333
234.56	-12.500
234.93	43.750
235.31	-14.286
235.68	-78.571
236.05	-35.294
236.43	-45.455
236.80	0.000
237.17	-12.500
237.55	-42.857
237.92	-45.455
238.29	-25.714
238.67	2.941
239.04	-22.222
239.41	-25.806
239.79	-23.077
240.16	-4.762
240.53	5.455
240.91	15.385
241.28	-10.909
241.65	15.385
242.02	0.000
242.40	-16.393
242.77	-3.030
243.14	-10.169
243.51	5.714
243.89	-3.797
244.26	1.124
244.63	10.526
245.00	-2.105
245.38	9.322
245.75	10.619
246.12	7.200
246.49	9.449
246.87	1.626
247.24	2.542
247.61	0.000
247.98	5.634
248.36	6.294
248.73	8.861
249.10	2.548
249.47	7.602
249.84	2.841
250.22	-1.190
250.59	5.085
250.96	5.759
251.33	11.374
251.70	7.692
252.08	6.635
252.45	1.896
252.82	-0.476
253.19	8.085
253.56	4.032
253.94	4.641
254.31	3.433
254.68	4.472
255.05	8.065
255.42	13.095
255.79	3.226
256.16	7.451
256.54	6.250
256.91	7.197
257.28	6.227
257.65	4.610
258.02	10.377
258.39	3.679
258.76	3.378
259.14	7.099
259.51	6.230
259.88	4.573
260.25	5.280
260.62	6.752
260.99	4.451
261.36	4.573
261.73	6.647
262.10	7.222
262.47	6.268
262.85	12.571
263.22	2.006
263.59	5.538
263.96	4.928
264.33	7.046
264.70	9.945
265.07	6.868
265.44	5.426
265.81	7.752
266.18	5.316
266.55	7.843
266.92	9.068
267.29	5.569
267.66	4.444
268.03	5.314
268.40	8.216
268.77	6.506
269.14	5.104
269.51	7.126
269.88	4.587
270.25	4.196
270.62	7.780
270.99	10.135
271.36	7.459
271.73	6.278
272.10	6.407
272.47	4.444
272.84	8.667
273.21	6.881
273.58	7.912
273.95	6.140
274.32	11.086
274.69	8.972
275.06	8.998
275.43	4.018
275.80	7.536
276.17	6.067
276.54	9.369
276.91	6.379
277.28	7.505
277.65	7.438
278.02	8.977
278.39	6.680
278.76	5.777
279.13	7.510
279.50	5.765
279.87	6.131
280.23	8.300
280.60	7.555
280.97	6.214
281.34	7.157
281.71	5.962
282.08	7.056
282.45	4.073
282.82	6.395
283.19	6.727
283.56	8.974
283.92	7.244
284.29	3.346
284.66	6.835
285.03	6.595
285.40	8.487
285.77	7.018
286.14	5.957
286.51	4.263
286.87	8.893
287.24	9.386
287.61	7.107
287.98	5.719
288.35	6.116
288.72	5.772
289.08	4.068
289.45	6.902
289.82	4.671
290.19	6.568
290.56	6.116
290.93	5.405
291.29	4.214
291.66	4.992
292.03	5.495
292.40	6.175
292.77	6.056
293.13	6.667
293.50	7.429
293.87	5.368
294.24	5.882
294.60	3.788
294.97	6.373
295.34	4.296
295.71	6.250
296.08	3.072
296.44	4.006
296.81	5.698
297.18	4.930
297.55	5.226
297.91	6.416
298.28	4.247
298.65	4.881
299.02	6.150
299.38	4.545
299.75	4.891
300.12	5.385
300.48	5.882
300.85	4.194
301.22	4.528
301.59	4.161
301.95	6.171
302.32	2.608
302.69	5.753
303.05	5.617
303.42	4.750
303.79	4.306
304.15	4.621
304.52	6.651
304.89	6.021
305.25	4.884
305.62	5.053
305.99	6.596
306.35	4.883
306.72	3.645
307.09	5.448
307.45	5.335
307.82	4.916
308.19	4.698
308.55	3.922
308.92	4.834
309.29	4.865
309.65	5.196
310.02	3.564
310.38	4.865
310.75	4.816
311.12	5.062
311.48	5.219
311.85	4.634
312.22	4.634
312.58	5.188
312.95	5.810
313.31	4.895
313.68	5.829
314.05	5.737
314.41	4.728
314.78	3.996
315.14	4.047
315.51	4.965
315.87	5.518
316.24	5.734
316.61	4.511
316.97	6.070
317.34	4.046
317.70	3.803
318.07	5.504
318.43	4.869
318.80	5.915
319.16	4.409
319.53	5.545
319.89	5.080
320.26	6.078
320.62	4.519
320.99	4.279
321.35	4.433
321.72	3.992
322.08	5.242
322.45	4.356
322.81	4.899
323.18	5.668
323.54	5.915
323.91	5.746
324.27	5.513
324.64	4.662
325.00	5.410
325.37	6.063
325.73	6.474
326.10	4.074
326.46	4.291
326.83	5.617
327.19	5.171
327.56	6.133
327.92	6.032
328.29	5.108
328.65	3.636
329.01	5.477
329.38	5.709
329.74	6.685
330.11	6.890
330.47	4.541
330.84	7.058
331.20	6.408
331.56	4.284
331.93	4.529
332.29	5.205
332.66	5.356
333.02	5.430
333.38	6.004
333.75	5.610
334.11	5.156
334.48	4.766
334.84	6.649
335.20	5.408
335.57	5.054
335.93	6.356
336.29	5.492
336.66	4.934
337.02	5.405
337.38	4.456
337.75	4.478
338.11	5.725
338.47	4.893
338.84	5.172
339.20	4.833
339.56	5.882
339.93	5.379
340.29	5.226
340.65	5.944
341.02	5.481
341.38	4.802
341.74	5.504
342.11	5.205
342.47	5.064
342.83	4.534
343.20	4.611
343.56	4.816
343.92	6.010
344.28	5.299
344.65	5.363
345.01	4.790
345.37	6.063
345.73	4.092
346.10	4.252
346.46	5.118
346.82	5.373
347.19	4.437
347.55	5.377
347.91	4.173
348.27	5.171
348.63	5.816
349.00	5.489
349.36	4.059
349.72	5.653
350.08	4.892
350.45	4.413
350.81	5.175
351.17	4.502
351.53	3.819
351.89	5.416
352.26	5.194
352.62	6.221
352.98	5.775
353.34	5.196
353.70	4.942
354.07	5.350
354.43	4.901
354.79	5.388
355.15	3.514
355.51	4.766
355.87	4.348
356.24	4.369
356.60	5.560
356.96	5.081
357.32	4.038
357.68	4.981
358.04	5.235
358.40	4.872
358.77	4.482
359.13	5.126
359.49	4.762
359.85	4.116
360.21	5.327
360.57	5.196
360.93	5.407
361.29	5.830
361.66	3.963
362.02	3.550
362.38	5.136
362.74	5.128
363.10	4.663
363.46	5.769
363.82	4.082
364.18	5.065
364.54	6.004
364.90	3.983
365.26	4.494
365.62	5.346
365.98	5.405
366.35	5.141
366.71	4.933
367.07	4.940
367.43	5.765
367.79	5.498
368.15	4.694
368.51	5.734
368.87	6.525
369.23	5.333
369.59	4.444
369.95	4.863
370.31	5.274
370.67	4.121
371.03	4.956
371.39	4.455
371.75	5.150
372.11	4.663
372.47	5.351
372.83	4.729
373.19	3.929
373.55	5.208
373.91	4.267
374.27	4.312
374.63	5.176
374.99	5.772
375.35	4.643
375.71	6.009
376.07	5.133
376.42	4.371
376.78	4.641
377.14	5.017
377.50	5.609
377.86	5.332
378.22	4.962
378.58	4.756
378.94	4.316
379.30	5.606
379.66	5.039
380.02	5.169
380.38	5.196
380.74	4.513
381.09	6.034
381.45	5.668
381.81	5.445
382.17	5.138
382.53	4.802
382.89	5.144
383.25	5.178
383.61	5.483
383.97	5.573
384.32	5.444
384.68	5.018
385.04	4.771
385.40	4.626
385.76	5.061
386.12	5.309
386.48	5.755
386.83	5.890
387.19	5.140
387.55	4.664
387.91	4.742
388.27	4.524
388.62	4.688
388.98	4.785
389.34	5.263
389.70	4.750
390.06	5.221
390.42	5.321
390.77	5.363
391.13	6.025
391.49	5.864
391.85	5.486
392.20	5.400
392.56	5.070
392.92	4.335
393.28	4.994
393.64	5.111
393.99	6.154
394.35	5.353
394.71	5.435
395.07	5.524
395.42	4.946
395.78	4.965
396.14	5.358
396.50	5.260
396.85	4.874
397.21	5.286
397.57	5.714
397.92	5.386
398.28	5.500
398.64	5.532
399.00	5.730
399.35	4.961
399.71	5.923
400.07	6.030
400.42	6.448
400.78	5.486
401.14	5.629
401.49	5.071
401.85	5.247
402.21	5.066
402.57	5.704
402.92	5.727
403.28	5.821
403.63	5.692
403.99	5.345
404.35	5.374
404.70	5.676
405.06	5.998
405.42	5.474
405.77	4.977
406.13	5.679
406.49	5.452
406.84	4.919
407.20	4.947
407.55	5.320
407.91	4.858
408.27	5.760
408.62	5.893
408.98	5.276
409.34	6.216
409.69	6.301
410.05	5.397
410.40	5.212
410.76	5.691
411.11	5.050
411.47	4.604
411.83	5.440
412.18	4.703
412.54	4.942
412.89	5.529
413.25	4.841
413.60	4.253
413.96	4.806
414.31	6.177
414.67	5.079
415.03	5.239
415.38	5.530
415.74	5.928
416.09	5.563
416.45	4.431
416.80	5.527
417.16	5.183
417.51	6.303
417.87	5.502
418.22	5.310
418.58	5.584
418.93	5.518
419.29	5.834
419.64	4.711
420.00	5.832
420.35	4.967
420.71	4.322
421.06	5.385
421.42	4.333
421.77	5.583
422.12	5.428
422.48	5.933
422.83	4.954
423.19	5.290
423.54	5.706
423.90	5.205
424.25	4.808
424.61	5.127
424.96	5.617
425.31	5.534
425.67	5.100
426.02	4.475
426.38	5.989
426.73	5.435
427.09	5.147
427.44	5.511
427.79	5.349
428.15	5.984
428.50	5.865
428.85	5.096
429.21	5.091
429.56	5.521
429.92	5.060
430.27	5.334
430.62	5.695
430.98	5.489
431.33	5.069
431.68	5.416
432.04	5.596
432.39	5.356
432.74	5.216
433.10	5.065
433.45	5.872
433.80	4.759
434.16	5.373
434.51	5.205
434.86	5.975
435.22	5.902
435.57	5.386
435.92	5.510
436.28	5.282
436.63	5.088
436.98	5.727
437.34	5.257
437.69	5.193
438.04	4.765
438.39	5.716
438.75	5.879
439.10	5.497
439.45	5.492
439.81	5.301
440.16	5.111
440.51	5.824
440.86	5.495
441.22	5.362
441.57	5.737
441.92	5.678
442.27	5.195
442.63	5.526
442.98	4.966
443.33	5.711
443.68	5.107
444.03	5.255
444.39	5.923
444.74	5.727
445.09	5.592
445.44	5.684
445.79	5.099
446.15	6.517
446.50	5.117
446.85	5.541
447.20	5.414
447.55	5.525
447.91	5.952
448.26	5.307
448.61	5.772
448.96	5.938
449.31	5.073
449.66	4.980
450.02	5.374
450.37	5.333
450.72	5.367
451.07	6.034
451.42	5.266
451.77	5.326
452.12	5.900
452.47	5.856
452.83	5.183
453.18	6.262
453.53	5.286
453.88	6.220
454.23	5.320
454.58	5.469
454.93	6.486
455.28	5.035
455.63	5.897
455.98	6.386
456.34	4.574
456.69	6.567
457.04	5.655
457.39	5.502
457.74	6.379
458.09	6.032
458.44	5.600
458.79	5.325
459.14	6.104
459.49	5.684
459.84	5.565
460.19	5.370
460.54	5.203
460.89	5.661
461.24	5.039
461.59	6.155
461.94	5.411
462.29	6.135
462.64	6.324
462.99	6.359
463.34	6.077
463.69	5.344
464.04	5.214
464.39	5.376
464.74	6.442
465.09	5.833
465.44	6.091
465.79	6.148
466.14	5.984
466.49	6.160
466.84	6.483
467.19	6.608
467.54	5.443
467.89	6.905
468.24	6.176
468.59	5.559
468.94	5.723
469.29	5.523
469.64	5.930
469.99	6.144
470.34	5.678
470.68	6.177
471.03	6.607
471.38	5.417
471.73	5.874
472.08	5.890
472.43	5.470
472.78	6.533
473.13	5.633
473.48	6.765
473.83	6.700
474.17	6.369
474.52	6.905
474.87	6.410
475.22	6.077
475.57	4.611
475.92	6.641
476.27	6.171
476.61	5.915
476.96	5.813
477.31	6.405
477.66	6.087
478.01	7.239
478.36	5.972
478.70	6.086
479.05	6.057
479.40	5.907
479.75	5.759
480.10	6.548
480.45	6.238
480.79	5.627
481.14	6.322
481.49	6.002
481.84	5.964
482.19	6.441
482.53	6.013
482.88	6.170
483.23	6.291
483.58	6.984
483.92	5.972
484.27	6.114
484.62	6.393
484.97	6.118
485.31	5.888
485.66	5.846
486.01	5.827
486.36	5.902
486.70	6.327
487.05	6.008
487.40	5.956
487.75	6.064
488.09	5.374
488.44	6.225
488.79	6.686
489.13	5.934
489.48	6.281
489.83	6.288
490.17	6.530
490.52	6.567
490.87	5.589
491.22	5.792
491.56	6.713
491.91	6.536
492.26	5.991
492.60	5.947
492.95	6.568
493.30	6.956
493.64	6.159
493.99	6.214
494.34	5.810
494.68	6.788
495.03	6.358
495.37	5.605
495.72	6.336
496.07	6.757
496.41	7.318
496.76	6.119
497.11	6.689
497.45	6.466
497.80	6.103
498.14	6.925
498.49	5.826
498.84	6.650
499.18	6.969
499.53	6.624
499.87	5.647
500.22	6.373
500.56	6.653
500.91	6.256
501.26	7.618
501.60	6.259
501.95	6.715
502.29	6.566
502.64	6.695
502.98	6.325
503.33	7.049
503.67	6.609
504.02	6.663
504.36	7.304
504.71	6.180
505.06	6.291
505.40	7.036
505.75	6.504
506.09	6.926
506.44	6.266
506.78	7.125
507.13	6.694
507.47	6.781
507.82	7.486
508.16	6.736
508.51	6.749
508.85	6.211
509.19	6.384
509.54	6.660
509.88	6.968
510.23	6.918
510.57	7.725
510.92	7.626
511.26	6.380
511.61	5.292
511.95	7.274
512.30	6.377
512.64	6.733
512.98	7.041
513.33	7.523
513.67	7.203
514.02	6.544
514.36	7.258
514.70	7.187
515.05	7.090
515.39	6.517
515.74	7.563
516.08	6.916
516.42	6.742
516.77	7.279
517.11	7.208
517.46	7.596
517.80	7.220
518.14	7.126
518.49	6.874
518.83	7.418
519.17	7.578
519.52	6.362
519.86	7.826
520.20	6.968
520.55	6.708
520.89	6.763
521.23	7.692
521.58	7.210
521.92	7.156
522.26	6.921
522.61	6.527
522.95	6.828
523.29	7.774
523.64	6.246
523.98	5.729
524.32	7.794
524.66	6.957
525.01	7.065
525.35	6.894
525.69	6.766
526.04	7.441
526.38	7.384
526.72	7.344
527.06	7.227
527.41	6.997
527.75	6.403
528.09	6.949
528.43	6.557
528.78	7.789
529.12	8.131
529.46	7.152
529.80	7.230
530.15	7.212
530.49	7.956
530.83	8.382
531.17	7.744
531.51	7.703
531.86	7.505
532.20	7.355
532.54	7.620
532.88	7.576
533.22	6.952
533.57	7.637
533.91	6.742
534.25	7.228
534.59	6.933
534.93	7.156
535.27	7.426
535.62	7.864
535.96	6.852
536.30	7.330
536.64	7.304
536.98	7.203
537.32	7.395
537.66	7.060
538.01	7.079
538.35	6.824
538.69	6.684
539.03	7.109
539.37	6.919
539.71	7.738
540.05	7.060
540.39	7.271
540.73	7.947
541.07	8.060
541.42	7.090
541.76	6.512
542.10	8.305
542.44	7.462
542.78	7.734
543.12	7.468
543.46	6.644
543.80	7.291
544.14	7.589
544.48	8.202
544.82	6.834
545.16	7.311
545.50	6.460
545.84	8.136
546.18	8.114
546.52	7.681
546.86	6.980
547.20	6.962
547.54	6.543
547.88	8.494
548.22	5.832
548.56	7.415
548.90	7.412
549.24	6.587
549.58	7.692
549.92	7.562
550.26	7.803
550.60	7.966
550.94	7.226
551.28	6.998
551.62	6.204
551.96	7.453
552.30	7.456
552.64	7.108
552.98	7.288
553.32	7.504
553.66	7.714
554.00	8.316
554.34	6.570
554.68	7.602
555.02	8.032
555.36	7.405
555.69	7.163
556.03	7.368
556.37	6.899
556.71	7.087
557.05	6.652
557.39	6.533
557.73	8.023
558.07	7.460
558.41	7.704
558.75	7.224
559.08	7.393
559.42	7.274
559.76	7.899
560.10	8.054
560.44	8.309
560.78	7.933
561.12	7.660
561.45	7.808
561.79	6.829
562.13	6.802
562.47	7.493
562.81	7.709
563.15	6.858
563.48	7.464
563.82	7.843
564.16	7.640
564.50	7.863
564.84	7.011
565.17	7.560
565.51	7.497
565.85	7.776
566.19	7.378
566.52	7.110
566.86	6.448
567.20	8.051
567.54	7.974
567.88	6.979
568.21	6.935
568.55	7.105
568.89	7.256
569.23	7.080
569.56	7.062
569.90	6.963
570.24	6.614
570.57	6.714
570.91	6.630
571.25	6.842
571.59	6.650
571.92	7.054
572.26	6.651
572.60	6.578
572.93	6.596
573.27	6.585
573.61	6.625
573.95	6.972
574.28	6.914
574.62	6.838
574.96	6.356
575.29	6.529
575.63	6.583
575.97	6.365
576.30	6.933
576.64	6.632
576.98	6.793
577.31	6.579
577.65	6.665
577.98	6.622
578.32	6.441
578.66	6.544
578.99	6.544
579.33	6.230
579.67	6.797
580.00	6.126
580.34	6.531
580.67	6.546
581.01	6.536
581.35	6.775
581.68	6.374
582.02	6.370
582.35	6.629
582.69	6.621
583.02	6.720
583.36	6.768
583.70	6.810
584.03	6.708
584.37	6.685
584.70	6.661
585.04	6.734
585.37	6.348
585.71	6.918
586.04	6.510
586.38	6.415
586.72	6.821
587.05	7.052
587.39	6.829
587.72	6.902
588.06	6.630
588.39	6.807
588.73	7.151
589.06	7.065
589.40	7.351
589.73	6.905
590.07	7.210
590.40	7.565
590.73	6.717
591.07	7.623
591.40	7.192
591.74	7.255
592.07	7.027
592.41	7.261
592.74	7.187
593.08	7.243
593.41	6.678
593.75	6.330
594.08	6.254
594.41	7.209
594.75	7.286
595.08	6.955
595.42	7.117
595.75	6.909
596.09	6.830
596.42	7.365
596.75	6.900
597.09	7.836
597.42	6.635
597.75	7.086
598.09	7.049
598.42	7.070
598.76	7.226
599.09	7.182
599.42	6.882
599.76	6.833
600.09	7.519
600.42	7.140
600.76	6.968
601.09	6.381
601.42	6.965
601.76	7.593
602.09	6.339
602.42	6.955
602.76	6.938
603.09	7.056
603.42	6.728
603.76	7.020
604.09	7.689
604.42	6.869
604.76	7.676
605.09	7.278
605.42	7.668
605.75	6.684
606.09	7.181
606.42	6.954
606.75	7.170
607.09	6.837
607.42	7.350
607.75	6.976
608.08	7.275
608.42	7.096
608.75	7.056
609.08	7.453
609.41	6.677
609.75	6.338
610.08	6.716
610.41	6.265
610.74	7.544
611.07	7.505
611.41	6.808
611.74	7.249
612.07	6.928
612.40	7.303
612.73	6.624
613.07	7.375
613.40	7.827
613.73	7.030
614.06	6.919
614.39	7.215
614.72	6.872
615.06	7.772
615.39	7.108
615.72	7.605
616.05	7.454
616.38	6.965
616.71	7.688
617.05	8.263
617.38	7.678
617.71	6.327
618.04	7.453
618.37	6.792
618.70	7.497
619.03	7.786
619.36	7.963
619.69	7.968
620.03	8.402
620.36	6.751
620.69	6.820
621.02	7.458
621.35	7.339
621.68	7.787
622.01	6.715
622.34	6.755
622.67	6.797
623.00	6.963
623.33	7.761
623.66	7.090
623.99	6.992
624.32	8.259
624.65	8.756
624.99	6.647
625.32	8.009
625.65	7.848
625.98	7.277
626.31	8.728
626.64	8.285
626.97	7.277
627.30	7.404
627.63	6.736
627.96	7.572
628.29	7.629
628.62	8.118
628.95	8.760
629.28	7.801
629.61	7.262
629.94	8.790
630.26	8.946
630.59	8.744
630.92	6.707
631.25	7.762
631.58	8.148
631.91	6.170
632.24	7.667
632.57	7.889
632.90	8.046
633.23	7.944
633.56	7.953
633.89	9.316
634.22	8.501
634.55	8.053
634.88	8.343
635.20	6.492
635.53	8.397
635.86	6.549
636.19	8.425
636.52	7.407
636.85	7.942
637.18	7.000
637.51	9.170
637.83	7.590
638.16	7.632
638.49	7.448
638.82	6.821
639.15	9.857
639.48	7.004
639.81	8.022
640.13	7.568
640.46	8.405
640.79	10.084
641.12	10.719
641.45	7.604
641.77	7.186
642.10	8.157
642.43	8.498
642.76	6.929
643.09	7.143
643.41	10.476
643.74	9.857
644.07	9.048
644.40	7.780
644.73	8.086
645.05	6.511
645.38	10.596
645.71	9.622
646.04	9.748
646.36	7.330
646.69	10.381
647.02	9.928
647.35	7.762
647.67	6.934
648.00	9.139
648.33	9.444
648.66	7.097
648.98	8.599
649.31	7.385
649.64	8.906
649.96	8.477
650.29	7.541
650.62	10.155
650.94	6.914
651.27	8.666
651.60	8.131
651.92	9.418
652.25	5.342
652.58	5.963
652.90	7.384
653.23	6.774
653.56	6.689
653.88	7.377
654.21	8.557
654.54	9.635
654.86	6.902
655.19	8.023
655.52	6.122
655.84	5.992
656.17	6.528
656.49	9.007
656.82	9.416
657.15	7.407
657.47	5.196
657.80	4.084
658.13	4.899
658.45	6.639
658.78	6.335
659.10	6.501
659.43	6.338
659.75	6.412
660.08	6.823
660.41	6.501
660.73	6.931
661.06	9.565
661.38	9.821
661.71	9.369
662.03	8.669
662.36	9.595
662.68	6.962
663.01	9.342
663.33	8.617
663.66	10.944
663.98	8.482
664.31	8.054
664.63	8.628
664.96	7.375
665.28	6.508
665.61	5.497
665.93	7.819
666.26	9.109
666.58	8.108
666.91	8.241
667.23	10.526
667.56	8.163
667.88	13.348
668.21	6.221
668.53	7.944
668.86	9.238
669.18	9.132
669.50	8.178
669.83	6.326
670.15	8.296
670.48	5.841
670.80	8.200
671.13	5.192
671.45	7.432
671.77	8.351
672.10	9.467
672.42	9.041
672.75	8.000
673.07	7.387
673.39	7.468
673.72	8.268
674.04	2.760
674.37	9.072
674.69	10.861
675.01	8.298
675.34	7.809
675.66	9.287
675.98	7.930
676.31	7.466
676.63	8.046
676.95	6.637
677.28	9.977
677.60	10.181
677.92	9.251
678.25	6.346
678.57	9.465
678.89	5.870
679.22	6.080
679.54	9.467
679.86	6.200
680.18	8.935
680.51	4.655
680.83	8.000
681.15	8.671
681.48	9.331
681.80	4.839
682.12	6.237
682.44	9.037
682.77	6.277
683.09	8.805
683.41	9.956
683.73	7.534
684.06	6.022
684.38	8.577
684.70	6.584
685.02	7.283
685.34	7.407
685.67	5.871
685.99	7.750
686.31	8.438
686.63	9.397
686.96	5.360
687.28	7.514
687.60	9.375
687.92	4.669
688.24	8.465
688.56	7.214
688.89	9.829
689.21	7.877
689.53	6.667
689.85	9.131
690.17	6.502
690.49	7.159
690.82	4.337
691.14	7.075
691.46	9.313
691.78	8.150
692.10	7.627
692.42	4.444
692.74	6.652
693.06	7.416
693.39	6.040
693.71	8.804
694.03	7.343
694.35	4.740
694.67	6.383
694.99	7.928
695.31	5.612
695.63	8.163
695.95	9.181
696.27	8.229
696.59	7.754
696.91	8.989
697.23	7.552
697.56	5.288
697.88	6.306
698.20	6.852
698.52	6.278
698.84	7.524
699.16	7.857
699.48	6.250
699.80	8.521
700.12	9.068
700.44	6.983
700.76	4.956
701.08	5.523
701.40	4.230
701.72	8.025
702.04	8.333
702.36	5.422
702.68	8.683
703.00	6.957
703.32	3.725
703.64	7.941
703.96	9.302
704.28	10.651
704.60	4.430
704.91	5.714
705.23	11.003
705.55	8.108
705.87	8.191
706.19	6.597
706.51	4.861
706.83	7.541
707.15	5.414
707.47	7.989
707.79	4.639
708.11	2.545
708.43	6.234
708.74	7.792
709.06	5.850
709.38	8.908
709.70	8.438
710.02	7.975
710.34	6.931
710.66	2.222
710.98	8.517
711.29	2.258
711.61	7.348
711.93	5.902
712.25	7.973
712.57	5.575
712.89	11.151
713.20	6.529
713.52	4.104
713.84	6.050
714.16	7.213
714.48	8.254
714.80	5.846
715.11	6.052
715.43	10.843
715.75	9.346
716.07	8.197
716.39	7.358
716.70	6.969
717.02	2.222
717.34	7.252
717.66	8.714
717.97	3.689
718.29	9.244
718.61	10.317
718.93	11.470
719.24	2.941
719.56	4.906
719.88	5.818
720.20	0.749
720.51	13.534
720.83	4.819
721.15	6.967
721.46	11.373
721.78	6.130
722.10	6.000
722.42	1.653
722.73	5.578
723.05	5.221
723.37	11.765
723.68	0.810
724.00	13.008
724.32	11.111
724.63	4.564
724.95	10.331
725.27	7.456
725.58	7.759
725.90	4.762
726.22	13.653
726.53	4.183
726.85	5.882
727.16	4.135
727.48	5.385
727.80	7.787
728.11	4.202
728.43	3.719
728.74	7.031
729.06	8.712
729.38	3.891
729.69	4.724
730.01	6.299
730.32	2.789
730.64	7.692
730.96	5.970
731.27	2.857
731.59	6.752
731.90	4.601
732.22	7.975
732.53	9.934
732.85	5.705
733.16	5.797
733.48	5.923
733.80	3.915
734.11	4.828
734.43	5.102
734.74	9.199
735.06	6.583
735.37	4.281
735.69	5.484
736.00	5.387
736.32	4.636
736.63	3.103
736.95	6.522
737.26	6.291
737.58	5.396
737.89	10.036
738.21	4.135
738.52	3.077
738.83	7.031
739.15	2.137
739.46	9.274
739.78	7.343
740.09	6.294
740.41	6.294
740.72	9.489
741.04	4.762
741.35	2.597
741.66	11.111
741.98	10.000
742.29	7.981
742.61	3.743
742.92	9.346
743.23	5.263
743.55	7.207
743.86	12.889
744.18	3.810
744.49	4.926
744.80	9.137
745.12	3.608
745.43	8.543
745.74	4.854
746.06	6.341
746.37	7.930
746.68	9.950
747.00	5.759
747.31	3.846
747.62	4.608
747.94	7.424
748.25	2.791
748.56	2.381
748.88	-2.174
749.19	7.981
749.50	10.784
749.82	7.556
750.13	10.132
750.44	4.472
750.75	4.800
751.07	12.857
751.38	1.476
751.69	2.672
752.01	6.538
752.32	3.113
752.63	5.385
752.94	4.762
753.26	1.304
753.57	9.821
753.88	8.621
754.19	1.245
754.51	9.375
754.82	5.534
755.13	6.584
755.44	1.240
755.75	6.584
756.07	2.811
756.38	5.469
756.69	6.498
757.00	6.969
757.31	5.034
757.63	5.919
757.94	5.491
758.25	6.395
758.56	8.356
758.87	7.102
759.18	5.333
759.50	8.897
759.81	1.095
760.12	-1.351
760.43	9.061
760.74	8.125
761.05	5.618
761.36	5.689
761.67	5.325
761.99	4.516
762.30	6.522
762.61	6.415
762.92	14.798
763.23	6.161
763.54	5.778
763.85	10.970
764.16	6.939
764.47	5.085
764.78	7.491
765.10	8.993
765.41	5.161
765.72	5.346
766.03	2.827
766.34	6.015
766.65	2.429
766.96	6.500
767.27	9.375
767.58	11.047
767.89	1.290
768.20	14.724
768.51	6.557
768.82	3.784
769.13	5.000
769.44	1.316
769.75	8.225
770.06	8.716
770.37	8.451
770.68	3.646
770.99	9.901
771.30	0.971
771.61	5.093
771.92	3.030
772.23	7.477
772.54	2.128
772.85	-2.959
773.16	10.366
773.47	12.651
773.78	12.088
774.09	6.667
774.39	9.877
774.70	2.013
775.01	0.000
775.32	-0.746
775.63	-10.744
775.94	16.541
776.25	9.286
776.56	10.656
776.87	2.655
777.18	-0.885
777.48	-4.545
777.79	6.087
778.10	-1.835
778.41	-0.847
778.72	4.959
779.03	2.239
779.34	8.271
779.65	3.268
779.95	0.725
780.26	-1.361
780.57	-7.759
780.88	-3.704
781.19	-8.081
781.50	0.000
781.80	7.843
782.11	2.564
782.42	12.048
782.73	0.000
783.04	3.378
783.34	6.061
783.65	6.202
783.96	7.317
784.27	2.564
784.57	2.439
784.88	3.252
785.19	11.404
785.50	-11.340
785.81	2.857
786.11	-4.902
786.42	-5.455
786.73	12.613
787.04	7.921
787.34	4.762
787.65	6.667
787.96	8.824
788.26	-4.505
788.57	4.839
788.88	-1.563
789.19	4.274
789.49	5.882
789.80	2.564
790.11	0.000
790.41	4.040
790.72	16.981
791.03	2.778
791.33	-3.947
791.64	13.978
791.95	8.000
792.25	11.429
792.56	2.439
792.87	14.286
793.17	-6.579
793.48	0.000
793.79	-9.859
794.09	-2.532
794.40	4.255
794.70	-1.869
795.01	-3.509
795.32	-4.545
795.62	4.464
795.93	-2.062
796.23	-8.791
796.54	14.737
796.85	-2.740
797.15	-6.944
797.46	5.479
797.76	8.451
798.07	7.500
798.37	22.059
798.68	0.000
798.99	-1.429
799.29	9.211
799.60	1.667
799.90	-16.667
800.21	-12.500
800.51	1.587
800.82	8.197
801.12	-24.561
801.43	0.000
801.73	1.695
802.04	11.475
802.34	5.455
802.65	-1.923
802.95	-3.704
803.26	-12.500
803.56	-7.692
803.87	-39.474
804.17	-6.452
804.48	3.077
804.78	-28.205
805.09	-11.628
805.39	-53.125
805.70	-20.755
806.00	14.035
806.30	2.703
806.61	10.294
806.91	2.469
807.22	1.333
807.52	2.985
807.83	3.226
808.13	-7.937
808.43	-7.273
808.74	4.545
809.04	-15.094
809.35	6.849
809.65	8.772
809.95	13.235
810.26	-5.882
810.56	6.000
810.86	0.000
811.17	-31.429
811.47	-23.077
811.77	9.677
812.08	-44.737
812.38	7.143
812.69	-8.696
812.99	-16.129
813.29	-4.762
813.59	-66.667
813.90	-23.404
814.20	6.977
814.50	8.333
814.81	18.333
815.11	-14.634
815.41	-13.333
815.72	14.286
816.02	-13.889
816.32	5.128
816.62	-10.811
816.93	-41.176
817.23	4.348
817.53	-2.941
817.84	2.941
818.14	-43.750
818.44	17.241
818.74	-32.258
819.04	-40.741
819.35	-3.333
819.65	-48.000
819.95	-23.333
820.25	0.000
820.56	-10.526
820.86	-7.500
821.16	8.511
821.46	18.966
821.76	-30.769
822.07	-30.000
822.37	-18.605
822.67	-33.333
822.97	-37.838
823.27	8.108
823.57	8.000
823.88	13.514
824.18	-47.619
824.48	15.385
824.78	-169.231
825.08	-8.696
825.38	0.000
825.69	0.000
825.99	-60.000
826.29	-29.730
826.59	-5.882
826.89	0.000
827.19	-2.857
827.49	-2.632
827.79	-15.625
828.09	-26.667
828.39	-30.435
828.70	-31.034
829.00	-20.690
829.30	2.778
829.60	40.625
829.90	5.556
830.20	-3.846
830.50	-23.810
830.80	-25.000
831.10	17.949
831.40	-52.381
831.70	14.706
832.00	16.667
832.30	10.526
832.60	-6.250
832.90	-33.333
833.20	-123.529
833.50	-93.333
833.80	-46.667
834.10	-15.000
834.40	-20.833
834.70	22.222
835.00	26.923
835.30	-37.500
835.60	34.483
835.90	-16.667
836.20	-72.727
836.50	-58.333
836.80	5.714
837.10	54.286
837.40	41.176
837.70	-9.091
838.00	0.000
838.30	12.500
838.60	-19.048
838.90	-35.000
839.19	-17.391
839.49	-8.696
839.79	-11.111
840.09	-26.087
840.39	-22.727
840.69	-68.750
840.99	5.263
841.29	-75.000
841.59	-35.714
841.88	-44.444
842.18	-12.500
842.48	-35.294
842.78	0.000
843.08	14.286
843.38	-46.154
843.68	-222.222
843.97	0.000
844.27	-72.727
844.57	-220.000
844.87	28.000
845.17	-200.000
845.47	-50.000
845.76	-44.444
846.06	0.000
846.36	-150.000
846.66	-90.000
846.96	47.368
847.25	-8.333
847.55	-25.000
847.85	-13.333
848.15	-80.000
848.44	46.154
848.74	31.579
849.04	566.667
849.34	-111.111
849.63	-42.105
849.93	0.000
850.23	-15.000
850.53	19.048
850.82	-8.000
851.12	-31.579
851.42	-350.000
851.71	-7.143
852.01	-8.333
852.31	-23.529
852.61	0.000
852.90	-19.048
853.20	-133.333
853.50	-27.778
853.79	10.526
854.09	-13.333
854.39	7.143
854.68	-17.391
854.98	-191.667
855.28	6.897
855.57	-25.000
855.87	-5.000
856.17	-73.333
856.46	-37.931
856.76	-46.667
857.05	-23.529
857.35	-115.385
857.65	-100.000
857.94	-18.519
858.24	-85.714
858.53	-64.286
858.83	33.333
859.13	-66.667
859.42	0.000
859.72	-100.000
860.01	-66.667
860.31	0.000
860.60	-220.000
860.90	-88.889
861.20	-50.000
861.49	-42.857
861.79	5.882
862.08	-450.000
862.38	-116.667
862.67	-7.692
862.97	-11.765
863.26	-10.000
863.56	35.294
863.85	133.333
864.15	-170.000
864.44	-46.154
864.74	-5.000
865.03	-125.000
865.33	-66.667
865.62	-47.059
865.92	-475.000
866.21	-21.429
866.51	-125.000
866.80	-600.000
867.10	33.333
867.39	23.529
867.69	26.087
867.98	-100.000
868.27	-240.000
868.57	-43.750
868.86	-90.909
869.16	58.824
869.45	-266.667
869.75	-185.714
870.04	1400.000
870.33	-16.667
870.63	-140.000
870.92	-22.222
871.22	25.000
871.51	-36.364
871.80	-16.667
872.10	10.000
>>>>>End Processed Spectral Data<<<<<
