SpectraSuite Data File
++++++++++++++++++++++++++++++++++++
Date: Sat May 16 11:40:54 PDT 2015
User: schluterlab
Dark Spectrum Present: Yes
Reference Spectrum Present: Yes
Number of Sampled Component Spectra: 1
Spectrometers: USB2E3373
Integration Time (usec): 3000 (USB2E3373)
Spectra Averaged: 3 (USB2E3373)
Boxcar Smoothing: 0 (USB2E3373)
Correct for Electrical Dark: No (USB2E3373)
Strobe/Lamp Enabled: No (USB2E3373)
Correct for Detector Non-linearity: No (USB2E3373)
Correct for Stray Light: No (USB2E3373)
Number of Pixels in Processed Spectrum: 2048
>>>>>Begin Processed Spectral Data<<<<<
178.53	0.000
178.91	86.667
179.29	533.333
179.67	-1200.000
180.04	-92.308
180.42	1400.000
180.80	425.000
181.18	450.000
181.56	-150.000
181.94	1200.000
182.31	475.000
182.69	-84.615
183.07	-500.000
183.45	1650.000
183.83	600.000
184.20	-228.571
184.58	-212.500
184.96	-500.000
185.34	125.000
185.72	-475.000
186.09	300.000
186.47	-187.500
186.85	-325.000
187.23	-187.500
187.61	-400.000
187.98	-275.000
188.36	-87.500
188.74	-212.500
189.12	300.000
189.49	371.429
189.87	-125.000
190.25	500.000
190.63	-85.714
191.00	-211.111
191.38	380.000
191.76	13.333
192.14	360.000
192.51	-160.000
192.89	-333.333
193.27	0.000
193.65	-166.667
194.02	-300.000
194.40	1033.333
194.78	-20.000
195.15	-700.000
195.53	-154.545
195.91	-333.333
196.29	80.000
196.66	-400.000
197.04	2300.000
197.42	-250.000
197.79	26.667
198.17	-233.333
198.55	-700.000
198.92	-1600.000
199.30	250.000
199.68	-900.000
200.05	-144.444
200.43	-255.556
200.81	-1400.000
201.18	-166.667
201.56	57.143
201.94	-86.667
202.31	-9.091
202.69	-100.000
203.07	-100.000
203.44	600.000
203.82	-366.667
204.19	-650.000
204.57	-375.000
204.95	-1500.000
205.32	6.250
205.70	600.000
206.08	-2200.000
206.45	-33.333
206.83	-900.000
207.20	-600.000
207.58	-600.000
207.96	-366.667
208.33	-237.500
208.71	-111.111
209.08	200.000
209.46	-228.571
209.84	1150.000
210.21	0.000
210.59	80.000
210.96	1600.000
211.34	-400.000
211.71	-266.667
212.09	475.000
212.46	800.000
212.84	-2100.000
213.22	466.667
213.59	183.333
213.97	-44.444
214.34	200.000
214.72	-150.000
215.09	-700.000
215.47	-100.000
215.84	-100.000
216.22	-100.000
216.59	-40.000
216.97	-675.000
217.34	1100.000
217.72	-185.714
218.09	-450.000
218.47	-128.571
218.84	185.714
219.22	-28.571
219.59	0.000
219.97	128.571
220.34	775.000
220.72	162.500
221.09	-53.846
221.47	0.000
221.84	533.333
222.22	-650.000
222.59	1400.000
222.97	-325.000
223.34	-1050.000
223.72	-333.333
224.09	-85.714
224.46	-350.000
224.84	-42.857
225.21	-200.000
225.59	-109.091
225.96	-25.000
226.34	-100.000
226.71	-166.667
227.08	-25.000
227.46	1400.000
227.83	-242.857
228.21	-200.000
228.58	900.000
228.95	-93.750
229.33	-2200.000
229.70	-280.000
230.08	-900.000
230.45	-58.333
230.82	-100.000
231.20	-1400.000
231.57	-500.000
231.95	2000.000
232.32	19.048
232.69	-166.667
233.07	-300.000
233.44	-800.000
233.81	-100.000
234.19	-88.889
234.56	-81.250
234.93	34.375
235.31	-142.857
235.68	-107.143
236.05	-29.412
236.43	-22.727
236.80	29.032
237.17	20.833
237.55	-14.286
237.92	-22.727
238.29	0.000
238.67	17.647
239.04	38.889
239.41	0.000
239.79	20.513
240.16	11.905
240.53	21.818
240.91	20.513
241.28	25.455
241.65	46.154
242.02	16.393
242.40	29.508
242.77	6.061
243.14	16.949
243.51	15.714
243.89	24.051
244.26	24.719
244.63	40.000
245.00	25.263
245.38	31.356
245.75	32.743
246.12	33.600
246.49	35.433
246.87	23.577
247.24	29.661
247.61	33.051
247.98	40.845
248.36	30.070
248.73	34.810
249.10	33.758
249.47	42.105
249.84	43.750
250.22	33.333
250.59	39.548
250.96	40.314
251.33	43.602
251.70	38.942
252.08	38.863
252.45	42.180
252.82	40.476
253.19	36.170
253.56	36.290
253.94	39.662
254.31	42.918
254.68	43.902
255.05	45.968
255.42	40.079
255.79	38.710
256.16	43.922
256.54	43.015
256.91	43.182
257.28	41.392
257.65	43.262
258.02	45.912
258.39	43.144
258.76	43.581
259.14	41.667
259.51	44.590
259.88	42.988
260.25	44.720
260.62	40.836
260.99	39.763
261.36	42.378
261.73	47.110
262.10	40.556
262.47	45.299
262.85	44.571
263.22	41.547
263.59	38.462
263.96	44.928
264.33	40.650
264.70	45.856
265.07	43.407
265.44	43.928
265.81	44.961
266.18	42.278
266.55	40.686
266.92	47.103
267.29	43.584
267.66	44.938
268.03	44.928
268.40	41.315
268.77	44.819
269.14	41.531
269.51	41.609
269.88	39.908
270.25	42.424
270.62	43.707
270.99	39.640
271.36	40.326
271.73	44.619
272.10	42.334
272.47	43.556
272.84	43.778
273.21	44.725
273.58	41.319
273.95	42.544
274.32	44.118
274.69	43.107
275.06	44.581
275.43	44.866
275.80	44.807
276.17	42.469
276.54	44.807
276.91	42.798
277.28	45.639
277.65	45.455
278.02	43.215
278.39	42.436
278.76	42.430
279.13	45.059
279.50	40.358
279.87	44.397
280.23	45.142
280.60	45.924
280.97	45.825
281.34	44.487
281.71	42.115
282.08	44.960
282.45	43.992
282.82	45.543
283.19	43.455
283.56	43.773
283.92	44.170
284.29	41.450
284.66	40.647
285.03	42.959
285.40	41.513
285.77	45.789
286.14	44.585
286.51	41.385
286.87	39.564
287.24	43.345
287.61	42.314
287.98	39.861
288.35	40.826
288.72	40.407
289.08	37.797
289.45	39.394
289.82	39.273
290.19	39.737
290.56	38.678
290.93	38.156
291.29	39.060
291.66	34.944
292.03	38.148
292.40	37.952
292.77	36.491
293.13	36.911
293.50	37.444
293.87	36.810
294.24	36.048
294.60	35.455
294.97	36.722
295.34	33.926
295.71	34.970
296.08	36.406
296.44	35.622
296.81	35.897
297.18	35.352
297.55	36.864
297.91	35.983
298.28	34.247
298.65	34.310
299.02	34.358
299.38	33.556
299.75	33.152
300.12	32.949
300.48	33.504
300.85	30.013
301.22	32.212
301.59	31.469
301.95	31.738
302.32	31.030
302.69	31.212
303.05	31.136
303.42	31.375
303.79	32.297
304.15	32.464
304.52	31.855
304.89	29.988
305.25	30.647
305.62	32.315
305.99	31.213
306.35	30.522
306.72	29.727
307.09	30.306
307.45	28.831
307.82	29.721
308.19	29.978
308.55	28.867
308.92	28.464
309.29	28.865
309.65	30.859
310.02	30.130
310.38	28.757
310.75	28.586
311.12	30.062
311.48	28.914
311.85	28.836
312.22	29.454
312.58	29.400
312.95	29.460
313.31	28.871
313.68	29.749
314.05	28.289
314.41	28.370
314.78	27.373
315.14	27.739
315.51	28.166
315.87	28.558
316.24	26.725
316.61	27.255
316.97	29.154
317.34	27.938
317.70	26.809
318.07	28.358
318.43	27.434
318.80	28.169
319.16	27.674
319.53	27.820
319.89	27.469
320.26	27.647
320.62	26.538
320.99	28.657
321.35	25.714
321.72	25.179
322.08	27.399
322.45	28.119
322.81	29.395
323.18	28.915
323.54	28.189
323.91	27.433
324.27	26.996
324.64	28.519
325.00	26.178
325.37	27.240
325.73	27.647
326.10	26.041
326.46	26.357
326.83	26.638
327.19	28.190
327.56	27.342
327.92	27.867
328.29	28.139
328.65	25.818
329.01	27.297
329.38	26.227
329.74	28.846
330.11	26.836
330.47	26.612
330.84	27.406
331.20	27.437
331.56	25.706
331.93	26.821
332.29	26.758
332.66	27.129
333.02	25.068
333.38	27.419
333.75	26.002
334.11	26.667
334.48	27.361
334.84	26.947
335.20	26.684
335.57	27.166
335.93	27.395
336.29	26.306
336.66	25.463
337.02	26.036
337.38	25.401
337.75	26.602
338.11	27.102
338.47	26.246
338.84	26.316
339.20	24.868
339.56	27.273
339.93	25.397
340.29	25.864
340.65	25.874
341.02	26.391
341.38	25.779
341.74	26.080
342.11	25.512
342.47	25.150
342.83	24.601
343.20	25.448
343.56	24.082
343.92	26.127
344.28	26.156
344.65	24.010
345.01	24.790
345.37	26.080
345.73	25.368
346.10	25.020
346.46	25.345
346.82	24.298
347.19	25.062
347.55	25.923
347.91	24.803
348.27	24.025
348.63	25.121
349.00	24.980
349.36	22.326
349.72	24.841
350.08	24.298
350.45	24.586
350.81	25.557
351.17	23.794
351.53	24.344
351.89	24.010
352.26	24.031
352.62	24.885
352.98	23.576
353.34	24.301
353.70	23.938
354.07	25.413
354.43	24.032
354.79	24.643
355.15	24.201
355.51	23.984
355.87	23.399
356.24	23.828
356.60	25.786
356.96	24.403
357.32	23.911
357.68	24.215
358.04	24.480
358.40	24.517
358.77	24.575
359.13	24.178
359.49	24.263
359.85	22.942
360.21	23.212
360.57	24.699
360.93	25.111
361.29	23.767
361.66	23.171
362.02	23.669
362.38	23.918
362.74	24.176
363.10	23.816
363.46	24.858
363.82	23.178
364.18	24.096
364.54	24.660
364.90	23.969
365.26	23.680
365.62	24.163
365.98	23.684
366.35	22.746
366.71	22.622
367.07	23.571
367.43	24.434
367.79	22.474
368.15	23.186
368.51	24.126
368.87	24.245
369.23	23.158
369.59	23.125
369.95	23.890
370.31	24.543
370.67	22.849
371.03	22.886
371.39	22.631
371.75	23.319
372.11	24.032
372.47	22.777
372.83	23.018
373.19	23.857
373.55	23.786
373.91	23.613
374.27	23.409
374.63	23.464
374.99	23.713
375.35	23.217
375.71	22.957
376.07	23.203
376.42	22.848
376.78	23.660
377.14	23.051
377.50	22.760
377.86	22.822
378.22	23.995
378.58	23.410
378.94	22.935
379.30	22.852
379.66	23.679
380.02	22.995
380.38	22.840
380.74	23.154
381.09	23.902
381.45	23.628
381.81	23.230
382.17	23.120
382.53	22.918
382.89	22.667
383.25	22.517
383.61	22.700
383.97	23.025
384.32	24.280
384.68	23.398
385.04	22.162
385.40	23.494
385.76	22.744
386.12	23.360
386.48	23.329
386.83	22.209
387.19	23.013
387.55	22.653
387.91	21.695
388.27	22.256
388.62	22.776
388.98	23.380
389.34	22.338
389.70	21.803
390.06	22.996
390.42	23.013
390.77	22.650
391.13	23.478
391.49	23.518
391.85	22.631
392.20	22.451
392.56	22.419
392.92	22.818
393.28	23.766
393.64	23.512
393.99	22.400
394.35	22.993
394.71	22.730
395.07	24.357
395.42	21.812
395.78	22.187
396.14	23.489
396.50	23.486
396.85	22.455
397.21	22.175
397.57	22.675
397.92	23.185
398.28	22.556
398.64	22.903
399.00	23.596
399.35	23.281
399.71	23.403
400.07	23.761
400.42	23.723
400.78	22.004
401.14	23.174
401.49	23.290
401.85	22.819
402.21	22.348
402.57	22.876
402.92	22.530
403.28	23.529
403.63	22.169
403.99	22.188
404.35	22.585
404.70	22.879
405.06	23.183
405.42	22.386
405.77	22.342
406.13	22.260
406.49	23.966
406.84	22.436
407.20	22.674
407.55	23.939
407.91	21.697
408.27	23.100
408.62	22.670
408.98	22.498
409.34	22.303
409.69	22.054
410.05	21.953
410.40	22.931
410.76	23.059
411.11	22.444
411.47	22.123
411.83	23.105
412.18	22.339
412.54	22.270
412.89	23.086
413.25	22.078
413.60	22.600
413.96	22.058
414.31	23.303
414.67	22.032
415.03	22.768
415.38	22.837
415.74	23.260
416.09	21.995
416.45	21.825
416.80	23.017
417.16	22.791
417.51	23.375
417.87	23.042
418.22	21.997
418.58	22.721
418.93	23.789
419.29	22.146
419.64	21.796
420.00	22.357
420.35	22.413
420.71	22.269
421.06	22.722
421.42	22.014
421.77	22.836
422.12	21.936
422.48	22.822
422.83	23.064
423.19	21.269
423.54	22.190
423.90	22.209
424.25	21.663
424.61	22.799
424.96	22.645
425.31	22.974
425.67	22.407
426.02	22.433
426.38	22.807
426.73	23.553
427.09	22.181
427.44	21.307
427.79	21.512
428.15	22.801
428.50	22.639
428.85	22.482
429.21	21.306
429.56	22.344
429.92	22.695
430.27	22.283
430.62	22.205
430.98	22.373
431.33	23.266
431.68	23.056
432.04	23.111
432.39	22.792
432.74	22.662
433.10	22.622
433.45	22.913
433.80	22.172
434.16	22.569
434.51	22.082
434.86	22.613
435.22	22.661
435.57	22.460
435.92	22.919
436.28	22.315
436.63	23.460
436.98	21.764
437.34	22.386
437.69	22.229
438.04	22.405
438.39	23.526
438.75	23.108
439.10	22.488
439.45	21.907
439.81	22.410
440.16	21.806
440.51	22.647
440.86	21.805
441.22	22.112
441.57	23.158
441.92	21.944
442.27	21.807
442.63	22.800
442.98	21.727
443.33	23.339
443.68	22.408
444.03	22.642
444.39	22.467
444.74	23.293
445.09	22.533
445.44	22.791
445.79	22.336
446.15	22.618
446.50	21.394
446.85	22.165
447.20	22.012
447.55	22.707
447.91	21.786
448.26	21.620
448.61	21.336
448.96	23.473
449.31	21.533
449.66	22.496
450.02	21.662
450.37	22.261
450.72	22.429
451.07	23.570
451.42	21.809
451.77	22.262
452.12	22.050
452.47	22.040
452.83	21.899
453.18	22.834
453.53	22.077
453.88	22.488
454.23	21.342
454.58	23.058
454.93	22.040
455.28	21.542
455.63	22.052
455.98	22.530
456.34	20.966
456.69	22.452
457.04	22.127
457.39	22.488
457.74	21.737
458.09	22.622
458.44	20.901
458.79	22.590
459.14	22.932
459.49	22.262
459.84	21.529
460.19	22.196
460.54	21.839
460.89	21.861
461.24	22.040
461.59	22.040
461.94	22.406
462.29	22.573
462.64	22.398
462.99	23.025
463.34	22.485
463.69	21.628
464.04	20.738
464.39	22.043
464.74	21.868
465.09	20.625
465.44	22.109
465.79	22.617
466.14	22.612
466.49	21.877
466.84	21.609
467.19	22.319
467.54	20.759
467.89	21.640
468.24	22.684
468.59	21.861
468.94	21.222
469.29	21.507
469.64	21.361
469.99	21.945
470.34	21.309
470.68	22.093
471.03	21.955
471.38	19.028
471.73	22.168
472.08	20.616
472.43	20.914
472.78	20.400
473.13	20.610
473.48	21.634
473.83	20.533
474.17	21.656
474.52	22.251
474.87	20.979
475.22	20.649
475.57	21.722
475.92	21.868
476.27	20.400
476.61	21.183
476.96	21.241
477.31	21.744
477.66	20.919
478.01	21.880
478.36	21.582
478.70	22.157
479.05	21.201
479.40	21.451
479.75	20.999
480.10	20.337
480.45	20.164
480.79	21.619
481.14	21.776
481.49	22.023
481.84	21.637
482.19	21.654
482.53	21.449
482.88	21.642
483.23	20.751
483.58	21.739
483.92	21.882
484.27	20.603
484.62	20.648
484.97	21.356
485.31	20.768
485.66	21.275
486.01	22.224
486.36	23.329
486.70	24.548
487.05	23.011
487.40	22.489
487.75	22.908
488.09	22.421
488.44	22.530
488.79	22.816
489.13	22.556
489.48	22.023
489.83	21.485
490.17	21.245
490.52	21.196
490.87	20.739
491.22	20.925
491.56	20.972
491.91	21.231
492.26	21.368
492.60	20.599
492.95	20.704
493.30	21.201
493.64	20.169
493.99	20.698
494.34	21.476
494.68	21.582
495.03	20.889
495.37	20.256
495.72	20.727
496.07	21.351
496.41	21.167
496.76	21.005
497.11	20.584
497.45	20.785
497.80	20.660
498.14	20.923
498.49	19.940
498.84	20.874
499.18	21.248
499.53	20.750
499.87	20.705
500.22	21.520
500.56	20.710
500.91	21.330
501.26	21.446
501.60	20.607
501.95	21.208
502.29	20.642
502.64	21.075
502.98	20.556
503.33	20.442
503.67	19.875
504.02	20.763
504.36	20.882
504.71	20.466
505.06	20.569
505.40	21.008
505.75	20.173
506.09	21.132
506.44	20.301
506.78	20.672
507.13	19.928
507.47	20.605
507.82	20.547
508.16	20.466
508.51	19.217
508.85	20.445
509.19	19.414
509.54	20.983
509.88	21.064
510.23	21.279
510.57	21.376
510.92	19.764
511.26	19.989
511.61	19.276
511.95	19.828
512.30	19.736
512.64	18.587
512.98	20.902
513.33	19.769
513.67	20.826
514.02	19.575
514.36	20.000
514.70	19.694
515.05	20.240
515.39	19.204
515.74	20.477
516.08	19.135
516.42	20.113
516.77	20.277
517.11	19.165
517.46	19.737
517.80	20.277
518.14	19.324
518.49	19.187
518.83	19.347
519.17	20.071
519.52	19.780
519.86	20.012
520.20	20.416
520.55	20.123
520.89	18.973
521.23	20.452
521.58	20.000
521.92	20.393
522.26	19.556
522.61	18.948
522.95	19.272
523.29	19.875
523.64	18.988
523.98	20.051
524.32	19.170
524.66	20.311
525.01	18.626
525.35	19.201
525.69	19.519
526.04	20.104
526.38	19.987
526.72	19.732
527.06	19.857
527.41	19.868
527.75	17.426
528.09	18.729
528.43	20.459
528.78	19.724
529.12	19.910
529.46	20.039
529.80	19.238
530.15	19.446
530.49	20.116
530.83	20.956
531.17	19.731
531.51	18.754
531.86	20.145
532.20	19.636
532.54	18.917
532.88	19.170
533.22	19.519
533.57	20.496
533.91	20.724
534.25	19.799
534.59	20.112
534.93	19.415
535.27	20.201
535.62	20.588
535.96	18.875
536.30	19.241
536.64	20.651
536.98	20.551
537.32	19.558
537.66	20.095
538.01	19.863
538.35	20.473
538.69	18.516
539.03	19.702
539.37	19.894
539.71	19.280
540.05	20.082
540.39	19.806
540.73	19.558
541.07	20.765
541.42	19.514
541.76	19.336
542.10	21.134
542.44	20.853
542.78	20.488
543.12	20.910
543.46	19.452
543.80	19.532
544.14	19.745
544.48	20.866
544.82	20.501
545.16	21.194
545.50	19.583
545.84	19.958
546.18	20.388
546.52	20.413
546.86	19.587
547.20	20.605
547.54	19.697
547.88	21.035
548.22	18.938
548.56	19.973
548.90	20.620
549.24	20.322
549.58	19.760
549.92	19.647
550.26	21.604
550.60	19.772
550.94	20.730
551.28	19.338
551.62	19.719
551.96	20.043
552.30	21.324
552.64	20.549
552.98	19.692
553.32	19.697
553.66	20.476
554.00	21.251
554.34	20.505
554.68	20.760
555.02	20.478
555.36	19.482
555.69	20.272
556.03	20.211
556.37	20.413
556.71	20.472
557.05	21.138
557.39	19.970
557.73	19.912
558.07	21.628
558.41	20.419
558.75	19.087
559.08	18.521
559.42	19.908
559.76	20.245
560.10	21.551
560.44	20.159
560.78	20.529
561.12	20.980
561.45	20.000
561.79	20.139
562.13	19.776
562.47	20.168
562.81	19.802
563.15	21.693
563.48	20.456
563.82	20.622
564.16	20.960
564.50	20.094
564.84	22.024
565.17	20.822
565.51	21.382
565.85	21.974
566.19	21.805
566.52	20.874
566.86	21.492
567.20	22.155
567.54	21.973
567.88	22.055
568.21	22.427
568.55	22.375
568.89	22.217
569.23	22.258
569.56	22.909
569.90	22.935
570.24	23.901
570.57	23.093
570.91	22.951
571.25	23.638
571.59	23.509
571.92	23.780
572.26	23.517
572.60	23.798
572.93	23.537
573.27	23.628
573.61	23.200
573.95	24.481
574.28	24.003
574.62	24.174
574.96	23.903
575.29	24.009
575.63	24.370
575.97	23.652
576.30	24.061
576.64	23.995
576.98	23.936
577.31	24.005
577.65	24.558
577.98	24.517
578.32	24.542
578.66	24.541
578.99	24.504
579.33	23.989
579.67	24.068
580.00	24.380
580.34	24.413
580.67	24.565
581.01	24.223
581.35	24.195
581.68	23.912
582.02	24.729
582.35	24.721
582.69	24.774
583.02	24.624
583.36	24.380
583.70	24.475
584.03	25.108
584.37	25.115
584.70	24.002
585.04	24.152
585.37	23.675
585.71	24.190
586.04	24.367
586.38	24.191
586.72	24.464
587.05	24.809
587.39	24.228
587.72	24.476
588.06	24.814
588.39	24.096
588.73	24.623
589.06	24.361
589.40	24.665
589.73	23.938
590.07	23.634
590.40	23.948
590.73	23.950
591.07	23.566
591.40	23.787
591.74	23.719
592.07	23.153
592.41	23.609
592.74	23.713
593.08	23.412
593.41	24.178
593.75	23.277
594.08	24.047
594.41	24.177
594.75	23.934
595.08	23.496
595.42	23.808
595.75	23.484
596.09	23.865
596.42	23.854
596.75	23.846
597.09	23.954
597.42	22.872
597.75	24.048
598.09	24.627
598.42	23.906
598.76	22.508
599.09	23.283
599.42	23.453
599.76	23.858
600.09	24.313
600.42	23.623
600.76	23.691
601.09	23.775
601.42	23.150
601.76	23.754
602.09	23.313
602.42	23.539
602.76	23.556
603.09	23.952
603.42	24.053
603.76	24.372
604.09	24.109
604.42	23.647
604.76	23.332
605.09	22.875
605.42	23.360
605.75	23.545
606.09	24.616
606.42	22.790
606.75	23.615
607.09	23.599
607.42	23.812
607.75	23.355
608.08	24.221
608.42	23.983
608.75	22.664
609.08	23.478
609.41	23.866
609.75	22.672
610.08	23.725
610.41	23.711
610.74	23.791
611.07	23.124
611.41	22.088
611.74	23.753
612.07	23.738
612.40	21.962
612.73	22.940
613.07	22.785
613.40	23.974
613.73	23.324
614.06	22.570
614.39	23.788
614.72	21.955
615.06	22.391
615.39	21.975
615.72	23.140
616.05	22.584
616.38	22.983
616.71	22.883
617.05	22.135
617.38	22.663
617.71	21.867
618.04	23.043
618.37	22.767
618.70	23.533
619.03	22.546
619.36	22.199
619.69	22.469
620.03	21.901
620.36	21.097
620.69	22.254
621.02	21.766
621.35	22.903
621.68	21.066
622.01	21.926
622.34	21.739
622.67	21.641
623.00	21.500
623.33	22.388
623.66	21.787
623.99	21.579
624.32	22.173
624.65	21.192
624.99	21.583
625.32	21.407
625.65	22.688
625.98	20.657
626.31	21.860
626.64	22.092
626.97	20.634
627.30	22.128
627.63	19.430
627.96	21.236
628.29	20.680
628.62	19.198
628.95	20.079
629.28	20.489
629.61	19.627
629.94	20.699
630.26	21.272
630.59	20.000
630.92	20.120
631.25	21.069
631.58	20.529
631.91	18.723
632.24	20.444
632.57	19.889
632.90	21.609
633.23	19.393
633.56	17.778
633.89	18.278
634.22	19.599
634.55	19.712
634.88	18.984
635.20	17.104
635.53	18.193
635.86	19.521
636.19	18.681
636.52	18.160
636.85	18.652
637.18	17.000
637.51	20.198
637.83	18.242
638.16	18.421
638.49	17.241
638.82	18.919
639.15	19.455
639.48	17.250
639.81	17.704
640.13	19.595
640.46	17.379
640.79	17.647
641.12	17.489
641.45	17.934
641.77	17.515
642.10	15.710
642.43	19.575
642.76	18.425
643.09	17.619
643.41	18.413
643.74	19.873
644.07	18.253
644.40	17.180
644.73	17.492
645.05	16.694
645.38	19.371
645.71	19.759
646.04	19.832
646.36	17.627
646.69	19.031
647.02	19.134
647.35	13.899
647.67	17.701
648.00	16.520
648.33	19.899
648.66	17.419
648.98	16.720
649.31	19.538
649.64	18.750
649.96	15.542
650.29	17.869
650.62	18.933
650.94	17.875
651.27	17.851
651.60	16.955
651.92	17.466
652.25	18.030
652.58	18.739
652.90	18.138
653.23	17.742
653.56	18.060
653.88	16.066
654.21	19.128
654.54	19.601
654.86	17.978
655.19	18.052
655.52	21.995
655.84	23.713
656.17	26.842
656.49	37.474
656.82	40.233
657.15	30.827
657.47	22.584
657.80	17.108
658.13	19.703
658.45	26.858
658.78	27.099
659.10	27.472
659.43	26.669
659.75	26.633
660.08	24.896
660.41	23.959
660.73	21.562
661.06	21.594
661.38	18.036
661.71	18.356
662.03	16.331
662.36	16.844
662.68	15.823
663.01	18.259
663.33	14.966
663.66	18.026
663.98	14.732
664.31	13.423
664.63	18.363
664.96	15.618
665.28	16.486
665.61	12.474
665.93	18.313
666.26	15.587
666.58	17.048
666.91	14.922
667.23	16.667
667.56	15.646
667.88	15.158
668.21	16.590
668.53	14.486
668.86	17.552
669.18	16.210
669.50	14.486
669.83	15.572
670.15	15.022
670.48	16.822
670.80	15.945
671.13	11.738
671.45	15.315
671.77	17.345
672.10	18.146
672.42	17.528
672.75	18.545
673.07	16.937
673.39	17.486
673.72	17.717
674.04	17.622
674.37	15.670
674.69	19.262
675.01	15.106
675.34	16.703
675.66	19.006
675.98	16.960
676.31	16.063
676.63	18.621
676.95	15.044
677.28	17.865
677.60	18.552
677.92	18.282
678.25	14.661
678.57	18.519
678.89	15.094
679.22	17.610
679.54	17.554
679.86	14.000
680.18	15.589
680.51	16.574
680.83	18.857
681.15	17.341
681.48	18.053
681.80	18.548
682.12	15.895
682.44	16.110
682.77	14.069
683.09	17.820
683.41	17.257
683.73	14.840
684.06	13.978
684.38	17.992
684.70	18.930
685.02	17.323
685.34	16.764
685.67	16.667
685.99	16.446
686.31	16.876
686.63	14.716
686.96	15.896
687.28	15.607
687.60	18.750
687.92	15.370
688.24	18.898
688.56	18.838
688.89	16.239
689.21	16.849
689.53	17.701
689.85	16.258
690.17	14.126
690.49	15.012
690.82	13.494
691.14	13.443
691.46	17.295
691.78	14.978
692.10	18.008
692.42	15.556
692.74	16.524
693.06	17.079
693.39	16.331
693.71	16.930
694.03	16.631
694.35	16.479
694.67	16.548
694.99	15.090
695.31	17.602
695.63	14.541
695.95	16.129
696.27	17.207
696.59	15.241
696.91	17.416
697.23	13.281
697.56	13.942
697.88	17.793
698.20	17.987
698.52	12.556
698.84	18.689
699.16	14.762
699.48	15.000
699.80	17.794
700.12	14.358
700.44	10.894
700.76	13.703
701.08	14.244
701.40	13.595
701.72	14.198
702.04	12.179
702.36	13.554
702.68	12.275
703.00	13.043
703.32	11.461
703.64	14.706
703.96	16.279
704.28	14.497
704.60	13.608
704.91	10.794
705.23	12.621
705.55	12.838
705.87	12.969
706.19	10.764
706.51	15.625
706.83	14.098
707.15	14.650
707.47	17.906
707.79	15.206
708.11	17.812
708.43	18.703
708.74	16.104
709.06	12.535
709.38	17.241
709.70	10.625
710.02	18.405
710.34	12.871
710.66	13.968
710.98	15.142
711.29	10.645
711.61	13.738
711.93	10.820
712.25	17.940
712.57	11.150
712.89	14.029
713.20	18.213
713.52	11.567
713.84	13.167
714.16	15.410
714.48	15.238
714.80	14.769
715.11	14.697
715.43	20.181
715.75	16.822
716.07	11.803
716.39	17.726
716.70	18.815
717.02	14.074
717.34	15.267
717.66	16.598
717.97	14.754
718.29	10.504
718.61	12.698
718.93	14.337
719.24	9.926
719.56	9.811
719.88	13.818
720.20	13.858
720.51	20.301
720.83	14.859
721.15	16.803
721.46	14.902
721.78	10.728
722.10	12.000
722.42	9.504
722.73	13.546
723.05	12.851
723.37	15.294
723.68	12.551
724.00	16.667
724.32	17.695
724.63	12.033
724.95	14.463
725.27	9.211
725.58	13.362
725.90	14.683
726.22	15.867
726.53	15.970
726.85	11.765
727.16	13.910
727.48	16.923
727.80	10.246
728.11	15.966
728.43	16.116
728.74	16.406
729.06	15.909
729.38	14.008
729.69	16.142
730.01	16.929
730.32	15.538
730.64	17.216
730.96	17.537
731.27	16.429
731.59	16.077
731.90	14.724
732.22	16.258
732.53	21.523
732.85	17.114
733.16	17.754
733.48	12.195
733.80	12.811
734.11	12.414
734.43	13.265
734.74	15.430
735.06	18.182
735.37	18.960
735.69	13.548
736.00	14.141
736.32	15.232
736.63	11.724
736.95	12.681
737.26	20.199
737.58	14.029
737.89	17.921
738.21	15.789
738.52	16.923
738.83	16.797
739.15	13.248
739.46	19.758
739.78	13.636
740.09	17.133
740.41	17.133
740.72	18.978
741.04	11.111
741.35	11.688
741.66	10.185
741.98	8.095
742.29	13.146
742.61	13.369
742.92	16.822
743.23	15.351
743.55	13.964
743.86	20.444
744.18	11.429
744.49	12.808
744.80	16.751
745.12	16.495
745.43	14.573
745.74	17.476
746.06	11.707
746.37	14.097
746.68	15.920
747.00	9.424
747.31	9.615
747.62	11.982
747.94	12.227
748.25	14.419
748.56	14.762
748.88	0.543
749.19	12.676
749.50	17.647
749.82	15.111
750.13	14.978
750.44	13.821
750.75	11.600
751.07	19.286
751.38	13.653
751.69	17.176
752.01	15.769
752.32	11.284
752.63	17.308
752.94	11.111
753.26	16.087
753.57	15.179
753.88	14.224
754.19	9.544
754.51	13.281
754.82	15.020
755.13	12.757
755.44	11.570
755.75	14.815
756.07	11.647
756.38	17.187
756.69	15.884
757.00	16.725
757.31	16.779
757.63	17.757
757.94	16.474
758.25	15.407
758.56	19.946
758.87	19.602
759.18	18.333
759.50	15.658
759.81	12.774
760.12	14.527
760.43	20.388
760.74	19.063
761.05	17.135
761.36	16.168
761.67	15.385
761.99	15.484
762.30	17.029
762.61	16.981
762.92	18.834
763.23	10.427
763.54	13.333
763.85	15.190
764.16	13.061
764.47	16.949
764.78	13.483
765.10	21.583
765.41	11.290
765.72	16.667
766.03	11.307
766.34	14.662
766.65	15.385
766.96	13.500
767.27	13.542
767.58	15.116
767.89	12.903
768.20	11.656
768.51	13.115
768.82	18.919
769.13	10.000
769.44	15.351
769.75	13.853
770.06	14.679
770.37	15.962
770.68	9.896
770.99	14.356
771.30	14.078
771.61	12.500
771.92	6.926
772.23	14.486
772.54	17.021
772.85	8.284
773.16	16.463
773.47	15.663
773.78	17.033
774.09	10.667
774.39	16.049
774.70	6.040
775.01	7.971
775.32	7.463
775.63	-2.479
775.94	7.519
776.25	9.286
776.56	19.672
776.87	12.389
777.18	15.044
777.48	2.727
777.79	0.000
778.10	4.587
778.41	8.475
778.72	9.917
779.03	10.448
779.34	18.045
779.65	13.072
779.95	11.594
780.26	7.483
780.57	-1.724
780.88	3.704
781.19	1.010
781.50	0.800
781.80	10.458
782.11	6.410
782.42	9.639
782.73	-2.190
783.04	10.135
783.34	3.788
783.65	13.178
783.96	10.569
784.27	6.838
784.57	14.634
784.88	4.065
785.19	12.281
785.50	-7.216
785.81	0.952
786.11	-6.863
786.42	2.727
786.73	2.703
787.04	11.881
787.34	7.619
787.65	5.714
787.96	7.843
788.26	5.405
788.57	12.097
788.88	3.906
789.19	3.419
789.49	2.521
789.80	11.966
790.11	11.504
790.41	10.101
790.72	14.151
791.03	5.556
791.33	3.947
791.64	9.677
791.95	-6.667
792.25	1.429
792.56	6.098
792.87	4.082
793.17	-3.947
793.48	-9.459
793.79	-5.634
794.09	11.392
794.40	9.574
794.70	1.869
795.01	-7.895
795.32	0.000
795.62	9.821
795.93	6.186
796.23	10.989
796.54	18.947
796.85	-2.740
797.15	2.778
797.46	-1.370
797.76	9.859
798.07	3.750
798.37	-16.176
798.68	-4.286
798.99	-11.429
799.29	7.895
799.60	3.333
799.90	-12.500
800.21	4.688
800.51	14.286
800.82	1.639
801.12	-3.509
801.43	4.225
801.73	-13.559
802.04	-3.279
802.34	1.818
802.65	-3.846
802.95	-9.259
803.26	-27.500
803.56	7.692
803.87	-31.579
804.17	6.452
804.48	3.077
804.78	-69.231
805.09	-32.558
805.39	-40.625
805.70	-24.528
806.00	-5.263
806.30	5.405
806.61	13.235
806.91	4.938
807.22	-6.667
807.52	-2.985
807.83	-6.452
808.13	-6.349
808.43	-14.545
808.74	7.576
809.04	3.774
809.35	0.000
809.65	0.000
809.95	25.000
810.26	1.961
810.56	-14.000
810.86	-20.408
811.17	-31.429
811.47	-9.615
811.77	12.903
812.08	-55.263
812.38	-26.190
812.69	-32.609
812.99	-19.355
813.29	-23.810
813.59	-92.593
813.90	-6.383
814.20	-44.186
814.50	-4.167
814.81	-26.667
815.11	-24.390
815.41	-46.667
815.72	-11.429
816.02	-36.111
816.32	5.128
816.62	-10.811
816.93	-50.000
817.23	2.174
817.53	-41.176
817.84	-11.765
818.14	-62.500
818.44	-37.931
818.74	-51.613
819.04	-37.037
819.35	-63.333
819.65	-68.000
819.95	-40.000
820.25	-44.000
820.56	-44.737
820.86	-27.500
821.16	-17.021
821.46	-12.069
821.76	-17.949
822.07	-25.000
822.37	-9.302
822.67	-50.000
822.97	-21.622
823.27	-21.622
823.57	-28.000
823.88	-5.405
824.18	-95.238
824.48	-50.000
824.78	-169.231
825.08	-52.174
825.38	-33.333
825.69	-75.000
825.99	-70.000
826.29	-35.135
826.59	-41.176
826.89	-24.000
827.19	-48.571
827.49	-10.526
827.79	-15.625
828.09	-16.667
828.39	-47.826
828.70	-68.966
829.00	-34.483
829.30	-16.667
829.60	12.500
829.90	-55.556
830.20	-46.154
830.50	-57.143
830.80	-35.714
831.10	-15.385
831.40	-66.667
831.70	-58.824
832.00	-37.500
832.30	-63.158
832.60	-81.250
832.90	-141.667
833.20	-152.941
833.50	-146.667
833.80	-140.000
834.10	-55.000
834.40	-4.167
834.70	-22.222
835.00	-23.077
835.30	-45.833
835.60	3.448
835.90	-83.333
836.20	-127.273
836.50	-150.000
836.80	-11.429
837.10	22.857
837.40	-70.588
837.70	-190.909
838.00	-25.000
838.30	-43.750
838.60	-33.333
838.90	-40.000
839.19	-8.696
839.49	-30.435
839.79	-111.111
840.09	-30.435
840.39	-90.909
840.69	-131.250
840.99	-26.316
841.29	-81.250
841.59	-42.857
841.88	-88.889
842.18	-20.833
842.48	-94.118
842.78	-44.828
843.08	-28.571
843.38	-76.923
843.68	-133.333
843.97	-176.923
844.27	-181.818
844.57	-360.000
844.87	12.000
845.17	-260.000
845.47	-92.857
845.76	-255.556
846.06	0.000
846.36	-500.000
846.66	-230.000
846.96	31.579
847.25	-16.667
847.55	-141.667
847.85	-33.333
848.15	-210.000
848.44	-11.538
848.74	42.105
849.04	500.000
849.34	-177.778
849.63	-52.632
849.93	0.000
850.23	-80.000
850.53	-85.714
850.82	-60.000
851.12	-68.421
851.42	-1050.000
851.71	-92.857
852.01	-133.333
852.31	-35.294
852.61	-66.667
852.90	-71.429
853.20	-250.000
853.50	-61.111
853.79	-68.421
854.09	-113.333
854.39	-42.857
854.68	-82.609
854.98	-191.667
855.28	-41.379
855.57	-106.250
855.87	-40.000
856.17	-80.000
856.46	24.138
856.76	-40.000
857.05	-147.059
857.35	-123.077
857.65	-90.909
857.94	-25.926
858.24	-128.571
858.53	-85.714
858.83	-100.000
859.13	-233.333
859.42	14.286
859.72	-100.000
860.01	-500.000
860.31	-137.500
860.60	-500.000
860.90	-300.000
861.20	-325.000
861.49	-271.429
861.79	-88.235
862.08	-900.000
862.38	-66.667
862.67	-92.308
862.97	-41.176
863.26	-50.000
863.56	-41.176
863.85	466.667
864.15	-360.000
864.44	-84.615
864.74	-10.000
865.03	-312.500
865.33	-300.000
865.62	-23.529
865.92	-675.000
866.21	-100.000
866.51	-133.333
866.80	-1400.000
867.10	-233.333
867.39	-47.059
867.69	-30.435
867.98	-28.571
868.27	-240.000
868.57	-68.750
868.86	-190.909
869.16	-23.529
869.45	-166.667
869.75	-185.714
870.04	1200.000
870.33	-41.667
870.63	-100.000
870.92	-122.222
871.22	-100.000
871.51	-118.182
871.80	-50.000
872.10	-120.000
>>>>>End Processed Spectral Data<<<<<
