SpectraSuite Data File
++++++++++++++++++++++++++++++++++++
Date: Sat May 16 11:45:00 PDT 2015
User: schluterlab
Dark Spectrum Present: Yes
Reference Spectrum Present: Yes
Number of Sampled Component Spectra: 1
Spectrometers: USB2E3373
Integration Time (usec): 3000 (USB2E3373)
Spectra Averaged: 3 (USB2E3373)
Boxcar Smoothing: 0 (USB2E3373)
Correct for Electrical Dark: No (USB2E3373)
Strobe/Lamp Enabled: No (USB2E3373)
Correct for Detector Non-linearity: No (USB2E3373)
Correct for Stray Light: No (USB2E3373)
Number of Pixels in Processed Spectrum: 2048
>>>>>Begin Processed Spectral Data<<<<<
178.53	0.000
178.91	86.667
179.29	766.667
179.67	-1100.000
180.04	-46.154
180.42	1100.000
180.80	400.000
181.18	350.000
181.56	-137.500
181.94	800.000
182.31	525.000
182.69	-38.462
183.07	-566.667
183.45	1650.000
183.83	66.667
184.20	-200.000
184.58	-125.000
184.96	-325.000
185.34	37.500
185.72	-475.000
186.09	383.333
186.47	-150.000
186.85	12.500
187.23	-87.500
187.61	-275.000
187.98	-200.000
188.36	-87.500
188.74	-212.500
189.12	1700.000
189.49	357.143
189.87	8.333
190.25	575.000
190.63	-64.286
191.00	-255.556
191.38	420.000
191.76	-13.333
192.14	460.000
192.51	-300.000
192.89	-33.333
193.27	0.000
193.65	-133.333
194.02	-271.429
194.40	533.333
194.78	-60.000
195.15	-1700.000
195.53	-145.455
195.91	-250.000
196.29	360.000
196.66	-800.000
197.04	1600.000
197.42	0.000
197.79	-46.667
198.17	-866.667
198.55	-500.000
198.92	-1600.000
199.30	225.000
199.68	-1150.000
200.05	-133.333
200.43	-122.222
200.81	-2300.000
201.18	-33.333
201.56	171.429
201.94	-66.667
202.31	36.364
202.69	-30.000
203.07	-110.000
203.44	466.667
203.82	-316.667
204.19	-550.000
204.57	-250.000
204.95	-900.000
205.32	6.250
205.70	700.000
206.08	-2600.000
206.45	-50.000
206.83	-1000.000
207.20	-400.000
207.58	-400.000
207.96	-433.333
208.33	12.500
208.71	-133.333
209.08	290.000
209.46	-128.571
209.84	700.000
210.21	0.000
210.59	5.000
210.96	700.000
211.34	-233.333
211.71	-700.000
212.09	50.000
212.46	900.000
212.84	-2500.000
213.22	433.333
213.59	108.333
213.97	100.000
214.34	160.000
214.72	-190.000
215.09	-266.667
215.47	-166.667
215.84	-40.000
216.22	-150.000
216.59	-13.333
216.97	-425.000
217.34	350.000
217.72	-157.143
218.09	-350.000
218.47	-228.571
218.84	228.571
219.22	-42.857
219.59	0.000
219.97	185.714
220.34	675.000
220.72	212.500
221.09	-115.385
221.47	0.000
221.84	533.333
222.22	-350.000
222.59	1200.000
222.97	-250.000
223.34	-600.000
223.72	-666.667
224.09	0.000
224.46	-100.000
224.84	-28.571
225.21	-271.429
225.59	-72.727
225.96	-87.500
226.34	-128.571
226.71	-122.222
227.08	-55.000
227.46	1300.000
227.83	-71.429
228.21	-125.000
228.58	-0.000
228.95	-31.250
229.33	-1300.000
229.70	-340.000
230.08	-850.000
230.45	8.333
230.82	-216.667
231.20	-1300.000
231.57	-300.000
231.95	1400.000
232.32	33.333
232.69	22.222
233.07	-14.286
233.44	-1050.000
233.81	-86.667
234.19	-66.667
234.56	-62.500
234.93	9.375
235.31	-157.143
235.68	-78.571
236.05	-88.235
236.43	-68.182
236.80	-29.032
237.17	-25.000
237.55	-19.048
237.92	-81.818
238.29	5.714
238.67	0.000
239.04	8.333
239.41	0.000
239.79	-17.949
240.16	-52.381
240.53	-10.909
240.91	10.256
241.28	29.091
241.65	29.231
242.02	18.033
242.40	-3.279
242.77	25.758
243.14	1.695
243.51	1.429
243.89	11.392
244.26	14.607
244.63	27.368
245.00	6.316
245.38	22.034
245.75	23.009
246.12	22.400
246.49	28.346
246.87	17.886
247.24	21.186
247.61	18.644
247.98	14.789
248.36	24.476
248.73	23.418
249.10	25.478
249.47	19.883
249.84	28.977
250.22	19.643
250.59	28.249
250.96	28.796
251.33	27.488
251.70	21.154
252.08	23.697
252.45	28.436
252.82	27.619
253.19	23.404
253.56	23.790
253.94	27.004
254.31	24.464
254.68	26.016
255.05	23.790
255.42	29.365
255.79	21.864
256.16	27.843
256.54	27.206
256.91	25.379
257.28	26.374
257.65	26.950
258.02	27.987
258.39	23.746
258.76	21.959
259.14	24.074
259.51	26.230
259.88	28.049
260.25	29.193
260.62	23.794
260.99	21.958
261.36	29.573
261.73	27.457
262.10	28.611
262.47	27.066
262.85	28.000
263.22	24.928
263.59	24.000
263.96	28.986
264.33	30.081
264.70	27.624
265.07	27.473
265.44	25.840
265.81	24.548
266.18	26.076
266.55	29.412
266.92	29.723
267.29	27.603
267.66	26.914
268.03	27.053
268.40	26.056
268.77	25.060
269.14	27.146
269.51	27.356
269.88	25.229
270.25	27.040
270.62	26.087
270.99	27.928
271.36	26.573
271.73	25.336
272.10	22.426
272.47	28.222
272.84	28.667
273.21	24.541
273.58	27.033
273.95	26.535
274.32	26.244
274.69	26.039
275.06	29.243
275.43	26.116
275.80	25.458
276.17	25.941
276.54	28.310
276.91	27.160
277.28	27.181
277.65	25.207
278.02	25.052
278.39	27.112
278.76	24.701
279.13	25.494
279.50	27.038
279.87	26.216
280.23	28.340
280.60	24.851
280.97	25.243
281.34	26.499
281.71	25.769
282.08	27.016
282.45	26.273
282.82	27.713
283.19	27.636
283.56	26.923
283.92	28.092
284.29	26.580
284.66	24.460
285.03	26.916
285.40	27.306
285.77	26.667
286.14	25.090
286.51	26.110
286.87	27.586
287.24	25.939
287.61	26.942
287.98	26.690
288.35	22.314
288.72	23.769
289.08	23.559
289.45	26.936
289.82	24.048
290.19	25.944
290.56	22.314
290.93	25.119
291.29	23.015
291.66	25.282
292.03	23.234
292.40	23.645
292.77	23.292
293.13	24.390
293.50	23.180
293.87	23.313
294.24	23.982
294.60	24.242
294.97	25.038
295.34	22.519
295.71	23.363
296.08	22.734
296.44	22.461
296.81	25.071
297.18	23.380
297.55	23.446
297.91	23.710
298.28	25.205
298.65	23.291
299.02	24.866
299.38	24.599
299.75	23.777
300.12	23.462
300.48	22.251
300.85	22.543
301.22	22.898
301.59	23.537
301.95	23.552
302.32	21.904
302.69	22.889
303.05	20.757
303.42	20.500
303.79	22.847
304.15	22.393
304.52	22.754
304.89	22.786
305.25	22.100
305.62	21.974
305.99	24.146
306.35	23.862
306.72	21.982
307.09	24.291
307.45	22.134
307.82	22.905
308.19	22.707
308.55	23.203
308.92	21.697
309.29	21.081
309.65	22.694
310.02	23.758
310.38	22.919
310.75	22.951
311.12	23.657
311.48	23.800
311.85	22.863
312.22	23.893
312.58	25.534
312.95	23.140
313.31	24.076
313.68	23.719
314.05	24.827
314.41	23.239
314.78	24.076
315.14	24.778
315.51	24.417
315.87	25.073
316.24	24.976
316.61	25.048
316.97	25.771
317.34	25.530
317.70	24.861
318.07	26.213
318.43	26.124
318.80	26.573
319.16	26.079
319.53	26.410
319.89	25.494
320.26	25.784
320.62	25.962
320.99	26.965
321.35	25.911
321.72	26.100
322.08	26.904
322.45	26.337
322.81	27.762
323.18	26.801
323.54	27.819
323.91	26.784
324.27	28.897
324.64	27.605
325.00	28.534
325.37	29.321
325.73	30.534
326.10	28.167
326.46	29.335
326.83	29.277
327.19	30.275
327.56	31.175
327.92	30.416
328.29	31.688
328.65	31.000
329.01	32.332
329.38	32.203
329.74	33.700
330.11	31.913
330.47	31.880
330.84	32.997
331.20	33.032
331.56	32.634
331.93	31.705
332.29	33.973
332.66	34.504
333.02	32.851
333.38	33.871
333.75	34.728
334.11	34.400
334.48	33.892
334.84	34.471
335.20	34.397
335.57	34.386
335.93	36.616
336.29	34.810
336.66	33.480
337.02	35.045
337.38	33.690
337.75	34.065
338.11	35.420
338.47	35.053
338.84	35.390
339.20	33.480
339.56	35.561
339.93	35.714
340.29	34.455
340.65	34.003
341.02	34.570
341.38	34.120
341.74	33.954
342.11	33.191
342.47	34.506
342.83	34.089
343.20	34.842
343.56	33.388
343.92	33.973
344.28	35.828
344.65	34.241
345.01	34.790
345.37	34.801
345.73	34.370
346.10	33.524
346.46	33.063
346.82	33.360
347.19	33.607
347.55	34.109
347.91	33.937
348.27	33.254
348.63	35.299
349.00	34.765
349.36	33.177
349.72	34.634
350.08	34.643
350.45	33.412
350.81	34.395
351.17	34.164
351.53	32.936
351.89	34.600
352.26	32.171
352.62	34.332
352.98	34.415
353.34	34.852
353.70	32.819
354.07	34.304
354.43	34.229
354.79	35.499
355.15	34.345
355.51	34.609
355.87	35.020
356.24	34.551
356.60	35.375
356.96	35.720
357.32	33.650
357.68	33.640
358.04	34.719
358.40	34.107
358.77	34.080
359.13	34.583
359.49	33.787
359.85	34.527
360.21	35.921
360.57	35.316
360.93	34.444
361.29	35.650
361.66	34.070
362.02	34.467
362.38	35.730
362.74	35.678
363.10	35.151
363.46	35.328
363.82	35.641
364.18	34.515
364.54	35.382
364.90	35.290
365.26	35.806
365.62	35.709
365.98	35.989
366.35	35.000
366.71	35.236
367.07	37.332
367.43	36.170
367.79	35.945
368.15	35.135
368.51	35.804
368.87	37.157
369.23	36.070
369.59	36.667
369.95	36.434
370.31	37.623
370.67	35.647
371.03	37.099
371.39	35.502
371.75	36.552
372.11	37.088
372.47	36.659
372.83	38.039
373.19	37.571
373.55	37.579
373.91	37.411
374.27	37.372
374.63	37.819
374.99	37.830
375.35	37.012
375.71	37.812
376.07	37.714
376.42	37.682
376.78	39.085
377.14	38.237
377.50	38.685
377.86	38.362
378.22	38.442
378.58	38.604
378.94	39.149
379.30	39.001
379.66	39.587
380.02	38.562
380.38	38.248
380.74	38.863
381.09	39.250
381.45	39.320
381.81	39.383
382.17	38.722
382.53	39.453
382.89	40.012
383.25	39.856
383.61	40.153
383.97	39.927
384.32	40.050
384.68	41.112
385.04	39.795
385.40	40.718
385.76	40.549
386.12	40.162
386.48	41.584
386.83	42.209
387.19	41.721
387.55	41.490
387.91	40.782
388.27	41.013
388.62	41.466
388.98	41.672
389.34	40.698
389.70	42.266
390.06	42.635
390.42	42.372
390.77	40.883
391.13	41.925
391.49	43.356
391.85	42.643
392.20	42.354
392.56	42.639
392.92	42.670
393.28	43.743
393.64	42.874
393.99	43.508
394.35	42.701
394.71	42.434
395.07	44.821
395.42	41.955
395.78	42.615
396.14	44.112
396.50	43.364
396.85	43.924
397.21	43.074
397.57	44.195
397.92	44.321
398.28	44.500
398.64	43.308
399.00	43.820
399.35	42.672
399.71	44.309
400.07	44.000
400.42	44.830
400.78	43.113
401.14	43.413
401.49	43.986
401.85	44.661
402.21	44.279
402.57	43.447
402.92	45.249
403.28	44.056
403.63	43.200
403.99	44.997
404.35	44.565
404.70	44.529
405.06	44.694
405.42	43.850
405.77	43.326
406.13	43.952
406.49	44.638
406.84	44.331
407.20	45.524
407.55	45.472
407.91	44.365
408.27	46.262
408.62	44.678
408.98	44.997
409.34	44.180
409.69	43.730
410.05	44.148
410.40	44.697
410.76	45.110
411.11	46.571
411.47	45.972
411.83	46.149
412.18	45.792
412.54	43.990
412.89	45.808
413.25	45.514
413.60	44.107
413.96	45.410
414.31	46.483
414.67	45.143
415.03	45.213
415.38	45.543
415.74	46.263
416.09	45.844
416.45	44.907
416.80	45.384
417.16	45.050
417.51	46.422
417.87	45.307
418.22	46.523
418.58	44.544
418.93	46.720
419.29	46.487
419.64	46.357
420.00	46.841
420.35	46.600
420.71	47.239
421.06	45.503
421.42	47.014
421.77	46.566
422.12	47.286
422.48	45.591
422.83	47.494
423.19	46.102
423.54	47.089
423.90	46.385
424.25	46.041
424.61	47.708
424.96	47.221
425.31	46.730
425.67	47.679
426.02	46.586
426.38	47.792
426.73	46.932
427.09	47.917
427.44	47.386
427.79	48.198
428.15	47.696
428.50	47.859
428.85	48.082
429.21	48.700
429.56	47.604
429.92	47.996
430.27	47.657
430.62	49.060
430.98	48.353
431.33	49.413
431.68	48.954
432.04	49.077
432.39	49.516
432.74	49.460
433.10	48.903
433.45	48.474
433.80	49.328
434.16	49.113
434.51	50.356
434.86	49.854
435.22	48.942
435.57	49.633
435.92	48.710
436.28	50.326
436.63	50.311
436.98	48.912
437.34	50.207
437.69	50.000
438.04	50.255
438.39	50.963
438.75	48.487
439.10	50.028
439.45	50.875
439.81	50.482
440.16	50.596
440.51	50.588
440.86	49.913
441.22	50.746
441.57	50.421
441.92	50.384
442.27	50.541
442.63	50.268
442.98	50.734
443.33	49.808
443.68	50.495
444.03	50.884
444.39	50.514
444.74	51.487
445.09	51.206
445.44	51.716
445.79	50.331
446.15	51.752
446.50	50.299
446.85	50.436
447.20	51.175
447.55	50.994
447.91	52.948
448.26	50.615
448.61	50.368
448.96	51.541
449.31	51.635
449.66	52.318
450.02	51.690
450.37	51.594
450.72	50.734
451.07	52.546
451.42	51.859
451.77	52.065
452.12	52.086
452.47	52.141
452.83	51.543
453.18	53.004
453.53	52.177
453.88	53.349
454.23	52.177
454.58	53.511
454.93	53.652
455.28	52.518
455.63	52.457
455.98	53.855
456.34	52.922
456.69	53.846
457.04	52.551
457.39	51.734
457.74	53.042
458.09	53.132
458.44	53.811
458.79	52.578
459.14	53.223
459.49	53.345
459.84	53.682
460.19	52.983
460.54	52.511
460.89	52.074
461.24	51.973
461.59	52.345
461.94	55.188
462.29	53.306
462.64	51.910
462.99	53.681
463.34	53.815
463.69	54.008
464.04	51.670
464.39	52.449
464.74	53.132
465.09	51.954
465.44	52.453
465.79	53.187
466.14	53.682
466.49	53.138
466.84	53.601
467.19	53.055
467.54	53.418
467.89	53.761
468.24	53.682
468.59	52.842
468.94	54.405
469.29	53.411
469.64	54.852
469.99	54.760
470.34	56.045
470.68	55.378
471.03	54.990
471.38	54.931
471.73	56.154
472.08	55.556
472.43	54.633
472.78	54.867
473.13	54.805
473.48	55.712
473.83	54.218
474.17	55.987
474.52	56.650
474.87	55.012
475.22	55.339
475.57	53.500
475.92	54.536
476.27	54.229
476.61	55.775
476.96	55.674
477.31	56.189
477.66	54.898
478.01	55.808
478.36	54.531
478.70	55.953
479.05	55.922
479.40	55.803
479.75	54.179
480.10	55.456
480.45	54.739
480.79	55.331
481.14	55.946
481.49	55.808
481.84	54.461
482.19	55.596
482.53	56.108
482.88	55.766
483.23	55.915
483.58	56.660
483.92	56.092
484.27	54.719
484.62	55.076
484.97	54.326
485.31	52.736
485.66	52.040
486.01	51.507
486.36	52.960
486.70	54.396
487.05	53.904
487.40	53.819
487.75	54.071
488.09	54.262
488.44	53.857
488.79	53.661
489.13	54.698
489.48	55.465
489.83	56.026
490.17	56.334
490.52	57.020
490.87	57.182
491.22	56.609
491.56	55.833
491.91	56.918
492.26	56.038
492.60	56.613
492.95	55.593
493.30	56.503
493.64	56.276
493.99	56.597
494.34	56.238
494.68	56.507
495.03	56.405
495.37	57.227
495.72	57.367
496.07	57.438
496.41	56.647
496.76	57.123
497.11	57.748
497.45	57.088
497.80	58.029
498.14	57.122
498.49	57.509
498.84	57.184
499.18	57.846
499.53	57.769
499.87	57.095
500.22	56.667
500.56	57.579
500.91	58.227
501.26	58.370
501.60	57.342
501.95	59.469
502.29	56.023
502.64	57.049
502.98	57.115
503.33	56.250
503.67	56.561
504.02	57.605
504.36	57.794
504.71	57.751
505.06	57.214
505.40	58.034
505.75	57.724
506.09	59.353
506.44	58.747
506.78	58.906
507.13	57.518
507.47	58.216
507.82	57.770
508.16	58.756
508.51	58.527
508.85	58.023
509.19	59.288
509.54	58.827
509.88	58.936
510.23	58.805
510.57	59.788
510.92	60.849
511.26	59.968
511.61	59.557
511.95	58.190
512.30	60.308
512.64	59.321
512.98	60.451
513.33	60.132
513.67	59.241
514.02	59.843
514.36	60.000
514.70	60.724
515.05	60.892
515.39	60.381
515.74	61.140
516.08	60.115
516.42	61.813
516.77	62.449
517.11	60.183
517.46	62.978
517.80	62.214
518.14	62.500
518.49	61.447
518.83	63.205
519.17	62.167
519.52	59.225
519.86	62.306
520.20	63.081
520.55	63.138
520.89	63.306
521.23	62.821
521.58	63.448
521.92	62.635
522.26	63.492
522.61	62.484
522.95	62.285
523.29	62.696
523.64	63.398
523.98	63.781
524.32	63.671
524.66	62.671
525.01	63.712
525.35	64.111
525.69	64.541
526.04	63.838
526.38	64.863
526.72	62.516
527.06	64.128
527.41	63.168
527.75	63.432
528.09	64.659
528.43	63.869
528.78	63.254
529.12	64.533
529.46	64.175
529.80	62.556
530.15	63.748
530.49	63.648
530.83	63.982
531.17	64.175
531.51	64.300
531.86	64.450
532.20	64.035
532.54	64.572
532.88	63.702
533.22	63.703
533.57	63.120
533.91	62.172
534.25	62.162
534.59	63.585
534.93	62.290
535.27	63.059
535.62	63.683
535.96	62.702
536.30	63.351
536.64	63.015
536.98	65.184
537.32	62.681
537.66	63.272
538.01	64.399
538.35	64.257
538.69	62.968
539.03	63.439
539.37	63.273
539.71	62.442
540.05	63.742
540.39	64.543
540.73	63.649
541.07	64.617
541.42	63.133
541.76	62.259
542.10	63.403
542.44	63.358
542.78	63.908
543.12	62.865
543.46	61.644
543.80	62.943
544.14	62.458
544.48	63.386
544.82	62.585
545.16	63.246
545.50	63.526
545.84	63.421
546.18	63.454
546.52	62.945
546.86	63.319
547.20	63.432
547.54	60.882
547.88	62.309
548.22	60.747
548.56	62.926
548.90	62.736
549.24	64.121
549.58	61.891
549.92	63.746
550.26	64.523
550.60	62.589
550.94	65.547
551.28	63.657
551.62	62.703
551.96	64.110
552.30	63.554
552.64	62.069
552.98	64.050
553.32	62.915
553.66	64.600
554.00	63.468
554.34	62.744
554.68	63.231
555.02	62.012
555.36	62.976
555.69	63.181
556.03	62.105
556.37	64.225
556.71	62.276
557.05	62.897
557.39	63.400
557.73	63.603
558.07	64.280
558.41	64.099
558.75	63.650
559.08	64.358
559.42	63.476
559.76	63.880
560.10	64.653
560.44	63.439
560.78	62.770
561.12	63.837
561.45	62.192
561.79	63.833
562.13	62.833
562.47	61.765
562.81	61.881
563.15	61.791
563.48	61.230
563.82	63.016
564.16	62.204
564.50	62.433
564.84	63.029
565.17	61.605
565.51	61.473
565.85	62.204
566.19	62.912
566.52	62.753
566.86	61.631
567.20	62.167
567.54	61.902
567.88	59.855
568.21	60.403
568.55	59.014
568.89	58.400
569.23	58.815
569.56	57.209
569.90	57.435
570.24	57.384
570.57	55.677
570.91	56.885
571.25	55.610
571.59	55.760
571.92	54.196
572.26	55.482
572.60	54.887
572.93	54.413
573.27	53.933
573.61	53.685
573.95	54.896
574.28	53.547
574.62	54.677
574.96	52.916
575.29	53.201
575.63	53.385
575.97	53.506
576.30	53.631
576.64	53.368
576.98	53.819
577.31	53.468
577.65	53.411
577.98	52.896
578.32	53.126
578.66	53.438
578.99	53.117
579.33	53.529
579.67	53.994
580.00	52.158
580.34	53.718
580.67	53.224
581.01	52.262
581.35	52.661
581.68	52.443
582.02	53.057
582.35	52.502
582.69	53.532
583.02	53.647
583.36	53.718
583.70	53.047
584.03	53.206
584.37	53.505
584.70	53.529
585.04	52.987
585.37	51.957
585.71	53.266
586.04	53.597
586.38	53.381
586.72	53.185
587.05	54.545
587.39	54.029
587.72	53.703
588.06	53.618
588.39	54.315
588.73	54.255
589.06	54.731
589.40	55.136
589.73	54.922
590.07	54.698
590.40	54.871
590.73	55.218
591.07	55.574
591.40	56.412
591.74	55.691
592.07	55.631
592.41	56.476
592.74	55.842
593.08	54.514
593.41	54.309
593.75	53.445
594.08	55.140
594.41	54.861
594.75	55.719
595.08	56.165
595.42	55.491
595.75	55.347
596.09	55.297
596.42	56.015
596.75	56.102
597.09	56.857
597.42	54.911
597.75	56.997
598.09	56.575
598.42	55.899
598.76	54.734
599.09	54.933
599.42	55.094
599.76	54.889
600.09	55.458
600.42	55.184
600.76	55.518
601.09	54.728
601.42	54.333
601.76	55.218
602.09	55.297
602.42	55.720
602.76	54.799
603.09	55.766
603.42	55.761
603.76	54.607
604.09	55.627
604.42	55.662
604.76	55.560
605.09	56.193
605.42	55.807
605.75	55.239
606.09	54.919
606.42	55.718
606.75	54.830
607.09	55.536
607.42	54.665
607.75	55.894
608.08	57.072
608.42	56.859
608.75	55.794
609.08	55.723
609.41	56.353
609.75	56.363
610.08	56.814
610.41	56.145
610.74	57.495
611.07	56.592
611.41	54.463
611.74	55.681
612.07	57.787
612.40	56.823
612.73	56.327
613.07	56.742
613.40	57.143
613.73	57.166
614.06	56.727
614.39	57.103
614.72	57.709
615.06	56.522
615.39	56.050
615.72	57.197
616.05	55.329
616.38	57.574
616.71	56.456
617.05	58.504
617.38	59.071
617.71	58.292
618.04	59.317
618.37	58.868
618.70	60.104
619.03	60.054
619.36	59.901
619.69	60.517
620.03	58.058
620.36	59.845
620.69	60.948
621.02	60.654
621.35	60.887
621.68	60.738
622.01	61.650
622.34	61.879
622.67	61.172
623.00	61.591
623.33	61.642
623.66	60.044
623.99	60.752
624.32	60.640
624.65	60.412
624.99	60.568
625.32	60.254
625.65	61.538
625.98	60.563
626.31	62.480
626.64	62.929
626.97	62.158
627.30	62.723
627.63	60.449
627.96	61.619
628.29	63.695
628.62	62.942
628.95	64.075
629.28	63.158
629.61	64.181
629.94	64.178
630.26	64.911
630.59	65.025
630.92	64.264
631.25	65.020
631.58	63.598
631.91	66.064
632.24	68.333
632.57	65.556
632.90	69.080
633.23	67.640
633.56	65.965
633.89	67.571
634.22	66.588
634.55	69.591
634.88	66.747
635.20	67.541
635.53	66.539
635.86	67.003
636.19	66.056
636.52	65.352
636.85	65.223
637.18	66.250
637.51	67.286
637.83	67.776
638.16	67.500
638.49	70.207
638.82	67.181
639.15	67.834
639.48	67.704
639.81	69.433
640.13	67.973
640.46	69.943
640.79	69.888
641.12	69.111
641.45	70.301
641.77	72.455
642.10	69.486
642.43	69.196
642.76	70.866
643.09	70.159
643.41	70.952
643.74	70.747
644.07	70.047
644.40	70.502
644.73	72.772
645.05	69.282
645.38	73.510
645.71	75.430
646.04	71.092
646.36	72.949
646.69	73.010
647.02	73.285
647.35	72.563
647.67	71.715
648.00	70.299
648.33	71.669
648.66	65.806
648.98	68.471
649.31	69.538
649.64	69.219
649.96	66.876
650.29	69.836
650.62	70.396
650.94	69.646
651.27	70.711
651.60	69.550
651.92	69.863
652.25	69.950
652.58	70.017
652.90	66.292
653.23	68.710
653.56	70.401
653.88	69.508
654.21	69.631
654.54	68.937
654.86	67.576
655.19	67.622
655.52	58.125
655.84	51.748
656.17	54.909
656.49	73.519
656.82	75.381
657.15	56.727
657.47	42.565
657.80	32.777
658.13	37.327
658.45	50.283
658.78	50.358
659.10	49.763
659.43	48.622
659.75	50.393
660.08	51.510
660.41	52.009
660.73	56.986
661.06	62.754
661.38	70.893
661.71	67.878
662.03	75.806
662.36	72.708
662.68	73.207
663.01	77.070
663.33	75.283
663.66	72.318
663.98	71.652
664.31	76.510
664.63	72.566
664.96	71.584
665.28	70.282
665.61	72.093
665.93	72.634
666.26	70.243
666.58	69.439
666.91	73.274
667.23	73.684
667.56	69.841
667.88	73.756
668.21	73.963
668.53	72.664
668.86	74.365
669.18	73.059
669.50	73.598
669.83	75.426
670.15	71.973
670.48	73.131
670.80	71.071
671.13	71.558
671.45	72.973
671.77	69.807
672.10	70.611
672.42	69.188
672.75	69.091
673.07	66.126
673.39	68.670
673.72	70.866
674.04	72.187
674.37	70.515
674.69	70.697
675.01	67.660
675.34	69.848
675.66	70.626
675.98	70.705
676.31	71.719
676.63	73.563
676.95	73.230
677.28	70.998
677.60	74.661
677.92	72.907
678.25	70.460
678.57	69.753
678.89	72.117
679.22	69.811
679.54	66.864
679.86	66.200
680.18	67.490
680.51	66.294
680.83	65.143
681.15	64.933
681.48	72.819
681.80	68.548
682.12	68.612
682.44	65.619
682.77	66.883
683.09	67.925
683.41	69.248
683.73	71.461
684.06	64.516
684.38	64.017
684.70	66.255
685.02	66.929
685.34	66.472
685.67	64.773
685.99	66.352
686.31	66.786
686.63	64.007
686.96	63.771
687.28	66.281
687.60	66.211
687.92	66.732
688.24	67.126
688.56	63.727
688.89	66.239
689.21	65.864
689.53	69.655
689.85	68.374
690.17	68.834
690.49	66.975
690.82	69.157
691.14	69.340
691.46	70.067
691.78	66.520
692.10	67.161
692.42	68.889
692.74	66.094
693.06	70.562
693.39	65.548
693.71	69.300
694.03	66.739
694.35	65.237
694.67	67.139
694.99	67.263
695.31	71.173
695.63	68.878
695.95	70.471
696.27	67.332
696.59	72.460
696.91	70.506
697.23	72.135
697.56	67.788
697.88	64.640
698.20	67.238
698.52	66.143
698.84	66.990
699.16	63.810
699.48	67.750
699.80	70.927
700.12	68.010
700.44	65.642
700.76	71.137
701.08	67.733
701.40	68.882
701.72	74.691
702.04	73.718
702.36	71.386
702.68	68.563
703.00	67.536
703.32	69.628
703.64	72.647
703.96	73.837
704.28	70.118
704.60	64.557
704.91	71.111
705.23	71.845
705.55	71.622
705.87	72.355
706.19	72.222
706.51	68.056
706.83	70.820
707.15	72.293
707.47	71.074
707.79	65.206
708.11	65.394
708.43	64.838
708.74	65.974
709.06	65.738
709.38	63.506
709.70	70.312
710.02	69.632
710.34	66.667
710.66	67.302
710.98	68.770
711.29	64.516
711.61	65.815
711.93	64.262
712.25	68.439
712.57	64.808
712.89	71.942
713.20	69.759
713.52	66.045
713.84	71.174
714.16	68.852
714.48	68.889
714.80	63.077
715.11	67.147
715.43	66.867
715.75	67.290
716.07	66.557
716.39	68.562
716.70	69.338
717.02	70.000
717.34	69.084
717.66	76.763
717.97	67.623
718.29	74.370
718.61	74.206
718.93	68.459
719.24	65.441
719.56	66.792
719.88	70.182
720.20	63.296
720.51	71.053
720.83	69.076
721.15	70.902
721.46	74.510
721.78	68.966
722.10	69.200
722.42	67.769
722.73	66.534
723.05	69.076
723.37	64.314
723.68	65.992
724.00	66.667
724.32	70.782
724.63	68.880
724.95	69.421
725.27	65.351
725.58	65.086
725.90	68.254
726.22	67.159
726.53	68.821
726.85	64.314
727.16	62.406
727.48	63.846
727.80	61.066
728.11	67.227
728.43	63.223
728.74	66.406
729.06	66.667
729.38	67.704
729.69	62.205
730.01	62.598
730.32	61.753
730.64	67.399
730.96	67.164
731.27	64.643
731.59	61.415
731.90	61.350
732.22	57.362
732.53	65.232
732.85	59.396
733.16	62.681
733.48	56.098
733.80	58.719
734.11	63.793
734.43	65.646
734.74	60.534
735.06	62.069
735.37	58.716
735.69	60.323
736.00	57.576
736.32	63.907
736.63	62.414
736.95	63.768
737.26	65.232
737.58	65.108
737.89	64.158
738.21	63.534
738.52	65.000
738.83	58.984
739.15	65.812
739.46	64.919
739.78	61.189
740.09	62.587
740.41	60.839
740.72	61.679
741.04	58.333
741.35	61.472
741.66	68.519
741.98	59.048
742.29	67.606
742.61	71.123
742.92	71.963
743.23	58.333
743.55	65.315
743.86	63.556
744.18	65.238
744.49	72.414
744.80	69.543
745.12	61.856
745.43	67.839
745.74	68.932
746.06	67.805
746.37	68.282
746.68	71.144
747.00	67.016
747.31	67.788
747.62	66.359
747.94	62.445
748.25	64.651
748.56	67.619
748.88	66.848
749.19	62.441
749.50	69.118
749.82	68.889
750.13	70.485
750.44	65.447
750.75	65.200
751.07	66.786
751.38	61.993
751.69	58.779
752.01	60.000
752.32	62.257
752.63	59.231
752.94	63.492
753.26	63.913
753.57	68.750
753.88	64.655
754.19	58.091
754.51	63.281
754.82	60.079
755.13	61.728
755.44	65.702
755.75	63.786
756.07	55.823
756.38	61.719
756.69	63.177
757.00	61.672
757.31	62.416
757.63	60.125
757.94	58.092
758.25	59.012
758.56	63.881
758.87	57.955
759.18	58.667
759.50	63.701
759.81	61.314
760.12	59.797
760.43	63.754
760.74	62.187
761.05	55.618
761.36	58.683
761.67	56.805
761.99	56.452
762.30	60.145
762.61	61.887
762.92	60.987
763.23	66.351
763.54	63.111
763.85	62.025
764.16	60.408
764.47	66.102
764.78	58.801
765.10	57.194
765.41	57.419
765.72	58.176
766.03	54.417
766.34	60.526
766.65	59.514
766.96	63.000
767.27	64.062
767.58	70.349
767.89	67.097
768.20	68.098
768.51	63.388
768.82	57.297
769.13	61.500
769.44	59.211
769.75	61.472
770.06	56.881
770.37	62.441
770.68	65.104
770.99	57.921
771.30	60.194
771.61	60.648
771.92	57.576
772.23	60.280
772.54	68.085
772.85	58.580
773.16	68.293
773.47	64.458
773.78	67.582
774.09	68.000
774.39	61.111
774.70	54.362
775.01	59.420
775.32	59.701
775.63	60.331
775.94	74.436
776.25	53.571
776.56	66.393
776.87	71.681
777.18	68.142
777.48	64.545
777.79	54.783
778.10	59.633
778.41	50.847
778.72	63.636
779.03	65.672
779.34	54.135
779.65	60.784
779.95	65.942
780.26	50.340
780.57	53.448
780.88	75.926
781.19	70.707
781.50	63.200
781.80	58.824
782.11	55.128
782.42	53.614
782.73	65.693
783.04	54.054
783.34	54.545
783.65	61.240
783.96	69.919
784.27	67.521
784.57	56.098
784.88	52.033
785.19	61.404
785.50	52.577
785.81	59.048
786.11	56.863
786.42	50.000
786.73	69.369
787.04	63.366
787.34	58.095
787.65	57.143
787.96	57.843
788.26	67.568
788.57	54.839
788.88	48.437
789.19	49.573
789.49	51.261
789.80	52.991
790.11	61.947
790.41	50.505
790.72	64.151
791.03	55.556
791.33	72.368
791.64	55.914
791.95	56.000
792.25	61.429
792.56	45.122
792.87	63.265
793.17	64.474
793.48	52.703
793.79	53.521
794.09	58.228
794.40	72.340
794.70	51.402
795.01	50.000
795.32	57.273
795.62	57.143
795.93	52.577
796.23	60.440
796.54	68.421
796.85	45.205
797.15	36.111
797.46	58.904
797.76	53.521
798.07	60.000
798.37	69.118
798.68	71.429
798.99	55.714
799.29	61.842
799.60	58.333
799.90	33.333
800.21	57.812
800.51	41.270
800.82	47.541
801.12	54.386
801.43	35.211
801.73	25.424
802.04	39.344
802.34	56.364
802.65	32.692
802.95	48.148
803.26	35.000
803.56	53.846
803.87	78.947
804.17	51.613
804.48	35.385
804.78	58.974
805.09	65.116
805.39	43.750
805.70	22.642
806.00	75.439
806.30	41.892
806.61	58.824
806.91	43.210
807.22	45.333
807.52	37.313
807.83	35.484
808.13	34.921
808.43	47.273
808.74	46.970
809.04	45.283
809.35	32.877
809.65	66.667
809.95	52.941
810.26	47.059
810.56	40.000
810.86	63.265
811.17	51.429
811.47	28.846
811.77	32.258
812.08	7.895
812.38	59.524
812.69	43.478
812.99	35.484
813.29	26.190
813.59	18.519
813.90	31.915
814.20	67.442
814.50	47.917
814.81	31.667
815.11	31.707
815.41	60.000
815.72	82.857
816.02	2.778
816.32	43.590
816.62	62.162
816.93	5.882
817.23	52.174
817.53	52.941
817.84	50.000
818.14	18.750
818.44	20.690
818.74	25.806
819.04	44.444
819.35	33.333
819.65	12.000
819.95	56.667
820.25	16.000
820.56	31.579
820.86	20.000
821.16	48.936
821.46	46.552
821.76	38.462
822.07	15.000
822.37	41.860
822.67	-3.333
822.97	32.432
823.27	10.811
823.57	124.000
823.88	45.946
824.18	23.810
824.48	26.923
824.78	-38.462
825.08	-4.348
825.38	16.667
825.69	-8.333
825.99	5.000
826.29	10.811
826.59	5.882
826.89	68.000
827.19	37.143
827.49	44.737
827.79	-12.500
828.09	23.333
828.39	39.130
828.70	0.000
829.00	31.034
829.30	16.667
829.60	53.125
829.90	111.111
830.20	0.000
830.50	19.048
830.80	10.714
831.10	33.333
831.40	-4.762
831.70	-2.941
832.00	33.333
832.30	26.316
832.60	18.750
832.90	8.333
833.20	-70.588
833.50	-46.667
833.80	-6.667
834.10	5.000
834.40	33.333
834.70	83.333
835.00	30.769
835.30	16.667
835.60	34.483
835.90	44.444
836.20	-63.636
836.50	50.000
836.80	40.000
837.10	77.143
837.40	64.706
837.70	-136.364
838.00	37.500
838.30	18.750
838.60	19.048
838.90	25.000
839.19	13.043
839.49	4.348
839.79	-16.667
840.09	-30.435
840.39	4.545
840.69	-37.500
840.99	47.368
841.29	12.500
841.59	-28.571
841.88	-16.667
842.18	-8.333
842.48	-82.353
842.78	13.793
843.08	21.429
843.38	15.385
843.68	-166.667
843.97	38.462
844.27	9.091
844.57	-280.000
844.87	12.000
845.17	-120.000
845.47	-42.857
845.76	0.000
846.06	0.000
846.36	-225.000
846.66	-140.000
846.96	21.053
847.25	25.000
847.55	-25.000
847.85	-13.333
848.15	-100.000
848.44	69.231
848.74	-15.789
849.04	466.667
849.34	-88.889
849.63	-10.526
849.93	0.000
850.23	-30.000
850.53	38.095
850.82	-8.000
851.12	-26.316
851.42	-400.000
851.71	50.000
852.01	33.333
852.31	-52.941
852.61	-13.333
852.90	-23.810
853.20	-66.667
853.50	-11.111
853.79	-21.053
854.09	-33.333
854.39	21.429
854.68	-13.043
854.98	-116.667
855.28	27.586
855.57	-62.500
855.87	-20.000
856.17	-53.333
856.46	41.379
856.76	-46.667
857.05	0.000
857.35	-100.000
857.65	63.636
857.94	18.519
858.24	0.000
858.53	-14.286
858.83	-100.000
859.13	-22.222
859.42	23.810
859.72	75.000
860.01	-500.000
860.31	-25.000
860.60	-340.000
860.90	11.111
861.20	-75.000
861.49	-142.857
861.79	29.412
862.08	-750.000
862.38	-50.000
862.67	-53.846
862.97	52.941
863.26	0.000
863.56	41.176
863.85	533.333
864.15	-140.000
864.44	-23.077
864.74	25.000
865.03	-162.500
865.33	-150.000
865.62	-5.882
865.92	-550.000
866.21	-21.429
866.51	-108.333
866.80	-500.000
867.10	-233.333
867.39	-58.824
867.69	26.087
867.98	-42.857
868.27	-360.000
868.57	-87.500
868.86	-127.273
869.16	-5.882
869.45	-183.333
869.75	-100.000
870.04	1000.000
870.33	-75.000
870.63	120.000
870.92	-222.222
871.22	-8.333
871.51	-54.545
871.80	-8.333
872.10	10.000
>>>>>End Processed Spectral Data<<<<<
