SpectraSuite Data File
++++++++++++++++++++++++++++++++++++
Date: Sat May 16 11:20:03 PDT 2015
User: schluterlab
Dark Spectrum Present: Yes
Reference Spectrum Present: Yes
Number of Sampled Component Spectra: 1
Spectrometers: USB2E3373
Integration Time (usec): 3000 (USB2E3373)
Spectra Averaged: 3 (USB2E3373)
Boxcar Smoothing: 0 (USB2E3373)
Correct for Electrical Dark: No (USB2E3373)
Strobe/Lamp Enabled: No (USB2E3373)
Correct for Detector Non-linearity: No (USB2E3373)
Correct for Stray Light: No (USB2E3373)
Number of Pixels in Processed Spectrum: 2048
>>>>>Begin Processed Spectral Data<<<<<
178.53	0.000
178.91	113.333
179.29	400.000
179.67	-1100.000
180.04	-84.615
180.42	1200.000
180.80	275.000
181.18	425.000
181.56	-100.000
181.94	1200.000
182.31	350.000
182.69	0.000
183.07	-66.667
183.45	1250.000
183.83	433.333
184.20	-28.571
184.58	-62.500
184.96	-250.000
185.34	118.750
185.72	-350.000
186.09	266.667
186.47	-225.000
186.85	-50.000
187.23	-112.500
187.61	-150.000
187.98	-400.000
188.36	-100.000
188.74	-175.000
189.12	1100.000
189.49	371.429
189.87	-141.667
190.25	275.000
190.63	-7.143
191.00	-88.889
191.38	440.000
191.76	0.000
192.14	560.000
192.51	-80.000
192.89	-133.333
193.27	0.000
193.65	-111.111
194.02	-200.000
194.40	333.333
194.78	-70.000
195.15	-1500.000
195.53	-81.818
195.91	-266.667
196.29	280.000
196.66	-766.667
197.04	2200.000
197.42	100.000
197.79	13.333
198.17	-566.667
198.55	-450.000
198.92	-1100.000
199.30	125.000
199.68	-450.000
200.05	-166.667
200.43	-188.889
200.81	-100.000
201.18	-125.000
201.56	57.143
201.94	-6.667
202.31	-9.091
202.69	60.000
203.07	-60.000
203.44	466.667
203.82	-333.333
204.19	-175.000
204.57	-400.000
204.95	-1000.000
205.32	50.000
205.70	500.000
206.08	-1700.000
206.45	-61.111
206.83	-500.000
207.20	-350.000
207.58	-566.667
207.96	-366.667
208.33	-112.500
208.71	-44.444
209.08	230.000
209.46	-200.000
209.84	650.000
210.21	0.000
210.59	70.000
210.96	200.000
211.34	-366.667
211.71	-500.000
212.09	175.000
212.46	1100.000
212.84	-2600.000
213.22	433.333
213.59	91.667
213.97	-55.556
214.34	250.000
214.72	10.000
215.09	-300.000
215.47	-133.333
215.84	-160.000
216.22	-90.000
216.59	40.000
216.97	-225.000
217.34	-50.000
217.72	-28.571
218.09	-366.667
218.47	-114.286
218.84	142.857
219.22	-142.857
219.59	0.000
219.97	214.286
220.34	425.000
220.72	237.500
221.09	7.692
221.47	0.000
221.84	566.667
222.22	-400.000
222.59	700.000
222.97	-162.500
223.34	-800.000
223.72	-100.000
224.09	-57.143
224.46	-125.000
224.84	-71.429
225.21	-214.286
225.59	-72.727
225.96	-12.500
226.34	-28.571
226.71	-188.889
227.08	0.000
227.46	1300.000
227.83	-171.429
228.21	-287.500
228.58	500.000
228.95	-31.250
229.33	-1400.000
229.70	-320.000
230.08	-1000.000
230.45	-8.333
230.82	-250.000
231.20	-1000.000
231.57	-250.000
231.95	700.000
232.32	-19.048
232.69	-122.222
233.07	-114.286
233.44	-650.000
233.81	-60.000
234.19	11.111
234.56	-12.500
234.93	-3.125
235.31	-142.857
235.68	-114.286
236.05	0.000
236.43	-77.273
236.80	-25.806
237.17	8.333
237.55	-9.524
237.92	-54.545
238.29	17.143
238.67	2.941
239.04	-5.556
239.41	-9.677
239.79	-23.077
240.16	0.000
240.53	-9.091
240.91	35.897
241.28	25.455
241.65	27.692
242.02	26.230
242.40	6.557
242.77	19.697
243.14	8.475
243.51	5.714
243.89	11.392
244.26	0.000
244.63	23.158
245.00	15.789
245.38	19.492
245.75	17.699
246.12	18.400
246.49	12.598
246.87	10.569
247.24	19.492
247.61	19.492
247.98	17.606
248.36	18.881
248.73	21.519
249.10	20.382
249.47	25.731
249.84	25.000
250.22	15.476
250.59	19.209
250.96	18.848
251.33	22.275
251.70	21.635
252.08	25.118
252.45	20.853
252.82	20.476
253.19	22.128
253.56	18.548
253.94	21.941
254.31	23.176
254.68	26.829
255.05	21.774
255.42	19.841
255.79	21.864
256.16	24.314
256.54	22.059
256.91	23.864
257.28	20.513
257.65	21.631
258.02	28.616
258.39	24.080
258.76	24.662
259.14	23.765
259.51	20.984
259.88	24.695
260.25	24.845
260.62	25.402
260.99	25.816
261.36	24.390
261.73	24.855
262.10	24.722
262.47	22.222
262.85	25.714
263.22	24.642
263.59	22.769
263.96	25.507
264.33	23.306
264.70	27.348
265.07	21.978
265.44	25.065
265.81	25.581
266.18	25.063
266.55	24.510
266.92	26.448
267.29	25.424
267.66	25.926
268.03	26.570
268.40	23.005
268.77	26.506
269.14	24.594
269.51	27.126
269.88	22.018
270.25	22.378
270.62	22.654
270.99	25.676
271.36	23.543
271.73	23.991
272.10	25.400
272.47	23.333
272.84	27.778
273.21	26.376
273.58	25.495
273.95	25.877
274.32	24.661
274.69	26.258
275.06	26.994
275.43	25.223
275.80	26.273
276.17	26.151
276.54	27.495
276.91	24.280
277.28	24.544
277.65	23.760
278.02	24.217
278.39	25.147
278.76	23.705
279.13	23.123
279.50	26.243
279.87	22.833
280.23	25.709
280.60	26.839
280.97	23.107
281.34	24.178
281.71	24.423
282.08	23.992
282.45	24.440
282.82	23.643
283.19	26.000
283.56	25.641
283.92	24.912
284.29	24.535
284.66	23.022
285.03	24.955
285.40	24.170
285.77	25.614
286.14	24.007
286.51	24.334
286.87	21.597
287.24	22.355
287.61	21.818
287.98	21.664
288.35	21.322
288.72	24.278
289.08	22.542
289.45	24.579
289.82	19.031
290.19	23.974
290.56	23.802
290.93	21.622
291.29	21.556
291.66	21.739
292.03	20.722
292.40	22.440
292.77	21.894
293.13	22.764
293.50	21.694
293.87	20.859
294.24	21.116
294.60	18.182
294.97	20.030
295.34	18.667
295.71	19.643
296.08	17.358
296.44	19.886
296.81	20.655
297.18	19.859
297.55	20.339
297.91	20.781
298.28	18.630
298.65	19.665
299.02	19.786
299.38	20.588
299.75	19.973
300.12	18.974
300.48	18.031
300.85	19.397
301.22	17.982
301.59	18.336
301.95	20.655
302.32	17.862
302.69	18.115
303.05	16.484
303.42	17.125
303.79	17.344
304.15	17.299
304.52	17.503
304.89	17.828
305.25	18.681
305.62	18.566
305.99	18.610
306.35	17.980
306.72	17.995
307.09	17.480
307.45	18.729
307.82	16.983
308.19	17.338
308.55	17.865
308.92	16.649
309.29	16.324
309.65	16.649
310.02	16.631
310.38	16.216
310.75	17.008
311.12	17.459
311.48	17.745
311.85	16.581
312.22	16.993
312.58	17.192
312.95	16.412
313.31	17.682
313.68	16.884
314.05	17.211
314.41	15.795
314.78	16.783
315.14	17.078
315.51	17.528
315.87	16.747
316.24	16.327
316.61	18.138
316.97	17.214
317.34	17.052
317.70	16.327
318.07	17.631
318.43	16.854
318.80	17.277
319.16	16.604
319.53	16.635
319.89	16.651
320.26	15.294
320.62	15.865
320.99	17.313
321.35	15.567
321.72	16.888
322.08	17.310
322.45	16.337
322.81	14.890
323.18	16.907
323.54	16.266
323.91	17.609
324.27	15.970
324.64	16.636
325.00	16.405
325.37	16.833
325.73	17.760
326.10	15.058
326.46	15.762
326.83	16.255
327.19	16.264
327.56	17.632
327.92	16.907
328.29	16.970
328.65	15.909
329.01	17.226
329.38	16.682
329.74	18.132
330.11	16.410
330.47	16.167
330.84	17.049
331.20	16.697
331.56	16.226
331.93	16.341
332.29	16.986
332.66	16.681
333.02	16.109
333.38	17.563
333.75	17.186
334.11	15.733
334.48	16.152
334.84	16.710
335.20	16.401
335.57	16.877
335.93	17.726
336.29	16.652
336.66	15.419
337.02	16.486
337.38	15.954
337.75	16.067
338.11	15.832
338.47	16.548
338.84	15.699
339.20	17.223
339.56	16.934
339.93	15.520
340.29	15.412
340.65	16.346
341.02	15.767
341.38	15.670
341.74	15.241
342.11	15.956
342.47	16.052
342.83	14.861
343.20	15.542
343.56	15.184
343.92	16.277
344.28	15.475
344.65	15.759
345.01	15.378
345.37	16.113
345.73	15.221
346.10	13.818
346.46	14.866
346.82	14.675
347.19	15.776
347.55	15.490
347.91	15.276
348.27	14.718
348.63	14.459
349.00	15.831
349.36	14.598
349.72	16.720
350.08	14.996
350.45	16.154
350.81	15.366
351.17	15.273
351.53	14.002
351.89	15.441
352.26	14.651
352.62	16.359
352.98	14.794
353.34	14.628
353.70	14.517
354.07	15.106
354.43	15.889
354.79	15.293
355.15	14.696
355.51	14.687
355.87	14.625
356.24	14.138
356.60	15.955
356.96	16.320
357.32	14.727
357.68	15.019
358.04	14.165
358.40	14.772
358.77	14.915
359.13	14.461
359.49	15.193
359.85	14.329
360.21	14.384
360.57	15.663
360.93	15.407
361.29	15.321
361.66	14.177
362.02	14.719
362.38	14.674
362.74	14.286
363.10	14.275
363.46	16.453
363.82	15.598
364.18	15.123
364.54	14.939
364.90	14.116
365.26	14.265
365.62	15.609
365.98	16.074
366.35	14.859
366.71	14.235
367.07	14.397
367.43	15.511
367.79	14.570
368.15	14.296
368.51	14.685
368.87	15.247
369.23	15.439
369.59	14.514
369.95	15.927
370.31	15.120
370.67	13.883
371.03	15.015
371.39	14.498
371.75	14.521
372.11	14.778
372.47	15.040
372.83	15.090
373.19	15.000
373.55	15.060
373.91	15.007
374.27	14.374
374.63	14.286
374.99	15.021
375.35	14.603
375.71	14.652
376.07	14.442
376.42	13.709
376.78	15.098
377.14	14.034
377.50	14.442
377.86	14.499
378.22	14.384
378.58	14.824
378.94	14.735
379.30	14.808
379.66	14.693
380.02	13.963
380.38	14.260
380.74	15.182
381.09	14.938
381.45	15.394
381.81	13.854
382.17	14.975
382.53	13.374
382.89	15.490
383.25	14.810
383.61	14.387
383.97	14.819
384.32	15.144
384.68	15.538
385.04	14.010
385.40	15.825
385.76	14.085
386.12	14.616
386.48	14.666
386.83	15.215
387.19	14.405
387.55	15.324
387.91	15.116
388.27	14.837
388.62	14.543
388.98	14.416
389.34	14.076
389.70	14.373
390.06	15.165
390.42	15.385
390.77	14.259
391.13	14.658
391.49	13.662
391.85	15.773
392.20	13.592
392.56	14.905
392.92	15.744
393.28	15.327
393.64	15.935
393.99	14.954
394.35	15.024
394.71	15.689
395.07	14.626
395.42	14.362
395.78	14.959
396.14	14.891
396.50	15.046
396.85	14.436
397.21	15.006
397.57	14.833
397.92	15.867
398.28	15.833
398.64	15.526
399.00	15.281
399.35	14.487
399.71	15.505
400.07	15.224
400.42	15.450
400.78	15.504
401.14	14.850
401.49	14.328
401.85	15.009
402.21	14.422
402.57	15.716
402.92	14.726
403.28	14.461
403.63	14.080
403.99	14.543
404.35	14.674
404.70	14.921
405.06	15.225
405.42	14.699
405.77	14.310
406.13	14.651
406.49	15.099
406.84	15.117
407.20	15.724
407.55	14.250
407.91	14.054
408.27	14.522
408.62	14.913
408.98	15.282
409.34	14.747
409.69	14.304
410.05	14.494
410.40	15.328
410.76	14.404
411.11	15.150
411.47	14.322
411.83	14.609
412.18	14.047
412.54	13.728
412.89	14.945
413.25	12.869
413.60	13.548
413.96	13.802
414.31	15.046
414.67	13.841
415.03	14.748
415.38	15.420
415.74	14.948
416.09	14.834
416.45	13.955
416.80	14.499
417.16	14.086
417.51	14.642
417.87	14.434
418.22	15.360
418.58	14.506
418.93	14.470
419.29	14.617
419.64	13.254
420.00	15.674
420.35	14.075
420.71	14.766
421.06	15.266
421.42	14.169
421.77	14.685
422.12	15.389
422.48	15.019
422.83	15.148
423.19	14.978
423.54	14.582
423.90	14.459
424.25	14.762
424.61	15.199
424.96	15.565
425.31	14.589
425.67	14.785
426.02	13.769
426.38	15.306
426.73	15.079
427.09	14.216
427.44	14.261
427.79	14.419
428.15	14.901
428.50	14.487
428.85	14.329
429.21	14.499
429.56	15.677
429.92	14.780
430.27	15.204
430.62	15.622
430.98	14.898
431.33	14.461
431.68	14.853
432.04	14.494
432.39	14.701
432.74	14.029
433.10	14.688
433.45	15.371
433.80	14.782
434.16	14.884
434.51	14.301
434.86	15.114
435.22	15.089
435.57	13.831
435.92	14.185
436.28	14.481
436.63	14.245
436.98	14.204
437.34	14.589
437.69	14.644
438.04	14.407
438.39	14.801
438.75	14.377
439.10	14.103
439.45	13.820
439.81	15.602
440.16	14.764
440.51	15.235
440.86	14.517
441.22	13.875
441.57	14.158
441.92	15.345
442.27	14.989
442.63	14.485
442.98	13.036
443.33	15.266
443.68	14.851
444.03	15.079
444.39	13.950
444.74	14.978
445.09	14.583
445.44	14.012
445.79	14.482
446.15	15.115
446.50	13.664
446.85	14.623
447.20	15.271
447.55	15.470
447.91	14.655
448.26	13.631
448.61	14.997
448.96	14.454
449.31	14.543
449.66	14.539
450.02	14.515
450.37	14.029
450.72	13.898
451.07	15.022
451.42	14.126
451.77	15.560
452.12	14.482
452.47	14.861
452.83	14.386
453.18	14.927
453.53	14.677
453.88	15.251
454.23	13.301
454.58	14.481
454.93	15.239
455.28	14.149
455.63	14.865
455.98	14.819
456.34	13.723
456.69	14.384
457.04	14.813
457.39	14.414
457.74	14.471
458.09	14.791
458.44	15.358
458.79	14.518
459.14	14.832
459.49	14.861
459.84	15.458
460.19	14.320
460.54	14.580
460.89	14.294
461.24	14.633
461.59	14.654
461.94	14.195
462.29	15.128
462.64	14.032
462.99	14.592
463.34	14.180
463.69	13.740
464.04	14.411
464.39	14.456
464.74	14.835
465.09	14.131
465.44	14.439
465.79	15.680
466.14	14.557
466.49	14.680
466.84	15.726
467.19	15.399
467.54	13.418
467.89	14.180
468.24	15.202
468.59	13.554
468.94	13.826
469.29	13.970
469.64	14.892
469.99	15.327
470.34	14.162
470.68	14.898
471.03	15.003
471.38	13.333
471.73	14.825
472.08	13.588
472.43	14.350
472.78	14.267
473.13	13.386
473.48	13.848
473.83	14.764
474.17	15.159
474.52	15.537
474.87	15.501
475.22	14.690
475.57	14.500
475.92	14.255
476.27	14.343
476.61	14.310
476.96	14.645
477.31	14.532
477.66	14.167
478.01	15.343
478.36	14.563
478.70	14.789
479.05	14.765
479.40	14.352
479.75	14.118
480.10	14.633
480.45	14.023
480.79	14.906
481.14	14.350
481.49	15.150
481.84	14.378
482.19	15.258
482.53	14.536
482.88	14.333
483.23	14.883
483.58	14.801
483.92	14.955
484.27	13.779
484.62	14.471
484.97	14.653
485.31	14.016
485.66	14.558
486.01	14.871
486.36	15.345
486.70	15.222
487.05	14.765
487.40	15.465
487.75	14.655
488.09	14.886
488.44	14.242
488.79	14.503
489.13	14.188
489.48	14.478
489.83	14.760
490.17	14.845
490.52	14.674
490.87	14.457
491.22	14.713
491.56	14.491
491.91	13.884
492.26	14.670
492.60	14.367
492.95	14.374
493.30	14.578
493.64	14.104
493.99	14.006
494.34	15.476
494.68	14.841
495.03	14.723
495.37	14.012
495.72	13.752
496.07	14.876
496.41	15.007
496.76	14.703
497.11	15.120
497.45	14.990
497.80	14.457
498.14	14.784
498.49	14.515
498.84	14.563
499.18	14.766
499.53	15.002
499.87	14.044
500.22	14.657
500.56	15.058
500.91	14.975
501.26	15.187
501.60	14.348
501.95	14.928
502.29	14.454
502.64	14.380
502.98	14.183
503.33	14.239
503.67	13.506
504.02	14.679
504.36	14.706
504.71	14.539
505.06	14.079
505.40	14.571
505.75	14.024
506.09	14.762
506.44	15.388
506.78	13.899
507.13	14.264
507.47	15.023
507.82	14.972
508.16	14.922
508.51	14.271
508.85	14.855
509.19	14.495
509.54	14.693
509.88	15.319
510.23	14.727
510.57	14.339
510.92	14.769
511.26	14.407
511.61	14.471
511.95	13.901
512.30	14.458
512.64	13.634
512.98	14.796
513.33	14.333
513.67	14.405
514.02	14.150
514.36	15.125
514.70	14.318
515.05	14.122
515.39	13.956
515.74	14.951
516.08	14.870
516.42	14.618
516.77	15.367
517.11	14.588
517.46	14.833
517.80	14.922
518.14	13.647
518.49	14.764
518.83	13.947
519.17	15.394
519.52	14.228
519.86	15.412
520.20	14.914
520.55	14.523
520.89	14.465
521.23	15.507
521.58	14.357
521.92	15.009
522.26	15.111
522.61	14.322
522.95	15.252
523.29	14.671
523.64	14.616
523.98	14.258
524.32	14.519
524.66	14.472
525.01	14.451
525.35	14.433
525.69	14.509
526.04	14.360
526.38	14.386
526.72	13.857
527.06	14.779
527.41	13.399
527.75	13.795
528.09	14.626
528.43	14.623
528.78	14.384
529.12	16.133
529.46	14.497
529.80	14.461
530.15	15.518
530.49	14.812
530.83	15.128
531.17	14.815
531.51	14.668
531.86	15.273
532.20	14.777
532.54	14.906
532.88	14.559
533.22	13.971
533.57	15.470
533.91	14.295
534.25	14.331
534.59	14.678
534.93	14.561
535.27	14.978
535.62	14.962
535.96	14.286
536.30	14.136
536.64	14.807
536.98	14.619
537.32	14.444
537.66	15.207
538.01	14.089
538.35	15.135
538.69	15.241
539.03	14.963
539.37	14.770
539.71	15.544
540.05	14.668
540.39	14.958
540.73	15.342
541.07	14.959
541.42	14.045
541.76	14.817
542.10	15.868
542.44	15.656
542.78	15.536
543.12	14.596
543.46	15.068
543.80	14.181
544.14	13.566
544.48	15.157
544.82	15.359
545.16	15.560
545.50	14.132
545.84	14.325
546.18	15.257
546.52	14.936
546.86	13.960
547.20	15.331
547.54	14.325
547.88	14.665
548.22	14.024
548.56	13.427
548.90	14.825
549.24	15.207
549.58	15.102
549.92	15.194
550.26	16.040
550.60	14.580
550.94	14.088
551.28	15.049
551.62	14.845
551.96	15.412
552.30	15.122
552.64	14.426
552.98	15.627
553.32	14.791
553.66	15.357
554.00	14.499
554.34	13.141
554.68	14.693
555.02	15.195
555.36	15.025
555.69	15.115
556.03	13.825
556.37	14.794
556.71	15.175
557.05	14.634
557.39	14.625
557.73	15.755
558.07	13.791
558.41	13.837
558.75	15.361
559.08	13.930
559.42	14.548
559.76	14.647
560.10	15.585
560.44	14.668
560.78	14.962
561.12	14.079
561.45	14.932
561.79	15.679
562.13	14.727
562.47	14.496
562.81	14.993
563.15	15.185
563.48	15.411
563.82	15.281
564.16	15.145
564.50	14.247
564.84	15.278
565.17	14.456
565.51	14.863
565.85	15.078
566.19	15.283
566.52	15.525
566.86	14.412
567.20	15.194
567.54	16.480
567.88	14.796
568.21	15.101
568.55	15.323
568.89	15.109
569.23	14.993
569.56	14.544
569.90	15.657
570.24	15.483
570.57	15.079
570.91	15.471
571.25	15.629
571.59	16.141
571.92	16.012
572.26	15.788
572.60	15.669
572.93	15.237
573.27	15.640
573.61	15.085
573.95	15.753
574.28	16.028
574.62	15.608
574.96	15.503
575.29	15.447
575.63	15.636
575.97	15.588
576.30	15.401
576.64	15.901
576.98	15.402
577.31	15.638
577.65	15.701
577.98	15.881
578.32	15.449
578.66	16.007
578.99	15.309
579.33	15.775
579.67	15.496
580.00	15.303
580.34	15.509
580.67	15.371
581.01	15.859
581.35	15.485
581.68	15.630
582.02	15.899
582.35	15.637
582.69	16.180
583.02	15.650
583.36	15.729
583.70	15.259
584.03	15.733
584.37	14.885
584.70	15.464
585.04	15.114
585.37	15.346
585.71	15.360
586.04	15.451
586.38	15.317
586.72	15.614
587.05	15.321
587.39	15.706
587.72	15.423
588.06	15.653
588.39	14.925
588.73	15.570
589.06	16.113
589.40	16.180
589.73	14.943
590.07	15.040
590.40	15.535
590.73	15.474
591.07	15.287
591.40	15.641
591.74	15.639
592.07	14.865
592.41	15.329
592.74	15.796
593.08	16.238
593.41	15.362
593.75	15.232
594.08	15.457
594.41	16.081
594.75	16.270
595.08	16.015
595.42	15.390
595.75	15.619
596.09	15.367
596.42	15.344
596.75	15.351
597.09	15.717
597.42	15.103
597.75	15.190
598.09	15.906
598.42	15.422
598.76	15.033
599.09	15.430
599.42	15.802
599.76	15.402
600.09	15.611
600.42	16.293
600.76	16.121
601.09	15.344
601.42	15.354
601.76	15.421
602.09	15.378
602.42	15.638
602.76	15.039
603.09	15.323
603.42	15.673
603.76	16.195
604.09	16.260
604.42	14.904
604.76	15.177
605.09	15.913
605.42	15.559
605.75	15.610
606.09	15.525
606.42	15.333
606.75	15.457
607.09	15.571
607.42	15.053
607.75	15.320
608.08	15.590
608.42	16.083
608.75	14.579
609.08	15.149
609.41	14.848
609.75	15.748
610.08	16.324
610.41	15.711
610.74	16.248
611.07	15.720
611.41	14.675
611.74	16.504
612.07	14.930
612.40	15.565
612.73	14.863
613.07	14.860
613.40	16.475
613.73	15.531
614.06	14.827
614.39	15.727
614.72	14.804
615.06	15.000
615.39	14.324
615.72	15.372
616.05	15.130
616.38	14.335
616.71	15.676
617.05	15.199
617.38	14.985
617.71	14.926
618.04	15.217
618.37	14.969
618.70	15.841
619.03	15.030
619.36	16.350
619.69	15.363
620.03	14.532
620.36	14.979
620.69	14.788
621.02	15.221
621.35	14.274
621.68	14.262
622.01	14.644
622.34	15.062
622.67	13.984
623.00	15.685
623.33	15.373
623.66	15.066
623.99	15.489
624.32	13.467
624.65	15.600
624.99	14.937
625.32	14.521
625.65	15.152
625.98	13.693
626.31	15.905
626.64	15.732
626.97	14.897
627.30	15.234
627.63	13.040
627.96	14.621
628.29	14.522
628.62	13.181
628.95	14.961
629.28	15.320
629.61	14.328
629.94	13.611
630.26	15.905
630.59	16.382
630.92	14.014
631.25	14.819
631.58	14.074
631.91	14.574
632.24	15.000
632.57	15.333
632.90	14.483
633.23	14.252
633.56	14.620
633.89	15.802
634.22	15.466
634.55	14.784
634.88	14.148
635.20	12.609
635.53	15.140
635.86	12.972
636.19	14.530
636.52	13.978
636.85	12.635
637.18	11.875
637.51	16.357
637.83	13.981
638.16	13.947
638.49	13.655
638.82	12.613
639.15	15.045
639.48	14.008
639.81	14.246
640.13	13.378
640.46	15.812
640.79	14.006
641.12	14.951
641.45	15.065
641.77	13.473
642.10	12.991
642.43	14.112
642.76	14.331
643.09	14.921
643.41	15.238
643.74	14.626
644.07	14.821
644.40	11.994
644.73	14.191
645.05	11.686
645.38	13.411
645.71	14.261
646.04	13.950
646.36	11.344
646.69	13.841
647.02	14.801
647.35	13.538
647.67	13.504
648.00	14.938
648.33	16.526
648.66	11.935
648.98	12.739
649.31	13.231
649.64	12.813
649.96	12.245
650.29	11.803
650.62	14.974
650.94	14.334
651.27	12.305
651.60	13.149
651.92	14.726
652.25	13.689
652.58	11.755
652.90	14.286
653.23	14.355
653.56	12.709
653.88	13.279
654.21	14.597
654.54	14.784
654.86	14.767
655.19	13.467
655.52	15.268
655.84	16.513
656.17	18.334
656.49	25.094
656.82	25.441
657.15	18.903
657.47	14.134
657.80	10.600
658.13	11.628
658.45	15.541
658.78	14.710
659.10	14.695
659.43	14.421
659.75	14.280
660.08	14.740
660.41	13.075
660.73	12.211
661.06	14.638
661.38	13.036
661.71	12.428
662.03	12.500
662.36	11.514
662.68	11.603
663.01	14.862
663.33	13.379
663.66	13.948
663.98	12.723
664.31	12.975
664.63	14.159
664.96	11.063
665.28	11.063
665.61	12.474
665.93	15.638
666.26	13.360
666.58	12.890
666.91	12.472
667.23	15.789
667.56	11.791
667.88	11.538
668.21	11.751
668.53	7.944
668.86	12.009
669.18	13.242
669.50	10.981
669.83	11.436
670.15	14.574
670.48	11.215
670.80	13.895
671.13	12.415
671.45	8.108
671.77	13.062
672.10	14.596
672.42	12.915
672.75	12.545
673.07	12.793
673.39	13.115
673.72	11.614
674.04	12.314
674.37	11.959
674.69	14.344
675.01	11.915
675.34	13.666
675.66	15.551
675.98	13.436
676.31	14.253
676.63	14.023
676.95	11.504
677.28	10.673
677.60	14.253
677.92	14.758
678.25	13.129
678.57	12.757
678.89	10.692
679.22	10.692
679.54	15.187
679.86	13.000
680.18	14.829
680.51	11.732
680.83	14.286
681.15	12.524
681.48	15.619
681.80	11.895
682.12	11.066
682.44	12.574
682.77	9.307
683.09	13.627
683.41	13.938
683.73	13.927
684.06	13.118
684.38	13.180
684.70	12.963
685.02	13.780
685.34	12.476
685.67	12.311
685.99	13.611
686.31	15.978
686.63	13.830
686.96	11.830
687.28	12.717
687.60	14.844
687.92	12.646
688.24	13.976
688.56	14.228
688.89	12.179
689.21	12.691
689.53	13.793
689.85	13.140
690.17	12.556
690.49	14.319
690.82	11.566
691.14	12.500
691.46	14.856
691.78	12.555
692.10	14.831
692.42	12.444
692.74	14.592
693.06	12.809
693.39	14.318
693.71	8.578
694.03	13.391
694.35	10.384
694.67	12.766
694.99	9.719
695.31	11.990
695.63	9.694
695.95	11.663
696.27	15.212
696.59	11.497
696.91	10.674
697.23	10.417
697.56	8.654
697.88	11.036
698.20	13.704
698.52	10.090
698.84	14.078
699.16	11.905
699.48	11.000
699.80	12.281
700.12	12.343
700.44	8.659
700.76	9.621
701.08	12.500
701.40	6.949
701.72	9.568
702.04	12.179
702.36	14.157
702.68	9.281
703.00	10.145
703.32	8.309
703.64	16.765
703.96	11.047
704.28	11.538
704.60	6.329
704.91	6.984
705.23	12.621
705.55	10.811
705.87	9.898
706.19	7.639
706.51	14.931
706.83	14.754
707.15	11.783
707.47	13.223
707.79	10.052
708.11	10.433
708.43	15.960
708.74	8.571
709.06	13.092
709.38	11.782
709.70	10.312
710.02	15.337
710.34	8.911
710.66	12.698
710.98	14.511
711.29	10.645
711.61	13.099
711.93	8.525
712.25	12.292
712.57	11.150
712.89	12.950
713.20	15.808
713.52	10.448
713.84	12.811
714.16	13.443
714.48	12.381
714.80	11.077
715.11	12.104
715.43	12.952
715.75	18.069
716.07	8.525
716.39	13.043
716.70	12.195
717.02	10.000
717.34	12.214
717.66	9.129
717.97	10.246
718.29	5.882
718.61	12.698
718.93	12.545
719.24	9.191
719.56	11.321
719.88	15.273
720.20	9.363
720.51	9.774
720.83	11.245
721.15	12.705
721.46	10.196
721.78	12.644
722.10	10.400
722.42	6.612
722.73	11.554
723.05	8.835
723.37	14.902
723.68	10.931
724.00	15.447
724.32	11.523
724.63	7.884
724.95	11.157
725.27	9.211
725.58	12.500
725.90	5.159
726.22	15.867
726.53	14.829
726.85	3.922
727.16	12.782
727.48	8.846
727.80	3.689
728.11	10.084
728.43	9.917
728.74	14.062
729.06	11.364
729.38	7.004
729.69	9.449
730.01	7.480
730.32	7.171
730.64	12.821
730.96	13.060
731.27	13.571
731.59	13.505
731.90	11.350
732.22	12.883
732.53	14.570
732.85	11.409
733.16	13.043
733.48	9.756
733.80	12.456
734.11	8.276
734.43	11.905
734.74	14.540
735.06	10.345
735.37	10.703
735.69	8.387
736.00	9.091
736.32	10.265
736.63	9.655
736.95	10.870
737.26	12.583
737.58	9.712
737.89	19.355
738.21	7.143
738.52	17.692
738.83	12.109
739.15	11.111
739.46	14.113
739.78	12.587
740.09	12.937
740.41	12.587
740.72	14.599
741.04	7.143
741.35	7.359
741.66	16.204
741.98	6.190
742.29	17.840
742.61	7.487
742.92	12.617
743.23	7.018
743.55	13.514
743.86	17.333
744.18	8.095
744.49	14.778
744.80	13.198
745.12	7.216
745.43	11.055
745.74	8.252
746.06	12.195
746.37	15.859
746.68	14.428
747.00	14.660
747.31	6.250
747.62	13.364
747.94	11.790
748.25	11.628
748.56	7.619
748.88	1.630
749.19	13.615
749.50	14.706
749.82	11.556
750.13	16.300
750.44	8.943
750.75	12.000
751.07	10.714
751.38	12.177
751.69	10.687
752.01	12.308
752.32	4.280
752.63	5.385
752.94	7.540
753.26	9.565
753.57	16.518
753.88	10.776
754.19	6.224
754.51	5.078
754.82	9.881
755.13	11.523
755.44	13.636
755.75	9.465
756.07	1.205
756.38	12.500
756.69	12.635
757.00	8.711
757.31	14.094
757.63	15.576
757.94	12.139
758.25	16.860
758.56	15.633
758.87	9.943
759.18	9.000
759.50	13.879
759.81	8.029
760.12	12.162
760.43	12.621
760.74	17.188
761.05	12.640
761.36	13.772
761.67	16.272
761.99	9.032
762.30	13.043
762.61	8.302
762.92	13.901
763.23	12.322
763.54	9.333
763.85	15.190
764.16	13.878
764.47	13.559
764.78	13.483
765.10	15.827
765.41	11.935
765.72	15.723
766.03	8.127
766.34	11.654
766.65	9.312
766.96	8.500
767.27	8.854
767.58	5.233
767.89	10.968
768.20	12.270
768.51	8.743
768.82	11.351
769.13	8.000
769.44	10.526
769.75	12.554
770.06	18.807
770.37	8.920
770.68	8.854
770.99	11.386
771.30	12.136
771.61	10.648
771.92	7.792
772.23	12.617
772.54	14.894
772.85	5.325
773.16	14.024
773.47	12.651
773.78	10.989
774.09	7.333
774.39	13.580
774.70	8.054
775.01	9.420
775.32	5.224
775.63	5.785
775.94	18.797
776.25	8.571
776.56	4.918
776.87	10.619
777.18	0.000
777.48	-4.545
777.79	1.739
778.10	6.422
778.41	6.780
778.72	5.785
779.03	7.463
779.34	7.519
779.65	7.843
779.95	8.696
780.26	9.524
780.57	-1.724
780.88	7.407
781.19	0.000
781.50	-4.000
781.80	15.686
782.11	5.769
782.42	8.434
782.73	3.650
783.04	15.541
783.34	6.061
783.65	11.628
783.96	10.569
784.27	2.564
784.57	8.130
784.88	10.569
785.19	7.018
785.50	-5.155
785.81	-6.667
786.11	2.941
786.42	-3.636
786.73	9.910
787.04	21.782
787.34	7.619
787.65	4.762
787.96	4.902
788.26	14.414
788.57	17.742
788.88	7.812
789.19	7.692
789.49	7.563
789.80	2.564
790.11	14.159
790.41	13.131
790.72	5.660
791.03	-8.333
791.33	-2.632
791.64	-1.075
791.95	2.667
792.25	-5.714
792.56	-6.098
792.87	14.286
793.17	5.263
793.48	-8.108
793.79	-1.408
794.09	-6.329
794.40	10.638
794.70	6.542
795.01	-13.158
795.32	10.909
795.62	9.821
795.93	8.247
796.23	-6.593
796.54	7.368
796.85	1.370
797.15	-8.333
797.46	15.068
797.76	0.000
798.07	1.250
798.37	16.176
798.68	14.286
798.99	1.429
799.29	3.947
799.60	13.333
799.90	-12.500
800.21	-25.000
800.51	3.175
800.82	-6.557
801.12	-14.035
801.43	-15.493
801.73	-1.695
802.04	-4.918
802.34	-1.818
802.65	1.923
802.95	1.852
803.26	-30.000
803.56	-5.769
803.87	-34.211
804.17	4.839
804.48	-7.692
804.78	-10.256
805.09	-18.605
805.39	-31.250
805.70	-18.868
806.00	21.053
806.30	22.973
806.61	2.941
806.91	4.938
807.22	-4.000
807.52	0.000
807.83	-12.903
808.13	-4.762
808.43	-9.091
808.74	-10.606
809.04	-1.887
809.35	5.479
809.65	7.018
809.95	11.765
810.26	3.922
810.56	-18.000
810.86	-14.286
811.17	-40.000
811.47	-5.769
811.77	-29.032
812.08	-73.684
812.38	-2.381
812.69	-32.609
812.99	-22.581
813.29	-11.905
813.59	-85.185
813.90	-17.021
814.20	-25.581
814.50	-10.417
814.81	1.667
815.11	-12.195
815.41	-30.000
815.72	-5.714
816.02	-30.556
816.32	-15.385
816.62	8.108
816.93	-76.471
817.23	-4.348
817.53	-35.294
817.84	-14.706
818.14	-31.250
818.44	-27.586
818.74	-41.935
819.04	-44.444
819.35	-33.333
819.65	-36.000
819.95	-56.667
820.25	-24.000
820.56	-36.842
820.86	-22.500
821.16	-4.255
821.46	6.897
821.76	-20.513
822.07	-20.000
822.37	-27.907
822.67	-43.333
822.97	-27.027
823.27	-18.919
823.57	-20.000
823.88	-13.514
824.18	-66.667
824.48	-42.308
824.78	-169.231
825.08	-52.174
825.38	-33.333
825.69	-33.333
825.99	-75.000
826.29	-35.135
826.59	-5.882
826.89	-28.000
827.19	-14.286
827.49	10.526
827.79	-40.625
828.09	-20.000
828.39	-4.348
828.70	-31.034
829.00	-31.034
829.30	-38.889
829.60	15.625
829.90	-27.778
830.20	-46.154
830.50	-33.333
830.80	-32.143
831.10	25.641
831.40	-52.381
831.70	-32.353
832.00	-37.500
832.30	-100.000
832.60	-50.000
832.90	-116.667
833.20	-88.235
833.50	-113.333
833.80	-53.333
834.10	-40.000
834.40	-50.000
834.70	0.000
835.00	-26.923
835.30	-58.333
835.60	-13.793
835.90	-22.222
836.20	-172.727
836.50	-91.667
836.80	-11.429
837.10	31.429
837.40	-76.471
837.70	-127.273
838.00	-29.167
838.30	-50.000
838.60	-47.619
838.90	0.000
839.19	-47.826
839.49	13.043
839.79	-72.222
840.09	-82.609
840.39	-31.818
840.69	-100.000
840.99	-42.105
841.29	-25.000
841.59	-78.571
841.88	-44.444
842.18	-45.833
842.48	-123.529
842.78	-20.690
843.08	21.429
843.38	-61.538
843.68	-77.778
843.97	-92.308
844.27	-90.909
844.57	-260.000
844.87	-20.000
845.17	-120.000
845.47	-128.571
845.76	-22.222
846.06	0.000
846.36	-475.000
846.66	-160.000
846.96	-52.632
847.25	-25.000
847.55	-133.333
847.85	-53.333
848.15	-170.000
848.44	30.769
848.74	-26.316
849.04	833.333
849.34	-111.111
849.63	-105.263
849.93	0.000
850.23	-35.000
850.53	-23.810
850.82	-32.000
851.12	-5.263
851.42	-1500.000
851.71	-64.286
852.01	-83.333
852.31	-76.471
852.61	-53.333
852.90	-71.429
853.20	-216.667
853.50	-27.778
853.79	-42.105
854.09	-20.000
854.39	-21.429
854.68	-73.913
854.98	-108.333
855.28	10.345
855.57	-75.000
855.87	-65.000
856.17	-126.667
856.46	-41.379
856.76	-13.333
857.05	-100.000
857.35	-169.231
857.65	-27.273
857.94	-3.704
858.24	-50.000
858.53	-135.714
858.83	-116.667
859.13	-211.111
859.42	61.905
859.72	-137.500
860.01	-200.000
860.31	-175.000
860.60	-260.000
860.90	-133.333
861.20	-262.500
861.49	-228.571
861.79	-11.765
862.08	-650.000
862.38	-166.667
862.67	-84.615
862.97	-35.294
863.26	10.000
863.56	-29.412
863.85	400.000
864.15	-70.000
864.44	-61.538
864.74	-10.000
865.03	-200.000
865.33	-183.333
865.62	-47.059
865.92	-450.000
866.21	-128.571
866.51	-75.000
866.80	-1100.000
867.10	-533.333
867.39	-29.412
867.69	30.435
867.98	0.000
868.27	-320.000
868.57	-62.500
868.86	-136.364
869.16	-35.294
869.45	-100.000
869.75	-257.143
870.04	1200.000
870.33	-50.000
870.63	-120.000
870.92	-22.222
871.22	-75.000
871.51	90.909
871.80	16.667
872.10	0.000
>>>>>End Processed Spectral Data<<<<<
