SpectraSuite Data File
++++++++++++++++++++++++++++++++++++
Date: Sat May 16 11:32:15 PDT 2015
User: schluterlab
Dark Spectrum Present: Yes
Reference Spectrum Present: Yes
Number of Sampled Component Spectra: 1
Spectrometers: USB2E3373
Integration Time (usec): 3000 (USB2E3373)
Spectra Averaged: 3 (USB2E3373)
Boxcar Smoothing: 0 (USB2E3373)
Correct for Electrical Dark: No (USB2E3373)
Strobe/Lamp Enabled: No (USB2E3373)
Correct for Detector Non-linearity: No (USB2E3373)
Correct for Stray Light: No (USB2E3373)
Number of Pixels in Processed Spectrum: 2048
>>>>>Begin Processed Spectral Data<<<<<
178.53	0.000
178.91	146.667
179.29	433.333
179.67	-1100.000
180.04	0.000
180.42	-0.000
180.80	325.000
181.18	450.000
181.56	-75.000
181.94	100.000
182.31	450.000
182.69	-46.154
183.07	-466.667
183.45	1500.000
183.83	533.333
184.20	-100.000
184.58	-87.500
184.96	-125.000
185.34	137.500
185.72	-600.000
186.09	216.667
186.47	-125.000
186.85	-150.000
187.23	25.000
187.61	-50.000
187.98	-312.500
188.36	-12.500
188.74	-100.000
189.12	1600.000
189.49	385.714
189.87	-16.667
190.25	600.000
190.63	-100.000
191.00	-244.444
191.38	180.000
191.76	13.333
192.14	520.000
192.51	-300.000
192.89	-366.667
193.27	0.000
193.65	-244.444
194.02	-271.429
194.40	633.333
194.78	-30.000
195.15	-1800.000
195.53	-118.182
195.91	-416.667
196.29	160.000
196.66	-633.333
197.04	1200.000
197.42	-250.000
197.79	33.333
198.17	-566.667
198.55	-950.000
198.92	-1800.000
199.30	375.000
199.68	-650.000
200.05	-200.000
200.43	-266.667
200.81	-1300.000
201.18	-108.333
201.56	257.143
201.94	-26.667
202.31	45.455
202.69	30.000
203.07	-70.000
203.44	433.333
203.82	-233.333
204.19	-300.000
204.57	-175.000
204.95	-1800.000
205.32	-12.500
205.70	1100.000
206.08	-800.000
206.45	-22.222
206.83	-850.000
207.20	-150.000
207.58	-700.000
207.96	-466.667
208.33	-162.500
208.71	-188.889
209.08	270.000
209.46	-185.714
209.84	1050.000
210.21	0.000
210.59	15.000
210.96	1400.000
211.34	-316.667
211.71	-600.000
212.09	300.000
212.46	1100.000
212.84	-3000.000
213.22	900.000
213.59	141.667
213.97	-77.778
214.34	170.000
214.72	-90.000
215.09	-300.000
215.47	-216.667
215.84	-90.000
216.22	-110.000
216.59	-6.667
216.97	-525.000
217.34	850.000
217.72	-157.143
218.09	-300.000
218.47	-171.429
218.84	185.714
219.22	-171.429
219.59	0.000
219.97	314.286
220.34	250.000
220.72	412.500
221.09	-107.692
221.47	0.000
221.84	366.667
222.22	-250.000
222.59	500.000
222.97	-300.000
223.34	-850.000
223.72	-566.667
224.09	-28.571
224.46	-175.000
224.84	-57.143
225.21	-142.857
225.59	-109.091
225.96	-200.000
226.34	-142.857
226.71	-111.111
227.08	-10.000
227.46	1800.000
227.83	-242.857
228.21	-187.500
228.58	700.000
228.95	-56.250
229.33	-2100.000
229.70	-400.000
230.08	-1050.000
230.45	-116.667
230.82	-250.000
231.20	-1500.000
231.57	-900.000
231.95	1400.000
232.32	-38.095
232.69	-177.778
233.07	-300.000
233.44	-1500.000
233.81	-80.000
234.19	-122.222
234.56	-106.250
234.93	9.375
235.31	-314.286
235.68	-107.143
236.05	-105.882
236.43	-95.455
236.80	-22.581
237.17	-50.000
237.55	-100.000
237.92	-109.091
238.29	-20.000
238.67	-11.765
239.04	-30.556
239.41	-35.484
239.79	-58.974
240.16	-35.714
240.53	-30.909
240.91	-5.128
241.28	0.000
241.65	-10.769
242.02	-6.557
242.40	-16.393
242.77	-24.242
243.14	-20.339
243.51	-15.714
243.89	-27.848
244.26	-4.494
244.63	-6.316
245.00	-11.579
245.38	-5.932
245.75	-7.080
246.12	-4.800
246.49	-7.874
246.87	-11.382
247.24	-11.017
247.61	-16.102
247.98	-2.817
248.36	-12.587
248.73	-1.899
249.10	-8.917
249.47	-4.094
249.84	-3.409
250.22	-17.857
250.59	-3.390
250.96	-8.901
251.33	1.422
251.70	-3.365
252.08	-4.739
252.45	-10.900
252.82	-10.000
253.19	-2.979
253.56	-4.435
253.94	-3.797
254.31	-2.146
254.68	-5.285
255.05	-3.629
255.42	-5.159
255.79	-2.151
256.16	1.569
256.54	-3.309
256.91	-6.061
257.28	-7.326
257.65	-1.773
258.02	-1.887
258.39	-3.010
258.76	-3.716
259.14	-1.852
259.51	-2.623
259.88	1.220
260.25	0.311
260.62	-6.752
260.99	-2.967
261.36	-4.573
261.73	-3.468
262.10	-0.278
262.47	-0.855
262.85	1.143
263.22	-2.579
263.59	-7.077
263.96	-1.159
264.33	-0.542
264.70	-1.657
265.07	-2.198
265.44	-3.359
265.81	-2.584
266.18	-3.038
266.55	-3.922
266.92	-2.267
267.29	-1.211
267.66	-3.210
268.03	0.725
268.40	-1.408
268.77	-1.928
269.14	-1.392
269.51	-0.690
269.88	-3.440
270.25	-3.263
270.62	-2.288
270.99	-1.351
271.36	-1.632
271.73	-1.121
272.10	-1.144
272.47	-3.778
272.84	-0.667
273.21	-0.459
273.58	-0.659
273.95	-0.219
274.32	-2.715
274.69	-1.532
275.06	-1.431
275.43	-4.241
275.80	-1.833
276.17	-0.418
276.54	2.037
276.91	-1.235
277.28	-2.434
277.65	-1.240
278.02	-3.132
278.39	-0.589
278.76	-0.398
279.13	-0.395
279.50	-0.596
279.87	-1.057
280.23	0.000
280.60	-2.783
280.97	-1.359
281.34	-1.354
281.71	0.385
282.08	-3.226
282.45	-4.073
282.82	-4.070
283.19	-0.909
283.56	1.099
283.92	0.177
284.29	-2.602
284.66	-2.878
285.03	1.070
285.40	0.185
285.77	-1.930
286.14	-1.986
286.51	-1.776
286.87	0.544
287.24	-0.853
287.61	0.165
287.98	-3.466
288.35	-0.496
288.72	-2.547
289.08	-2.203
289.45	0.673
289.82	-2.768
290.19	-1.149
290.56	-2.314
290.93	-1.590
291.29	-2.917
291.66	-1.127
292.03	-0.942
292.40	0.151
292.77	0.000
293.13	-1.138
293.50	-1.634
293.87	-1.380
294.24	-0.905
294.60	-2.424
294.97	0.759
295.34	-0.593
295.71	-0.893
296.08	-2.919
296.44	-0.715
296.81	-0.570
297.18	-1.549
297.55	-0.424
297.91	-1.116
298.28	-0.548
298.65	-1.953
299.02	-0.802
299.38	-1.471
299.75	-0.136
300.12	-0.256
300.48	0.256
300.85	-0.786
301.22	-0.259
301.59	-0.390
301.95	1.511
302.32	-0.913
302.69	0.000
303.05	-1.587
303.42	0.250
303.79	-1.316
304.15	0.000
304.52	0.000
304.89	-0.354
305.25	-1.099
305.62	-1.645
305.99	0.353
306.35	0.888
306.72	0.000
307.09	0.908
307.45	1.022
307.82	0.112
308.19	-0.559
308.55	0.654
308.92	0.430
309.29	0.000
309.65	0.742
310.02	0.972
310.38	-0.324
310.75	1.537
311.12	1.033
311.48	1.357
311.85	2.575
312.22	1.957
312.58	1.831
312.95	1.325
313.31	1.299
313.68	2.513
314.05	2.275
314.41	1.509
314.78	0.400
315.14	2.962
315.51	3.242
315.87	2.420
316.24	3.110
316.61	3.551
316.97	4.577
317.34	2.794
317.70	2.505
318.07	3.638
318.43	4.494
318.80	6.573
319.16	3.846
319.53	4.793
319.89	4.892
320.26	6.078
320.62	4.712
320.99	5.970
321.35	5.025
321.72	5.322
322.08	6.825
322.45	4.059
322.81	6.340
323.18	6.916
323.54	8.872
323.91	8.156
324.27	7.510
324.64	7.678
325.00	9.773
325.37	9.231
325.73	10.149
326.10	7.263
326.46	8.757
326.83	9.787
327.19	10.926
327.56	11.244
327.92	10.705
328.29	10.996
328.65	10.727
329.01	11.042
329.38	13.113
329.74	12.821
330.11	13.418
330.47	12.534
330.84	13.291
331.20	12.906
331.56	13.765
331.93	13.766
332.29	14.338
332.66	13.608
333.02	14.118
333.38	14.247
333.75	14.871
334.11	14.756
334.48	14.828
334.84	15.748
335.20	15.426
335.57	14.801
335.93	17.637
336.29	14.526
336.66	14.097
337.02	15.946
337.38	14.884
337.75	15.364
338.11	15.474
338.47	14.947
338.84	14.701
339.20	16.257
339.56	16.043
339.93	14.815
340.29	15.766
340.65	15.472
341.02	16.358
341.38	15.670
341.74	16.427
342.11	14.676
342.47	17.082
342.83	14.106
343.20	16.311
343.56	14.939
343.92	16.778
344.28	16.484
344.65	15.182
345.01	17.143
345.37	16.113
345.73	14.975
346.10	13.737
346.46	16.978
346.82	14.595
347.19	14.544
347.55	15.249
347.91	16.220
348.27	15.911
348.63	15.670
349.00	15.752
349.36	15.222
349.72	16.879
350.08	16.680
350.45	15.918
350.81	17.197
351.17	15.997
351.53	16.786
351.89	14.875
352.26	15.814
352.62	16.667
352.98	16.930
353.34	16.387
353.70	16.139
354.07	16.522
354.43	15.810
354.79	16.086
355.15	16.773
355.51	15.547
355.87	15.810
356.24	16.362
356.60	17.566
356.96	16.320
357.32	16.469
357.68	16.475
358.04	15.550
358.40	15.623
358.77	17.311
359.13	16.756
359.49	16.780
359.85	16.463
360.21	17.275
360.57	16.566
360.93	16.667
361.29	17.489
361.66	16.921
362.02	16.716
362.38	17.241
362.74	16.850
363.10	17.432
363.46	18.234
363.82	17.857
364.18	17.583
364.54	18.942
364.90	16.841
365.26	16.762
365.62	18.033
365.98	18.492
366.35	16.831
366.71	17.829
367.07	17.855
367.43	19.218
367.79	18.557
368.15	18.208
368.51	19.231
368.87	19.437
369.23	18.246
369.59	18.681
369.95	18.605
370.31	19.269
370.67	17.570
371.03	19.971
371.39	18.600
371.75	18.884
372.11	19.512
372.47	19.450
372.83	19.471
373.19	19.214
373.55	19.916
373.91	19.061
374.27	19.370
374.63	20.152
374.99	19.819
375.35	20.458
375.71	20.527
376.07	20.534
376.42	19.404
376.78	21.242
377.14	21.220
377.50	20.567
377.86	19.896
378.22	20.038
378.58	20.568
378.94	21.147
379.30	22.486
379.66	22.404
380.02	21.628
380.38	21.994
380.74	21.981
381.09	22.320
381.45	22.613
381.81	21.658
382.17	22.118
382.53	22.675
382.89	22.967
383.25	23.600
383.61	22.818
383.97	23.393
384.32	23.717
384.68	23.881
385.04	23.430
385.40	23.615
385.76	23.780
386.12	23.423
386.48	24.196
386.83	23.804
387.19	24.626
387.55	24.712
387.91	24.363
388.27	24.487
388.62	24.459
388.98	24.167
389.34	24.908
389.70	24.239
390.06	24.301
390.42	25.833
390.77	24.858
391.13	25.963
391.49	26.201
391.85	25.312
392.20	24.879
392.56	25.779
392.92	24.872
393.28	26.119
393.64	25.316
393.99	25.785
394.35	25.547
394.71	25.633
395.07	26.428
395.42	25.328
395.78	25.581
396.14	26.542
396.50	26.728
396.85	26.465
397.21	25.942
397.57	26.383
397.92	25.878
398.28	26.778
398.64	26.294
399.00	27.584
399.35	26.888
399.71	26.945
400.07	26.328
400.42	26.764
400.78	26.535
401.14	26.347
401.49	26.061
401.85	26.297
402.21	26.520
402.57	26.699
402.92	26.180
403.28	26.716
403.63	25.584
403.99	27.160
404.35	26.510
404.70	26.097
405.06	27.220
405.42	27.429
405.77	26.527
406.13	27.144
406.49	26.783
406.84	27.594
407.20	27.208
407.55	27.232
407.91	26.425
408.27	27.145
408.62	27.240
408.98	27.471
409.34	26.996
409.69	27.032
410.05	27.047
410.40	26.609
410.76	26.675
411.11	26.808
411.47	27.046
411.83	27.445
412.18	27.351
412.54	26.785
412.89	27.217
413.25	26.446
413.60	26.792
413.96	27.049
414.31	27.462
414.67	26.413
415.03	28.590
415.38	28.692
415.74	26.804
416.09	26.662
416.45	26.720
416.80	26.528
417.16	27.641
417.51	28.759
417.87	27.508
418.22	27.497
418.58	27.471
418.93	28.265
419.29	28.733
419.64	27.450
420.00	28.919
420.35	28.681
420.71	28.331
421.06	28.757
421.42	27.459
421.77	28.811
422.12	28.651
422.48	27.900
422.83	29.271
423.19	28.285
423.54	28.357
423.90	28.398
424.25	29.525
424.61	29.252
424.96	29.549
425.31	28.955
425.67	29.456
426.02	28.629
426.38	31.216
426.73	28.872
427.09	30.025
427.44	29.148
427.79	29.012
428.15	30.880
428.50	30.264
428.85	29.976
429.21	29.552
429.56	31.198
429.92	30.261
430.27	30.259
430.62	30.408
430.98	30.737
431.33	30.470
431.68	31.528
432.04	31.337
432.39	31.225
432.74	31.775
433.10	30.501
433.45	30.340
433.80	31.243
434.16	31.166
434.51	31.507
434.86	32.396
435.22	31.236
435.57	31.579
435.92	31.477
436.28	32.285
436.63	31.034
436.98	30.985
437.34	31.542
437.69	32.614
438.04	32.445
438.39	32.912
438.75	31.432
439.10	32.149
439.45	32.408
439.81	33.494
440.16	32.311
440.51	32.941
440.86	33.141
441.22	31.343
441.57	33.211
441.92	32.583
442.27	33.712
442.63	32.672
442.98	32.562
443.33	33.224
443.68	33.768
444.03	33.841
444.39	31.963
444.74	33.535
445.09	33.662
445.44	33.089
445.79	34.727
446.15	33.297
446.50	33.478
446.85	33.556
447.20	33.299
447.55	34.530
447.91	34.643
448.26	33.743
448.61	32.881
448.96	34.678
449.31	33.540
449.66	34.860
450.02	33.463
450.37	34.029
450.72	33.672
451.07	33.815
451.42	33.395
451.77	35.428
452.12	34.684
452.47	33.816
452.83	34.770
453.18	34.851
453.53	33.706
453.88	35.646
454.23	33.736
454.58	35.550
454.93	35.579
455.28	35.373
455.63	34.398
455.98	36.265
456.34	34.371
456.69	34.772
457.04	33.374
457.39	33.911
457.74	35.854
458.09	34.745
458.44	36.085
458.79	34.809
459.14	35.368
459.49	35.050
459.84	33.614
460.19	34.427
460.54	35.027
460.89	35.314
461.24	34.912
461.59	35.229
461.94	35.201
462.29	35.021
462.64	35.112
462.99	36.011
463.34	34.841
463.69	36.132
464.04	34.505
464.39	35.066
464.74	35.816
465.09	34.756
465.44	35.477
465.79	36.323
466.14	35.386
466.49	35.233
466.84	36.194
467.19	35.910
467.54	34.367
467.89	37.176
468.24	35.451
468.59	36.040
468.94	36.206
469.29	35.218
469.64	35.243
469.99	35.922
470.34	35.939
470.68	36.410
471.03	36.407
471.38	36.111
471.73	36.923
472.08	36.680
472.43	35.393
472.78	36.800
473.13	35.255
473.48	37.269
473.83	36.042
474.17	36.815
474.52	36.893
474.87	36.713
475.22	35.929
475.57	35.833
475.92	36.555
476.27	36.114
476.61	36.338
476.96	36.780
477.31	36.114
477.66	37.078
478.01	36.683
478.36	35.987
478.70	36.572
479.05	36.668
479.40	35.907
479.75	37.105
480.10	36.210
480.45	35.735
480.79	36.377
481.14	36.879
481.49	36.689
481.84	36.847
482.19	36.958
482.53	36.458
482.88	36.592
483.23	36.573
483.58	37.280
483.92	37.793
484.27	36.420
484.62	37.106
484.97	35.931
485.31	35.968
485.66	34.594
486.01	35.496
486.36	36.035
486.70	37.305
487.05	35.904
487.40	36.699
487.75	36.159
488.09	36.350
488.44	36.096
488.79	35.479
489.13	36.250
489.48	36.582
489.83	37.293
490.17	36.221
490.52	37.047
490.87	36.536
491.22	36.712
491.56	36.435
491.91	37.691
492.26	37.500
492.60	36.679
492.95	37.268
493.30	38.018
493.64	36.765
493.99	37.715
494.34	36.952
494.68	38.390
495.03	37.046
495.37	36.234
495.72	36.886
496.07	37.635
496.41	37.749
496.76	37.945
497.11	36.505
497.45	37.883
497.80	37.369
498.14	38.802
498.49	37.720
498.84	37.476
499.18	38.353
499.53	38.091
499.87	36.438
500.22	36.471
500.56	37.669
500.91	37.291
501.26	38.428
501.60	37.217
501.95	38.599
502.29	37.034
502.64	37.671
502.98	37.949
503.33	38.205
503.67	37.452
504.02	37.566
504.36	38.333
504.71	37.133
505.06	37.444
505.40	37.625
505.75	38.465
506.09	38.069
506.44	38.296
506.78	38.234
507.13	37.127
507.47	39.176
507.82	38.823
508.16	38.705
508.51	38.485
508.85	38.665
509.19	37.886
509.54	38.584
509.88	38.245
510.23	38.155
510.57	38.624
510.92	39.098
511.26	38.596
511.61	38.013
511.95	37.662
512.30	38.318
512.64	37.563
512.98	38.559
513.33	38.825
513.67	38.247
514.02	37.640
514.36	39.668
514.70	38.823
515.05	39.565
515.39	38.754
515.74	40.721
516.08	39.135
516.42	39.773
516.77	40.208
517.11	39.359
517.46	40.730
517.80	40.794
518.14	39.734
518.49	39.450
518.83	39.228
519.17	40.261
519.52	39.734
519.86	40.980
520.20	40.220
520.55	39.385
520.89	40.200
521.23	40.232
521.58	40.940
521.92	40.849
522.26	39.937
522.61	39.544
522.95	39.630
523.29	40.188
523.64	38.726
523.98	39.656
524.32	38.718
524.66	39.938
525.01	40.013
525.35	40.271
525.69	40.273
526.04	39.948
526.38	40.611
526.72	39.527
527.06	41.081
527.41	40.330
527.75	39.802
528.09	40.635
528.43	40.787
528.78	40.452
529.12	41.165
529.46	40.528
529.80	41.059
530.15	40.309
530.49	39.780
530.83	40.341
531.17	39.731
531.51	40.322
531.86	39.500
532.20	41.228
532.54	40.909
532.88	38.340
533.22	40.307
533.57	40.731
533.91	39.139
534.25	39.409
534.59	39.975
534.93	39.017
535.27	40.843
535.62	39.834
535.96	40.078
536.30	39.136
536.64	40.438
536.98	40.890
537.32	38.493
537.66	40.326
538.01	40.275
538.35	40.811
538.69	40.107
539.03	39.743
539.37	40.985
539.71	39.693
540.05	40.439
540.39	41.482
540.73	41.120
541.07	40.505
541.42	39.298
541.76	38.738
542.10	40.041
542.44	40.173
542.78	39.756
543.12	40.530
543.46	39.041
543.80	39.197
544.14	39.960
544.48	40.617
544.82	41.272
545.16	41.382
545.50	39.973
545.84	40.334
546.18	40.569
546.52	40.896
546.86	41.595
547.20	39.944
547.54	39.187
547.88	39.947
548.22	39.450
548.56	39.345
548.90	40.566
549.24	42.397
549.58	40.155
549.92	39.929
550.26	39.451
550.60	39.972
550.94	39.708
551.28	39.278
551.62	40.916
551.96	41.534
552.30	39.652
552.64	40.324
552.98	40.575
553.32	40.476
553.66	41.240
554.00	40.796
554.34	39.856
554.68	39.985
555.02	40.449
555.36	40.906
555.69	39.900
556.03	39.789
556.37	40.469
556.71	41.661
557.05	39.690
557.39	40.460
557.73	41.794
558.07	39.563
558.41	40.314
558.75	40.913
559.08	40.000
559.42	41.424
559.76	41.181
560.10	41.536
560.44	41.040
560.78	40.501
561.12	40.166
561.45	40.137
561.79	40.697
562.13	40.112
562.47	39.496
562.81	40.736
563.15	40.168
563.48	39.530
563.82	39.689
564.16	40.771
564.50	40.793
564.84	40.741
565.17	40.318
565.51	39.961
565.85	41.717
566.19	41.765
566.52	39.530
566.86	39.633
567.20	40.375
567.54	40.402
567.88	39.140
568.21	41.051
568.55	39.183
568.89	39.115
569.23	39.056
569.56	39.050
569.90	38.120
570.24	39.083
570.57	38.067
570.91	38.354
571.25	38.003
571.59	38.089
571.92	38.036
572.26	37.627
572.60	37.450
572.93	36.668
573.27	38.079
573.61	36.134
573.95	37.626
574.28	36.950
574.62	38.129
574.96	36.914
575.29	37.348
575.63	37.616
575.97	36.731
576.30	37.490
576.64	37.467
576.98	36.701
577.31	37.092
577.65	36.949
577.98	36.973
578.32	37.213
578.66	37.851
578.99	36.948
579.33	36.850
579.67	37.560
580.00	36.632
580.34	36.546
580.67	37.534
581.01	36.609
581.35	36.545
581.68	36.908
582.02	37.195
582.35	36.941
582.69	37.855
583.02	38.108
583.36	37.369
583.70	37.916
584.03	37.689
584.37	37.943
584.70	37.298
585.04	36.456
585.37	36.874
585.71	37.107
586.04	37.741
586.38	37.584
586.72	37.768
587.05	38.148
587.39	37.039
587.72	37.988
588.06	37.689
588.39	37.767
588.73	37.779
589.06	38.107
589.40	37.891
589.73	37.712
590.07	38.711
590.40	38.266
590.73	38.185
591.07	37.623
591.40	38.432
591.74	38.271
592.07	39.414
592.41	38.556
592.74	37.932
593.08	37.453
593.41	37.895
593.75	37.652
594.08	39.432
594.41	38.484
594.75	38.052
595.08	38.496
595.42	38.114
595.75	37.964
596.09	38.029
596.42	39.034
596.75	38.292
597.09	39.715
597.42	38.673
597.75	38.751
598.09	38.409
598.42	38.268
598.76	37.957
599.09	38.635
599.42	37.562
599.76	38.354
600.09	38.626
600.42	38.473
600.76	38.079
601.09	38.473
601.42	38.069
601.76	37.928
602.09	38.282
602.42	38.025
602.76	37.765
603.09	38.629
603.42	38.678
603.76	38.492
604.09	38.366
604.42	38.218
604.76	37.636
605.09	39.195
605.42	39.007
605.75	38.896
606.09	38.937
606.42	38.039
606.75	38.815
607.09	38.333
607.42	38.820
607.75	38.322
608.08	39.494
608.42	39.830
608.75	37.757
609.08	38.578
609.41	38.565
609.75	38.225
610.08	38.284
610.41	39.181
610.74	38.685
611.07	39.148
611.41	37.468
611.74	38.715
612.07	39.796
612.40	39.232
612.73	38.126
613.07	38.195
613.40	39.464
613.73	39.564
614.06	38.880
614.39	40.304
614.72	38.827
615.06	38.315
615.39	38.633
615.72	38.946
616.05	39.150
616.38	39.466
616.71	39.099
617.05	39.686
617.38	39.690
617.71	38.821
618.04	38.882
618.37	39.057
618.70	38.918
619.03	39.066
619.36	40.169
619.69	39.052
620.03	38.636
620.36	39.522
620.69	40.775
621.02	40.030
621.35	39.919
621.68	39.180
622.01	38.511
622.34	39.130
622.67	39.453
623.00	41.239
623.33	40.448
623.66	38.700
623.99	40.226
624.32	37.798
624.65	40.029
624.99	40.179
625.32	38.997
625.65	40.016
625.98	39.437
626.31	39.560
626.64	39.331
626.97	39.127
627.30	40.426
627.63	38.774
627.96	39.339
628.29	41.820
628.62	39.733
628.95	40.945
629.28	39.380
629.61	39.745
629.94	40.265
630.26	41.153
630.59	41.206
630.92	41.241
631.25	40.726
631.58	40.635
631.91	40.319
632.24	40.778
632.57	40.667
632.90	40.920
633.23	40.888
633.56	38.830
633.89	40.094
634.22	41.440
634.55	41.587
634.88	40.750
635.20	40.574
635.53	41.349
635.86	40.932
636.19	40.415
636.52	40.860
636.85	40.794
637.18	40.000
637.51	41.884
637.83	41.411
638.16	40.658
638.49	42.483
638.82	41.055
639.15	43.320
639.48	37.873
639.81	42.462
640.13	40.135
640.46	41.168
640.79	41.877
641.12	40.762
641.45	40.890
641.77	41.467
642.10	39.728
642.43	41.882
642.76	41.102
643.09	40.952
643.41	42.857
643.74	42.607
644.07	41.966
644.40	41.005
644.73	40.759
645.05	41.068
645.38	42.219
645.71	43.299
646.04	43.361
646.36	41.187
646.69	42.561
647.02	43.141
647.35	43.502
647.67	42.701
648.00	42.531
648.33	42.159
648.66	39.194
648.98	41.561
649.31	42.615
649.64	41.250
649.96	38.148
650.29	41.148
650.62	41.136
650.94	40.641
651.27	41.075
651.60	38.927
651.92	41.610
652.25	38.898
652.58	43.101
652.90	41.413
653.23	39.194
653.56	40.134
653.88	40.656
654.21	43.624
654.54	41.694
654.86	39.005
655.19	40.401
655.52	39.153
655.84	37.063
656.17	40.122
656.49	54.264
656.82	56.001
657.15	42.255
657.47	31.419
657.80	23.898
658.13	27.069
658.45	35.704
658.78	35.062
659.10	34.894
659.43	33.925
659.75	34.461
660.08	34.427
660.41	34.112
660.73	35.974
661.06	38.116
661.38	40.536
661.71	42.256
662.03	42.742
662.36	40.085
662.68	40.295
663.01	43.100
663.33	41.497
663.66	43.348
663.98	40.848
664.31	44.295
664.63	44.469
664.96	41.649
665.28	42.516
665.61	37.421
665.93	39.918
666.26	40.486
666.58	40.541
666.91	41.648
667.23	42.105
667.56	41.497
667.88	43.665
668.21	39.401
668.53	44.159
668.86	41.801
669.18	43.607
669.50	39.720
669.83	43.309
670.15	39.910
670.48	38.785
670.80	39.863
671.13	43.115
671.45	40.541
671.77	39.400
672.10	39.645
672.42	40.959
672.75	41.636
673.07	36.937
673.39	37.341
673.72	40.354
674.04	39.703
674.37	36.701
674.69	40.574
675.01	40.851
675.34	40.130
675.66	42.549
675.98	41.630
676.31	44.118
676.63	41.839
676.95	40.487
677.28	39.907
677.60	41.629
677.92	42.070
678.25	40.263
678.57	42.181
678.89	38.994
679.22	41.090
679.54	41.617
679.86	39.000
680.18	38.213
680.51	36.872
680.83	39.048
681.15	40.848
681.48	40.771
681.80	39.113
682.12	39.839
682.44	37.132
682.77	39.394
683.09	39.832
683.41	38.717
683.73	39.726
684.06	40.215
684.38	38.075
684.70	41.152
685.02	41.142
685.34	38.986
685.67	38.826
685.99	39.319
686.31	39.497
686.63	38.121
686.96	37.338
687.28	39.884
687.60	37.109
687.92	34.630
688.24	38.976
688.56	37.876
688.89	38.034
689.21	38.950
689.53	41.609
689.85	37.194
690.17	38.341
690.49	38.799
690.82	35.663
691.14	37.500
691.46	37.472
691.78	39.207
692.10	39.619
692.42	38.444
692.74	39.270
693.06	40.449
693.39	37.584
693.71	38.600
694.03	39.309
694.35	37.923
694.67	34.988
694.99	38.107
695.31	35.459
695.63	37.245
695.95	37.717
696.27	40.399
696.59	38.770
696.91	41.573
697.23	40.885
697.56	36.298
697.88	37.162
698.20	35.118
698.52	36.323
698.84	41.262
699.16	37.619
699.48	35.750
699.80	36.842
700.12	39.798
700.44	36.313
700.76	38.192
701.08	37.209
701.40	36.556
701.72	42.901
702.04	42.308
702.36	40.361
702.68	39.222
703.00	39.130
703.32	34.384
703.64	42.353
703.96	39.826
704.28	38.757
704.60	34.177
704.91	31.429
705.23	39.806
705.55	38.176
705.87	41.297
706.19	39.583
706.51	38.889
706.83	39.344
707.15	39.172
707.47	39.118
707.79	36.598
708.11	34.860
708.43	38.404
708.74	36.364
709.06	35.097
709.38	37.644
709.70	37.812
710.02	41.104
710.34	37.954
710.66	36.825
710.98	38.170
711.29	34.194
711.61	38.978
711.93	35.738
712.25	38.206
712.57	39.024
712.89	40.288
713.20	40.893
713.52	33.209
713.84	40.214
714.16	39.672
714.48	38.730
714.80	34.462
715.11	36.599
715.43	41.867
715.75	38.318
716.07	36.393
716.39	36.455
716.70	34.495
717.02	39.259
717.34	37.023
717.66	40.249
717.97	32.787
718.29	34.454
718.61	45.238
718.93	39.785
719.24	35.294
719.56	38.868
719.88	37.818
720.20	37.079
720.51	39.098
720.83	40.161
721.15	34.836
721.46	41.176
721.78	37.931
722.10	44.000
722.42	37.603
722.73	37.052
723.05	37.751
723.37	36.078
723.68	31.984
724.00	45.528
724.32	39.095
724.63	34.855
724.95	39.256
725.27	35.088
725.58	32.759
725.90	37.698
726.22	41.328
726.53	36.502
726.85	31.373
727.16	39.474
727.48	32.692
727.80	36.475
728.11	32.353
728.43	39.256
728.74	35.547
729.06	38.258
729.38	34.241
729.69	32.283
730.01	39.764
730.32	35.857
730.64	38.095
730.96	39.179
731.27	36.786
731.59	36.977
731.90	37.423
732.22	35.890
732.53	38.742
732.85	34.228
733.16	39.130
733.48	33.101
733.80	35.231
734.11	39.310
734.43	35.714
734.74	37.685
735.06	34.169
735.37	36.086
735.69	33.548
736.00	35.017
736.32	38.079
736.63	33.448
736.95	31.522
737.26	38.411
737.58	39.209
737.89	37.634
738.21	31.203
738.52	37.308
738.83	34.766
739.15	37.607
739.46	36.694
739.78	34.965
740.09	34.615
740.41	36.014
740.72	35.036
741.04	34.127
741.35	32.035
741.66	34.722
741.98	31.429
742.29	32.864
742.61	39.037
742.92	35.981
743.23	30.702
743.55	36.036
743.86	39.111
744.18	30.952
744.49	41.872
744.80	43.655
745.12	32.990
745.43	32.663
745.74	33.010
746.06	33.171
746.37	35.683
746.68	41.294
747.00	38.220
747.31	32.692
747.62	38.249
747.94	31.878
748.25	32.093
748.56	33.810
748.88	35.870
749.19	35.211
749.50	38.725
749.82	37.333
750.13	36.123
750.44	36.585
750.75	37.200
751.07	34.643
751.38	34.686
751.69	30.534
752.01	34.231
752.32	32.685
752.63	32.308
752.94	34.127
753.26	30.435
753.57	39.732
753.88	37.931
754.19	34.025
754.51	32.031
754.82	37.549
755.13	34.979
755.44	35.950
755.75	39.506
756.07	35.341
756.38	32.422
756.69	36.823
757.00	34.146
757.31	34.564
757.63	38.318
757.94	35.260
758.25	33.140
758.56	37.466
758.87	32.102
759.18	33.667
759.50	34.164
759.81	28.467
760.12	31.419
760.43	34.951
760.74	35.000
761.05	32.584
761.36	34.431
761.67	33.728
761.99	30.968
762.30	34.783
762.61	29.057
762.92	38.117
763.23	33.649
763.54	35.556
763.85	36.709
764.16	35.510
764.47	36.864
764.78	37.079
765.10	36.691
765.41	34.194
765.72	32.704
766.03	33.216
766.34	31.579
766.65	30.769
766.96	30.500
767.27	35.417
767.58	34.302
767.89	32.903
768.20	33.742
768.51	34.973
768.82	33.514
769.13	32.000
769.44	37.281
769.75	31.169
770.06	34.404
770.37	30.516
770.68	32.292
770.99	31.188
771.30	33.010
771.61	34.722
771.92	28.139
772.23	33.178
772.54	35.106
772.85	30.178
773.16	30.488
773.47	40.361
773.78	35.165
774.09	32.000
774.39	30.864
774.70	33.557
775.01	30.435
775.32	27.612
775.63	30.579
775.94	30.075
776.25	31.429
776.56	28.689
776.87	34.513
777.18	31.858
777.48	19.091
777.79	21.739
778.10	25.688
778.41	31.356
778.72	33.058
779.03	27.612
779.34	28.571
779.65	32.026
779.95	29.710
780.26	29.932
780.57	19.828
780.88	27.778
781.19	30.303
781.50	28.000
781.80	26.797
782.11	35.256
782.42	30.120
782.73	21.898
783.04	21.622
783.34	25.000
783.65	34.109
783.96	31.707
784.27	23.932
784.57	26.829
784.88	22.764
785.19	30.702
785.50	13.402
785.81	36.190
786.11	23.529
786.42	24.545
786.73	20.721
787.04	29.703
787.34	25.714
787.65	29.524
787.96	33.333
788.26	26.126
788.57	35.484
788.88	25.781
789.19	30.769
789.49	22.689
789.80	28.205
790.11	29.204
790.41	26.263
790.72	36.792
791.03	19.444
791.33	30.263
791.64	32.258
791.95	30.667
792.25	18.571
792.56	20.732
792.87	23.469
793.17	35.526
793.48	27.027
793.79	15.493
794.09	20.253
794.40	26.596
794.70	32.710
795.01	21.930
795.32	24.545
795.62	35.714
795.93	15.464
796.23	24.176
796.54	32.632
796.85	32.877
797.15	11.111
797.46	-1.370
797.76	16.901
798.07	26.250
798.37	25.000
798.68	27.143
798.99	24.286
799.29	28.947
799.60	18.333
799.90	9.722
800.21	17.187
800.51	22.222
800.82	21.311
801.12	8.772
801.43	14.085
801.73	1.695
802.04	9.836
802.34	5.455
802.65	42.308
802.95	18.519
803.26	5.000
803.56	25.000
803.87	-5.263
804.17	35.484
804.48	26.154
804.78	2.564
805.09	4.651
805.39	9.375
805.70	1.887
806.00	31.579
806.30	16.216
806.61	7.353
806.91	24.691
807.22	24.000
807.52	19.403
807.83	25.806
808.13	6.349
808.43	9.091
808.74	1.515
809.04	26.415
809.35	15.068
809.65	38.596
809.95	23.529
810.26	21.569
810.56	14.000
810.86	10.204
811.17	-5.714
811.47	3.846
811.77	6.452
812.08	-39.474
812.38	7.143
812.69	-4.348
812.99	0.000
813.29	11.905
813.59	-25.926
813.90	8.511
814.20	11.628
814.50	-4.167
814.81	35.000
815.11	26.829
815.41	10.000
815.72	5.714
816.02	0.000
816.32	10.256
816.62	2.703
816.93	-23.529
817.23	15.217
817.53	8.824
817.84	-5.882
818.14	-43.750
818.44	-17.241
818.74	-29.032
819.04	3.704
819.35	-13.333
819.65	-36.000
819.95	-30.000
820.25	-12.000
820.56	2.632
820.86	5.000
821.16	6.383
821.46	27.586
821.76	28.205
822.07	-32.500
822.37	-13.953
822.67	-13.333
822.97	-8.108
823.27	21.622
823.57	-8.000
823.88	27.027
824.18	-42.857
824.48	-19.231
824.78	-123.077
825.08	-30.435
825.38	-33.333
825.69	8.333
825.99	-35.000
826.29	5.405
826.59	23.529
826.89	20.000
827.19	-5.714
827.49	2.632
827.79	-25.000
828.09	-26.667
828.39	13.043
828.70	-17.241
829.00	-31.034
829.30	-2.778
829.60	12.500
829.90	-11.111
830.20	-61.538
830.50	-52.381
830.80	-46.429
831.10	15.385
831.40	-85.714
831.70	17.647
832.00	-33.333
832.30	-10.526
832.60	-6.250
832.90	-133.333
833.20	-135.294
833.50	-113.333
833.80	-53.333
834.10	-40.000
834.40	41.667
834.70	-44.444
835.00	11.538
835.30	-16.667
835.60	44.828
835.90	-105.556
836.20	-109.091
836.50	-66.667
836.80	-8.571
837.10	20.000
837.40	-5.882
837.70	-54.545
838.00	-8.333
838.30	-31.250
838.60	-42.857
838.90	40.000
839.19	-4.348
839.49	-73.913
839.79	-94.444
840.09	-56.522
840.39	-63.636
840.69	-131.250
840.99	-31.579
841.29	-75.000
841.59	-57.143
841.88	-105.556
842.18	-16.667
842.48	-100.000
842.78	-13.793
843.08	7.143
843.38	-69.231
843.68	-133.333
843.97	-161.538
844.27	-9.091
844.57	-80.000
844.87	-48.000
845.17	-200.000
845.47	-50.000
845.76	-88.889
846.06	0.000
846.36	-150.000
846.66	-90.000
846.96	0.000
847.25	-45.833
847.55	-108.333
847.85	-6.667
848.15	0.000
848.44	30.769
848.74	-31.579
849.04	800.000
849.34	-144.444
849.63	-100.000
849.93	0.000
850.23	-70.000
850.53	0.000
850.82	-8.000
851.12	-73.684
851.42	-600.000
851.71	-35.714
852.01	-66.667
852.31	-64.706
852.61	-46.667
852.90	-19.048
853.20	-233.333
853.50	-33.333
853.79	-21.053
854.09	-66.667
854.39	-3.571
854.68	-43.478
854.98	-175.000
855.28	-24.138
855.57	-68.750
855.87	-20.000
856.17	-86.667
856.46	10.345
856.76	-46.667
857.05	-94.118
857.35	-123.077
857.65	-72.727
857.94	22.222
858.24	-114.286
858.53	-107.143
858.83	-25.000
859.13	-155.556
859.42	33.333
859.72	-137.500
860.01	-300.000
860.31	-100.000
860.60	-320.000
860.90	-100.000
861.20	-200.000
861.49	-142.857
861.79	-17.647
862.08	-800.000
862.38	-108.333
862.67	-30.769
862.97	-23.529
863.26	15.000
863.56	-41.176
863.85	566.667
864.15	-180.000
864.44	-46.154
864.74	-5.000
865.03	-225.000
865.33	-116.667
865.62	-88.235
865.92	-550.000
866.21	-192.857
866.51	-58.333
866.80	-600.000
867.10	-233.333
867.39	-52.941
867.69	39.130
867.98	-200.000
868.27	-320.000
868.57	-37.500
868.86	-172.727
869.16	-76.471
869.45	-300.000
869.75	-85.714
870.04	1100.000
870.33	-50.000
870.63	-20.000
870.92	-122.222
871.22	-100.000
871.51	-118.182
871.80	-166.667
872.10	-70.000
>>>>>End Processed Spectral Data<<<<<
