SpectraSuite Data File
++++++++++++++++++++++++++++++++++++
Date: Sat May 16 11:13:11 PDT 2015
User: schluterlab
Dark Spectrum Present: Yes
Reference Spectrum Present: Yes
Number of Sampled Component Spectra: 1
Spectrometers: USB2E3373
Integration Time (usec): 3000 (USB2E3373)
Spectra Averaged: 3 (USB2E3373)
Boxcar Smoothing: 0 (USB2E3373)
Correct for Electrical Dark: No (USB2E3373)
Strobe/Lamp Enabled: No (USB2E3373)
Correct for Detector Non-linearity: No (USB2E3373)
Correct for Stray Light: No (USB2E3373)
Number of Pixels in Processed Spectrum: 2048
>>>>>Begin Processed Spectral Data<<<<<
178.53	0.000
178.91	93.333
179.29	333.333
179.67	200.000
180.04	-46.154
180.42	-300.000
180.80	375.000
181.18	325.000
181.56	-50.000
181.94	200.000
182.31	150.000
182.69	-30.769
183.07	66.667
183.45	850.000
183.83	266.667
184.20	-42.857
184.58	-37.500
184.96	-400.000
185.34	68.750
185.72	-225.000
186.09	50.000
186.47	-162.500
186.85	-75.000
187.23	-37.500
187.61	-125.000
187.98	-212.500
188.36	0.000
188.74	-137.500
189.12	600.000
189.49	328.571
189.87	25.000
190.25	50.000
190.63	0.000
191.00	-100.000
191.38	320.000
191.76	33.333
192.14	420.000
192.51	-100.000
192.89	-333.333
193.27	0.000
193.65	-22.222
194.02	42.857
194.40	66.667
194.78	-100.000
195.15	0.000
195.53	-90.909
195.91	-250.000
196.29	60.000
196.66	-466.667
197.04	2400.000
197.42	150.000
197.79	113.333
198.17	333.333
198.55	100.000
198.92	-600.000
199.30	150.000
199.68	-350.000
200.05	-66.667
200.43	-155.556
200.81	-100.000
201.18	0.000
201.56	128.571
201.94	-86.667
202.31	40.909
202.69	70.000
203.07	90.000
203.44	33.333
203.82	-100.000
204.19	-200.000
204.57	25.000
204.95	-500.000
205.32	0.000
205.70	-600.000
206.08	-1100.000
206.45	0.000
206.83	-300.000
207.20	150.000
207.58	-366.667
207.96	-133.333
208.33	-162.500
208.71	-100.000
209.08	220.000
209.46	-14.286
209.84	1050.000
210.21	0.000
210.59	60.000
210.96	500.000
211.34	16.667
211.71	-100.000
212.09	275.000
212.46	650.000
212.84	-1200.000
213.22	333.333
213.59	50.000
213.97	66.667
214.34	30.000
214.72	-50.000
215.09	133.333
215.47	-50.000
215.84	10.000
216.22	70.000
216.59	66.667
216.97	-225.000
217.34	350.000
217.72	-57.143
218.09	-16.667
218.47	0.000
218.84	28.571
219.22	142.857
219.59	0.000
219.97	157.143
220.34	225.000
220.72	250.000
221.09	7.692
221.47	0.000
221.84	266.667
222.22	300.000
222.59	500.000
222.97	-137.500
223.34	-400.000
223.72	-300.000
224.09	28.571
224.46	-125.000
224.84	21.429
225.21	-57.143
225.59	45.455
225.96	-75.000
226.34	42.857
226.71	-144.444
227.08	30.000
227.46	200.000
227.83	-42.857
228.21	-100.000
228.58	-50.000
228.95	-37.500
229.33	-200.000
229.70	-40.000
230.08	-550.000
230.45	8.333
230.82	-33.333
231.20	-900.000
231.57	-250.000
231.95	800.000
232.32	57.143
232.69	-33.333
233.07	-142.857
233.44	-400.000
233.81	-26.667
234.19	-100.000
234.56	81.250
234.93	0.000
235.31	-185.714
235.68	-28.571
236.05	-23.529
236.43	-18.182
236.80	-3.226
237.17	25.000
237.55	14.286
237.92	-4.545
238.29	-11.429
238.67	11.765
239.04	16.667
239.41	-6.452
239.79	-46.154
240.16	26.190
240.53	-7.273
240.91	23.077
241.28	10.909
241.65	21.538
242.02	1.639
242.40	-1.639
242.77	9.091
243.14	1.695
243.51	-5.714
243.89	16.456
244.26	8.989
244.63	13.684
245.00	16.842
245.38	23.729
245.75	14.159
246.12	15.200
246.49	15.748
246.87	14.634
247.24	10.169
247.61	5.932
247.98	2.817
248.36	8.392
248.73	16.456
249.10	10.828
249.47	9.357
249.84	13.068
250.22	4.167
250.59	11.864
250.96	9.948
251.33	19.905
251.70	11.538
252.08	10.900
252.45	11.848
252.82	11.905
253.19	13.617
253.56	10.887
253.94	13.502
254.31	11.159
254.68	9.350
255.05	7.661
255.42	13.889
255.79	6.810
256.16	14.510
256.54	12.500
256.91	10.985
257.28	10.256
257.65	9.929
258.02	16.038
258.39	14.381
258.76	12.838
259.14	10.185
259.51	17.377
259.88	10.976
260.25	14.596
260.62	10.289
260.99	13.056
261.36	10.976
261.73	16.185
262.10	13.889
262.47	13.105
262.85	15.714
263.22	8.596
263.59	12.308
263.96	12.464
264.33	11.924
264.70	14.365
265.07	7.967
265.44	11.111
265.81	12.145
266.18	11.139
266.55	11.029
266.92	11.839
267.29	10.412
267.66	9.877
268.03	12.802
268.40	12.676
268.77	13.253
269.14	11.601
269.51	14.943
269.88	9.633
270.25	10.023
270.62	9.153
270.99	12.162
271.36	9.790
271.73	10.987
272.10	12.357
272.47	9.111
272.84	12.667
273.21	10.780
273.58	10.549
273.95	10.307
274.32	14.480
274.69	13.567
275.06	13.906
275.43	11.384
275.80	15.071
276.17	8.368
276.54	16.090
276.91	12.757
277.28	12.373
277.65	11.364
278.02	9.812
278.39	13.360
278.76	11.355
279.13	11.265
279.50	9.742
279.87	11.839
280.23	12.955
280.60	13.121
280.97	11.456
281.34	12.766
281.71	12.885
282.08	10.887
282.45	12.220
282.82	10.078
283.19	12.909
283.56	15.385
283.92	13.251
284.29	10.781
284.66	13.129
285.03	12.656
285.40	11.808
285.77	13.158
286.14	11.372
286.51	13.144
286.87	13.430
287.24	11.775
287.61	11.405
287.98	10.572
288.35	9.917
288.72	9.338
289.08	7.797
289.45	11.785
289.82	9.343
290.19	11.166
290.56	9.752
290.93	8.267
291.29	8.590
291.66	9.984
292.03	10.518
292.40	10.542
292.77	11.491
293.13	9.919
293.50	11.441
293.87	11.196
294.24	12.217
294.60	10.455
294.97	11.381
295.34	10.222
295.71	10.417
296.08	8.756
296.44	9.156
296.81	11.111
297.18	7.042
297.55	9.746
297.91	11.994
298.28	9.452
298.65	9.066
299.02	10.963
299.38	9.626
299.75	10.734
300.12	10.128
300.48	10.486
300.85	7.602
301.22	9.573
301.59	10.663
301.95	10.202
302.32	9.126
302.69	9.058
303.05	8.425
303.42	8.875
303.79	10.407
304.15	9.360
304.52	10.268
304.89	10.153
305.25	10.501
305.62	10.106
305.99	10.954
306.35	10.877
306.72	10.137
307.09	12.145
307.45	10.443
307.82	10.168
308.19	10.962
308.55	9.150
308.92	9.560
309.29	9.297
309.65	12.831
310.02	11.339
310.38	9.514
310.75	11.578
311.12	10.537
311.48	13.361
311.85	11.843
312.22	13.285
312.58	12.309
312.95	12.334
313.31	12.887
313.68	13.869
314.05	14.243
314.41	12.072
314.78	12.587
315.14	15.301
315.51	15.198
315.87	14.618
316.24	16.424
316.61	16.027
316.97	17.214
317.34	16.089
317.70	16.976
318.07	18.097
318.43	16.667
318.80	19.624
319.16	16.323
319.53	19.643
319.89	18.156
320.26	20.686
320.62	19.423
320.99	20.299
321.35	18.818
321.72	21.904
322.08	23.541
322.45	22.673
322.81	23.631
323.18	23.823
323.54	24.584
323.91	24.745
324.27	26.901
324.64	26.782
325.00	27.923
325.37	29.864
325.73	30.271
326.10	30.204
326.46	30.911
326.83	32.766
327.19	34.445
327.56	36.031
327.92	35.599
328.29	37.229
328.65	36.545
329.01	37.014
329.38	37.734
329.74	40.293
330.11	37.987
330.47	39.873
330.84	40.513
331.20	40.884
331.56	42.024
331.93	41.918
332.29	43.379
332.66	43.284
333.02	43.801
333.38	43.100
333.75	43.544
334.11	43.289
334.48	43.601
334.84	44.182
335.20	45.301
335.57	44.314
335.93	46.553
336.29	44.553
336.66	44.317
337.02	44.865
337.38	44.563
337.75	44.952
338.11	44.902
338.47	45.285
338.84	45.191
339.20	44.376
339.56	46.257
339.93	45.591
340.29	45.438
340.65	45.629
341.02	46.206
341.38	45.998
341.74	45.216
342.11	46.587
342.47	47.296
342.83	46.180
343.20	48.164
343.56	45.061
343.92	47.496
344.28	48.360
344.65	46.370
345.01	48.235
345.37	47.342
345.73	46.563
346.10	46.198
346.46	47.197
346.82	46.111
347.19	48.480
347.55	47.512
347.91	47.717
348.27	47.096
348.63	49.031
349.00	48.210
349.36	45.824
349.72	49.283
350.08	50.040
350.45	48.227
350.81	49.045
351.17	47.910
351.53	49.244
351.89	48.666
352.26	48.372
352.62	50.384
352.98	48.418
353.34	50.040
353.70	47.413
354.07	49.331
354.43	51.383
354.79	50.951
355.15	50.719
355.51	50.156
355.87	51.462
356.24	51.390
356.60	52.055
356.96	51.193
357.32	51.781
357.68	52.031
358.04	51.732
358.40	51.740
358.77	51.623
359.13	51.798
359.49	52.608
359.85	53.735
360.21	52.816
360.57	53.840
360.93	53.630
361.29	54.036
361.66	54.192
362.02	54.142
362.38	54.585
362.74	54.725
363.10	53.372
363.46	55.271
363.82	54.956
364.18	54.052
364.54	56.183
364.90	55.136
365.26	55.350
365.62	57.662
365.98	57.112
366.35	56.901
366.71	55.250
367.07	58.080
367.43	58.270
367.79	57.182
368.15	56.970
368.51	57.552
368.87	59.478
369.23	58.035
369.59	58.472
369.95	58.774
370.31	59.705
370.67	59.725
371.03	59.840
371.39	59.264
371.75	59.657
372.11	61.334
372.47	60.304
372.83	61.683
373.19	61.000
373.55	61.084
373.91	61.309
374.27	61.670
374.63	61.353
374.99	61.822
375.35	62.382
375.71	62.863
376.07	62.697
376.42	61.523
376.78	64.314
377.14	64.068
377.50	63.701
377.86	63.719
378.22	63.945
378.58	64.175
378.94	63.748
379.30	64.412
379.66	64.542
380.02	64.706
380.38	65.559
380.74	65.416
381.09	65.319
381.45	64.857
381.81	65.880
382.17	67.607
382.53	66.565
382.89	67.105
383.25	67.489
383.61	65.389
383.97	67.667
384.32	69.024
384.68	68.501
385.04	68.357
385.40	67.438
385.76	69.573
386.12	66.958
386.48	69.245
386.83	68.957
387.19	68.679
387.55	69.049
387.91	69.769
388.27	70.446
388.62	69.411
388.98	70.200
389.34	69.461
389.70	70.158
390.06	68.800
390.42	69.679
390.77	70.726
391.13	72.174
391.49	69.619
391.85	70.387
392.20	68.993
392.56	69.762
392.92	69.652
393.28	70.034
393.64	71.137
393.99	70.769
394.35	70.012
394.71	71.032
395.07	72.254
395.42	70.143
395.78	69.830
396.14	71.776
396.50	71.254
396.85	70.635
397.21	70.960
397.57	71.611
397.92	71.136
398.28	71.944
398.64	71.267
399.00	72.809
399.35	72.604
399.71	72.358
400.07	70.448
400.42	70.864
400.78	71.497
401.14	70.000
401.49	70.519
401.85	71.324
402.21	71.454
402.57	69.660
402.92	71.869
403.28	69.179
403.63	69.083
403.99	70.106
404.35	69.746
404.70	69.339
405.06	70.588
405.42	69.311
405.77	69.796
406.13	69.790
406.49	71.240
406.84	70.426
407.20	71.496
407.55	69.854
407.91	69.236
408.27	70.098
408.62	70.475
408.98	69.557
409.34	69.287
409.69	69.061
410.05	69.072
410.40	71.061
410.76	68.998
411.11	71.509
411.47	70.141
411.83	69.743
412.18	69.678
412.54	68.151
412.89	68.955
413.25	69.599
413.60	69.137
413.96	68.330
414.31	69.358
414.67	69.524
415.03	68.241
415.38	70.267
415.74	70.683
416.09	68.478
416.45	67.989
416.80	68.726
417.16	68.173
417.51	69.337
417.87	68.091
418.22	70.228
418.58	67.843
418.93	68.240
419.29	68.444
419.64	68.593
420.00	69.684
420.35	68.658
420.71	69.928
421.06	69.349
421.42	67.096
421.77	68.342
422.12	69.278
422.48	68.520
422.83	67.768
423.19	68.040
423.54	68.473
423.90	68.248
424.25	67.364
424.61	68.758
424.96	69.514
425.31	68.306
425.67	67.908
426.02	66.839
426.38	69.510
426.73	70.251
427.09	69.056
427.44	66.989
427.79	68.779
428.15	68.103
428.50	68.270
428.85	67.086
429.21	68.345
429.56	67.656
429.92	66.934
430.27	67.996
430.62	68.443
430.98	67.799
431.33	67.503
431.68	68.525
432.04	68.886
432.39	67.407
432.74	68.645
433.10	68.261
433.45	67.991
433.80	68.477
434.16	68.297
434.51	68.767
434.86	68.483
435.22	67.483
435.57	69.461
435.92	68.230
436.28	69.021
436.63	66.874
436.98	67.583
437.34	67.750
437.69	66.978
438.04	68.066
438.39	70.217
438.75	68.102
439.10	69.073
439.45	67.592
439.81	68.313
440.16	66.496
440.51	68.882
440.86	68.479
441.22	67.054
441.57	66.632
441.92	67.008
442.27	68.128
442.63	68.294
442.98	68.567
443.33	68.369
443.68	67.639
444.03	67.338
444.39	67.058
444.74	67.511
445.09	67.050
445.44	67.417
445.79	68.485
446.15	68.346
446.50	68.536
446.85	67.163
447.20	67.263
447.55	67.735
447.91	68.220
448.26	66.704
448.61	66.950
448.96	67.059
449.31	67.306
449.66	67.773
450.02	65.651
450.37	68.000
450.72	67.458
451.07	69.265
451.42	65.056
451.77	67.923
452.12	67.580
452.47	67.191
452.83	66.744
453.18	67.173
453.53	66.978
453.88	66.627
454.23	66.989
454.58	67.557
454.93	67.632
455.28	66.794
455.63	66.032
455.98	66.867
456.34	64.549
456.69	66.792
457.04	66.257
457.39	65.670
457.74	65.092
458.09	65.835
458.44	66.570
458.79	65.975
459.14	65.773
459.49	65.364
459.84	65.823
460.19	66.587
460.54	64.912
460.89	65.303
461.24	66.667
461.59	65.826
461.94	66.136
462.29	64.503
462.64	66.798
462.99	66.667
463.34	65.699
463.69	66.667
464.04	64.792
464.39	65.472
464.74	64.480
465.09	63.860
465.44	64.749
465.79	65.200
466.14	66.456
466.49	65.170
466.84	65.906
467.19	65.524
467.54	64.873
467.89	64.118
468.24	65.024
468.59	65.209
468.94	65.080
469.29	64.587
469.64	66.442
469.99	65.159
470.34	65.197
470.68	66.134
471.03	66.414
471.38	65.208
471.73	67.762
472.08	65.127
472.43	65.508
472.78	66.200
473.13	64.745
473.48	65.284
473.83	64.330
474.17	65.669
474.52	68.414
474.87	64.394
475.22	66.372
475.57	63.944
475.92	66.091
476.27	63.257
476.61	65.183
476.96	65.847
477.31	66.254
477.66	65.302
478.01	65.424
478.36	64.641
478.70	66.097
479.05	65.873
479.40	65.233
479.75	65.138
480.10	64.484
480.45	64.652
480.79	65.795
481.14	66.884
481.49	65.440
481.84	66.204
482.19	64.778
482.53	65.578
482.88	63.598
483.23	64.789
483.58	64.986
483.92	65.695
484.27	63.934
484.62	64.579
484.97	64.536
485.31	63.712
485.66	62.563
486.01	63.107
486.36	63.722
486.70	63.887
487.05	63.367
487.40	63.755
487.75	63.111
488.09	62.693
488.44	63.295
488.79	62.186
489.13	63.446
489.48	63.295
489.83	64.716
490.17	63.431
490.52	63.270
490.87	63.834
491.22	64.970
491.56	63.611
491.91	64.790
492.26	63.491
492.60	64.225
492.95	64.446
493.30	63.411
493.64	62.576
493.99	64.197
494.34	64.095
494.68	63.483
495.03	62.859
495.37	64.208
495.72	63.851
496.07	64.101
496.41	63.918
496.76	64.703
497.11	64.296
497.45	64.607
497.80	64.682
498.14	62.967
498.49	64.088
498.84	63.689
499.18	64.571
499.53	64.832
499.87	64.817
500.22	64.706
500.56	64.832
500.91	64.877
501.26	64.871
501.60	64.179
501.95	65.700
502.29	64.856
502.64	64.215
502.98	64.590
503.33	64.380
503.67	64.703
504.02	63.930
504.36	65.980
504.71	64.184
505.06	66.001
505.40	65.120
505.75	65.295
506.09	66.431
506.44	65.764
506.78	66.081
507.13	66.220
507.47	65.571
507.82	66.030
508.16	67.150
508.51	66.873
508.85	67.650
509.19	66.562
509.54	67.653
509.88	67.766
510.23	67.715
510.57	69.577
510.92	67.938
511.26	68.846
511.61	67.171
511.95	67.619
512.30	69.544
512.64	68.280
512.98	69.637
513.33	69.852
513.67	70.798
514.02	69.575
514.36	69.363
514.70	70.741
515.05	71.355
515.39	70.819
515.74	72.775
516.08	71.297
516.42	71.048
516.77	72.733
517.11	72.712
517.46	74.402
517.80	74.428
518.14	73.732
518.49	73.042
518.83	73.828
519.17	75.015
519.52	73.626
519.86	74.671
520.20	76.956
520.55	74.769
520.89	76.331
521.23	76.007
521.58	76.176
521.92	78.024
522.26	76.254
522.61	75.982
522.95	77.154
523.29	77.179
523.64	78.264
523.98	77.785
524.32	78.755
524.66	76.646
525.01	79.255
525.35	78.093
525.69	79.440
526.04	79.439
526.38	79.567
526.72	79.119
527.06	81.055
527.41	81.386
527.75	81.254
528.09	81.668
528.43	80.262
528.78	79.083
529.12	82.522
529.46	81.701
529.80	82.957
530.15	81.455
530.49	80.207
530.83	81.663
531.17	82.828
531.51	82.719
531.86	81.633
532.20	82.591
532.54	82.821
532.88	82.016
533.22	83.155
533.57	82.898
533.91	83.146
534.25	82.967
534.59	82.761
534.93	83.447
535.27	83.826
535.62	83.696
535.96	84.680
536.30	83.770
536.64	85.060
536.98	87.359
537.32	84.243
537.66	85.268
538.01	85.979
538.35	86.959
538.69	85.963
539.03	85.782
539.37	85.096
539.71	85.123
540.05	87.457
540.39	88.781
540.73	86.178
541.07	87.500
541.42	86.090
541.76	85.316
542.10	86.023
542.44	85.343
542.78	88.195
543.12	86.965
543.46	85.753
543.80	85.217
544.14	86.031
544.48	87.795
544.82	87.348
545.16	87.525
545.50	87.281
545.84	87.900
546.18	87.656
546.52	88.265
546.86	88.889
547.20	90.014
547.54	86.088
547.88	86.198
548.22	87.418
548.56	88.243
548.90	86.186
549.24	89.278
549.58	88.003
549.92	88.834
550.26	89.668
550.60	86.558
550.94	88.467
551.28	88.111
551.62	87.666
551.96	88.567
552.30	88.014
552.64	90.007
552.98	88.577
553.32	91.126
553.66	89.402
554.00	88.131
554.34	88.520
554.68	88.889
555.02	89.508
555.36	87.491
555.69	90.974
556.03	89.053
556.37	89.972
556.71	89.907
557.05	90.466
557.39	89.829
557.73	89.934
558.07	91.711
558.41	89.604
558.75	89.049
559.08	89.339
559.42	90.888
559.76	92.791
560.10	91.051
560.44	89.740
560.78	90.536
561.12	91.028
561.45	90.753
561.79	89.965
562.13	90.954
562.47	90.126
562.81	89.321
563.15	90.553
563.48	89.288
563.82	91.143
564.16	90.061
564.50	92.003
564.84	89.815
565.17	88.660
565.51	89.635
565.85	91.886
566.19	91.436
566.52	91.129
566.86	90.076
567.20	90.496
567.54	90.018
567.88	90.452
568.21	90.045
568.55	88.865
568.89	88.718
569.23	88.246
569.56	86.801
569.90	88.592
570.24	88.050
570.57	85.483
570.91	87.283
571.25	87.030
571.59	87.106
571.92	85.655
572.26	85.590
572.60	85.883
572.93	85.352
573.27	85.671
573.61	85.432
573.95	85.524
574.28	85.008
574.62	86.706
574.96	85.568
575.29	84.985
575.63	85.904
575.97	84.763
576.30	85.804
576.64	85.196
576.98	85.394
577.31	84.410
577.65	85.641
577.98	84.451
578.32	85.035
578.66	85.342
578.99	85.527
579.33	85.582
579.67	85.595
580.00	85.218
580.34	85.347
580.67	85.707
581.01	85.078
581.35	86.282
581.68	84.790
582.02	85.625
582.35	85.118
582.69	86.899
583.02	86.892
583.36	86.058
583.70	85.893
584.03	86.476
584.37	86.766
584.70	86.254
585.04	86.101
585.37	85.179
585.71	85.414
586.04	85.942
586.38	85.352
586.72	85.936
587.05	86.689
587.39	86.479
587.72	86.090
588.06	86.602
588.39	86.670
588.73	86.180
589.06	87.244
589.40	88.423
589.73	86.544
590.07	88.128
590.40	87.306
590.73	88.844
591.07	87.049
591.40	89.905
591.74	87.359
592.07	88.378
592.41	89.469
592.74	87.241
593.08	88.019
593.41	88.191
593.75	86.746
594.08	89.145
594.41	88.355
594.75	87.958
595.08	88.759
595.42	88.945
595.75	88.313
596.09	88.553
596.42	89.648
596.75	88.055
597.09	89.671
597.42	89.000
597.75	88.264
598.09	89.019
598.42	88.113
598.76	87.957
599.09	89.345
599.42	88.043
599.76	88.146
600.09	89.046
600.42	89.784
600.76	89.190
601.09	88.948
601.42	89.078
601.76	87.578
602.09	88.957
602.42	88.807
602.76	89.531
603.09	88.629
603.42	88.799
603.76	90.387
604.09	89.267
604.42	89.467
604.76	89.533
605.09	91.049
605.42	89.938
605.75	90.686
606.09	87.381
606.42	90.281
606.75	89.867
607.09	88.928
607.42	88.776
607.75	89.316
608.08	90.511
608.42	91.154
608.75	88.738
609.08	89.917
609.41	91.031
609.75	88.347
610.08	91.912
610.41	90.892
610.74	90.329
611.07	91.937
611.41	89.410
611.74	89.923
612.07	92.857
612.40	91.418
612.73	91.384
613.07	90.149
613.40	92.720
613.73	91.172
614.06	90.445
614.39	93.348
614.72	91.006
615.06	89.457
615.39	90.667
615.72	93.102
616.05	89.895
616.38	93.035
616.71	90.210
617.05	92.039
617.38	92.446
617.71	93.796
618.04	92.671
618.37	92.390
618.70	93.937
619.03	93.365
619.36	94.503
619.69	93.252
620.03	92.355
620.36	93.319
620.69	95.477
621.02	93.988
621.35	94.435
621.68	95.082
622.01	96.521
622.34	93.012
622.67	93.047
623.00	94.797
623.33	95.075
623.66	94.682
623.99	94.962
624.32	94.196
624.65	92.862
624.99	95.370
625.32	94.386
625.65	94.561
625.98	93.349
626.31	94.861
626.64	94.393
626.97	97.517
627.30	96.426
627.63	93.869
627.96	95.822
628.29	98.989
628.62	95.320
628.95	98.425
629.28	97.368
629.61	98.921
629.94	96.125
630.26	99.602
630.59	99.899
630.92	99.399
631.25	97.077
631.58	98.942
631.91	97.766
632.24	100.667
632.57	99.556
632.90	98.276
633.23	100.350
633.56	99.181
633.89	99.292
634.22	98.937
634.55	100.721
634.88	97.944
635.20	97.753
635.53	102.545
635.86	101.008
636.19	100.122
636.52	100.119
636.85	102.647
637.18	100.625
637.51	100.124
637.83	104.527
638.16	100.395
638.49	103.172
638.82	98.456
639.15	102.075
639.48	97.406
639.81	102.213
640.13	99.324
640.46	104.416
640.79	102.941
641.12	101.269
641.45	100.717
641.77	104.641
642.10	102.870
642.43	98.938
642.76	104.724
643.09	103.651
643.41	103.016
643.74	102.385
644.07	102.808
644.40	104.862
644.73	105.116
645.05	102.671
645.38	104.636
645.71	108.591
646.04	106.218
646.36	103.839
646.69	104.844
647.02	104.874
647.35	104.693
647.67	106.204
648.00	104.745
648.33	104.722
648.66	104.839
648.98	104.936
649.31	103.846
649.64	103.125
649.96	102.512
650.29	103.770
650.62	107.057
650.94	103.541
651.27	103.813
651.60	105.017
651.92	102.911
652.25	103.673
652.58	106.474
652.90	100.642
653.23	101.452
653.56	98.662
653.88	102.951
654.21	101.342
654.54	103.821
654.86	104.334
655.19	102.006
655.52	95.163
655.84	91.656
656.17	97.104
656.49	100.000
656.82	100.000
657.15	100.000
657.47	100.000
657.80	85.864
658.13	65.482
658.45	89.985
658.78	88.826
659.10	87.148
659.43	85.640
659.75	85.956
660.08	87.188
660.41	87.728
660.73	94.609
661.06	98.551
661.38	105.893
661.71	104.015
662.03	107.460
662.36	108.742
662.68	109.705
663.01	109.979
663.33	113.379
663.66	105.365
663.98	105.580
664.31	112.752
664.63	108.850
664.96	110.195
665.28	109.111
665.61	104.228
665.93	105.144
666.26	104.251
666.58	103.534
666.91	109.577
667.23	105.482
667.56	111.111
667.88	111.312
668.21	108.525
668.53	107.243
668.86	106.467
669.18	108.904
669.50	105.841
669.83	113.625
670.15	106.951
670.48	111.682
670.80	105.011
671.13	102.483
671.45	105.856
671.77	107.281
672.10	103.156
672.42	103.137
672.75	103.455
673.07	101.982
673.39	104.189
673.72	106.693
674.04	104.883
674.37	102.887
674.69	105.738
675.01	103.191
675.34	104.772
675.66	103.240
675.98	106.828
676.31	113.122
676.63	109.425
676.95	106.416
677.28	107.193
677.60	108.145
677.92	109.471
678.25	105.689
678.57	105.761
678.89	108.386
679.22	107.128
679.54	104.536
679.86	104.400
680.18	103.612
680.51	101.862
680.83	105.714
681.15	104.432
681.48	107.505
681.80	103.226
682.12	104.427
682.44	100.196
682.77	107.143
683.09	99.581
683.41	104.425
683.73	104.110
684.06	103.226
684.38	108.159
684.70	104.733
685.02	103.150
685.34	105.263
685.67	104.735
685.99	104.726
686.31	104.309
686.63	99.291
686.96	100.555
687.28	103.276
687.60	105.859
687.92	100.778
688.24	102.362
688.56	98.998
688.89	103.419
689.21	106.346
689.53	107.356
689.85	105.345
690.17	105.157
690.49	106.236
690.82	107.229
691.14	106.368
691.46	102.661
691.78	106.608
692.10	104.449
692.42	105.333
692.74	101.288
693.06	106.067
693.39	103.803
693.71	104.289
694.03	100.432
694.35	101.129
694.67	105.674
694.99	104.348
695.31	107.143
695.63	107.398
695.95	104.715
696.27	104.489
696.59	108.289
696.91	111.517
697.23	105.469
697.56	103.125
697.88	105.856
698.20	100.642
698.52	98.879
698.84	108.738
699.16	100.476
699.48	103.750
699.80	103.258
700.12	102.015
700.44	106.704
700.76	109.038
701.08	107.849
701.40	105.136
701.72	111.420
702.04	111.218
702.36	108.434
702.68	105.389
703.00	104.058
703.32	103.725
703.64	107.941
703.96	105.523
704.28	106.805
704.60	105.380
704.91	103.175
705.23	112.298
705.55	111.486
705.87	107.167
706.19	103.819
706.51	104.514
706.83	110.164
707.15	107.325
707.47	104.408
707.79	104.124
708.11	103.308
708.43	101.746
708.74	101.818
709.06	101.671
709.38	105.747
709.70	112.500
710.02	108.282
710.34	110.891
710.66	104.762
710.98	107.256
711.29	106.129
711.61	106.070
711.93	104.590
712.25	112.292
712.57	106.272
712.89	109.353
713.20	108.247
713.52	105.224
713.84	108.185
714.16	108.852
714.48	105.397
714.80	105.231
715.11	95.965
715.43	104.518
715.75	107.165
716.07	105.246
716.39	104.682
716.70	104.530
717.02	108.519
717.34	109.160
717.66	117.012
717.97	106.148
718.29	108.824
718.61	109.524
718.93	101.434
719.24	104.044
719.56	100.755
719.88	102.545
720.20	108.240
720.51	103.008
720.83	108.434
721.15	109.426
721.46	107.843
721.78	108.429
722.10	108.800
722.42	107.025
722.73	100.398
723.05	110.843
723.37	103.137
723.68	102.024
724.00	102.846
724.32	103.292
724.63	102.490
724.95	101.653
725.27	103.947
725.58	106.466
725.90	104.365
726.22	100.738
726.53	108.745
726.85	104.706
727.16	102.632
727.48	100.769
727.80	110.246
728.11	102.521
728.43	107.851
728.74	104.688
729.06	103.409
729.38	103.891
729.69	100.787
730.01	109.055
730.32	107.968
730.64	100.000
730.96	108.955
731.27	99.643
731.59	100.322
731.90	93.252
732.22	100.613
732.53	100.993
732.85	101.007
733.16	103.986
733.48	97.561
733.80	104.982
734.11	97.586
734.43	104.422
734.74	98.813
735.06	103.448
735.37	98.471
735.69	98.065
736.00	99.327
736.32	96.689
736.63	101.724
736.95	102.536
737.26	96.026
737.58	105.755
737.89	103.943
738.21	98.872
738.52	102.692
738.83	100.781
739.15	102.991
739.46	106.048
739.78	94.406
740.09	96.503
740.41	95.804
740.72	103.285
741.04	101.190
741.35	107.792
741.66	106.944
741.98	96.190
742.29	102.347
742.61	111.230
742.92	107.944
743.23	100.877
743.55	109.910
743.86	101.778
744.18	100.000
744.49	109.852
744.80	108.122
745.12	105.155
745.43	111.055
745.74	102.913
746.06	102.927
746.37	103.965
746.68	103.980
747.00	104.188
747.31	95.192
747.62	102.304
747.94	93.886
748.25	106.977
748.56	102.381
748.88	104.891
749.19	95.305
749.50	110.784
749.82	99.111
750.13	107.489
750.44	100.000
750.75	105.600
751.07	100.357
751.38	101.107
751.69	100.000
752.01	96.154
752.32	94.942
752.63	100.000
752.94	94.841
753.26	105.217
753.57	101.339
753.88	103.017
754.19	100.415
754.51	99.609
754.82	97.233
755.13	98.765
755.44	99.587
755.75	102.881
756.07	98.795
756.38	102.734
756.69	99.639
757.00	94.425
757.31	99.664
757.63	96.885
757.94	89.884
758.25	98.256
758.56	97.574
758.87	91.477
759.18	94.333
759.50	97.153
759.81	92.701
760.12	96.284
760.43	99.676
760.74	103.437
761.05	93.258
761.36	100.000
761.67	89.645
761.99	91.290
762.30	96.014
762.61	94.340
762.92	98.655
763.23	99.526
763.54	97.333
763.85	100.422
764.16	94.286
764.47	96.186
764.78	91.386
765.10	98.561
765.41	93.548
765.72	99.057
766.03	95.053
766.34	97.744
766.65	95.142
766.96	100.000
767.27	94.271
767.58	103.488
767.89	104.516
768.20	106.135
768.51	99.454
768.82	96.216
769.13	100.500
769.44	97.368
769.75	97.403
770.06	97.248
770.37	90.610
770.68	97.396
770.99	96.040
771.30	97.087
771.61	98.148
771.92	87.879
772.23	97.196
772.54	101.064
772.85	96.450
773.16	95.732
773.47	97.590
773.78	94.505
774.09	96.000
774.39	99.383
774.70	90.604
775.01	92.029
775.32	103.731
775.63	101.653
775.94	95.489
776.25	87.143
776.56	106.557
776.87	104.425
777.18	106.195
777.48	92.727
777.79	90.435
778.10	99.083
778.41	86.441
778.72	95.868
779.03	94.030
779.34	99.248
779.65	86.275
779.95	98.551
780.26	83.673
780.57	107.759
780.88	110.185
781.19	97.980
781.50	88.000
781.80	90.850
782.11	96.154
782.42	83.735
782.73	96.350
783.04	90.541
783.34	84.091
783.65	83.721
783.96	95.935
784.27	104.274
784.57	94.309
784.88	90.244
785.19	91.228
785.50	85.567
785.81	89.524
786.11	90.196
786.42	81.818
786.73	95.495
787.04	100.000
787.34	90.476
787.65	93.333
787.96	102.941
788.26	101.802
788.57	84.677
788.88	85.156
789.19	87.179
789.49	84.034
789.80	84.615
790.11	95.575
790.41	92.929
790.72	93.396
791.03	91.667
791.33	97.368
791.64	87.097
791.95	100.000
792.25	110.000
792.56	97.561
792.87	87.755
793.17	78.947
793.48	78.378
793.79	101.408
794.09	98.734
794.40	88.298
794.70	95.327
795.01	90.351
795.32	98.182
795.62	86.607
795.93	98.969
796.23	102.198
796.54	84.211
796.85	90.411
797.15	68.056
797.46	83.562
797.76	100.000
798.07	97.500
798.37	86.765
798.68	105.714
798.99	90.000
799.29	84.211
799.60	98.333
799.90	73.611
800.21	75.000
800.51	85.714
800.82	90.164
801.12	103.509
801.43	66.197
801.73	84.746
802.04	78.689
802.34	81.818
802.65	92.308
802.95	92.593
803.26	105.000
803.56	111.538
803.87	115.789
804.17	79.032
804.48	75.385
804.78	97.436
805.09	76.744
805.39	90.625
805.70	84.906
806.00	105.263
806.30	77.027
806.61	88.235
806.91	80.247
807.22	84.000
807.52	100.000
807.83	85.484
808.13	73.016
808.43	78.182
808.74	96.970
809.04	103.774
809.35	80.822
809.65	87.719
809.95	92.647
810.26	103.922
810.56	74.000
810.86	77.551
811.17	91.429
811.47	75.000
811.77	109.677
812.08	89.474
812.38	95.238
812.69	60.870
812.99	96.774
813.29	78.571
813.59	70.370
813.90	63.830
814.20	79.070
814.50	93.750
814.81	68.333
815.11	75.610
815.41	93.333
815.72	120.000
816.02	97.222
816.32	71.795
816.62	81.081
816.93	73.529
817.23	80.435
817.53	79.412
817.84	76.471
818.14	78.125
818.44	79.310
818.74	87.097
819.04	111.111
819.35	56.667
819.65	88.000
819.95	113.333
820.25	88.000
820.56	76.316
820.86	70.000
821.16	65.957
821.46	79.310
821.76	97.436
822.07	57.500
822.37	79.070
822.67	83.333
822.97	56.757
823.27	70.270
823.57	144.000
823.88	70.270
824.18	76.190
824.48	65.385
824.78	46.154
825.08	56.522
825.38	75.000
825.69	91.667
825.99	105.000
826.29	51.351
826.59	70.588
826.89	116.000
827.19	42.857
827.49	92.105
827.79	68.750
828.09	63.333
828.39	117.391
828.70	44.828
829.00	44.828
829.30	50.000
829.60	103.125
829.90	183.333
830.20	23.077
830.50	66.667
830.80	71.429
831.10	56.410
831.40	52.381
831.70	41.176
832.00	66.667
832.30	84.211
832.60	112.500
832.90	58.333
833.20	47.059
833.50	120.000
833.80	53.333
834.10	60.000
834.40	75.000
834.70	83.333
835.00	88.462
835.30	70.833
835.60	82.759
835.90	66.667
836.20	100.000
836.50	8.333
836.80	60.000
837.10	77.143
837.40	117.647
837.70	81.818
838.00	58.333
838.30	56.250
838.60	42.857
838.90	100.000
839.19	21.739
839.49	86.957
839.79	61.111
840.09	26.087
840.39	27.273
840.69	87.500
840.99	73.684
841.29	25.000
841.59	107.143
841.88	27.778
842.18	20.833
842.48	47.059
842.78	13.793
843.08	64.286
843.38	130.769
843.68	-11.111
843.97	92.308
844.27	109.091
844.57	200.000
844.87	36.000
845.17	260.000
845.47	78.571
845.76	0.000
846.06	0.000
846.36	-25.000
846.66	40.000
846.96	26.316
847.25	41.667
847.55	-25.000
847.85	6.667
848.15	60.000
848.44	80.769
848.74	57.895
849.04	166.667
849.34	144.444
849.63	5.263
849.93	0.000
850.23	30.000
850.53	52.381
850.82	68.000
851.12	68.421
851.42	-400.000
851.71	50.000
852.01	-25.000
852.31	47.059
852.61	-13.333
852.90	47.619
853.20	16.667
853.50	38.889
853.79	57.895
854.09	46.667
854.39	75.000
854.68	69.565
854.98	-58.333
855.28	79.310
855.57	68.750
855.87	45.000
856.17	-6.667
856.46	27.586
856.76	40.000
857.05	5.882
857.35	-30.769
857.65	45.455
857.94	18.519
858.24	78.571
858.53	-28.571
858.83	-25.000
859.13	88.889
859.42	85.714
859.72	125.000
860.01	200.000
860.31	62.500
860.60	60.000
860.90	44.444
861.20	75.000
861.49	71.429
861.79	17.647
862.08	200.000
862.38	0.000
862.67	15.385
862.97	117.647
863.26	80.000
863.56	-17.647
863.85	200.000
864.15	90.000
864.44	23.077
864.74	60.000
865.03	0.000
865.33	33.333
865.62	-23.529
865.92	-100.000
866.21	50.000
866.51	-50.000
866.80	-200.000
867.10	-133.333
867.39	29.412
867.69	82.609
867.98	142.857
868.27	-80.000
868.57	-18.750
868.86	-90.909
869.16	41.176
869.45	100.000
869.75	28.571
870.04	400.000
870.33	50.000
870.63	100.000
870.92	66.667
871.22	33.333
871.51	-127.273
871.80	33.333
872.10	30.000
>>>>>End Processed Spectral Data<<<<<
