SpectraSuite Data File
++++++++++++++++++++++++++++++++++++
Date: Sat May 16 11:27:04 PDT 2015
User: schluterlab
Dark Spectrum Present: Yes
Reference Spectrum Present: Yes
Number of Sampled Component Spectra: 1
Spectrometers: USB2E3373
Integration Time (usec): 3000 (USB2E3373)
Spectra Averaged: 3 (USB2E3373)
Boxcar Smoothing: 0 (USB2E3373)
Correct for Electrical Dark: No (USB2E3373)
Strobe/Lamp Enabled: No (USB2E3373)
Correct for Detector Non-linearity: No (USB2E3373)
Correct for Stray Light: No (USB2E3373)
Number of Pixels in Processed Spectrum: 2048
>>>>>Begin Processed Spectral Data<<<<<
178.53	0.000
178.91	40.000
179.29	400.000
179.67	-1700.000
180.04	-69.231
180.42	800.000
180.80	425.000
181.18	325.000
181.56	0.000
181.94	400.000
182.31	650.000
182.69	-7.692
183.07	-733.333
183.45	850.000
183.83	666.667
184.20	-185.714
184.58	-100.000
184.96	-400.000
185.34	75.000
185.72	-725.000
186.09	133.333
186.47	-162.500
186.85	-237.500
187.23	-100.000
187.61	-175.000
187.98	-200.000
188.36	-87.500
188.74	-75.000
189.12	1600.000
189.49	242.857
189.87	-66.667
190.25	150.000
190.63	-7.143
191.00	-111.111
191.38	280.000
191.76	0.000
192.14	500.000
192.51	-240.000
192.89	-733.333
193.27	0.000
193.65	-66.667
194.02	-300.000
194.40	733.333
194.78	-100.000
195.15	-800.000
195.53	-45.455
195.91	-383.333
196.29	80.000
196.66	-500.000
197.04	2000.000
197.42	-275.000
197.79	60.000
198.17	-200.000
198.55	-600.000
198.92	-1200.000
199.30	237.500
199.68	-400.000
200.05	-11.111
200.43	-233.333
200.81	-1700.000
201.18	-58.333
201.56	200.000
201.94	-66.667
202.31	27.273
202.69	-40.000
203.07	-40.000
203.44	566.667
203.82	-266.667
204.19	-425.000
204.57	-375.000
204.95	-1300.000
205.32	6.250
205.70	2200.000
206.08	-1300.000
206.45	-44.444
206.83	-800.000
207.20	-450.000
207.58	-366.667
207.96	-233.333
208.33	-162.500
208.71	-188.889
209.08	220.000
209.46	-285.714
209.84	700.000
210.21	0.000
210.59	-5.000
210.96	1100.000
211.34	-333.333
211.71	-333.333
212.09	50.000
212.46	950.000
212.84	-2400.000
213.22	433.333
213.59	100.000
213.97	-122.222
214.34	170.000
214.72	-80.000
215.09	-200.000
215.47	-266.667
215.84	-60.000
216.22	20.000
216.59	6.667
216.97	-325.000
217.34	950.000
217.72	-85.714
218.09	-33.333
218.47	-200.000
218.84	185.714
219.22	-28.571
219.59	0.000
219.97	142.857
220.34	275.000
220.72	212.500
221.09	-115.385
221.47	0.000
221.84	366.667
222.22	-600.000
222.59	500.000
222.97	-175.000
223.34	-550.000
223.72	-366.667
224.09	-42.857
224.46	-125.000
224.84	-121.429
225.21	-114.286
225.59	-63.636
225.96	-75.000
226.34	-128.571
226.71	-188.889
227.08	-5.000
227.46	1700.000
227.83	-171.429
228.21	-137.500
228.58	850.000
228.95	-62.500
229.33	-800.000
229.70	-320.000
230.08	-1050.000
230.45	-91.667
230.82	-50.000
231.20	-1300.000
231.57	-50.000
231.95	1700.000
232.32	14.286
232.69	-133.333
233.07	-314.286
233.44	-600.000
233.81	-46.667
234.19	-155.556
234.56	-18.750
234.93	25.000
235.31	-214.286
235.68	-171.429
236.05	-41.176
236.43	-77.273
236.80	-12.903
237.17	-25.000
237.55	-85.714
237.92	-68.182
238.29	-20.000
238.67	8.824
239.04	0.000
239.41	-22.581
239.79	-51.282
240.16	-7.143
240.53	-5.455
240.91	-30.769
241.28	-5.455
241.65	12.308
242.02	-9.836
242.40	-16.393
242.77	-7.576
243.14	-13.559
243.51	-21.429
243.89	0.000
244.26	-3.371
244.63	6.316
245.00	3.158
245.38	4.237
245.75	6.195
246.12	-2.400
246.49	4.724
246.87	-0.813
247.24	0.000
247.61	-0.847
247.98	8.451
248.36	-2.098
248.73	6.962
249.10	10.191
249.47	9.357
249.84	6.818
250.22	3.571
250.59	3.390
250.96	12.565
251.33	10.427
251.70	6.250
252.08	6.635
252.45	6.161
252.82	5.238
253.19	11.064
253.56	9.677
253.94	8.439
254.31	6.438
254.68	11.382
255.05	6.452
255.42	13.492
255.79	8.244
256.16	10.588
256.54	12.132
256.91	7.576
257.28	7.692
257.65	6.738
258.02	14.151
258.39	9.699
258.76	6.081
259.14	6.790
259.51	10.492
259.88	11.890
260.25	13.354
260.62	7.395
260.99	7.418
261.36	9.756
261.73	12.717
262.10	11.111
262.47	12.251
262.85	10.857
263.22	8.309
263.59	6.154
263.96	10.145
264.33	11.653
264.70	11.326
265.07	11.538
265.44	11.628
265.81	8.786
266.18	8.101
266.55	9.069
266.92	13.602
267.29	11.622
267.66	11.852
268.03	13.527
268.40	8.920
268.77	12.530
269.14	10.905
269.51	14.483
269.88	7.798
270.25	10.023
270.62	9.840
270.99	9.459
271.36	10.956
271.73	10.762
272.10	10.069
272.47	10.000
272.84	13.111
273.21	11.697
273.58	9.890
273.95	10.526
274.32	10.860
274.69	14.004
275.06	11.247
275.43	8.482
275.80	13.035
276.17	11.925
276.54	10.998
276.91	10.700
277.28	12.170
277.65	11.364
278.02	11.482
278.39	11.395
278.76	11.753
279.13	11.660
279.50	10.338
279.87	9.725
280.23	10.121
280.60	9.145
280.97	9.903
281.34	10.638
281.71	9.615
282.08	11.492
282.45	9.165
282.82	11.047
283.19	10.727
283.56	14.286
283.92	12.191
284.29	10.037
284.66	12.950
285.03	12.834
285.40	10.701
285.77	11.228
286.14	9.928
286.51	9.236
286.87	10.526
287.24	12.287
287.61	11.405
287.98	10.572
288.35	8.430
288.72	10.526
289.08	7.458
289.45	10.101
289.82	9.343
290.19	10.509
290.56	9.091
290.93	10.811
291.29	9.238
291.66	9.501
292.03	11.146
292.40	11.596
292.77	9.161
293.13	12.033
293.50	10.698
293.87	10.583
294.24	10.860
294.60	8.788
294.97	10.622
295.34	9.481
295.71	10.417
296.08	7.988
296.44	9.442
296.81	11.823
297.18	9.718
297.55	10.452
297.91	10.879
298.28	9.863
298.65	10.739
299.02	10.829
299.38	10.829
299.75	10.870
300.12	10.897
300.48	9.591
300.85	9.961
301.22	11.514
301.59	10.403
301.95	11.965
302.32	8.735
302.69	9.670
303.05	10.989
303.42	10.875
303.79	9.809
304.15	11.493
304.52	10.968
304.89	9.917
305.25	10.989
305.62	9.283
305.99	10.718
306.35	11.099
306.72	10.364
307.09	12.486
307.45	11.237
307.82	9.274
308.19	11.521
308.55	11.002
308.92	11.278
309.29	10.378
309.65	10.286
310.02	10.583
310.38	11.351
310.75	11.783
311.12	11.674
311.48	12.004
311.85	11.843
312.22	12.049
312.58	12.004
312.95	11.315
313.31	12.887
313.68	13.869
314.05	13.947
314.41	11.670
314.78	13.187
315.14	13.820
315.51	12.259
315.87	14.811
316.24	14.966
316.61	14.971
316.97	15.622
317.34	14.451
317.70	14.378
318.07	14.459
318.43	13.670
318.80	16.150
319.16	16.041
319.53	16.635
319.89	15.710
320.26	15.196
320.62	14.615
320.99	17.711
321.35	16.749
321.72	16.172
322.08	18.101
322.45	18.020
322.81	18.156
323.18	18.540
323.54	18.484
323.91	19.184
324.27	19.867
324.64	20.475
325.00	21.990
325.37	21.810
325.73	22.047
326.10	21.789
326.46	23.468
326.83	23.149
327.19	24.854
327.56	26.491
327.92	26.508
328.29	26.061
328.65	26.455
329.01	26.767
329.38	26.227
329.74	29.762
330.11	29.828
330.47	29.155
330.84	30.247
331.20	30.054
331.56	30.082
331.93	30.462
332.29	31.416
332.66	30.641
333.02	31.855
333.38	34.050
333.75	32.502
334.11	32.267
334.48	32.039
334.84	33.421
335.20	33.599
335.57	33.845
335.93	33.751
336.29	34.101
336.66	33.921
337.02	34.054
337.38	32.620
337.75	34.241
338.11	34.168
338.47	35.498
338.84	34.846
339.20	33.743
339.56	35.561
339.93	35.009
340.29	34.898
340.65	35.227
341.02	36.341
341.38	34.457
341.74	34.716
342.11	35.239
342.47	36.567
342.83	34.845
343.20	35.611
343.56	34.939
343.92	35.726
344.28	36.585
344.65	34.818
345.01	35.546
345.37	37.292
345.73	34.779
346.10	35.159
346.46	35.256
346.82	34.884
347.19	35.661
347.55	35.474
347.91	35.512
348.27	34.368
348.63	34.976
349.00	36.436
349.36	33.177
349.72	35.271
350.08	36.247
350.45	34.200
350.81	37.659
351.17	35.932
351.53	33.970
351.89	35.732
352.26	35.969
352.62	36.559
352.98	36.472
353.34	36.211
353.70	34.440
354.07	36.271
354.43	36.917
354.79	35.816
355.15	36.661
355.51	36.641
355.87	37.075
356.24	38.125
356.60	38.840
356.96	37.336
357.32	36.342
357.68	37.241
358.04	36.952
358.40	36.659
358.77	36.940
359.13	37.184
359.49	35.601
359.85	36.433
360.21	36.377
360.57	38.102
360.93	37.185
361.29	39.013
361.66	36.357
362.02	37.722
362.38	38.078
362.74	37.509
363.10	37.518
363.46	38.034
363.82	38.703
364.18	38.423
364.54	38.528
364.90	37.666
365.26	38.302
365.62	37.776
365.98	37.624
366.35	38.732
366.71	38.901
367.07	37.968
367.43	38.710
367.79	37.938
368.15	37.624
368.51	39.510
368.87	39.354
369.23	38.877
369.59	39.236
369.95	40.169
370.31	39.733
370.67	38.756
371.03	38.994
371.39	40.948
371.75	38.984
372.11	40.387
372.47	40.058
372.83	40.542
373.19	41.000
373.55	40.605
373.91	40.256
374.27	40.383
374.63	39.821
374.99	40.960
375.35	41.454
375.71	40.918
376.07	41.547
376.42	40.662
376.78	40.654
377.14	41.763
377.50	41.135
377.86	41.157
378.22	41.771
378.58	41.754
378.94	41.430
379.30	43.205
379.66	42.562
380.02	41.295
380.38	41.994
380.74	42.087
381.09	41.301
381.45	42.959
381.81	42.347
382.17	41.917
382.53	41.398
382.89	43.002
383.25	41.481
383.61	42.925
383.97	41.580
384.32	43.054
384.68	42.443
385.04	42.693
385.40	43.092
385.76	43.537
386.12	43.535
386.48	43.379
386.83	43.742
387.19	43.455
387.55	43.065
387.91	42.976
388.27	42.521
388.62	42.849
388.98	42.338
389.34	43.207
389.70	43.057
390.06	43.878
390.42	45.000
390.77	43.028
391.13	42.857
391.49	43.793
391.85	44.264
392.20	43.689
392.56	42.395
392.92	44.723
393.28	43.685
393.64	42.814
393.99	44.246
394.35	44.221
394.71	42.742
395.07	44.193
395.42	43.981
395.78	43.369
396.14	44.299
396.50	43.058
396.85	43.307
397.21	44.532
397.57	44.681
397.92	43.735
398.28	42.667
398.64	43.367
399.00	43.483
399.35	44.025
399.71	43.786
400.07	43.463
400.42	44.586
400.78	42.397
401.14	43.413
401.49	44.399
401.85	43.685
402.21	43.981
402.57	44.296
402.92	45.563
403.28	43.811
403.63	43.080
403.99	43.754
404.35	41.727
404.70	43.768
405.06	44.348
405.42	41.943
405.77	43.213
406.13	43.384
406.49	43.619
406.84	43.851
407.20	43.993
407.55	43.952
407.91	42.681
408.27	43.321
408.62	42.814
408.98	43.663
409.34	43.083
409.69	42.722
410.05	43.420
410.40	43.286
410.76	43.154
411.11	42.706
411.47	41.688
411.83	43.032
412.18	43.441
412.54	42.221
412.89	43.256
413.25	42.562
413.60	42.770
413.96	42.144
414.31	44.098
414.67	42.921
415.03	42.950
415.38	44.047
415.74	43.943
416.09	43.990
416.45	43.254
416.80	44.343
417.16	43.522
417.51	44.189
417.87	42.913
418.22	44.817
418.58	43.453
418.93	44.880
419.29	44.918
419.64	44.033
420.00	44.836
420.35	43.465
420.71	45.618
421.06	45.325
421.42	44.965
421.77	45.617
422.12	45.607
422.48	45.751
422.83	44.761
423.19	44.655
423.54	44.784
423.90	45.749
424.25	45.023
424.61	46.562
424.96	47.864
425.31	46.506
425.67	45.616
426.02	46.127
426.38	46.884
426.73	47.399
427.09	48.162
427.44	46.989
427.79	46.047
428.15	48.713
428.50	47.859
428.85	47.422
429.21	48.478
429.56	47.552
429.92	47.695
430.27	48.156
430.62	47.597
430.98	48.040
431.33	48.026
431.68	48.740
432.04	50.420
432.39	49.174
432.74	49.341
433.10	50.422
433.45	48.532
433.80	49.272
434.16	49.006
434.51	49.808
434.86	50.088
435.22	50.167
435.57	49.388
435.92	50.703
436.28	49.614
436.63	49.859
436.98	49.485
437.34	50.325
437.69	51.517
438.04	50.652
438.39	51.203
438.75	50.815
439.10	51.083
439.45	50.875
439.81	51.386
440.16	51.675
440.51	51.706
440.86	51.764
441.22	50.083
441.57	52.368
441.92	51.509
442.27	51.786
442.63	51.770
442.98	50.734
443.33	51.126
443.68	50.547
444.03	52.996
444.39	51.738
444.74	52.423
445.09	53.728
445.44	54.080
445.79	52.881
446.15	52.848
446.50	51.824
446.85	52.591
447.20	51.532
447.55	53.702
447.91	53.116
448.26	53.017
448.61	52.122
448.96	52.997
449.31	52.706
449.66	54.150
450.02	52.188
450.37	53.449
450.72	53.503
451.07	53.740
451.42	52.788
451.77	54.698
452.12	54.410
452.47	55.290
452.83	53.698
453.18	54.143
453.53	55.037
453.88	55.144
454.23	54.293
454.58	56.557
454.93	54.534
455.28	53.983
455.63	54.300
455.98	54.578
456.34	54.320
456.69	53.971
457.04	54.825
457.39	54.007
457.74	54.991
458.09	54.060
458.44	55.543
458.79	54.316
459.14	55.277
459.49	56.128
459.84	54.806
460.19	55.728
460.54	55.656
460.89	54.148
461.24	55.556
461.59	55.334
461.94	55.824
462.29	55.509
462.64	56.588
462.99	55.957
463.34	55.098
463.69	56.298
464.04	54.540
464.39	55.914
464.74	54.610
465.09	54.299
465.44	56.232
465.79	54.597
466.14	56.329
466.49	56.592
466.84	55.462
467.19	56.484
467.54	56.203
467.89	56.227
468.24	55.760
468.59	56.902
468.94	56.592
469.29	55.361
469.64	55.323
469.99	57.326
470.34	57.181
470.68	58.721
471.03	57.330
471.38	56.528
471.73	58.182
472.08	56.961
472.43	57.400
472.78	57.600
473.13	56.793
473.48	58.073
473.83	57.630
474.17	56.433
474.52	58.951
474.87	57.576
475.22	55.693
475.57	56.333
475.92	57.343
476.27	57.314
476.61	56.563
476.96	56.847
477.31	57.427
477.66	57.831
478.01	56.618
478.36	56.784
478.70	58.889
479.05	57.653
479.40	56.736
479.75	57.543
480.10	57.242
480.45	56.480
480.79	57.058
481.14	57.602
481.49	57.018
481.84	56.449
482.19	57.515
482.53	57.955
482.88	57.617
483.23	57.746
483.58	57.909
483.92	56.952
484.27	57.200
484.62	57.322
484.97	56.742
485.31	54.752
485.66	52.843
486.01	52.904
486.36	54.765
486.70	56.163
487.05	55.145
487.40	56.651
487.75	55.250
488.09	56.238
488.44	57.510
488.79	56.526
489.13	56.828
489.48	58.687
489.83	58.035
490.17	58.250
490.52	58.741
490.87	58.337
491.22	59.318
491.56	57.917
491.91	59.447
492.26	58.255
492.60	58.421
492.95	58.686
493.30	57.694
493.64	59.614
493.99	58.604
494.34	59.238
494.68	59.691
495.03	58.843
495.37	60.029
495.72	58.694
496.07	58.142
496.41	59.194
496.76	59.543
497.11	59.067
497.45	59.770
497.80	60.030
498.14	59.774
498.49	59.568
498.84	59.223
499.18	60.283
499.53	59.571
499.87	59.315
500.22	59.510
500.56	60.130
500.91	59.852
501.26	59.583
501.60	59.268
501.95	61.401
502.29	59.329
502.64	58.887
502.98	59.559
503.33	59.117
503.67	58.812
504.02	59.054
504.36	60.196
504.71	60.790
505.06	59.860
505.40	59.780
505.75	60.467
506.09	60.870
506.44	59.699
506.78	60.411
507.13	60.556
507.47	61.242
507.82	60.248
508.16	60.777
508.51	60.999
508.85	60.197
509.19	59.916
509.54	60.941
509.88	61.064
510.23	60.587
510.57	61.693
510.92	60.902
511.26	60.340
511.61	60.691
511.95	60.453
512.30	62.507
512.64	61.213
512.98	61.386
513.33	60.956
513.67	60.972
514.02	61.745
514.36	61.108
514.70	61.800
515.05	62.950
515.39	62.687
515.74	63.002
516.08	62.478
516.42	61.983
516.77	61.930
517.11	61.384
517.46	63.636
517.80	63.297
518.14	62.742
518.49	63.897
518.83	63.027
519.17	62.700
519.52	61.885
519.86	64.755
520.20	65.342
520.55	64.923
520.89	63.244
521.23	62.637
521.58	63.824
521.92	65.801
522.26	64.508
522.61	63.688
522.95	63.433
523.29	63.072
523.64	62.961
523.98	63.526
524.32	63.294
524.66	62.609
525.01	63.263
525.35	64.691
525.69	64.932
526.04	64.621
526.38	64.481
526.72	62.324
527.06	65.560
527.41	65.743
527.75	64.422
528.09	64.527
528.43	64.918
528.78	64.761
529.12	63.380
529.46	63.660
529.80	63.977
530.15	62.589
530.49	63.777
530.83	64.178
531.17	63.636
531.51	64.367
531.86	62.409
532.20	64.103
532.54	63.703
532.88	63.900
533.22	63.837
533.57	64.034
533.91	61.673
534.25	62.791
534.59	62.648
534.93	61.668
535.27	63.247
535.62	63.619
535.96	63.219
536.30	62.565
536.64	62.948
536.98	64.548
537.32	63.856
537.66	62.118
538.01	63.024
538.35	64.122
538.69	62.433
539.03	62.627
539.37	62.608
539.71	63.509
540.05	62.714
540.39	65.166
540.73	63.372
541.07	63.251
541.42	62.930
541.76	60.465
542.10	63.471
542.44	62.625
542.78	62.958
543.12	62.933
543.46	62.260
543.80	60.000
544.14	62.995
544.48	62.205
544.82	64.073
545.16	64.051
545.50	62.248
545.84	63.978
546.18	64.355
546.52	62.731
546.86	65.100
547.20	63.291
547.54	62.121
547.88	62.442
548.22	61.664
548.56	61.991
548.90	62.668
549.24	63.560
549.58	62.950
549.92	63.675
550.26	64.379
550.60	61.735
550.94	64.672
551.28	65.538
551.62	64.328
551.96	64.182
552.30	63.206
552.64	63.195
552.98	64.331
553.32	64.574
553.66	64.095
554.00	63.966
554.34	63.538
554.68	62.939
555.02	63.531
555.36	63.192
555.69	63.682
556.03	64.140
556.37	63.656
556.71	64.925
557.05	65.336
557.39	64.811
557.73	65.354
558.07	65.411
558.41	64.622
558.75	65.095
559.08	63.969
559.42	65.773
559.76	65.261
560.10	63.908
560.44	63.150
560.78	63.326
561.12	62.733
561.45	63.014
561.79	63.972
562.13	63.675
562.47	61.835
562.81	62.023
563.15	63.471
563.48	62.751
563.82	63.016
564.16	63.151
564.50	63.306
564.84	62.434
565.17	63.329
565.51	62.973
565.85	63.692
566.19	64.756
566.52	63.079
566.86	61.504
567.20	62.833
567.54	62.906
567.88	60.692
568.21	61.633
568.55	60.021
568.89	59.791
569.23	59.278
569.56	58.302
569.90	58.025
570.24	58.061
570.57	56.134
570.91	57.565
571.25	56.842
571.59	55.760
571.92	55.952
572.26	56.381
572.60	56.345
572.93	55.002
573.27	56.037
573.61	55.377
573.95	55.349
574.28	54.997
574.62	55.567
574.96	54.536
575.29	54.522
575.63	54.739
575.97	54.288
576.30	55.111
576.64	55.117
576.98	54.690
577.31	54.017
577.65	54.104
577.98	53.809
578.32	54.620
578.66	54.344
578.99	54.884
579.33	54.685
579.67	54.426
580.00	55.010
580.34	54.819
580.67	54.695
581.01	53.999
581.35	54.239
581.68	53.130
582.02	53.993
582.35	54.485
582.69	54.900
583.02	55.084
583.36	55.315
583.70	55.684
584.03	55.738
584.37	55.778
584.70	55.406
585.04	54.835
585.37	53.747
585.71	54.693
586.04	55.294
586.38	55.172
586.72	56.285
587.05	55.792
587.39	54.712
587.72	55.535
588.06	56.121
588.39	55.739
588.73	56.367
589.06	56.969
589.40	57.815
589.73	56.870
590.07	57.065
590.40	56.863
590.73	58.457
591.07	57.213
591.40	58.752
591.74	58.384
592.07	57.973
592.41	58.726
592.74	56.918
593.08	56.780
593.41	56.020
593.75	55.589
594.08	57.728
594.41	57.486
594.75	57.191
595.08	57.256
595.42	57.081
595.75	57.736
596.09	57.780
596.42	58.265
596.75	57.654
597.09	59.083
597.42	58.970
597.75	58.149
598.09	59.015
598.42	57.578
598.76	57.517
599.09	56.788
599.42	57.324
599.76	57.078
600.09	57.023
600.42	57.045
600.76	57.665
601.09	56.020
601.42	57.499
601.76	56.893
602.09	58.119
602.42	57.078
602.76	57.208
603.09	57.419
603.42	57.293
603.76	56.801
604.09	57.309
604.42	58.077
604.76	57.872
605.09	58.363
605.42	57.934
605.75	57.482
606.09	56.912
606.42	57.813
606.75	57.750
607.09	58.315
607.42	56.822
607.75	57.792
608.08	58.473
608.42	59.035
608.75	57.430
609.08	58.208
609.41	58.695
609.75	58.411
610.08	58.971
610.41	57.735
610.74	59.478
611.07	58.469
611.41	57.943
611.74	58.869
612.07	59.506
612.40	59.009
612.73	58.912
613.07	58.173
613.40	59.496
613.73	59.237
614.06	57.990
614.39	60.485
614.72	58.771
615.06	56.902
615.39	57.515
615.72	59.479
616.05	57.758
616.38	60.418
616.71	60.180
617.05	58.806
617.38	61.053
617.71	59.705
618.04	60.621
618.37	61.195
618.70	61.799
619.03	60.325
619.36	61.240
619.69	64.322
620.03	59.986
620.36	61.744
620.69	61.665
621.02	63.699
621.35	62.823
621.68	64.508
622.01	63.997
622.34	61.491
622.67	62.344
623.00	62.586
623.33	62.836
623.66	61.521
623.99	62.782
624.32	61.533
624.65	61.442
624.99	63.704
625.32	60.180
625.65	62.082
625.98	62.754
626.31	63.214
626.64	63.515
626.97	65.068
627.30	64.426
627.63	63.990
627.96	64.404
628.29	66.268
628.62	63.706
628.95	66.831
629.28	63.816
629.61	64.671
629.94	65.406
630.26	68.390
630.59	67.940
630.92	66.466
631.25	65.625
631.58	67.937
631.91	65.000
632.24	67.556
632.57	67.222
632.90	69.310
633.23	68.107
633.56	65.146
633.89	70.165
634.22	70.012
634.55	67.428
634.88	68.077
635.20	69.288
635.53	71.120
635.86	69.144
636.19	67.277
636.52	66.906
636.85	69.555
637.18	67.125
637.51	70.260
637.83	68.575
638.16	68.026
638.49	69.379
638.82	67.181
639.15	67.704
639.48	65.240
639.81	71.369
640.13	67.297
640.46	71.368
640.79	69.748
641.12	69.676
641.45	69.871
641.77	71.557
642.10	69.940
642.43	69.803
642.76	71.339
643.09	69.841
643.41	71.111
643.74	73.768
644.07	71.139
644.40	71.799
644.73	72.112
645.05	69.783
645.38	71.358
645.71	74.399
646.04	73.277
646.36	73.997
646.69	70.069
647.02	74.549
647.35	72.744
647.67	72.445
648.00	74.692
648.33	71.669
648.66	68.710
648.98	70.382
649.31	69.077
649.64	71.406
649.96	67.661
650.29	70.492
650.62	72.117
650.94	70.320
651.27	73.484
651.60	72.318
651.92	71.918
652.25	69.449
652.58	68.995
652.90	69.823
653.23	69.516
653.56	67.057
653.88	68.852
654.21	69.631
654.54	71.927
654.86	67.416
655.19	64.613
655.52	58.503
655.84	51.367
656.17	54.361
656.49	73.313
656.82	76.579
657.15	58.105
657.47	43.584
657.80	33.710
658.13	38.992
658.45	52.942
658.78	53.786
659.10	54.222
659.43	53.950
659.75	55.744
660.08	55.365
660.41	57.122
660.73	64.026
661.06	67.681
661.38	71.071
661.71	73.423
662.03	72.177
662.36	73.134
662.68	72.785
663.01	73.036
663.33	74.150
663.66	75.536
663.98	71.875
664.31	73.378
664.63	77.212
664.96	70.933
665.28	70.065
665.61	69.133
665.93	70.370
666.26	68.623
666.58	68.191
666.91	71.938
667.23	72.149
667.56	70.068
667.88	74.661
668.21	73.733
668.53	74.065
668.86	76.443
669.18	75.342
669.50	73.832
669.83	74.209
670.15	70.404
670.48	71.028
670.80	72.437
671.13	71.558
671.45	68.468
671.77	70.450
672.10	69.822
672.42	67.528
672.75	65.273
673.07	64.505
673.39	66.667
673.72	70.276
674.04	68.790
674.37	67.835
674.69	68.852
675.01	64.894
675.34	70.065
675.66	68.035
675.98	71.145
676.31	71.946
676.63	73.563
676.95	70.133
677.28	67.981
677.60	69.231
677.92	73.348
678.25	72.210
678.57	68.724
678.89	67.505
679.22	68.553
679.54	65.878
679.86	65.400
680.18	67.110
680.51	66.667
680.83	67.619
681.15	66.859
681.48	69.980
681.80	65.726
682.12	66.600
682.44	67.387
682.77	65.801
683.09	68.344
683.41	67.920
683.73	67.123
684.06	67.957
684.38	66.946
684.70	66.667
685.02	63.583
685.34	68.421
685.67	63.068
685.99	64.272
686.31	66.248
686.63	61.702
686.96	62.662
687.28	65.703
687.60	66.797
687.92	61.673
688.24	64.173
688.56	63.327
688.89	66.026
689.21	69.147
689.53	70.805
689.85	64.811
690.17	65.022
690.49	65.358
690.82	70.602
691.14	65.566
691.46	68.736
691.78	66.300
692.10	65.678
692.42	65.556
692.74	66.094
693.06	67.191
693.39	67.562
693.71	67.269
694.03	64.579
694.35	63.657
694.67	64.303
694.99	66.496
695.31	65.816
695.63	63.520
695.95	66.501
696.27	69.825
696.59	67.914
696.91	70.225
697.23	66.927
697.56	66.346
697.88	66.441
698.20	61.028
698.52	62.780
698.84	66.262
699.16	64.286
699.48	63.500
699.80	65.163
700.12	66.247
700.44	68.436
700.76	69.679
701.08	68.605
701.40	68.278
701.72	66.975
702.04	71.795
702.36	69.578
702.68	68.563
703.00	66.957
703.32	65.043
703.64	65.882
703.96	67.442
704.28	67.456
704.60	66.772
704.91	64.127
705.23	67.638
705.55	65.203
705.87	74.744
706.19	68.056
706.51	69.097
706.83	68.197
707.15	71.338
707.47	66.391
707.79	62.887
708.11	58.015
708.43	65.087
708.74	60.519
709.06	59.889
709.38	61.494
709.70	66.562
710.02	71.472
710.34	66.337
710.66	64.127
710.98	66.562
711.29	59.355
711.61	65.815
711.93	65.574
712.25	67.774
712.57	64.460
712.89	70.863
713.20	66.323
713.52	71.642
713.84	64.057
714.16	66.557
714.48	69.524
714.80	61.231
715.11	61.671
715.43	67.470
715.75	62.305
716.07	63.279
716.39	63.880
716.70	64.460
717.02	67.778
717.34	65.267
717.66	68.465
717.97	66.803
718.29	67.227
718.61	66.667
718.93	65.591
719.24	58.824
719.56	55.849
719.88	63.273
720.20	63.296
720.51	62.030
720.83	62.249
721.15	62.705
721.46	64.314
721.78	62.069
722.10	67.200
722.42	65.289
722.73	63.745
723.05	57.831
723.37	61.961
723.68	60.729
724.00	70.732
724.32	67.901
724.63	65.560
724.95	64.463
725.27	64.474
725.58	62.931
725.90	61.508
726.22	63.838
726.53	61.597
726.85	55.294
727.16	64.662
727.48	61.923
727.80	61.885
728.11	63.866
728.43	63.636
728.74	60.937
729.06	61.742
729.38	62.646
729.69	57.874
730.01	59.843
730.32	64.143
730.64	57.875
730.96	60.075
731.27	57.857
731.59	55.627
731.90	53.988
732.22	58.589
732.53	63.907
732.85	58.389
733.16	59.058
733.48	59.930
733.80	56.584
734.11	58.276
734.43	61.905
734.74	57.567
735.06	57.367
735.37	58.104
735.69	57.742
736.00	52.862
736.32	57.285
736.63	57.241
736.95	58.696
737.26	58.609
737.58	57.914
737.89	60.932
738.21	55.263
738.52	65.769
738.83	55.859
739.15	58.547
739.46	62.097
739.78	59.790
740.09	57.343
740.41	56.643
740.72	56.569
741.04	59.524
741.35	55.411
741.66	60.648
741.98	57.143
742.29	58.685
742.61	69.519
742.92	60.748
743.23	57.456
743.55	59.910
743.86	60.889
744.18	56.190
744.49	65.517
744.80	67.005
745.12	57.732
745.43	59.799
745.74	60.194
746.06	51.707
746.37	58.150
746.68	57.711
747.00	64.398
747.31	58.173
747.62	56.682
747.94	59.389
748.25	57.209
748.56	60.476
748.88	60.870
749.19	60.094
749.50	64.216
749.82	60.444
750.13	66.520
750.44	58.130
750.75	63.200
751.07	55.714
751.38	58.303
751.69	59.160
752.01	57.308
752.32	54.864
752.63	54.615
752.94	57.937
753.26	60.435
753.57	57.589
753.88	62.500
754.19	53.112
754.51	57.422
754.82	54.150
755.13	59.671
755.44	52.479
755.75	55.967
756.07	57.028
756.38	55.859
756.69	55.596
757.00	52.962
757.31	51.678
757.63	54.206
757.94	49.422
758.25	52.035
758.56	59.030
758.87	53.693
759.18	53.333
759.50	55.516
759.81	57.299
760.12	52.365
760.43	57.929
760.74	59.062
761.05	51.404
761.36	54.491
761.67	54.438
761.99	51.613
762.30	55.797
762.61	53.585
762.92	53.812
763.23	61.611
763.54	53.333
763.85	60.338
764.16	54.286
764.47	55.085
764.78	50.936
765.10	53.957
765.41	52.903
765.72	50.943
766.03	51.237
766.34	54.511
766.65	50.607
766.96	57.000
767.27	55.208
767.58	64.535
767.89	64.516
768.20	57.669
768.51	53.552
768.82	53.514
769.13	55.500
769.44	55.263
769.75	52.814
770.06	55.046
770.37	57.277
770.68	56.771
770.99	50.990
771.30	54.369
771.61	56.019
771.92	50.649
772.23	44.860
772.54	55.851
772.85	48.521
773.16	54.878
773.47	62.651
773.78	53.297
774.09	55.333
774.39	58.642
774.70	55.034
775.01	51.449
775.32	57.463
775.63	57.851
775.94	69.925
776.25	55.714
776.56	52.459
776.87	61.947
777.18	62.832
777.48	50.000
777.79	56.522
778.10	51.376
778.41	49.153
778.72	58.678
779.03	55.970
779.34	56.391
779.65	50.980
779.95	58.696
780.26	47.619
780.57	60.345
780.88	56.481
781.19	48.485
781.50	56.800
781.80	50.327
782.11	60.897
782.42	48.193
782.73	45.985
783.04	43.919
783.34	48.485
783.65	57.364
783.96	54.472
784.27	51.282
784.57	48.780
784.88	51.220
785.19	51.754
785.50	48.454
785.81	39.048
786.11	41.176
786.42	45.455
786.73	50.450
787.04	63.366
787.34	43.810
787.65	43.810
787.96	49.020
788.26	48.649
788.57	51.613
788.88	48.437
789.19	47.009
789.49	46.218
789.80	45.299
790.11	53.097
790.41	47.475
790.72	52.830
791.03	41.667
791.33	48.684
791.64	53.763
791.95	49.333
792.25	57.143
792.56	47.561
792.87	44.898
793.17	28.947
793.48	32.432
793.79	52.113
794.09	55.696
794.40	61.702
794.70	45.794
795.01	37.719
795.32	43.636
795.62	36.607
795.93	35.052
796.23	43.956
796.54	52.632
796.85	57.534
797.15	26.389
797.46	46.575
797.76	39.437
798.07	38.750
798.37	51.471
798.68	48.571
798.99	48.571
799.29	47.368
799.60	63.333
799.90	29.167
800.21	31.250
800.51	38.095
800.82	45.902
801.12	35.088
801.43	23.944
801.73	40.678
802.04	49.180
802.34	60.000
802.65	63.462
802.95	35.185
803.26	55.000
803.56	46.154
803.87	34.211
804.17	41.935
804.48	47.692
804.78	41.026
805.09	51.163
805.39	37.500
805.70	50.943
806.00	59.649
806.30	35.135
806.61	42.647
806.91	45.679
807.22	60.000
807.52	49.254
807.83	24.194
808.13	30.159
808.43	36.364
808.74	48.485
809.04	35.849
809.35	41.096
809.65	70.175
809.95	38.235
810.26	35.294
810.56	30.000
810.86	32.653
811.17	54.286
811.47	32.692
811.77	29.032
812.08	-10.526
812.38	57.143
812.69	56.522
812.99	61.290
813.29	45.238
813.59	33.333
813.90	19.149
814.20	13.953
814.50	45.833
814.81	33.333
815.11	26.829
815.41	40.000
815.72	62.857
816.02	19.444
816.32	69.231
816.62	16.216
816.93	0.000
817.23	17.391
817.53	35.294
817.84	55.882
818.14	15.625
818.44	24.138
818.74	32.258
819.04	22.222
819.35	60.000
819.65	12.000
819.95	50.000
820.25	8.000
820.56	7.895
820.86	-5.000
821.16	29.787
821.46	41.379
821.76	15.385
822.07	15.000
822.37	-2.326
822.67	10.000
822.97	27.027
823.27	32.432
823.57	20.000
823.88	24.324
824.18	19.048
824.48	34.615
824.78	-23.077
825.08	47.826
825.38	16.667
825.69	45.833
825.99	25.000
826.29	-27.027
826.59	17.647
826.89	64.000
827.19	-2.857
827.49	21.053
827.79	6.250
828.09	0.000
828.39	86.957
828.70	-3.448
829.00	-10.345
829.30	0.000
829.60	31.250
829.90	88.889
830.20	19.231
830.50	-19.048
830.80	-25.000
831.10	28.205
831.40	-4.762
831.70	8.824
832.00	29.167
832.30	0.000
832.60	68.750
832.90	-41.667
833.20	-58.824
833.50	6.667
833.80	53.333
834.10	-10.000
834.40	-4.167
834.70	16.667
835.00	15.385
835.30	-4.167
835.60	24.138
835.90	-50.000
836.20	-45.455
836.50	-33.333
836.80	20.000
837.10	48.571
837.40	35.294
837.70	-63.636
838.00	-16.667
838.30	-12.500
838.60	-38.095
838.90	30.000
839.19	8.696
839.49	0.000
839.79	-88.889
840.09	-17.391
840.39	-4.545
840.69	-50.000
840.99	42.105
841.29	-6.250
841.59	-14.286
841.88	-27.778
842.18	-4.167
842.48	-100.000
842.78	13.793
843.08	35.714
843.38	0.000
843.68	-133.333
843.97	-53.846
844.27	0.000
844.57	-100.000
844.87	24.000
845.17	-260.000
845.47	-64.286
845.76	-66.667
846.06	0.000
846.36	-225.000
846.66	-90.000
846.96	-21.053
847.25	16.667
847.55	-91.667
847.85	46.667
848.15	-160.000
848.44	34.615
848.74	26.316
849.04	433.333
849.34	-144.444
849.63	31.579
849.93	0.000
850.23	-25.000
850.53	-19.048
850.82	-44.000
851.12	-21.053
851.42	-200.000
851.71	21.429
852.01	25.000
852.31	-17.647
852.61	-40.000
852.90	-19.048
853.20	-216.667
853.50	0.000
853.79	52.632
854.09	-80.000
854.39	17.857
854.68	-8.696
854.98	-175.000
855.28	31.034
855.57	-50.000
855.87	-30.000
856.17	-46.667
856.46	-17.241
856.76	-40.000
857.05	0.000
857.35	-123.077
857.65	-45.455
857.94	25.926
858.24	-142.857
858.53	-21.429
858.83	-75.000
859.13	-200.000
859.42	42.857
859.72	-50.000
860.01	33.333
860.31	125.000
860.60	-420.000
860.90	-55.556
861.20	-25.000
861.49	-42.857
861.79	-35.294
862.08	-850.000
862.38	-166.667
862.67	7.692
862.97	17.647
863.26	25.000
863.56	-52.941
863.85	366.667
864.15	-40.000
864.44	-76.923
864.74	-5.000
865.03	-150.000
865.33	-183.333
865.62	-35.294
865.92	-425.000
866.21	-42.857
866.51	-83.333
866.80	-500.000
867.10	-66.667
867.39	-29.412
867.69	0.000
867.98	-128.571
868.27	-220.000
868.57	-81.250
868.86	-109.091
869.16	-5.882
869.45	50.000
869.75	-57.143
870.04	700.000
870.33	-58.333
870.63	-100.000
870.92	-88.889
871.22	-66.667
871.51	-163.636
871.80	16.667
872.10	10.000
>>>>>End Processed Spectral Data<<<<<
