SpectraSuite Data File
++++++++++++++++++++++++++++++++++++
Date: Sat May 16 11:10:02 PDT 2015
User: schluterlab
Dark Spectrum Present: Yes
Reference Spectrum Present: Yes
Number of Sampled Component Spectra: 1
Spectrometers: USB2E3373
Integration Time (usec): 3000 (USB2E3373)
Spectra Averaged: 3 (USB2E3373)
Boxcar Smoothing: 0 (USB2E3373)
Correct for Electrical Dark: No (USB2E3373)
Strobe/Lamp Enabled: No (USB2E3373)
Correct for Detector Non-linearity: No (USB2E3373)
Correct for Stray Light: No (USB2E3373)
Number of Pixels in Processed Spectrum: 2048
>>>>>Begin Processed Spectral Data<<<<<
178.53	0.000
178.91	113.333
179.29	-0.000
179.67	500.000
180.04	-84.615
180.42	600.000
180.80	175.000
181.18	75.000
181.56	-12.500
181.94	-400.000
182.31	225.000
182.69	46.154
183.07	-33.333
183.45	1300.000
183.83	300.000
184.20	-142.857
184.58	75.000
184.96	250.000
185.34	56.250
185.72	-200.000
186.09	100.000
186.47	-75.000
186.85	37.500
187.23	-37.500
187.61	75.000
187.98	-212.500
188.36	-37.500
188.74	37.500
189.12	-300.000
189.49	214.286
189.87	50.000
190.25	275.000
190.63	14.286
191.00	-133.333
191.38	140.000
191.76	93.333
192.14	300.000
192.51	0.000
192.89	-300.000
193.27	0.000
193.65	55.556
194.02	-128.571
194.40	433.333
194.78	0.000
195.15	400.000
195.53	-45.455
195.91	-150.000
196.29	40.000
196.66	-200.000
197.04	1400.000
197.42	25.000
197.79	80.000
198.17	-33.333
198.55	-150.000
198.92	-700.000
199.30	137.500
199.68	-700.000
200.05	11.111
200.43	-55.556
200.81	-400.000
201.18	-25.000
201.56	42.857
201.94	26.667
202.31	36.364
202.69	90.000
203.07	-30.000
203.44	33.333
203.82	-183.333
204.19	-125.000
204.57	-125.000
204.95	-700.000
205.32	0.000
205.70	300.000
206.08	-1500.000
206.45	11.111
206.83	-200.000
207.20	250.000
207.58	-300.000
207.96	0.000
208.33	-87.500
208.71	-22.222
209.08	110.000
209.46	-114.286
209.84	300.000
210.21	0.000
210.59	15.000
210.96	100.000
211.34	-216.667
211.71	466.667
212.09	275.000
212.46	750.000
212.84	-2200.000
213.22	366.667
213.59	-16.667
213.97	88.889
214.34	130.000
214.72	-10.000
215.09	-133.333
215.47	-16.667
215.84	30.000
216.22	-20.000
216.59	13.333
216.97	-200.000
217.34	600.000
217.72	0.000
218.09	16.667
218.47	-71.429
218.84	142.857
219.22	57.143
219.59	0.000
219.97	57.143
220.34	275.000
220.72	312.500
221.09	23.077
221.47	0.000
221.84	66.667
222.22	-400.000
222.59	100.000
222.97	-37.500
223.34	250.000
223.72	-33.333
224.09	0.000
224.46	-275.000
224.84	64.286
225.21	-185.714
225.59	109.091
225.96	-75.000
226.34	-42.857
226.71	-66.667
227.08	40.000
227.46	1700.000
227.83	14.286
228.21	-112.500
228.58	-250.000
228.95	-37.500
229.33	-800.000
229.70	60.000
230.08	-500.000
230.45	50.000
230.82	83.333
231.20	-500.000
231.57	0.000
231.95	700.000
232.32	33.333
232.69	88.889
233.07	-71.429
233.44	-550.000
233.81	-13.333
234.19	133.333
234.56	62.500
234.93	56.250
235.31	-71.429
235.68	-107.143
236.05	-52.941
236.43	-9.091
236.80	6.452
237.17	20.833
237.55	33.333
237.92	-13.636
238.29	11.429
238.67	26.471
239.04	19.444
239.41	3.226
239.79	5.128
240.16	11.905
240.53	9.091
240.91	25.641
241.28	30.909
241.65	30.769
242.02	13.115
242.40	21.311
242.77	12.121
243.14	23.729
243.51	20.000
243.89	34.177
244.26	22.472
244.63	26.316
245.00	23.158
245.38	30.508
245.75	32.743
246.12	22.400
246.49	23.622
246.87	19.512
247.24	14.407
247.61	22.881
247.98	25.352
248.36	29.371
248.73	19.620
249.10	24.204
249.47	25.731
249.84	25.000
250.22	18.452
250.59	23.729
250.96	24.084
251.33	27.014
251.70	23.077
252.08	26.066
252.45	21.801
252.82	24.762
253.19	25.957
253.56	22.984
253.94	22.785
254.31	23.605
254.68	25.203
255.05	23.387
255.42	22.619
255.79	20.789
256.16	24.706
256.54	26.838
256.91	25.758
257.28	21.612
257.65	24.823
258.02	25.157
258.39	19.398
258.76	21.622
259.14	28.704
259.51	25.574
259.88	23.171
260.25	25.776
260.62	27.653
260.99	19.585
261.36	31.098
261.73	26.301
262.10	27.778
262.47	26.496
262.85	26.571
263.22	23.496
263.59	22.154
263.96	25.507
264.33	27.100
264.70	23.481
265.07	24.176
265.44	23.256
265.81	24.289
266.18	23.797
266.55	23.529
266.92	25.693
267.29	23.971
267.66	22.469
268.03	27.053
268.40	23.239
268.77	24.337
269.14	22.506
269.51	22.069
269.88	21.560
270.25	22.611
270.62	22.654
270.99	22.523
271.36	23.543
271.73	23.991
272.10	27.460
272.47	18.222
272.84	22.667
273.21	27.523
273.58	22.637
273.95	23.026
274.32	25.113
274.69	26.039
275.06	23.722
275.43	22.545
275.80	25.866
276.17	23.640
276.54	22.403
276.91	25.514
277.28	24.138
277.65	21.488
278.02	23.382
278.39	24.361
278.76	23.307
279.13	24.506
279.50	25.050
279.87	23.044
280.23	25.911
280.60	22.664
280.97	25.825
281.34	22.824
281.71	23.846
282.08	25.605
282.45	25.662
282.82	24.031
283.19	22.182
283.56	25.641
283.92	25.442
284.29	23.048
284.66	23.741
285.03	22.816
285.40	24.539
285.77	22.632
286.14	24.368
286.51	21.847
286.87	25.045
287.24	23.038
287.61	23.967
287.98	22.877
288.35	20.496
288.72	22.750
289.08	21.695
289.45	22.222
289.82	22.837
290.19	25.287
290.56	20.826
290.93	17.965
291.29	21.556
291.66	20.612
292.03	21.193
292.40	21.687
292.77	20.031
293.13	22.439
293.50	20.654
293.87	20.859
294.24	20.362
294.60	18.333
294.97	22.914
295.34	18.519
295.71	19.792
296.08	17.512
296.44	18.741
296.81	21.225
297.18	20.282
297.55	20.480
297.91	19.386
298.28	17.123
298.65	18.410
299.02	18.449
299.38	20.588
299.75	18.614
300.12	18.333
300.48	18.670
300.85	18.087
301.22	18.370
301.59	18.596
301.95	20.025
302.32	16.819
302.69	19.217
303.05	19.292
303.42	17.500
303.79	18.900
304.15	17.417
304.52	18.086
304.89	16.883
305.25	19.902
305.62	16.099
305.99	18.375
306.35	17.980
306.72	18.109
307.09	19.410
307.45	18.615
307.82	16.425
308.19	17.673
308.55	19.172
308.92	16.219
309.29	17.838
309.65	18.452
310.02	16.739
310.38	16.973
310.75	18.955
311.12	17.872
311.48	18.476
311.85	17.096
312.22	19.156
312.58	18.413
312.95	17.941
313.31	19.281
313.68	20.101
314.05	19.189
314.41	18.913
314.78	18.881
315.14	19.151
315.51	19.959
315.87	21.394
316.24	20.019
316.61	21.209
316.97	20.896
317.34	20.039
317.70	21.243
318.07	21.828
318.43	20.506
318.80	21.878
319.16	20.356
319.53	21.523
319.89	21.072
320.26	22.255
320.62	21.058
320.99	22.189
321.35	21.281
321.72	22.620
322.08	23.640
322.45	23.564
322.81	23.151
323.18	23.247
323.54	23.105
323.91	22.521
324.27	23.099
324.64	23.492
325.00	24.520
325.37	23.982
325.73	24.497
326.10	23.915
326.46	24.343
326.83	25.106
327.19	24.854
327.56	25.383
327.92	25.149
328.29	23.810
328.65	23.636
329.01	24.823
329.38	24.532
329.74	26.648
330.11	24.660
330.47	25.250
330.84	26.764
331.20	23.466
331.56	24.248
331.93	24.778
332.29	25.662
332.66	24.671
333.02	24.706
333.38	24.910
333.75	24.933
334.11	25.867
334.48	24.360
334.84	26.422
335.20	24.113
335.57	25.542
335.93	26.500
336.29	24.889
336.66	23.348
337.02	24.955
337.38	23.351
337.75	25.285
338.11	26.208
338.47	25.445
338.84	24.319
339.20	24.605
339.56	26.471
339.93	25.573
340.29	24.004
340.65	25.000
341.02	24.621
341.38	24.937
341.74	24.979
342.11	25.000
342.47	24.721
342.83	23.594
343.20	24.167
343.56	22.286
343.92	25.876
344.28	25.231
344.65	24.257
345.01	24.118
345.37	24.834
345.73	22.340
346.10	23.058
346.46	23.477
346.82	22.534
347.19	23.911
347.55	22.793
347.91	22.205
348.27	22.912
348.63	24.233
349.00	24.662
349.36	23.263
349.72	23.646
350.08	24.298
350.45	24.192
350.81	24.443
351.17	22.588
351.53	22.593
351.89	23.120
352.26	22.868
352.62	24.347
352.98	23.418
353.34	24.221
353.70	22.162
354.07	23.525
354.43	24.111
354.79	25.436
355.15	22.923
355.51	22.969
355.87	23.399
356.24	23.352
356.60	23.932
356.96	22.710
357.32	23.120
357.68	22.759
358.04	23.249
358.40	22.970
358.77	23.029
359.13	23.489
359.49	24.036
359.85	21.951
360.21	22.679
360.57	24.172
360.93	23.111
361.29	23.244
361.66	22.485
362.02	22.929
362.38	23.331
362.74	23.810
363.10	23.529
363.46	23.932
363.82	24.125
364.18	23.300
364.54	22.873
364.90	22.921
365.26	22.611
365.62	23.521
365.98	24.822
366.35	23.310
366.71	23.115
367.07	22.865
367.43	23.267
367.79	23.918
368.15	22.831
368.51	23.846
368.87	24.107
369.23	24.351
369.59	23.542
369.95	23.538
370.31	23.840
370.67	22.704
371.03	23.251
371.39	21.924
371.75	23.104
372.11	23.960
372.47	23.210
372.83	23.922
373.19	23.071
373.55	23.575
373.91	24.324
374.27	23.614
374.63	22.498
374.99	23.922
375.35	23.082
375.71	23.565
376.07	24.162
376.42	22.715
376.78	24.118
377.14	23.797
377.50	24.178
377.86	23.472
378.22	23.744
378.58	22.668
378.94	23.428
379.30	22.852
379.66	23.558
380.02	23.351
380.38	23.323
380.74	23.329
381.09	23.902
381.45	24.224
381.81	22.928
382.17	22.744
382.53	23.222
382.89	24.222
383.25	24.202
383.61	23.821
383.97	24.005
384.32	24.468
384.68	25.212
385.04	23.611
385.40	23.737
385.76	24.573
386.12	24.297
386.48	24.443
386.83	23.865
387.19	24.328
387.55	24.046
387.91	23.651
388.27	24.065
388.62	24.820
388.98	23.925
389.34	22.766
389.70	24.543
390.06	24.239
390.42	24.295
390.77	24.479
391.13	25.528
391.49	24.267
391.85	24.252
392.20	23.180
392.56	23.458
392.92	24.815
393.28	24.168
393.64	24.594
393.99	24.615
394.35	25.000
394.71	24.398
395.07	24.168
395.42	23.123
395.78	23.570
396.14	25.732
396.50	24.526
396.85	24.800
397.21	24.484
397.57	23.587
397.92	25.117
398.28	24.667
398.64	24.628
399.00	25.618
399.35	24.183
399.71	24.797
400.07	24.537
400.42	24.635
400.78	25.045
401.14	24.192
401.49	24.764
401.85	24.954
402.21	24.017
402.57	24.636
402.92	25.425
403.28	24.142
403.63	24.805
403.99	24.487
404.35	23.671
404.70	24.517
405.06	23.645
405.42	23.862
405.77	24.774
406.13	24.532
406.49	24.685
406.84	24.175
407.20	25.618
407.55	24.763
407.91	24.417
408.27	25.184
408.62	24.233
408.98	25.167
409.34	24.497
409.69	24.764
410.05	24.803
410.40	24.157
410.76	25.015
411.11	24.127
411.47	24.297
411.83	25.428
412.18	24.691
412.54	24.710
412.89	23.998
413.25	24.144
413.60	24.362
413.96	24.276
414.31	25.015
414.67	24.190
415.03	25.744
415.38	25.179
415.74	25.129
416.09	25.384
416.45	24.272
416.80	24.252
417.16	23.920
417.51	26.658
417.87	25.307
418.22	24.842
418.58	25.096
418.93	24.647
419.29	25.533
419.64	25.188
420.00	25.273
420.35	25.133
420.71	25.870
421.06	26.213
421.42	24.941
421.77	25.628
422.12	25.686
422.48	25.601
422.83	25.569
423.19	25.111
423.54	25.879
423.90	25.217
424.25	24.830
424.61	26.779
424.96	25.805
425.31	25.098
425.67	25.559
426.02	25.072
426.38	25.953
426.73	26.417
427.09	25.858
427.44	25.852
427.79	24.593
428.15	26.451
428.50	25.572
428.85	26.259
429.21	25.069
429.56	25.573
429.92	26.102
430.27	26.072
430.62	26.019
430.98	25.719
431.33	26.201
431.68	26.381
432.04	26.749
432.39	25.983
432.74	26.019
433.10	26.168
433.45	25.849
433.80	25.924
434.16	26.061
434.51	25.808
434.86	26.128
435.22	26.559
435.57	26.255
435.92	27.550
436.28	26.647
436.63	25.382
436.98	25.716
437.34	26.639
437.69	25.729
438.04	26.489
438.39	26.955
438.75	26.368
439.10	25.819
439.45	26.252
439.81	26.386
440.16	24.759
440.51	26.765
440.86	26.489
441.22	26.147
441.57	26.632
441.92	25.831
442.27	26.245
442.63	26.019
442.98	27.201
443.33	26.853
443.68	26.159
444.03	27.259
444.39	27.068
444.74	27.368
445.09	26.645
445.44	27.743
445.79	26.109
446.15	28.258
446.50	25.694
446.85	26.321
447.20	26.711
447.55	26.851
447.91	27.737
448.26	26.760
448.61	26.599
448.96	26.891
449.31	27.621
449.66	26.159
450.02	25.762
450.37	25.739
450.72	25.932
451.07	27.844
451.42	25.836
451.77	27.648
452.12	26.937
452.47	26.448
452.83	26.325
453.18	26.945
453.53	26.244
453.88	26.914
454.23	26.119
454.58	26.911
454.93	27.582
455.28	26.450
455.63	26.904
455.98	27.169
456.34	25.794
456.69	27.267
457.04	26.613
457.39	26.974
457.74	26.934
458.09	27.146
458.44	26.905
458.79	26.233
459.14	26.982
459.49	27.531
459.84	26.757
460.19	26.790
460.54	26.195
460.89	27.130
461.24	25.622
461.59	27.022
461.94	26.989
462.29	26.027
462.64	27.141
462.99	27.041
463.34	26.536
463.69	26.272
464.04	26.596
464.39	27.121
464.74	26.891
465.09	25.857
465.44	26.734
465.79	26.847
466.14	25.777
466.49	26.828
466.84	26.531
467.19	26.870
467.54	25.000
467.89	26.695
468.24	27.553
468.59	25.859
468.94	26.624
469.29	26.251
469.64	25.809
469.99	26.671
470.34	26.386
470.68	27.616
471.03	27.323
471.38	27.014
471.73	26.643
472.08	25.837
472.43	26.062
472.78	26.800
473.13	24.851
473.48	25.973
473.83	26.241
474.17	25.605
474.52	27.110
474.87	25.932
475.22	25.841
475.57	24.833
475.92	26.080
476.27	25.486
476.61	26.028
476.96	26.719
477.31	25.996
477.66	26.674
478.01	26.418
478.36	25.720
478.70	26.161
479.05	26.176
479.40	25.596
479.75	26.351
480.10	26.091
480.45	25.629
480.79	25.469
481.14	27.948
481.49	26.283
481.84	26.630
482.19	26.679
482.53	26.184
482.88	26.293
483.23	25.446
483.58	26.873
483.92	26.374
484.27	25.432
484.62	26.048
484.97	26.306
485.31	25.760
485.66	25.493
486.01	25.790
486.36	26.436
486.70	25.986
487.05	26.149
487.40	26.175
487.75	26.081
488.09	25.911
488.44	26.116
488.79	26.742
489.13	26.322
489.48	26.468
489.83	26.332
490.17	25.729
490.52	25.679
490.87	25.681
491.22	25.969
491.56	25.694
491.91	25.716
492.26	26.321
492.60	25.690
492.95	26.511
493.30	25.869
493.64	25.012
493.99	25.430
494.34	26.286
494.68	26.358
495.03	25.430
495.37	25.467
495.72	25.884
496.07	25.809
496.41	26.170
496.76	25.936
497.11	24.918
497.45	26.820
497.80	25.613
498.14	25.393
498.49	25.565
498.84	25.437
499.18	26.072
499.53	25.718
499.87	25.000
500.22	25.931
500.56	26.213
500.91	25.468
501.26	25.958
501.60	25.421
501.95	25.990
502.29	25.413
502.64	25.224
502.98	25.539
503.33	24.906
503.67	25.096
504.02	24.819
504.36	25.735
504.71	24.772
505.06	25.012
505.40	25.749
505.75	25.203
506.09	25.784
506.44	25.664
506.78	25.289
507.13	25.335
507.47	25.091
507.82	25.761
508.16	25.751
508.51	25.193
508.85	25.621
509.19	24.908
509.54	25.370
509.88	25.213
510.23	25.734
510.57	25.979
510.92	25.671
511.26	24.721
511.61	25.702
511.95	25.054
512.30	24.409
512.64	25.598
512.98	25.523
513.33	25.206
513.67	25.907
514.02	25.112
514.36	25.152
514.70	24.958
515.05	25.386
515.39	25.317
515.74	26.003
516.08	25.245
516.42	25.836
516.77	24.668
517.11	24.943
517.46	25.957
517.80	24.489
518.14	24.638
518.49	25.463
518.83	24.570
519.17	25.873
519.52	24.639
519.86	25.568
520.20	25.611
520.55	24.554
520.89	24.170
521.23	25.275
521.58	24.953
521.92	25.649
522.26	24.698
522.61	25.032
522.95	24.952
523.29	25.768
523.64	24.485
523.98	26.098
524.32	25.519
524.66	23.727
525.01	24.470
525.35	25.451
525.69	25.179
526.04	24.869
526.38	25.525
526.72	24.330
527.06	25.326
527.41	25.149
527.75	24.818
528.09	25.017
528.43	25.246
528.78	24.309
529.12	25.800
529.46	25.387
529.80	24.532
530.15	25.821
530.49	24.838
530.83	25.999
531.17	25.455
531.51	24.113
531.86	25.543
532.20	24.494
532.54	26.136
532.88	25.099
533.22	25.067
533.57	25.065
533.91	25.156
534.25	24.639
534.59	24.984
534.93	24.456
535.27	24.858
535.62	25.448
535.96	24.564
536.30	23.429
536.64	26.162
536.98	24.859
537.32	25.155
537.66	24.644
538.01	24.124
538.35	25.608
538.69	25.201
539.03	25.118
539.37	25.482
539.71	24.750
540.05	24.949
540.39	24.792
540.73	25.708
541.07	25.205
541.42	22.417
541.76	24.319
542.10	25.793
542.44	24.317
542.78	24.627
543.12	25.390
543.46	24.247
543.80	24.615
544.14	25.185
544.48	24.606
544.82	24.763
545.16	25.486
545.50	23.957
545.84	24.548
546.18	24.965
546.52	25.605
546.86	25.499
547.20	25.668
547.54	24.931
547.88	24.419
548.22	23.591
548.56	24.850
548.90	24.528
549.24	24.737
549.58	23.924
549.92	24.806
550.26	26.445
550.60	25.036
550.94	25.474
551.28	23.853
551.62	24.372
551.96	24.240
552.30	23.902
552.64	25.405
552.98	25.438
553.32	24.820
553.66	25.162
554.00	24.449
554.34	24.116
554.68	25.073
555.02	26.266
555.36	24.227
555.69	25.072
556.03	24.070
556.37	25.320
556.71	25.913
557.05	24.982
557.39	24.573
557.73	24.508
558.07	25.998
558.41	24.907
558.75	25.551
559.08	23.113
559.42	25.574
559.76	25.153
560.10	25.280
560.44	25.795
560.78	25.052
561.12	24.569
561.45	24.178
561.79	25.226
562.13	24.965
562.47	24.370
562.81	23.550
563.15	23.863
563.48	24.948
563.82	24.814
564.16	25.085
564.50	25.336
564.84	24.669
565.17	24.072
565.51	24.707
565.85	25.152
566.19	25.758
566.52	24.397
566.86	24.716
567.20	26.150
567.54	25.399
567.88	24.846
568.21	24.720
568.55	24.708
568.89	24.304
569.23	24.526
569.56	24.296
569.90	24.744
570.24	25.066
570.57	23.937
570.91	24.549
571.25	24.773
571.59	25.008
571.92	24.911
572.26	25.045
572.60	25.101
572.93	24.621
573.27	24.238
573.61	24.434
573.95	24.774
574.28	24.288
574.62	24.733
574.96	24.402
575.29	24.339
575.63	24.821
575.97	24.326
576.30	24.198
576.64	25.117
576.98	24.509
577.31	24.720
577.65	24.938
577.98	24.351
578.32	24.374
578.66	24.784
578.99	24.887
579.33	24.692
579.67	24.601
580.00	24.479
580.34	24.560
580.67	24.491
581.01	24.223
581.35	25.289
581.68	24.695
582.02	24.894
582.35	24.646
582.69	25.055
583.02	25.133
583.36	24.762
583.70	24.526
584.03	25.943
584.37	24.465
584.70	24.663
585.04	24.532
585.37	24.153
585.71	24.770
586.04	24.265
586.38	24.566
586.72	24.690
587.05	25.234
587.39	24.939
587.72	25.113
588.06	24.732
588.39	24.637
588.73	24.834
589.06	25.256
589.40	24.906
589.73	24.469
590.07	25.164
590.40	24.649
590.73	24.070
591.07	25.246
591.40	25.477
591.74	25.109
592.07	24.775
592.41	25.563
592.74	25.096
593.08	24.648
593.41	24.868
593.75	24.959
594.08	24.730
594.41	24.991
594.75	24.575
595.08	24.474
595.42	25.506
595.75	24.807
596.09	24.874
596.42	25.123
596.75	24.623
597.09	25.735
597.42	24.662
597.75	24.978
598.09	25.124
598.42	24.923
598.76	25.457
599.09	24.862
599.42	24.529
599.76	24.991
600.09	24.962
600.42	25.446
600.76	25.386
601.09	24.953
601.42	24.575
601.76	25.039
602.09	24.826
602.42	24.609
602.76	24.179
603.09	25.565
603.42	25.342
603.76	26.007
604.09	25.030
604.42	24.521
604.76	23.724
605.09	24.367
605.42	25.621
605.75	25.313
606.09	24.284
606.42	24.340
606.75	24.689
607.09	24.790
607.42	24.648
607.75	25.651
608.08	25.531
608.42	24.882
608.75	24.159
609.08	24.988
609.41	25.012
609.75	24.622
610.08	24.706
610.41	24.627
610.74	24.855
611.07	24.899
611.41	24.155
611.74	25.398
612.07	25.779
612.40	24.574
612.73	24.933
613.07	24.106
613.40	25.670
613.73	24.687
614.06	25.535
614.39	25.817
614.72	24.022
615.06	24.837
615.39	24.688
615.72	25.149
616.05	24.406
616.38	25.305
616.71	25.165
617.05	25.452
617.38	24.520
617.71	25.307
618.04	25.093
618.37	24.277
618.70	25.359
619.03	24.645
619.36	25.863
619.69	24.623
620.03	25.413
620.36	25.457
620.69	25.413
621.02	24.505
621.35	24.194
621.68	24.508
622.01	26.294
622.34	25.155
622.67	25.000
623.00	24.866
623.33	25.746
623.66	24.225
623.99	25.865
624.32	25.595
624.65	25.239
624.99	25.243
625.32	24.401
625.65	24.942
625.98	24.804
626.31	25.530
626.64	23.933
626.97	23.973
627.30	25.191
627.63	23.748
627.96	25.413
628.29	24.724
628.62	23.400
628.95	24.508
629.28	24.906
629.61	24.534
629.94	24.669
630.26	25.547
630.59	24.322
630.92	26.927
631.25	24.395
631.58	24.339
631.91	23.723
632.24	24.778
632.57	25.111
632.90	26.322
633.23	25.701
633.56	24.561
633.89	25.472
634.22	24.911
634.55	24.760
634.88	24.547
635.20	24.469
635.53	22.519
635.86	23.804
636.19	23.687
636.52	24.014
636.85	24.789
637.18	24.250
637.51	25.403
637.83	24.101
638.16	25.658
638.49	23.172
638.82	23.810
639.15	25.551
639.48	25.162
639.81	26.279
640.13	23.784
640.46	25.071
640.79	25.490
641.12	24.118
641.45	23.386
641.77	24.701
642.10	24.924
642.43	25.190
642.76	22.520
643.09	24.603
643.41	27.619
643.74	23.688
644.07	25.429
644.40	23.987
644.73	24.092
645.05	23.038
645.38	24.503
645.71	25.773
646.04	25.882
646.36	24.433
646.69	26.298
647.02	28.159
647.35	24.188
647.67	25.547
648.00	26.538
648.33	25.970
648.66	23.226
648.98	23.726
649.31	26.462
649.64	25.156
649.96	24.019
650.29	22.459
650.62	25.645
650.94	25.464
651.27	25.650
651.60	25.606
651.92	24.658
652.25	25.710
652.58	26.235
652.90	23.114
653.23	24.355
653.56	24.415
653.88	24.426
654.21	26.007
654.54	24.419
654.86	22.793
655.19	24.212
655.52	25.699
655.84	25.811
656.17	27.947
656.49	38.185
656.82	39.394
657.15	29.784
657.47	21.488
657.80	16.637
658.13	19.301
658.45	25.839
658.78	25.429
659.10	25.131
659.43	24.740
659.75	25.610
660.08	26.094
660.41	24.543
660.73	24.642
661.06	26.377
661.38	24.107
661.71	24.474
662.03	26.008
662.36	26.013
662.68	23.840
663.01	28.662
663.33	24.490
663.66	25.322
663.98	24.107
664.31	23.937
664.63	26.549
664.96	26.247
665.28	24.295
665.61	24.947
665.93	26.749
666.26	25.911
666.58	24.532
666.91	24.499
667.23	26.535
667.56	24.036
667.88	23.982
668.21	23.733
668.53	22.664
668.86	25.404
669.18	23.059
669.50	26.402
669.83	23.114
670.15	24.664
670.48	23.364
670.80	23.690
671.13	23.025
671.45	23.198
671.77	25.268
672.10	25.838
672.42	24.908
672.75	24.364
673.07	24.324
673.39	25.683
673.72	27.953
674.04	25.478
674.37	22.062
674.69	25.820
675.01	21.915
675.34	26.030
675.66	26.566
675.98	24.890
676.31	27.602
676.63	26.667
676.95	24.558
677.28	23.202
677.60	23.303
677.92	30.617
678.25	25.164
678.57	26.337
678.89	25.157
679.22	22.851
679.54	25.049
679.86	23.200
680.18	25.285
680.51	24.209
680.83	24.381
681.15	24.085
681.48	27.181
681.80	24.798
682.12	26.559
682.44	24.754
682.77	25.758
683.09	26.625
683.41	25.221
683.73	24.201
684.06	26.452
684.38	26.778
684.70	26.749
685.02	24.409
685.34	25.731
685.67	24.621
685.99	23.062
686.31	27.648
686.63	25.532
686.96	24.399
687.28	23.507
687.60	28.516
687.92	22.957
688.24	22.638
688.56	23.046
688.89	24.359
689.21	25.383
689.53	25.747
689.85	26.726
690.17	25.112
690.49	26.097
690.82	23.133
691.14	23.585
691.46	26.829
691.78	24.229
692.10	25.212
692.42	23.778
692.74	24.678
693.06	24.045
693.39	23.043
693.71	24.605
694.03	25.918
694.35	24.379
694.67	24.113
694.99	25.575
695.31	24.490
695.63	23.214
695.95	27.543
696.27	22.693
696.59	25.668
696.91	24.438
697.23	29.948
697.56	23.558
697.88	23.649
698.20	23.555
698.52	22.197
698.84	27.427
699.16	24.048
699.48	23.750
699.80	23.559
700.12	27.456
700.44	22.067
700.76	22.741
701.08	26.453
701.40	23.867
701.72	28.395
702.04	27.244
702.36	28.012
702.68	22.156
703.00	24.348
703.32	24.642
703.64	25.294
703.96	25.872
704.28	23.669
704.60	21.519
704.91	22.857
705.23	27.832
705.55	23.311
705.87	23.208
706.19	20.139
706.51	25.694
706.83	23.934
707.15	22.930
707.47	22.865
707.79	24.485
708.11	22.646
708.43	27.182
708.74	23.636
709.06	22.284
709.38	25.000
709.70	27.812
710.02	30.061
710.34	28.053
710.66	22.857
710.98	25.868
711.29	24.839
711.61	24.281
711.93	25.574
712.25	25.249
712.57	21.951
712.89	31.655
713.20	27.835
713.52	26.866
713.84	23.132
714.16	25.574
714.48	26.032
714.80	24.000
715.11	27.378
715.43	29.518
715.75	27.726
716.07	25.246
716.39	26.756
716.70	24.739
717.02	26.667
717.34	27.863
717.66	27.801
717.97	22.131
718.29	27.731
718.61	30.159
718.93	24.373
719.24	22.059
719.56	17.736
719.88	23.273
720.20	25.843
720.51	28.195
720.83	25.301
721.15	29.098
721.46	29.020
721.78	26.054
722.10	28.800
722.42	21.901
722.73	29.880
723.05	28.112
723.37	25.490
723.68	23.077
724.00	29.268
724.32	27.160
724.63	22.407
724.95	28.926
725.27	24.561
725.58	23.276
725.90	24.206
726.22	30.627
726.53	20.913
726.85	23.529
727.16	27.444
727.48	27.692
727.80	22.951
728.11	23.950
728.43	25.207
728.74	28.906
729.06	24.621
729.38	24.514
729.69	24.803
730.01	24.016
730.32	24.701
730.64	24.542
730.96	32.090
731.27	27.143
731.59	25.723
731.90	28.221
732.22	26.687
732.53	32.119
732.85	22.819
733.16	26.449
733.48	23.345
733.80	24.555
734.11	25.862
734.43	24.830
734.74	28.487
735.06	27.900
735.37	27.829
735.69	25.161
736.00	25.589
736.32	28.808
736.63	21.724
736.95	25.362
737.26	27.815
737.58	25.540
737.89	31.183
738.21	22.180
738.52	29.231
738.83	25.781
739.15	23.077
739.46	25.000
739.78	27.622
740.09	25.524
740.41	23.427
740.72	28.467
741.04	28.571
741.35	29.437
741.66	23.611
741.98	24.762
742.29	26.761
742.61	26.738
742.92	28.505
743.23	24.561
743.55	23.874
743.86	28.889
744.18	27.619
744.49	30.049
744.80	24.365
745.12	34.021
745.43	26.131
745.74	30.097
746.06	23.902
746.37	30.396
746.68	30.348
747.00	35.079
747.31	22.596
747.62	24.424
747.94	27.511
748.25	29.767
748.56	23.810
748.88	19.565
749.19	26.761
749.50	30.882
749.82	31.556
750.13	30.837
750.44	28.862
750.75	26.400
751.07	28.929
751.38	23.985
751.69	23.664
752.01	27.308
752.32	24.903
752.63	25.385
752.94	25.794
753.26	30.870
753.57	28.125
753.88	28.879
754.19	27.386
754.51	28.125
754.82	26.877
755.13	27.160
755.44	25.620
755.75	27.572
756.07	24.096
756.38	29.297
756.69	28.159
757.00	24.390
757.31	29.195
757.63	28.660
757.94	24.566
758.25	25.872
758.56	33.423
758.87	26.705
759.18	29.667
759.50	32.740
759.81	21.898
760.12	26.014
760.43	26.537
760.74	28.125
761.05	28.933
761.36	27.545
761.67	29.290
761.99	24.516
762.30	26.087
762.61	28.679
762.92	28.700
763.23	32.701
763.54	32.889
763.85	28.270
764.16	23.673
764.47	27.119
764.78	28.090
765.10	28.417
765.41	23.871
765.72	27.987
766.03	24.028
766.34	24.812
766.65	31.174
766.96	16.500
767.27	26.562
767.58	31.395
767.89	21.935
768.20	28.834
768.51	32.240
768.82	25.946
769.13	26.500
769.44	27.632
769.75	30.303
770.06	30.734
770.37	23.474
770.68	25.000
770.99	24.752
771.30	28.641
771.61	33.796
771.92	26.407
772.23	27.103
772.54	29.787
772.85	24.260
773.16	21.951
773.47	27.711
773.78	33.516
774.09	31.333
774.39	24.074
774.70	24.832
775.01	31.159
775.32	24.627
775.63	23.967
775.94	27.068
776.25	30.714
776.56	29.508
776.87	37.168
777.18	34.513
777.48	21.818
777.79	21.739
778.10	21.101
778.41	20.339
778.72	37.190
779.03	28.358
779.34	24.060
779.65	20.261
779.95	26.812
780.26	18.367
780.57	18.103
780.88	28.704
781.19	29.293
781.50	16.000
781.80	27.451
782.11	26.923
782.42	25.301
782.73	21.168
783.04	28.378
783.34	29.545
783.65	27.907
783.96	23.577
784.27	26.496
784.57	30.081
784.88	18.699
785.19	27.193
785.50	3.093
785.81	29.524
786.11	14.706
786.42	20.000
786.73	32.432
787.04	27.723
787.34	25.714
787.65	25.714
787.96	26.471
788.26	16.216
788.57	30.645
788.88	30.469
789.19	18.803
789.49	15.126
789.80	23.077
790.11	25.664
790.41	28.283
790.72	36.792
791.03	9.722
791.33	26.316
791.64	29.032
791.95	20.000
792.25	45.714
792.56	34.146
792.87	32.653
793.17	23.684
793.48	17.568
793.79	12.676
794.09	20.253
794.40	20.213
794.70	30.841
795.01	16.667
795.32	15.455
795.62	27.679
795.93	24.742
796.23	17.582
796.54	22.105
796.85	19.178
797.15	12.500
797.46	21.918
797.76	32.394
798.07	25.000
798.37	32.353
798.68	22.857
798.99	27.143
799.29	31.579
799.60	31.667
799.90	18.056
800.21	14.063
800.51	26.984
800.82	29.508
801.12	14.035
801.43	9.859
801.73	35.593
802.04	14.754
802.34	16.364
802.65	38.462
802.95	9.259
803.26	10.000
803.56	21.154
803.87	-21.053
804.17	16.129
804.48	27.692
804.78	5.128
805.09	41.860
805.39	9.375
805.70	7.547
806.00	26.316
806.30	27.027
806.61	23.529
806.91	25.926
807.22	36.000
807.52	28.358
807.83	29.032
808.13	26.984
808.43	14.545
808.74	24.242
809.04	33.962
809.35	31.507
809.65	49.123
809.95	23.529
810.26	25.490
810.56	30.000
810.86	28.571
811.17	0.000
811.47	38.462
811.77	3.226
812.08	-10.526
812.38	42.857
812.69	21.739
812.99	58.065
813.29	23.810
813.59	-3.704
813.90	25.532
814.20	11.628
814.50	35.417
814.81	13.333
815.11	17.073
815.41	20.000
815.72	51.429
816.02	-8.333
816.32	25.641
816.62	32.432
816.93	-44.118
817.23	-8.696
817.53	32.353
817.84	35.294
818.14	-28.125
818.44	41.379
818.74	-12.903
819.04	-7.407
819.35	13.333
819.65	12.000
819.95	23.333
820.25	-16.000
820.56	13.158
820.86	-7.500
821.16	42.553
821.46	36.207
821.76	7.692
822.07	12.500
822.37	32.558
822.67	-43.333
822.97	10.811
823.27	43.243
823.57	60.000
823.88	29.730
824.18	4.762
824.48	23.077
824.78	-46.154
825.08	34.783
825.38	29.167
825.69	16.667
825.99	-65.000
826.29	27.027
826.59	20.588
826.89	40.000
827.19	8.571
827.49	15.789
827.79	-9.375
828.09	6.667
828.39	47.826
828.70	6.897
829.00	10.345
829.30	25.000
829.60	50.000
829.90	33.333
830.20	-34.615
830.50	14.286
830.80	17.857
831.10	33.333
831.40	-23.810
831.70	26.471
832.00	20.833
832.30	-21.053
832.60	-18.750
832.90	0.000
833.20	0.000
833.50	26.667
833.80	-46.667
834.10	20.000
834.40	75.000
834.70	-22.222
835.00	38.462
835.30	-8.333
835.60	31.034
835.90	-11.111
836.20	9.091
836.50	-8.333
836.80	8.571
837.10	37.143
837.40	-41.176
837.70	-27.273
838.00	70.833
838.30	6.250
838.60	14.286
838.90	35.000
839.19	4.348
839.49	8.696
839.79	5.556
840.09	0.000
840.39	22.727
840.69	62.500
840.99	-5.263
841.29	-31.250
841.59	7.143
841.88	16.667
842.18	-8.333
842.48	0.000
842.78	41.379
843.08	114.286
843.38	23.077
843.68	-133.333
843.97	-15.385
844.27	63.636
844.57	-80.000
844.87	8.000
845.17	80.000
845.47	-7.143
845.76	-22.222
846.06	0.000
846.36	-325.000
846.66	70.000
846.96	31.579
847.25	58.333
847.55	-75.000
847.85	33.333
848.15	-160.000
848.44	69.231
848.74	15.789
849.04	366.667
849.34	-22.222
849.63	-5.263
849.93	0.000
850.23	-35.000
850.53	33.333
850.82	48.000
851.12	42.105
851.42	-750.000
851.71	-50.000
852.01	-33.333
852.31	23.529
852.61	13.333
852.90	-4.762
853.20	-100.000
853.50	-61.111
853.79	-89.474
854.09	26.667
854.39	3.571
854.68	26.087
854.98	-33.333
855.28	6.897
855.57	-12.500
855.87	-5.000
856.17	0.000
856.46	10.345
856.76	6.667
857.05	17.647
857.35	-100.000
857.65	18.182
857.94	0.000
858.24	0.000
858.53	21.429
858.83	-75.000
859.13	-66.667
859.42	9.524
859.72	-50.000
860.01	-200.000
860.31	50.000
860.60	-220.000
860.90	-88.889
861.20	-37.500
861.49	-85.714
861.79	-11.765
862.08	-450.000
862.38	-75.000
862.67	0.000
862.97	70.588
863.26	50.000
863.56	-17.647
863.85	266.667
864.15	-90.000
864.44	-115.385
864.74	0.000
865.03	-112.500
865.33	-166.667
865.62	47.059
865.92	-400.000
866.21	-57.143
866.51	-33.333
866.80	-300.000
867.10	133.333
867.39	82.353
867.69	0.000
867.98	-42.857
868.27	-60.000
868.57	-31.250
868.86	-127.273
869.16	29.412
869.45	-50.000
869.75	-100.000
870.04	200.000
870.33	50.000
870.63	20.000
870.92	22.222
871.22	41.667
871.51	-27.273
871.80	41.667
872.10	60.000
>>>>>End Processed Spectral Data<<<<<
