SpectraSuite Data File
++++++++++++++++++++++++++++++++++++
Date: Sat May 16 11:24:10 PDT 2015
User: schluterlab
Dark Spectrum Present: Yes
Reference Spectrum Present: Yes
Number of Sampled Component Spectra: 1
Spectrometers: USB2E3373
Integration Time (usec): 3000 (USB2E3373)
Spectra Averaged: 3 (USB2E3373)
Boxcar Smoothing: 0 (USB2E3373)
Correct for Electrical Dark: No (USB2E3373)
Strobe/Lamp Enabled: No (USB2E3373)
Correct for Detector Non-linearity: No (USB2E3373)
Correct for Stray Light: No (USB2E3373)
Number of Pixels in Processed Spectrum: 2048
>>>>>Begin Processed Spectral Data<<<<<
178.53	0.000
178.91	100.000
179.29	266.667
179.67	-800.000
180.04	-84.615
180.42	600.000
180.80	475.000
181.18	500.000
181.56	-200.000
181.94	600.000
182.31	500.000
182.69	-38.462
183.07	-533.333
183.45	1500.000
183.83	300.000
184.20	-100.000
184.58	-162.500
184.96	-325.000
185.34	156.250
185.72	-200.000
186.09	366.667
186.47	-175.000
186.85	-112.500
187.23	-150.000
187.61	-50.000
187.98	-300.000
188.36	-112.500
188.74	-150.000
189.12	1200.000
189.49	357.143
189.87	-83.333
190.25	225.000
190.63	-92.857
191.00	-166.667
191.38	360.000
191.76	-20.000
192.14	720.000
192.51	-220.000
192.89	-633.333
193.27	0.000
193.65	-55.556
194.02	-300.000
194.40	733.333
194.78	-170.000
195.15	-800.000
195.53	-54.545
195.91	-400.000
196.29	340.000
196.66	-900.000
197.04	800.000
197.42	-150.000
197.79	-53.333
198.17	-400.000
198.55	-700.000
198.92	-1100.000
199.30	137.500
199.68	-900.000
200.05	-55.556
200.43	-233.333
200.81	-700.000
201.18	-133.333
201.56	100.000
201.94	-73.333
202.31	-27.273
202.69	-20.000
203.07	-120.000
203.44	466.667
203.82	-283.333
204.19	-550.000
204.57	-50.000
204.95	-400.000
205.32	-37.500
205.70	-200.000
206.08	-1600.000
206.45	-16.667
206.83	-800.000
207.20	-250.000
207.58	-466.667
207.96	-433.333
208.33	-175.000
208.71	-144.444
209.08	100.000
209.46	-228.571
209.84	1000.000
210.21	0.000
210.59	40.000
210.96	1200.000
211.34	-400.000
211.71	-100.000
212.09	425.000
212.46	500.000
212.84	-2300.000
213.22	633.333
213.59	175.000
213.97	-33.333
214.34	190.000
214.72	-90.000
215.09	-133.333
215.47	33.333
215.84	-70.000
216.22	-130.000
216.59	-13.333
216.97	-550.000
217.34	750.000
217.72	-214.286
218.09	-300.000
218.47	-342.857
218.84	185.714
219.22	-100.000
219.59	0.000
219.97	257.143
220.34	225.000
220.72	287.500
221.09	-153.846
221.47	0.000
221.84	200.000
222.22	-750.000
222.59	1800.000
222.97	-175.000
223.34	-750.000
223.72	-566.667
224.09	21.429
224.46	-500.000
224.84	-35.714
225.21	-185.714
225.59	-90.909
225.96	-125.000
226.34	-185.714
226.71	-166.667
227.08	-5.000
227.46	2100.000
227.83	-228.571
228.21	-212.500
228.58	450.000
228.95	-6.250
229.33	-1000.000
229.70	-240.000
230.08	-700.000
230.45	-33.333
230.82	33.333
231.20	-700.000
231.57	-850.000
231.95	1900.000
232.32	4.762
232.69	-88.889
233.07	-414.286
233.44	-800.000
233.81	-26.667
234.19	22.222
234.56	-43.750
234.93	-6.250
235.31	-142.857
235.68	-107.143
236.05	5.882
236.43	-95.455
236.80	-22.581
237.17	-29.167
237.55	-90.476
237.92	-63.636
238.29	-5.714
238.67	14.706
239.04	-36.111
239.41	9.677
239.79	-35.897
240.16	-14.286
240.53	-9.091
240.91	0.000
241.28	7.273
241.65	23.077
242.02	6.557
242.40	13.115
242.77	9.091
243.14	-15.254
243.51	2.857
243.89	8.861
244.26	7.865
244.63	18.947
245.00	6.316
245.38	16.102
245.75	23.009
246.12	15.200
246.49	20.472
246.87	14.634
247.24	3.390
247.61	16.949
247.98	16.197
248.36	7.692
248.73	17.722
249.10	13.376
249.47	9.942
249.84	23.295
250.22	11.310
250.59	19.774
250.96	18.325
251.33	18.483
251.70	18.750
252.08	16.588
252.45	17.536
252.82	13.810
253.19	18.298
253.56	15.323
253.94	16.034
254.31	16.738
254.68	19.106
255.05	14.516
255.42	17.063
255.79	17.204
256.16	19.216
256.54	21.691
256.91	15.530
257.28	16.484
257.65	19.149
258.02	21.069
258.39	20.401
258.76	12.162
259.14	21.605
259.51	19.016
259.88	20.427
260.25	21.118
260.62	16.399
260.99	15.430
261.36	20.427
261.73	19.653
262.10	23.056
262.47	20.228
262.85	24.000
263.22	17.765
263.59	15.385
263.96	22.319
264.33	18.699
264.70	17.127
265.07	19.780
265.44	19.897
265.81	20.930
266.18	16.456
266.55	17.892
266.92	23.174
267.29	19.613
267.66	19.259
268.03	21.981
268.40	20.892
268.77	19.518
269.14	19.258
269.51	19.310
269.88	20.413
270.25	18.881
270.62	17.162
270.99	17.117
271.36	20.513
271.73	18.834
272.10	19.451
272.47	19.111
272.84	21.333
273.21	21.101
273.58	19.780
273.95	17.763
274.32	19.005
274.69	19.475
275.06	20.859
275.43	16.964
275.80	20.367
276.17	21.130
276.54	19.756
276.91	19.753
277.28	19.675
277.65	17.975
278.02	18.998
278.39	22.986
278.76	20.319
279.13	22.134
279.50	19.483
279.87	19.027
280.23	20.040
280.60	18.887
280.97	19.417
281.34	17.408
281.71	19.231
282.08	20.161
282.45	16.293
282.82	22.674
283.19	18.909
283.56	19.597
283.92	20.671
284.29	18.216
284.66	20.144
285.03	20.321
285.40	20.849
285.77	22.632
286.14	20.758
286.51	19.183
286.87	19.419
287.24	20.137
287.61	18.678
287.98	19.584
288.35	18.017
288.72	16.469
289.08	16.780
289.45	19.697
289.82	19.031
290.19	19.048
290.56	16.860
290.93	19.555
291.29	17.180
291.66	16.586
292.03	17.896
292.40	17.922
292.77	18.789
293.13	17.886
293.50	17.236
293.87	17.638
294.24	17.195
294.60	13.485
294.97	17.754
295.34	15.111
295.71	16.667
296.08	13.825
296.44	14.878
296.81	17.379
297.18	16.620
297.55	16.808
297.91	17.015
298.28	15.890
298.65	15.202
299.02	17.380
299.38	16.711
299.75	14.946
300.12	15.769
300.48	16.880
300.85	15.465
301.22	16.171
301.59	14.954
301.95	16.499
302.32	14.472
302.69	15.789
303.05	14.896
303.42	14.750
303.79	15.789
304.15	14.810
304.52	15.519
304.89	15.584
305.25	15.751
305.62	14.336
305.99	16.372
306.35	13.651
306.72	14.123
307.09	15.323
307.45	15.778
307.82	13.296
308.19	16.219
308.55	14.488
308.92	13.856
309.29	13.297
309.65	15.376
310.02	15.659
310.38	15.027
310.75	14.344
311.12	14.463
311.48	15.971
311.85	15.242
312.22	15.654
312.58	14.954
312.95	14.883
313.31	16.084
313.68	17.085
314.05	16.024
314.41	14.990
314.78	15.185
315.14	15.400
315.51	15.603
315.87	15.876
316.24	16.618
316.61	16.603
316.97	17.313
317.34	16.763
317.70	17.161
318.07	16.978
318.43	17.509
318.80	20.188
319.16	16.698
319.53	18.327
319.89	17.310
320.26	17.843
320.62	16.250
320.99	16.915
321.35	17.340
321.72	18.014
322.08	17.903
322.45	18.020
322.81	18.060
323.18	19.308
323.54	19.131
323.91	18.258
324.27	19.772
324.64	19.104
325.00	19.546
325.37	18.914
325.73	21.260
326.10	19.043
326.46	20.403
326.83	20.936
327.19	20.684
327.56	22.061
327.92	20.561
328.29	21.299
328.65	20.818
329.01	21.643
329.38	21.766
329.74	21.886
330.11	21.124
330.47	22.525
330.84	22.090
331.20	21.931
331.56	22.151
331.93	22.025
332.29	22.192
332.66	21.598
333.02	22.172
333.38	23.387
333.75	23.687
334.11	23.644
334.48	22.860
334.84	23.535
335.20	23.493
335.57	23.285
335.93	24.978
336.29	24.535
336.66	23.172
337.02	24.685
337.38	22.816
337.75	22.915
338.11	24.150
338.47	25.000
338.84	22.323
339.20	23.550
339.56	25.758
339.93	23.545
340.29	22.675
340.65	24.126
341.02	23.946
341.38	23.336
341.74	24.301
342.11	24.488
342.47	21.803
342.83	23.762
343.20	24.680
343.56	23.429
343.92	24.207
344.28	25.988
344.65	24.917
345.01	24.622
345.37	25.249
345.73	23.486
346.10	23.385
346.46	23.314
346.82	22.855
347.19	23.583
347.55	23.274
347.91	23.386
348.27	23.150
348.63	24.717
349.00	24.741
349.36	22.326
349.72	24.602
350.08	23.897
350.45	23.641
350.81	24.283
351.17	22.910
351.53	23.866
351.89	22.959
352.26	25.116
352.62	24.731
352.98	23.892
353.34	24.780
353.70	23.320
354.07	23.603
354.43	24.980
354.79	23.772
355.15	25.399
355.51	23.750
355.87	23.557
356.24	23.987
356.60	25.463
356.96	24.403
357.32	24.386
357.68	24.521
358.04	25.019
358.40	24.981
358.77	24.730
359.13	24.484
359.49	24.490
359.85	23.552
360.21	25.190
360.57	25.000
360.93	25.556
361.29	25.112
361.66	24.009
362.02	24.334
362.38	24.872
362.74	24.835
363.10	24.964
363.46	26.353
363.82	23.834
364.18	24.313
364.54	25.947
364.90	25.646
365.26	25.678
365.62	26.372
365.98	26.814
366.35	24.789
366.71	25.440
367.07	25.124
367.43	25.738
367.79	25.086
368.15	25.107
368.51	25.874
368.87	26.717
369.23	26.877
369.59	26.181
369.95	26.075
370.31	26.653
370.67	26.320
371.03	25.656
371.39	26.308
371.75	26.109
372.11	26.686
372.47	26.826
372.83	26.565
373.19	26.643
373.55	27.305
373.91	28.236
374.27	27.515
374.63	27.122
374.99	28.442
375.35	26.649
375.71	28.494
376.07	27.447
376.42	26.821
376.78	28.170
377.14	28.136
377.50	28.949
377.86	27.503
378.22	27.450
378.58	28.289
378.94	28.422
379.30	28.336
379.66	29.447
380.02	27.867
380.38	28.520
380.74	28.077
381.09	28.647
381.45	28.938
381.81	29.341
382.17	29.574
382.53	29.240
382.89	29.426
383.25	29.922
383.61	28.774
383.97	29.822
384.32	30.038
384.68	31.137
385.04	30.495
385.40	30.006
385.76	30.488
386.12	31.106
386.48	32.364
386.83	30.920
387.19	31.620
387.55	31.375
387.91	31.120
388.27	30.277
388.62	30.529
388.98	31.012
389.34	31.457
389.70	31.486
390.06	31.945
390.42	31.987
390.77	31.735
391.13	33.230
391.49	32.190
391.85	30.985
392.20	31.553
392.56	32.071
392.92	32.573
393.28	32.090
393.64	32.532
393.99	32.554
394.35	33.273
394.71	32.551
395.07	33.271
395.42	31.704
395.78	33.061
396.14	33.022
396.50	32.844
396.85	33.498
397.21	32.078
397.57	32.827
397.92	32.377
398.28	33.278
398.64	33.730
399.00	33.483
399.35	32.469
399.71	35.192
400.07	33.851
400.42	34.428
400.78	33.572
401.14	33.832
401.49	33.491
401.85	34.289
402.21	34.327
402.57	33.556
402.92	34.298
403.28	34.007
403.63	32.774
403.99	33.810
404.35	34.118
404.70	34.465
405.06	34.256
405.42	34.133
405.77	32.919
406.13	32.368
406.49	33.733
406.84	34.013
407.20	34.158
407.55	33.629
407.91	32.772
408.27	35.417
408.62	34.095
408.98	34.627
409.34	34.918
409.69	33.396
410.05	34.021
410.40	34.948
410.76	34.381
411.11	34.663
411.47	34.335
411.83	34.841
412.18	33.787
412.54	32.947
412.89	35.237
413.25	33.766
413.60	33.475
413.96	34.689
414.31	35.352
414.67	34.095
415.03	33.894
415.38	35.394
415.74	35.696
416.09	34.591
416.45	33.995
416.80	35.371
417.16	35.548
417.51	35.982
417.87	35.146
418.22	35.904
418.58	35.944
418.93	35.929
419.29	35.383
419.64	35.741
420.00	36.148
420.35	36.901
420.71	36.074
421.06	35.976
421.42	35.773
421.77	36.851
422.12	35.982
422.48	36.077
422.83	36.674
423.19	36.080
423.54	36.772
423.90	36.032
424.25	36.086
424.61	37.394
424.96	37.332
425.31	38.122
425.67	38.109
426.02	36.259
426.38	37.084
426.73	38.457
427.09	37.868
427.44	37.159
427.79	37.384
428.15	37.822
428.50	38.358
428.85	38.249
429.21	38.074
429.56	38.594
429.92	37.475
430.27	38.385
430.62	39.446
430.98	38.474
431.33	38.260
431.68	39.357
432.04	40.011
432.39	38.746
432.74	39.149
433.10	39.055
433.45	37.536
433.80	39.250
434.16	39.441
434.51	40.712
434.86	41.242
435.22	40.312
435.57	40.269
435.92	40.387
436.28	40.534
436.63	38.553
436.98	40.034
437.34	39.929
437.69	40.432
438.04	40.839
438.39	40.012
438.75	39.814
439.10	40.644
439.45	40.917
439.81	40.482
440.16	40.148
440.51	41.176
440.86	41.990
441.22	40.243
441.57	41.368
441.92	41.535
442.27	41.883
442.63	41.041
442.98	40.858
443.33	41.900
443.68	40.855
444.03	41.552
444.39	41.361
444.74	42.731
445.09	41.776
445.44	43.106
445.79	41.458
446.15	42.607
446.50	41.807
446.85	42.073
447.20	41.522
447.55	42.762
447.91	41.830
448.26	42.570
448.61	42.501
448.96	42.577
449.31	42.559
449.66	42.015
450.02	41.607
450.37	43.188
450.72	42.090
451.07	43.809
451.42	42.255
451.77	42.729
452.12	43.445
452.47	43.073
452.83	43.681
453.18	44.149
453.53	42.848
453.88	44.019
454.23	43.470
454.58	44.189
454.93	43.514
455.28	44.997
455.63	43.612
455.98	45.120
456.34	43.202
456.69	45.528
457.04	43.884
457.39	43.900
457.74	44.477
458.09	45.070
458.44	44.630
458.79	43.217
459.14	45.180
459.49	45.175
459.84	44.182
460.19	43.854
460.54	44.344
460.89	44.843
461.24	44.080
461.59	45.018
461.94	45.449
462.29	44.908
462.64	44.598
462.99	46.252
463.34	45.037
463.69	45.356
464.04	44.464
464.39	44.863
464.74	44.149
465.09	43.355
465.44	44.952
465.79	45.234
466.14	46.145
466.49	44.732
466.84	45.018
467.19	45.823
467.54	44.937
467.89	45.869
468.24	45.309
468.59	44.909
468.94	46.367
469.29	44.834
469.64	45.620
469.99	46.860
470.34	46.092
470.68	46.948
471.03	46.387
471.38	46.458
471.73	47.483
472.08	45.850
472.43	46.461
472.78	47.800
473.13	44.997
473.48	46.905
473.83	47.829
474.17	48.217
474.52	48.657
474.87	47.319
475.22	45.900
475.57	46.556
475.92	46.814
476.27	46.229
476.61	46.423
476.96	47.233
477.31	47.201
477.66	47.261
478.01	47.758
478.36	47.040
478.70	48.158
479.05	47.485
479.40	47.720
479.75	47.401
480.10	46.974
480.45	46.905
480.79	46.989
481.14	46.914
481.49	47.773
481.84	47.064
482.19	46.871
482.53	47.680
482.88	46.986
483.23	47.183
483.58	47.780
483.92	48.017
484.27	46.433
484.62	47.257
484.97	46.960
485.31	44.896
485.66	44.017
486.01	44.301
486.36	45.964
486.70	46.960
487.05	45.926
487.40	46.501
487.75	46.350
488.09	45.707
488.44	46.346
488.79	46.657
489.13	47.014
489.48	47.961
489.83	48.384
490.17	47.192
490.52	48.053
490.87	48.176
491.22	48.529
491.56	47.778
491.91	48.187
492.26	48.302
492.60	48.049
492.95	47.882
493.30	48.404
493.64	47.767
493.99	48.136
494.34	48.238
494.68	49.064
495.03	48.709
495.37	48.820
495.72	49.263
496.07	49.366
496.41	48.819
496.76	47.945
497.11	48.987
497.45	49.234
497.80	48.874
498.14	48.576
498.49	48.468
498.84	48.883
499.18	49.269
499.53	49.586
499.87	48.069
500.22	49.167
500.56	49.675
500.91	49.310
501.26	49.199
501.60	48.965
501.95	49.710
502.29	47.567
502.64	49.835
502.98	49.066
503.33	48.402
503.67	48.659
504.02	49.493
504.36	49.412
504.71	49.037
505.06	48.877
505.40	50.299
505.75	50.508
506.09	49.949
506.44	49.323
506.78	49.674
507.13	49.125
507.47	50.130
507.82	49.974
508.16	50.104
508.51	49.201
508.85	49.689
509.19	50.026
509.54	50.423
509.88	50.160
510.23	50.210
510.57	51.217
510.92	50.913
511.26	50.186
511.61	50.270
511.95	49.784
512.30	52.172
512.64	50.974
512.98	51.595
513.33	50.796
513.67	51.312
514.02	50.839
514.36	51.191
514.70	51.669
515.05	52.659
515.39	50.980
515.74	53.054
516.08	50.490
516.42	52.635
516.77	52.340
517.11	52.746
517.46	53.768
517.80	52.708
518.14	52.657
518.49	53.377
518.83	52.641
519.17	53.345
519.52	52.863
519.86	54.122
520.20	53.178
520.55	52.554
520.89	52.098
521.23	54.640
521.58	52.602
521.92	54.085
522.26	52.889
522.61	55.323
522.95	52.904
523.29	53.417
523.64	53.154
523.98	54.551
524.32	53.614
524.66	52.547
525.01	54.014
525.35	52.899
525.69	54.262
526.04	54.961
526.38	54.997
526.72	52.427
527.06	54.948
527.41	52.871
527.75	54.059
528.09	55.129
528.43	53.311
528.78	52.387
529.12	55.314
529.46	53.930
529.80	53.906
530.15	53.316
530.49	53.881
530.83	54.420
531.17	53.535
531.51	53.516
531.86	54.312
532.20	54.184
532.54	52.807
532.88	52.767
533.22	54.880
533.57	53.851
533.91	52.871
534.25	52.734
534.59	52.217
534.93	52.707
535.27	53.178
535.62	53.389
535.96	54.105
536.30	52.814
536.64	52.590
536.98	55.155
537.32	53.905
537.66	54.650
538.01	53.608
538.35	54.324
538.69	52.741
539.03	52.742
539.37	53.360
539.71	54.837
540.05	53.050
540.39	53.809
540.73	54.388
541.07	54.235
541.42	52.735
541.76	52.093
542.10	53.140
542.44	52.432
542.78	54.003
543.12	53.293
543.46	52.329
543.80	53.110
544.14	52.183
544.48	52.493
544.82	54.127
545.16	52.985
545.50	53.163
545.84	54.033
546.18	53.259
546.52	55.263
546.86	53.276
547.20	54.360
547.54	51.309
547.88	53.152
548.22	50.590
548.56	53.307
548.90	53.571
549.24	53.889
549.58	52.576
549.92	53.710
550.26	54.552
550.60	51.280
550.94	53.650
551.28	53.875
551.62	53.840
551.96	53.980
552.30	52.404
552.64	52.991
552.98	53.189
553.32	53.030
553.66	54.218
554.00	53.234
554.34	52.708
554.68	52.412
555.02	53.835
555.36	53.774
555.69	52.794
556.03	52.351
556.37	53.272
556.71	53.472
557.05	53.215
557.39	54.863
557.73	53.100
558.07	55.162
558.41	54.450
558.75	54.449
559.08	54.008
559.42	54.441
559.76	53.528
560.10	54.437
560.44	52.890
560.78	54.210
561.12	52.726
561.45	53.493
561.79	53.868
562.13	53.226
562.47	53.221
562.81	52.970
563.15	53.044
563.48	53.421
563.82	54.023
564.16	52.671
564.50	52.554
564.84	53.175
565.17	52.387
565.51	52.868
565.85	53.076
566.19	53.557
566.52	53.294
566.86	52.465
567.20	53.814
567.54	53.396
567.88	51.312
568.21	51.007
568.55	51.803
568.89	50.497
569.23	50.625
569.56	48.970
569.90	49.253
570.24	49.605
570.57	48.787
570.91	49.235
571.25	48.930
571.59	48.642
571.92	48.065
572.26	48.562
572.60	48.340
572.93	47.786
573.27	46.951
573.61	47.462
573.95	47.818
574.28	47.747
574.62	48.017
574.96	46.834
575.29	47.358
575.63	46.907
575.97	47.141
576.30	47.273
576.64	47.467
576.98	46.529
577.31	46.746
577.65	47.215
577.98	46.647
578.32	47.358
578.66	47.159
578.99	47.313
579.33	47.400
579.67	47.147
580.00	46.999
580.34	47.065
580.67	46.825
581.01	46.024
581.35	46.960
581.68	46.489
582.02	46.631
582.35	46.572
582.69	47.434
583.02	47.502
583.36	47.021
583.70	47.337
584.03	48.976
584.37	47.713
584.70	46.788
585.04	47.190
585.37	46.492
585.71	47.339
586.04	47.163
586.38	47.608
586.72	47.548
587.05	48.287
587.39	47.501
587.72	47.810
588.06	47.510
588.39	48.134
588.73	48.008
589.06	48.529
589.40	49.158
589.73	48.477
590.07	48.106
590.40	49.262
590.73	48.820
591.07	49.098
591.40	49.480
591.74	50.608
592.07	48.739
592.41	49.427
592.74	48.847
593.08	48.095
593.41	48.618
593.75	48.203
594.08	49.317
594.41	49.242
594.75	49.000
595.08	49.211
595.42	48.519
595.75	48.438
596.09	48.933
596.42	48.977
596.75	48.555
597.09	49.110
597.42	49.149
597.75	48.096
598.09	49.390
598.42	49.359
598.76	48.920
599.09	48.974
599.42	48.404
599.76	48.886
600.09	49.122
600.42	48.348
600.76	47.834
601.09	48.348
601.42	48.833
601.76	48.871
602.09	49.816
602.42	49.342
602.76	48.941
603.09	49.315
603.42	50.081
603.76	48.783
604.09	48.618
604.42	49.500
604.76	50.065
605.09	49.503
605.42	48.803
605.75	48.685
606.09	48.775
606.42	48.094
606.75	48.519
607.09	49.713
607.42	50.264
607.75	48.918
608.08	49.435
608.42	50.331
608.75	49.065
609.08	50.024
609.41	49.477
609.75	49.537
610.08	50.392
610.41	50.458
610.74	50.484
611.07	49.391
611.41	49.521
611.74	51.465
612.07	51.343
612.40	49.574
612.73	49.812
613.07	50.248
613.40	51.122
613.73	50.354
614.06	50.302
614.39	52.424
614.72	49.609
615.06	48.750
615.39	49.973
615.72	50.896
616.05	49.696
616.38	51.248
616.71	50.811
617.05	51.448
617.38	50.341
617.71	50.676
618.04	52.981
618.37	51.509
618.70	51.630
619.03	51.388
619.36	51.304
619.69	53.841
620.03	50.964
620.36	51.125
620.69	52.764
621.02	52.283
621.35	52.823
621.68	53.525
622.01	54.693
622.34	51.786
622.67	52.578
623.00	52.793
623.33	52.612
623.66	50.222
623.99	53.008
624.32	51.786
624.65	52.980
624.99	52.577
625.32	52.769
625.65	52.603
625.98	53.599
626.31	53.589
626.64	53.891
626.97	55.651
627.30	53.021
627.63	53.368
627.96	55.265
628.29	54.596
628.62	53.868
628.95	56.693
629.28	54.793
629.61	53.778
629.94	52.647
630.26	55.964
630.59	56.683
630.92	55.556
631.25	56.250
631.58	57.249
631.91	52.872
632.24	56.333
632.57	57.000
632.90	57.241
633.23	55.374
633.56	55.906
633.89	56.368
634.22	55.726
634.55	57.332
634.88	56.590
635.20	54.931
635.53	57.888
635.86	54.156
636.19	54.945
636.52	54.958
636.85	54.874
637.18	55.125
637.51	56.877
637.83	58.189
638.16	56.447
638.49	57.241
638.82	56.757
639.15	60.311
639.48	56.291
639.81	55.878
640.13	56.486
640.46	61.254
640.79	57.003
641.12	57.405
641.45	57.532
641.77	58.084
642.10	58.006
642.43	59.181
642.76	57.323
643.09	57.460
643.41	59.524
643.74	58.824
644.07	58.970
644.40	59.481
644.73	58.581
645.05	59.265
645.38	59.437
645.71	62.715
646.04	62.017
646.36	59.162
646.69	60.208
647.02	60.469
647.35	63.177
647.67	59.124
648.00	59.402
648.33	62.057
648.66	57.742
648.98	60.191
649.31	57.385
649.64	56.875
649.96	57.614
650.29	57.213
650.62	60.069
650.94	59.359
651.27	58.059
651.60	58.478
651.92	58.733
652.25	59.432
652.58	58.433
652.90	59.069
653.23	57.903
653.56	57.023
653.88	57.869
654.21	59.228
654.54	58.472
654.86	58.909
655.19	54.585
655.52	52.003
655.84	46.074
656.17	49.323
656.49	67.235
656.82	69.860
657.15	52.468
657.47	39.372
657.80	30.533
658.13	34.872
658.45	47.341
658.78	46.778
659.10	46.077
659.43	46.173
659.75	48.230
660.08	47.865
660.41	47.115
660.73	51.705
661.06	55.652
661.38	58.750
661.71	56.405
662.03	60.282
662.36	62.260
662.68	61.814
663.01	62.208
663.33	63.492
663.66	62.017
663.98	63.393
664.31	62.416
664.63	62.832
664.96	60.087
665.28	58.568
665.61	57.294
665.93	62.140
666.26	60.324
666.58	58.212
666.91	61.024
667.23	62.719
667.56	60.091
667.88	61.086
668.21	61.290
668.53	60.748
668.86	61.663
669.18	62.100
669.50	62.850
669.83	61.314
670.15	57.848
670.48	58.411
670.80	56.036
671.13	58.465
671.45	59.685
671.77	56.317
672.10	59.369
672.42	55.166
672.75	55.455
673.07	57.477
673.39	58.288
673.72	58.071
674.04	58.599
674.37	57.320
674.69	61.270
675.01	56.383
675.34	57.050
675.66	62.851
675.98	60.573
676.31	59.276
676.63	60.920
676.95	58.407
677.28	57.077
677.60	60.633
677.92	60.352
678.25	57.768
678.57	58.436
678.89	59.958
679.22	56.394
679.54	61.144
679.86	57.000
680.18	56.654
680.51	56.797
680.83	57.333
681.15	55.106
681.48	60.243
681.80	57.863
682.12	57.545
682.44	58.350
682.77	58.225
683.09	58.491
683.41	57.301
683.73	57.763
684.06	58.280
684.38	57.322
684.70	58.230
685.02	55.315
685.34	57.895
685.67	56.439
685.99	56.333
686.31	56.553
686.63	52.305
686.96	53.604
687.28	56.069
687.60	57.227
687.92	51.167
688.24	56.299
688.56	55.311
688.89	56.624
689.21	56.674
689.53	56.092
689.85	56.570
690.17	55.830
690.49	57.968
690.82	60.241
691.14	57.547
691.46	56.541
691.78	57.048
692.10	58.051
692.42	58.889
692.74	57.296
693.06	55.730
693.39	57.271
693.71	55.530
694.03	57.235
694.35	57.336
694.67	56.265
694.99	57.289
695.31	60.459
695.63	58.418
695.95	56.824
696.27	54.364
696.59	56.150
696.91	59.270
697.23	61.719
697.56	55.529
697.88	54.955
698.20	52.248
698.52	56.951
698.84	60.680
699.16	57.381
699.48	56.750
699.80	56.642
700.12	58.690
700.44	55.587
700.76	62.682
701.08	54.651
701.40	58.308
701.72	61.728
702.04	63.782
702.36	61.747
702.68	55.988
703.00	57.391
703.32	56.447
703.64	59.412
703.96	59.012
704.28	57.988
704.60	55.380
704.91	61.587
705.23	60.518
705.55	57.432
705.87	63.481
706.19	55.903
706.51	55.903
706.83	58.361
707.15	59.554
707.47	56.474
707.79	51.546
708.11	54.453
708.43	57.357
708.74	54.545
709.06	54.875
709.38	56.322
709.70	61.250
710.02	60.429
710.34	58.416
710.66	55.556
710.98	54.574
711.29	55.806
711.61	56.869
711.93	56.066
712.25	58.472
712.57	54.704
712.89	60.791
713.20	58.076
713.52	53.731
713.84	56.228
714.16	56.393
714.48	55.238
714.80	55.385
715.11	53.314
715.43	56.627
715.75	57.009
716.07	55.410
716.39	56.187
716.70	55.749
717.02	61.111
717.34	59.160
717.66	60.996
717.97	60.246
718.29	61.765
718.61	59.127
718.93	54.122
719.24	52.941
719.56	51.321
719.88	54.909
720.20	54.307
720.51	59.398
720.83	59.036
721.15	57.787
721.46	54.902
721.78	59.387
722.10	59.200
722.42	63.636
722.73	58.167
723.05	54.217
723.37	57.647
723.68	55.870
724.00	61.382
724.32	56.379
724.63	53.527
724.95	57.851
725.27	52.632
725.58	57.759
725.90	54.365
726.22	57.934
726.53	57.034
726.85	52.549
727.16	53.759
727.48	48.462
727.80	52.049
728.11	52.101
728.43	57.025
728.74	54.297
729.06	55.303
729.38	52.529
729.69	52.362
730.01	53.937
730.32	52.988
730.64	55.311
730.96	57.090
731.27	57.500
731.59	55.627
731.90	54.601
732.22	53.988
732.53	56.291
732.85	49.329
733.16	58.333
733.48	53.310
733.80	54.448
734.11	50.690
734.43	55.102
734.74	52.226
735.06	49.843
735.37	49.541
735.69	49.677
736.00	55.892
736.32	54.967
736.63	48.966
736.95	56.884
737.26	51.987
737.58	50.719
737.89	50.538
738.21	51.504
738.52	57.308
738.83	54.297
739.15	56.838
739.46	57.258
739.78	52.098
740.09	54.895
740.41	50.350
740.72	53.650
741.04	49.603
741.35	54.113
741.66	58.333
741.98	57.143
742.29	55.399
742.61	57.754
742.92	60.280
743.23	53.070
743.55	55.405
743.86	62.222
744.18	53.810
744.49	56.158
744.80	52.792
745.12	58.763
745.43	58.291
745.74	56.311
746.06	50.732
746.37	59.912
746.68	70.149
747.00	62.304
747.31	50.000
747.62	52.074
747.94	54.585
748.25	57.209
748.56	50.952
748.88	55.978
749.19	58.216
749.50	60.784
749.82	53.778
750.13	57.709
750.44	49.187
750.75	57.200
751.07	50.714
751.38	53.137
751.69	46.183
752.01	55.000
752.32	52.140
752.63	49.615
752.94	50.397
753.26	55.217
753.57	55.804
753.88	56.897
754.19	53.942
754.51	49.609
754.82	49.407
755.13	56.379
755.44	55.372
755.75	59.671
756.07	51.807
756.38	50.391
756.69	56.318
757.00	49.129
757.31	52.685
757.63	52.960
757.94	49.133
758.25	52.035
758.56	54.987
758.87	53.409
759.18	52.333
759.50	55.516
759.81	53.650
760.12	46.284
760.43	54.369
760.74	53.750
761.05	51.404
761.36	52.096
761.67	51.479
761.99	45.806
762.30	53.623
762.61	50.566
762.92	50.673
763.23	55.450
763.54	55.111
763.85	54.852
764.16	54.694
764.47	54.661
764.78	54.307
765.10	56.475
765.41	46.129
765.72	52.201
766.03	50.530
766.34	55.263
766.65	50.607
766.96	56.000
767.27	56.771
767.58	52.326
767.89	54.839
768.20	55.828
768.51	51.366
768.82	53.514
769.13	53.500
769.44	46.491
769.75	51.082
770.06	56.422
770.37	44.601
770.68	47.917
770.99	54.455
771.30	57.282
771.61	50.926
771.92	51.515
772.23	43.458
772.54	54.255
772.85	40.828
773.16	51.829
773.47	55.422
773.78	52.747
774.09	54.000
774.39	47.531
774.70	55.705
775.01	44.928
775.32	52.985
775.63	45.455
775.94	57.143
776.25	47.143
776.56	59.016
776.87	62.832
777.18	69.912
777.48	53.636
777.79	37.391
778.10	50.459
778.41	48.305
778.72	48.760
779.03	59.701
779.34	48.120
779.65	55.556
779.95	51.449
780.26	44.218
780.57	55.172
780.88	53.704
781.19	43.434
781.50	50.400
781.80	51.634
782.11	46.154
782.42	45.783
782.73	39.416
783.04	50.000
783.34	43.939
783.65	50.388
783.96	55.285
784.27	56.410
784.57	42.276
784.88	47.154
785.19	44.737
785.50	37.113
785.81	43.810
786.11	42.157
786.42	32.727
786.73	55.856
787.04	57.426
787.34	56.190
787.65	49.524
787.96	48.039
788.26	56.757
788.57	51.613
788.88	50.000
789.19	43.590
789.49	45.378
789.80	46.154
790.11	55.752
790.41	39.394
790.72	49.057
791.03	45.833
791.33	42.105
791.64	48.387
791.95	54.667
792.25	40.000
792.56	40.244
792.87	38.776
793.17	52.632
793.48	41.892
793.79	45.070
794.09	31.646
794.40	42.553
794.70	42.991
795.01	42.105
795.32	42.727
795.62	38.393
795.93	49.485
796.23	43.956
796.54	52.632
796.85	42.466
797.15	44.444
797.46	36.986
797.76	30.986
798.07	56.250
798.37	55.882
798.68	58.571
798.99	44.286
799.29	50.000
799.60	55.000
799.90	25.000
800.21	32.813
800.51	52.381
800.82	50.820
801.12	42.105
801.43	33.803
801.73	42.373
802.04	36.066
802.34	47.273
802.65	36.538
802.95	27.778
803.26	30.000
803.56	44.231
803.87	42.105
804.17	48.387
804.48	50.769
804.78	76.923
805.09	51.163
805.39	15.625
805.70	-5.660
806.00	47.368
806.30	50.000
806.61	42.647
806.91	51.852
807.22	48.000
807.52	41.791
807.83	37.097
808.13	34.921
808.43	43.636
808.74	45.455
809.04	43.396
809.35	35.616
809.65	54.386
809.95	47.059
810.26	58.824
810.56	32.000
810.86	26.531
811.17	71.429
811.47	23.077
811.77	83.871
812.08	-5.263
812.38	40.476
812.69	15.217
812.99	35.484
813.29	30.952
813.59	-18.519
813.90	23.404
814.20	25.581
814.50	37.500
814.81	28.333
815.11	58.537
815.41	26.667
815.72	57.143
816.02	11.111
816.32	35.897
816.62	32.432
816.93	35.294
817.23	21.739
817.53	26.471
817.84	32.353
818.14	31.250
818.44	34.483
818.74	25.806
819.04	33.333
819.35	40.000
819.65	48.000
819.95	40.000
820.25	24.000
820.56	26.316
820.86	20.000
821.16	48.936
821.46	44.828
821.76	10.256
822.07	27.500
822.37	46.512
822.67	43.333
822.97	35.135
823.27	48.649
823.57	48.000
823.88	24.324
824.18	19.048
824.48	65.385
824.78	-23.077
825.08	26.087
825.38	16.667
825.69	33.333
825.99	-25.000
826.29	24.324
826.59	11.765
826.89	44.000
827.19	20.000
827.49	44.737
827.79	12.500
828.09	73.333
828.39	73.913
828.70	-10.345
829.00	-13.793
829.30	27.778
829.60	31.250
829.90	11.111
830.20	0.000
830.50	0.000
830.80	14.286
831.10	41.026
831.40	-23.810
831.70	55.882
832.00	4.167
832.30	-26.316
832.60	62.500
832.90	-41.667
833.20	-17.647
833.50	6.667
833.80	-46.667
834.10	20.000
834.40	-8.333
834.70	88.889
835.00	53.846
835.30	-33.333
835.60	24.138
835.90	-22.222
836.20	-127.273
836.50	-41.667
836.80	37.143
837.10	51.429
837.40	-5.882
837.70	-36.364
838.00	25.000
838.30	-6.250
838.60	19.048
838.90	20.000
839.19	-4.348
839.49	-4.348
839.79	-77.778
840.09	4.348
840.39	0.000
840.69	-68.750
840.99	-42.105
841.29	-18.750
841.59	-50.000
841.88	5.556
842.18	20.833
842.48	-58.824
842.78	24.138
843.08	-28.571
843.38	-46.154
843.68	-122.222
843.97	-84.615
844.27	0.000
844.57	-40.000
844.87	60.000
845.17	-200.000
845.47	-35.714
845.76	-133.333
846.06	0.000
846.36	-225.000
846.66	-70.000
846.96	5.263
847.25	8.333
847.55	-33.333
847.85	-26.667
848.15	-40.000
848.44	50.000
848.74	36.842
849.04	633.333
849.34	-144.444
849.63	-21.053
849.93	0.000
850.23	-60.000
850.53	-9.524
850.82	8.000
851.12	-15.789
851.42	-750.000
851.71	-14.286
852.01	-16.667
852.31	17.647
852.61	-6.667
852.90	14.286
853.20	-150.000
853.50	11.111
853.79	-15.789
854.09	-33.333
854.39	-3.571
854.68	-34.783
854.98	-66.667
855.28	41.379
855.57	-25.000
855.87	35.000
856.17	-73.333
856.46	-17.241
856.76	-33.333
857.05	-70.588
857.35	-123.077
857.65	-18.182
857.94	-3.704
858.24	-78.571
858.53	-64.286
858.83	-100.000
859.13	-133.333
859.42	42.857
859.72	-200.000
860.01	-266.667
860.31	-12.500
860.60	-360.000
860.90	-133.333
861.20	-25.000
861.49	-142.857
861.79	-11.765
862.08	-700.000
862.38	-16.667
862.67	-23.077
862.97	-41.176
863.26	45.000
863.56	-5.882
863.85	833.333
864.15	-10.000
864.44	0.000
864.74	15.000
865.03	-187.500
865.33	-83.333
865.62	-17.647
865.92	-500.000
866.21	-50.000
866.51	-166.667
866.80	-1100.000
867.10	0.000
867.39	-17.647
867.69	26.087
867.98	42.857
868.27	-380.000
868.57	-12.500
868.86	-109.091
869.16	11.765
869.45	-66.667
869.75	-200.000
870.04	1000.000
870.33	-75.000
870.63	-180.000
870.92	-88.889
871.22	8.333
871.51	-90.909
871.80	-25.000
872.10	20.000
>>>>>End Processed Spectral Data<<<<<
