SpectraSuite Data File
++++++++++++++++++++++++++++++++++++
Date: Sat May 16 11:19:09 PDT 2015
User: schluterlab
Dark Spectrum Present: Yes
Reference Spectrum Present: Yes
Number of Sampled Component Spectra: 1
Spectrometers: USB2E3373
Integration Time (usec): 3000 (USB2E3373)
Spectra Averaged: 3 (USB2E3373)
Boxcar Smoothing: 0 (USB2E3373)
Correct for Electrical Dark: No (USB2E3373)
Strobe/Lamp Enabled: No (USB2E3373)
Correct for Detector Non-linearity: No (USB2E3373)
Correct for Stray Light: No (USB2E3373)
Number of Pixels in Processed Spectrum: 2048
>>>>>Begin Processed Spectral Data<<<<<
178.53	0.000
178.91	133.333
179.29	400.000
179.67	-500.000
180.04	-92.308
180.42	1600.000
180.80	200.000
181.18	275.000
181.56	-137.500
181.94	1100.000
182.31	400.000
182.69	-69.231
183.07	-366.667
183.45	800.000
183.83	-66.667
184.20	-200.000
184.58	-12.500
184.96	-150.000
185.34	75.000
185.72	-625.000
186.09	250.000
186.47	-187.500
186.85	-50.000
187.23	-37.500
187.61	-50.000
187.98	-275.000
188.36	-125.000
188.74	-162.500
189.12	500.000
189.49	171.429
189.87	-8.333
190.25	275.000
190.63	57.143
191.00	-222.222
191.38	380.000
191.76	13.333
192.14	540.000
192.51	-220.000
192.89	-300.000
193.27	0.000
193.65	22.222
194.02	-114.286
194.40	500.000
194.78	-20.000
195.15	-1600.000
195.53	-136.364
195.91	-383.333
196.29	220.000
196.66	-700.000
197.04	1400.000
197.42	-275.000
197.79	20.000
198.17	-433.333
198.55	-550.000
198.92	-800.000
199.30	200.000
199.68	0.000
200.05	-33.333
200.43	-88.889
200.81	-500.000
201.18	-8.333
201.56	42.857
201.94	-46.667
202.31	54.545
202.69	10.000
203.07	-50.000
203.44	766.667
203.82	-216.667
204.19	-150.000
204.57	0.000
204.95	-500.000
205.32	31.250
205.70	500.000
206.08	-1600.000
206.45	-5.556
206.83	-750.000
207.20	400.000
207.58	-900.000
207.96	-466.667
208.33	-237.500
208.71	-55.556
209.08	170.000
209.46	-128.571
209.84	300.000
210.21	0.000
210.59	80.000
210.96	1900.000
211.34	-200.000
211.71	-133.333
212.09	225.000
212.46	350.000
212.84	-1900.000
213.22	666.667
213.59	150.000
213.97	-133.333
214.34	140.000
214.72	0.000
215.09	-533.333
215.47	-100.000
215.84	-100.000
216.22	70.000
216.59	33.333
216.97	-375.000
217.34	1000.000
217.72	-71.429
218.09	-300.000
218.47	-214.286
218.84	128.571
219.22	71.429
219.59	0.000
219.97	271.429
220.34	200.000
220.72	112.500
221.09	-123.077
221.47	0.000
221.84	333.333
222.22	-50.000
222.59	400.000
222.97	-250.000
223.34	-700.000
223.72	-466.667
224.09	14.286
224.46	-100.000
224.84	21.429
225.21	-171.429
225.59	-63.636
225.96	0.000
226.34	-28.571
226.71	-44.444
227.08	15.000
227.46	1300.000
227.83	-85.714
228.21	0.000
228.58	450.000
228.95	-31.250
229.33	-500.000
229.70	-140.000
230.08	-1150.000
230.45	-75.000
230.82	-16.667
231.20	-1000.000
231.57	-400.000
231.95	500.000
232.32	61.905
232.69	-55.556
233.07	-200.000
233.44	-1200.000
233.81	-73.333
234.19	-88.889
234.56	-12.500
234.93	-25.000
235.31	-257.143
235.68	-157.143
236.05	-52.941
236.43	-59.091
236.80	-9.677
237.17	-45.833
237.55	-28.571
237.92	-68.182
238.29	-2.857
238.67	17.647
239.04	5.556
239.41	-16.129
239.79	-33.333
240.16	-38.095
240.53	-14.545
240.91	-5.128
241.28	18.182
241.65	27.692
242.02	-9.836
242.40	-11.475
242.77	-12.121
243.14	-8.475
243.51	-5.714
243.89	8.861
244.26	-3.371
244.63	9.474
245.00	3.158
245.38	12.712
245.75	0.000
246.12	7.200
246.49	13.386
246.87	0.813
247.24	4.237
247.61	-3.390
247.98	5.634
248.36	-4.196
248.73	5.063
249.10	-0.637
249.47	2.924
249.84	8.523
250.22	-5.952
250.59	6.780
250.96	6.283
251.33	5.687
251.70	10.577
252.08	8.057
252.45	5.687
252.82	8.571
253.19	8.511
253.56	6.452
253.94	4.219
254.31	8.155
254.68	9.350
255.05	6.048
255.42	9.921
255.79	7.527
256.16	8.235
256.54	9.559
256.91	7.576
257.28	8.791
257.65	3.901
258.02	13.522
258.39	8.027
258.76	7.432
259.14	5.864
259.51	8.197
259.88	7.317
260.25	11.180
260.62	8.039
260.99	9.792
261.36	14.024
261.73	8.960
262.10	11.111
262.47	11.396
262.85	15.143
263.22	6.017
263.59	2.769
263.96	8.986
264.33	6.775
264.70	9.116
265.07	9.066
265.44	5.685
265.81	8.010
266.18	5.823
266.55	9.559
266.92	9.824
267.29	7.990
267.66	7.160
268.03	10.870
268.40	9.624
268.77	9.639
269.14	9.977
269.51	12.644
269.88	7.110
270.25	6.061
270.62	10.069
270.99	9.009
271.36	9.324
271.73	6.054
272.10	9.611
272.47	7.333
272.84	10.222
273.21	9.633
273.58	6.593
273.95	7.895
274.32	8.824
274.69	10.503
275.06	9.202
275.43	6.920
275.80	12.220
276.17	8.996
276.54	10.794
276.91	10.700
277.28	8.722
277.65	8.058
278.02	9.812
278.39	10.020
278.76	8.367
279.13	8.300
279.50	10.934
279.87	9.514
280.23	9.109
280.60	8.350
280.97	7.379
281.34	9.091
281.71	8.654
282.08	9.476
282.45	6.314
282.82	9.109
283.19	10.545
283.56	11.355
283.92	10.247
284.29	8.178
284.66	8.993
285.03	11.052
285.40	8.856
285.77	9.474
286.14	10.650
286.51	8.881
286.87	12.341
287.24	9.898
287.61	9.752
287.98	6.759
288.35	7.438
288.72	10.187
289.08	6.780
289.45	9.596
289.82	7.612
290.19	10.509
290.56	6.446
290.93	8.585
291.29	9.400
291.66	7.407
292.03	8.477
292.40	8.434
292.77	8.385
293.13	7.642
293.50	8.470
293.87	9.663
294.24	8.899
294.60	7.576
294.97	8.953
295.34	8.148
295.71	7.738
296.08	7.373
296.44	9.013
296.81	8.262
297.18	7.746
297.55	10.593
297.91	9.344
298.28	8.767
298.65	9.205
299.02	9.626
299.38	7.888
299.75	6.793
300.12	7.564
300.48	8.568
300.85	9.174
301.22	9.314
301.59	7.932
301.95	9.824
302.32	6.649
302.69	9.547
303.05	8.059
303.42	7.375
303.79	10.287
304.15	9.360
304.52	9.802
304.89	9.091
305.25	8.425
305.62	6.933
305.99	9.423
306.35	9.545
306.72	7.973
307.09	9.648
307.45	7.832
307.82	7.598
308.19	9.060
308.55	7.516
308.92	9.882
309.29	9.405
309.65	8.908
310.02	9.179
310.38	8.216
310.75	9.631
311.12	10.744
311.48	8.977
311.85	9.372
312.22	10.299
312.58	10.275
312.95	9.684
313.31	10.090
313.68	10.653
314.05	11.869
314.41	8.249
314.78	8.791
315.14	9.872
315.51	10.334
315.87	10.358
316.24	11.176
316.61	11.132
316.97	10.945
317.34	10.790
317.70	10.668
318.07	11.940
318.43	10.487
318.80	11.455
319.16	10.600
319.53	10.244
319.89	10.818
320.26	11.471
320.62	10.865
320.99	11.343
321.35	10.542
321.72	11.259
322.08	13.155
322.45	11.188
322.81	11.720
323.18	13.449
323.54	12.477
323.91	11.956
324.27	12.833
324.64	11.883
325.00	12.914
325.37	13.846
325.73	13.998
326.10	12.135
326.46	13.047
326.83	14.809
327.19	14.512
327.56	14.651
327.92	15.293
328.29	14.545
328.65	15.182
329.01	14.399
329.38	15.165
329.74	17.033
330.11	15.956
330.47	14.805
330.84	16.132
331.20	15.343
331.56	14.312
331.93	16.430
332.29	15.251
332.66	15.540
333.02	15.928
333.38	17.652
333.75	15.583
334.11	17.511
334.48	15.711
334.84	17.673
335.20	15.869
335.57	16.155
335.93	17.457
336.29	17.803
336.66	16.300
337.02	17.297
337.38	17.112
337.75	16.506
338.11	15.921
338.47	16.281
338.84	16.969
339.20	16.257
339.56	17.825
339.93	16.049
340.29	15.678
340.65	17.395
341.02	17.032
341.38	17.018
341.74	16.850
342.11	16.980
342.47	16.137
342.83	15.785
343.20	17.079
343.56	16.000
343.92	17.780
344.28	17.494
344.65	15.924
345.01	15.462
345.37	18.272
345.73	15.876
346.10	15.617
346.46	16.572
346.82	15.638
347.19	17.009
347.55	16.372
347.91	16.457
348.27	16.309
348.63	16.882
349.00	17.025
349.36	14.208
349.72	17.357
350.08	15.156
350.45	15.603
350.81	16.242
351.17	15.916
351.53	15.036
351.89	15.764
352.26	16.357
352.62	16.820
352.98	16.772
353.34	17.186
353.70	15.290
354.07	16.129
354.43	16.680
354.79	15.689
355.15	15.895
355.51	15.000
355.87	15.415
356.24	15.330
356.60	17.728
356.96	16.628
357.32	15.598
357.68	16.169
358.04	15.627
358.40	16.396
358.77	16.151
359.13	16.373
359.49	16.327
359.85	15.854
360.21	16.134
360.57	16.867
360.93	16.444
361.29	16.741
361.66	15.625
362.02	15.828
362.38	16.214
362.74	16.703
363.10	15.854
363.46	18.020
363.82	16.764
364.18	15.557
364.54	18.013
364.90	15.374
365.26	16.191
365.62	17.177
365.98	16.714
366.35	15.352
366.71	16.209
367.07	16.867
367.43	17.296
367.79	17.320
368.15	16.572
368.51	16.713
368.87	18.063
369.23	16.842
369.59	16.736
369.95	16.209
370.31	17.792
370.67	15.763
371.03	18.076
371.39	17.539
371.75	17.024
372.11	17.575
372.47	17.860
372.83	18.150
373.19	17.143
373.55	18.086
373.91	17.994
374.27	18.549
374.63	17.460
374.99	18.776
375.35	18.506
375.71	18.704
376.07	17.728
376.42	16.755
376.78	18.693
377.14	18.712
377.50	19.407
377.86	18.791
378.22	19.033
378.58	18.221
378.94	19.297
379.30	19.135
379.66	19.915
380.02	18.301
380.38	18.731
380.74	18.347
381.09	19.156
381.45	19.451
381.81	19.540
382.17	18.546
382.53	20.061
382.89	19.498
383.25	20.229
383.61	19.458
383.97	20.392
384.32	20.275
384.68	21.221
385.04	19.746
385.40	21.242
385.76	20.183
386.12	20.800
386.48	21.473
386.83	20.552
387.19	20.442
387.55	20.715
387.91	20.747
388.27	20.265
388.62	20.433
388.98	20.412
389.34	20.441
389.70	21.681
390.06	20.075
390.42	21.603
390.77	21.451
391.13	21.801
391.49	21.834
391.85	20.574
392.20	20.874
392.56	21.075
392.92	21.278
393.28	22.044
393.64	21.587
393.99	22.338
394.35	21.959
394.71	21.433
395.07	22.348
395.42	20.560
395.78	21.119
396.14	22.617
396.50	22.569
396.85	21.098
397.21	22.661
397.57	22.371
397.92	22.131
398.28	22.500
398.64	22.903
399.00	22.865
399.35	22.886
399.71	22.997
400.07	22.627
400.42	22.506
400.78	21.944
401.14	22.275
401.49	22.170
401.85	24.100
402.21	22.944
402.57	22.573
402.92	23.474
403.28	23.162
403.63	22.828
403.99	22.809
404.35	22.464
404.70	22.996
405.06	22.953
405.42	23.124
405.77	22.172
406.13	23.566
406.49	22.948
406.84	22.496
407.20	23.263
407.55	23.116
407.91	22.668
408.27	24.449
408.62	23.812
408.98	22.741
409.34	22.547
409.69	23.503
410.05	23.287
410.40	23.115
410.76	24.244
411.11	24.314
411.47	23.210
411.83	22.922
412.18	23.082
412.54	22.575
412.89	23.451
413.25	23.022
413.60	23.269
413.96	22.366
414.31	24.343
414.67	22.349
415.03	23.415
415.38	23.813
415.74	24.227
416.09	23.465
416.45	23.677
416.80	22.887
417.16	23.256
417.51	24.622
417.87	22.977
418.22	23.578
418.58	24.326
418.93	24.157
419.29	24.028
419.64	23.053
420.00	25.456
420.35	24.305
420.71	24.670
421.06	24.083
421.42	23.419
421.77	23.618
422.12	23.447
422.48	23.196
422.83	24.317
423.19	24.443
423.54	24.957
423.90	23.887
424.25	24.265
424.61	24.608
424.96	25.278
425.31	24.148
425.67	24.241
426.02	23.408
426.38	25.227
426.73	25.424
427.09	24.816
427.44	24.375
427.79	23.314
428.15	24.776
428.50	24.927
428.85	25.420
429.21	23.354
429.56	24.635
429.92	24.800
430.27	24.626
430.62	24.504
430.98	24.464
431.33	24.813
431.68	25.255
432.04	25.909
432.39	24.843
432.74	24.520
433.10	25.324
433.45	24.640
433.80	24.132
434.16	24.825
434.51	24.712
434.86	26.538
435.22	25.445
435.57	25.275
435.92	25.147
436.28	24.985
436.63	25.608
436.98	24.914
437.34	24.454
437.69	25.554
438.04	25.298
438.39	25.752
438.75	24.854
439.10	27.096
439.45	25.528
439.81	25.843
440.16	25.440
440.51	25.824
440.86	24.639
441.22	24.489
441.57	25.158
441.92	25.269
442.27	26.190
442.63	26.448
442.98	25.169
443.33	25.316
443.68	25.013
444.03	25.884
444.39	26.138
444.74	26.982
445.09	25.932
445.44	26.956
445.79	26.415
446.15	25.904
446.50	26.238
446.85	26.475
447.20	26.200
447.55	25.746
447.91	27.176
448.26	25.363
448.61	25.467
448.96	27.563
449.31	26.550
449.66	26.388
450.02	25.540
450.37	26.899
450.72	24.802
451.07	26.901
451.42	25.960
451.77	26.870
452.12	25.805
452.47	26.448
452.83	25.801
453.18	27.577
453.53	26.555
453.88	26.974
454.23	26.058
454.58	26.911
454.93	26.196
455.28	26.195
455.63	26.720
455.98	27.349
456.34	25.858
456.69	28.018
457.04	26.859
457.39	25.957
457.74	27.112
458.09	26.566
458.44	27.425
458.79	26.457
459.14	26.184
459.49	27.235
459.84	26.813
460.19	26.551
460.54	26.376
460.89	26.738
461.24	27.565
461.59	26.964
461.94	27.498
462.29	26.802
462.64	27.075
462.99	27.443
463.34	26.266
463.69	27.799
464.04	26.596
464.39	26.703
464.74	26.241
465.09	26.518
465.44	26.734
465.79	28.032
466.14	27.158
466.49	27.231
466.84	26.591
467.19	28.117
467.54	26.203
467.89	26.880
468.24	27.969
468.59	26.234
468.94	26.752
469.29	27.031
469.64	27.089
469.99	28.089
470.34	28.123
470.68	27.689
471.03	28.011
471.38	26.319
471.73	28.182
472.08	26.506
472.43	27.799
472.78	27.733
473.13	27.237
473.48	27.760
473.83	27.419
474.17	26.879
474.52	28.836
474.87	26.748
475.22	27.375
475.57	27.000
475.92	28.024
476.27	27.143
476.61	27.211
476.96	27.390
477.31	27.126
477.66	26.785
478.01	28.363
478.36	27.816
478.70	28.137
479.05	27.799
479.40	28.031
479.75	26.860
480.10	27.629
480.45	26.886
480.79	27.937
481.14	27.948
481.49	28.122
481.84	27.277
482.19	28.004
482.53	27.794
482.88	27.100
483.23	28.122
483.58	27.197
483.92	27.520
484.27	26.717
484.62	26.911
484.97	27.358
485.31	26.432
485.66	25.928
486.01	26.213
486.36	26.645
486.70	27.691
487.05	26.733
487.40	27.270
487.75	26.558
488.09	26.868
488.44	27.334
488.79	27.909
489.13	27.919
489.48	28.140
489.83	27.511
490.17	26.948
490.52	28.804
490.87	26.467
491.22	26.716
491.56	27.130
491.91	27.815
492.26	27.311
492.60	27.260
492.95	27.796
493.30	27.156
493.64	27.598
493.99	27.725
494.34	27.810
494.68	28.230
495.03	26.960
495.37	27.630
495.72	27.456
496.07	27.593
496.41	27.652
496.76	27.808
497.11	27.555
497.45	27.443
497.80	27.714
498.14	27.750
498.49	26.971
498.84	27.282
499.18	27.680
499.53	27.521
499.87	26.014
500.22	27.451
500.56	27.564
500.91	27.192
501.26	27.851
501.60	27.251
501.95	27.874
502.29	26.075
502.64	28.053
502.98	26.545
503.33	27.585
503.67	27.059
504.02	27.426
504.36	27.745
504.71	27.153
505.06	27.109
505.40	27.794
505.75	27.388
506.09	27.705
506.44	27.519
506.78	27.797
507.13	28.064
507.47	28.691
507.82	27.104
508.16	28.497
508.51	27.821
508.85	27.692
509.19	28.153
509.54	27.431
509.88	28.404
510.23	28.616
510.57	27.619
510.92	28.357
511.26	27.007
511.61	27.160
511.95	27.694
512.30	28.037
512.64	28.325
512.98	28.328
513.33	28.116
513.67	27.806
514.02	27.573
514.36	28.144
514.70	27.334
515.05	27.787
515.39	27.797
515.74	28.563
516.08	28.300
516.42	28.952
516.77	27.903
517.11	27.975
517.46	28.469
517.80	29.663
518.14	28.200
518.49	28.691
518.83	27.359
519.17	28.597
519.52	27.762
519.86	28.734
520.20	28.667
520.55	28.185
520.89	28.178
521.23	28.205
521.58	27.774
521.92	28.942
522.26	29.333
522.61	28.327
522.95	28.334
523.29	27.837
523.64	28.045
523.98	28.071
524.32	28.850
524.66	28.199
525.01	28.067
525.35	29.446
525.69	28.237
526.04	29.112
526.38	29.408
526.72	27.905
527.06	28.581
527.41	28.383
527.75	28.647
528.09	28.524
528.43	27.869
528.78	27.827
529.12	28.297
529.46	28.608
529.80	28.599
530.15	28.783
530.49	27.555
530.83	29.404
531.17	28.754
531.51	27.796
531.86	28.374
532.20	27.868
532.54	28.342
532.88	27.668
533.22	28.476
533.57	28.068
533.91	26.717
534.25	28.096
534.59	28.482
534.93	28.189
535.27	27.753
535.62	28.645
535.96	27.343
536.30	27.683
536.64	27.424
536.98	28.178
537.32	27.782
537.66	27.495
538.01	27.698
538.35	28.986
538.69	28.008
539.03	27.894
539.37	26.946
539.71	27.685
540.05	29.198
540.39	28.255
540.73	28.058
541.07	28.005
541.42	26.266
541.76	27.176
542.10	28.224
542.44	28.248
542.78	28.494
543.12	28.445
543.46	25.890
543.80	27.090
544.14	27.199
544.48	27.559
544.82	26.928
545.16	27.498
545.50	26.514
545.84	27.051
546.18	27.046
546.52	26.956
546.86	26.353
547.20	27.145
547.54	26.377
547.88	27.273
548.22	26.147
548.56	26.720
548.90	27.493
549.24	26.769
549.58	26.535
549.92	27.067
550.26	27.023
550.60	27.383
550.94	26.934
551.28	26.787
551.62	26.809
551.96	26.990
552.30	27.317
552.64	26.601
552.98	26.769
553.32	25.974
553.66	27.397
554.00	27.505
554.34	25.271
554.68	25.877
555.02	26.990
555.36	25.737
555.69	26.003
556.03	26.246
556.37	26.031
556.71	26.342
557.05	26.903
557.39	26.132
557.73	26.477
558.07	27.129
558.41	26.103
558.75	25.247
559.08	24.747
559.42	27.795
559.76	26.457
560.10	26.473
560.44	27.312
560.78	25.331
561.12	25.466
561.45	25.822
561.79	25.714
562.13	25.806
562.47	25.420
562.81	25.955
563.15	26.102
563.48	26.054
563.82	26.166
564.16	25.287
564.50	25.336
564.84	26.984
565.17	25.464
565.51	25.684
565.85	25.490
566.19	26.548
566.52	24.462
566.86	23.957
567.20	26.816
567.54	26.344
567.88	25.349
568.21	24.944
568.55	24.443
568.89	23.509
569.23	25.405
569.56	24.044
569.90	24.705
570.24	24.427
570.57	24.077
570.91	24.379
571.25	24.449
571.59	23.665
571.92	23.512
572.26	23.936
572.60	23.798
572.93	23.877
573.27	23.872
573.61	22.828
573.95	23.550
574.28	23.537
574.62	23.869
574.96	23.205
575.29	23.755
575.63	23.865
575.97	23.598
576.30	23.678
576.64	23.473
576.98	23.041
577.31	23.051
577.65	22.858
577.98	23.230
578.32	23.237
578.66	22.750
578.99	23.167
579.33	23.235
579.67	23.332
580.00	22.817
580.34	22.456
580.67	23.241
581.01	22.326
581.35	22.996
581.68	22.347
582.02	22.985
582.35	23.022
582.69	23.003
583.02	23.497
583.36	22.879
583.70	22.811
584.03	23.249
584.37	23.410
584.70	23.077
585.04	23.038
585.37	22.625
585.71	23.101
586.04	22.872
586.38	22.614
586.72	22.943
587.05	23.025
587.39	23.218
587.72	23.175
588.06	22.558
588.39	23.042
588.73	23.537
589.06	22.922
589.40	24.115
589.73	23.407
590.07	23.270
590.40	22.952
590.73	23.031
591.07	22.582
591.40	23.744
591.74	23.892
592.07	23.153
592.41	23.227
592.74	23.059
593.08	22.863
593.41	22.928
593.75	22.552
594.08	23.688
594.41	23.660
594.75	22.650
595.08	23.609
595.42	24.133
595.75	23.043
596.09	23.166
596.42	23.527
596.75	23.200
597.09	23.553
597.42	23.134
597.75	23.206
598.09	23.723
598.42	23.332
598.76	22.384
599.09	21.902
599.42	23.145
599.76	22.461
600.09	22.634
600.42	23.016
600.76	22.486
601.09	23.167
601.42	22.596
601.76	22.936
602.09	23.640
602.42	23.251
602.76	22.767
603.09	22.702
603.42	22.603
603.76	23.694
604.09	22.467
604.42	23.022
604.76	23.114
605.09	22.875
605.42	23.316
605.75	22.682
606.09	23.537
606.42	22.413
606.75	23.572
607.09	23.114
607.42	23.239
607.75	23.179
608.08	23.226
608.42	22.848
608.75	22.290
609.08	22.601
609.41	22.521
609.75	22.574
610.08	23.088
610.41	23.711
610.74	23.985
611.07	23.732
611.41	22.138
611.74	23.393
612.07	23.523
612.40	22.548
612.73	23.640
613.07	23.060
613.40	23.810
613.73	22.888
614.06	22.735
614.39	23.788
614.72	22.570
615.06	22.717
615.39	22.518
615.72	23.194
616.05	22.860
616.38	23.680
616.71	23.003
617.05	24.789
617.38	23.529
617.71	22.482
618.04	23.602
618.37	22.201
618.70	24.316
619.03	22.952
619.36	23.961
619.69	23.762
620.03	23.003
620.36	23.277
620.69	23.403
621.02	23.440
621.35	23.790
621.68	24.344
622.01	24.434
622.34	24.845
622.67	24.609
623.00	23.795
623.33	24.627
623.66	22.600
623.99	23.759
624.32	23.586
624.65	23.400
624.99	22.330
625.32	23.653
625.65	24.631
625.98	22.926
626.31	24.470
626.64	22.594
626.97	25.000
627.30	24.596
627.63	24.352
627.96	22.715
628.29	24.357
628.62	24.260
628.95	24.311
629.28	24.248
629.61	24.534
629.94	24.197
630.26	25.348
630.59	26.131
630.92	24.625
631.25	24.294
631.58	24.021
631.91	23.617
632.24	25.889
632.57	24.667
632.90	25.517
633.23	23.248
633.56	24.444
633.89	26.533
634.22	23.259
634.55	24.279
634.88	25.514
635.20	25.593
635.53	24.682
635.86	23.804
636.19	24.420
636.52	24.970
636.85	23.827
637.18	23.750
637.51	24.411
637.83	25.166
638.16	25.526
638.49	25.241
638.82	24.067
639.15	26.459
639.48	23.217
639.81	25.588
640.13	23.919
640.46	25.783
640.79	23.810
641.12	25.247
641.45	26.542
641.77	26.647
642.10	24.018
642.43	27.162
642.76	27.087
643.09	23.492
643.41	26.667
643.74	26.391
644.07	25.585
644.40	25.770
644.73	25.578
645.05	25.209
645.38	24.172
645.71	28.007
646.04	26.723
646.36	24.084
646.69	25.606
647.02	26.715
647.35	24.368
647.67	24.270
648.00	25.132
648.33	27.150
648.66	25.000
648.98	24.045
649.31	27.538
649.64	25.156
649.96	24.490
650.29	25.246
650.62	25.473
650.94	25.632
651.27	25.303
651.60	26.644
651.92	27.740
652.25	23.038
652.58	22.828
652.90	24.238
653.23	25.323
653.56	25.084
653.88	23.443
654.21	25.839
654.54	25.249
654.86	23.756
655.19	25.358
655.52	23.810
655.84	21.186
656.17	22.987
656.49	31.019
656.82	32.982
657.15	25.438
657.47	18.706
657.80	14.453
658.13	16.728
658.45	23.142
658.78	22.651
659.10	23.213
659.43	23.209
659.75	23.761
660.08	24.427
660.41	24.324
660.73	23.762
661.06	26.812
661.38	26.964
661.71	25.430
662.03	26.210
662.36	28.571
662.68	25.316
663.01	25.902
663.33	25.850
663.66	25.536
663.98	23.438
664.31	23.714
664.63	26.770
664.96	28.200
665.28	26.030
665.61	24.313
665.93	26.337
666.26	25.506
666.58	27.027
666.91	24.276
667.23	25.439
667.56	24.036
667.88	26.471
668.21	25.806
668.53	28.505
668.86	25.635
669.18	28.082
669.50	24.766
669.83	23.844
670.15	24.664
670.48	25.701
670.80	27.335
671.13	25.959
671.45	26.351
671.77	24.839
672.10	25.247
672.42	25.277
672.75	24.182
673.07	26.306
673.39	25.319
673.72	25.394
674.04	21.231
674.37	26.186
674.69	27.049
675.01	26.170
675.34	21.692
675.66	26.134
675.98	24.890
676.31	25.339
676.63	27.586
676.95	25.221
677.28	24.826
677.60	28.733
677.92	27.533
678.25	24.726
678.57	25.720
678.89	24.528
679.22	23.690
679.54	27.219
679.86	24.400
680.18	25.475
680.51	22.719
680.83	26.857
681.15	22.929
681.48	26.166
681.80	21.169
682.12	25.755
682.44	24.165
682.77	24.675
683.09	24.948
683.41	26.549
683.73	21.918
684.06	25.376
684.38	24.477
684.70	23.663
685.02	25.787
685.34	24.561
685.67	23.864
685.99	24.764
686.31	24.237
686.63	23.936
686.96	24.954
687.28	21.773
687.60	24.805
687.92	22.179
688.24	24.409
688.56	24.048
688.89	22.650
689.21	24.726
689.53	25.517
689.85	24.499
690.17	25.336
690.49	28.406
690.82	24.096
691.14	26.179
691.46	27.494
691.78	24.449
692.10	25.424
692.42	21.333
692.74	25.966
693.06	26.742
693.39	25.056
693.71	23.025
694.03	27.430
694.35	24.831
694.67	26.478
694.99	24.552
695.31	23.724
695.63	22.704
695.95	26.055
696.27	25.935
696.59	28.610
696.91	25.281
697.23	26.302
697.56	22.356
697.88	23.874
698.20	24.197
698.52	21.525
698.84	28.155
699.16	25.714
699.48	24.000
699.80	23.810
700.12	28.715
700.44	22.626
700.76	24.490
701.08	25.000
701.40	21.148
701.72	28.395
702.04	29.487
702.36	26.506
702.68	23.353
703.00	25.217
703.32	24.355
703.64	25.882
703.96	29.942
704.28	25.444
704.60	25.633
704.91	24.444
705.23	24.272
705.55	24.662
705.87	24.232
706.19	24.306
706.51	25.000
706.83	28.197
707.15	23.885
707.47	27.273
707.79	26.031
708.11	20.611
708.43	28.429
708.74	24.416
709.06	20.613
709.38	25.287
709.70	23.438
710.02	25.767
710.34	23.432
710.66	22.540
710.98	22.713
711.29	22.581
711.61	21.406
711.93	26.230
712.25	25.914
712.57	23.345
712.89	27.338
713.20	25.430
713.52	23.507
713.84	27.046
714.16	27.213
714.48	28.571
714.80	25.846
715.11	25.360
715.43	25.301
715.75	23.988
716.07	25.246
716.39	22.408
716.70	22.997
717.02	22.222
717.34	25.954
717.66	22.822
717.97	23.361
718.29	23.109
718.61	28.175
718.93	23.656
719.24	20.221
719.56	23.396
719.88	24.727
720.20	23.596
720.51	28.947
720.83	25.301
721.15	20.902
721.46	25.490
721.78	25.287
722.10	28.800
722.42	23.967
722.73	25.498
723.05	27.309
723.37	24.706
723.68	20.648
724.00	27.236
724.32	29.218
724.63	22.822
724.95	26.860
725.27	24.123
725.58	25.000
725.90	18.651
726.22	26.937
726.53	26.236
726.85	21.569
727.16	27.820
727.48	23.077
727.80	22.541
728.11	23.529
728.43	26.860
728.74	23.047
729.06	24.621
729.38	23.735
729.69	24.016
730.01	24.409
730.32	22.709
730.64	21.978
730.96	25.000
731.27	23.571
731.59	22.508
731.90	24.540
732.22	24.233
732.53	26.159
732.85	20.470
733.16	26.449
733.48	26.481
733.80	23.488
734.11	27.241
734.43	24.490
734.74	24.926
735.06	22.571
735.37	22.630
735.69	20.645
736.00	25.253
736.32	26.159
736.63	20.000
736.95	23.188
737.26	25.497
737.58	23.381
737.89	26.523
738.21	24.812
738.52	22.308
738.83	24.609
739.15	23.504
739.46	23.387
739.78	21.678
740.09	23.077
740.41	24.825
740.72	27.372
741.04	22.619
741.35	23.810
741.66	28.704
741.98	20.476
742.29	24.883
742.61	26.203
742.92	28.505
743.23	20.175
743.55	23.423
743.86	24.444
744.18	25.714
744.49	26.601
744.80	24.873
745.12	28.866
745.43	24.623
745.74	25.243
746.06	24.390
746.37	25.991
746.68	22.886
747.00	25.654
747.31	20.192
747.62	24.885
747.94	24.891
748.25	29.302
748.56	24.286
748.88	16.304
749.19	23.474
749.50	29.902
749.82	31.111
750.13	31.278
750.44	21.951
750.75	27.200
751.07	23.571
751.38	26.937
751.69	20.611
752.01	25.385
752.32	20.233
752.63	23.462
752.94	22.222
753.26	26.087
753.57	23.661
753.88	22.845
754.19	29.461
754.51	24.219
754.82	24.111
755.13	17.284
755.44	20.661
755.75	29.218
756.07	20.080
756.38	19.141
756.69	25.993
757.00	20.557
757.31	26.846
757.63	27.726
757.94	22.832
758.25	22.965
758.56	27.224
758.87	19.886
759.18	21.333
759.50	25.623
759.81	18.613
760.12	21.959
760.43	21.683
760.74	27.187
761.05	24.438
761.36	26.946
761.67	24.260
761.99	20.000
762.30	23.913
762.61	23.019
762.92	26.009
763.23	18.483
763.54	28.000
763.85	25.316
764.16	21.633
764.47	29.237
764.78	21.723
765.10	26.259
765.41	20.000
765.72	24.528
766.03	21.555
766.34	30.451
766.65	14.575
766.96	24.500
767.27	26.042
767.58	27.326
767.89	23.226
768.20	28.834
768.51	21.311
768.82	21.081
769.13	27.000
769.44	20.614
769.75	22.078
770.06	22.018
770.37	19.249
770.68	23.958
770.99	25.743
771.30	26.699
771.61	21.759
771.92	21.212
772.23	23.364
772.54	21.809
772.85	22.485
773.16	25.000
773.47	28.313
773.78	24.725
774.09	18.667
774.39	23.457
774.70	22.148
775.01	18.116
775.32	13.433
775.63	20.661
775.94	24.812
776.25	20.714
776.56	27.049
776.87	30.973
777.18	26.549
777.48	7.273
777.79	21.739
778.10	26.606
778.41	24.576
778.72	19.008
779.03	29.851
779.34	25.564
779.65	20.915
779.95	21.739
780.26	18.367
780.57	14.655
780.88	28.704
781.19	12.121
781.50	16.800
781.80	20.261
782.11	23.718
782.42	21.084
782.73	21.898
783.04	17.568
783.34	27.273
783.65	24.806
783.96	26.829
784.27	17.949
784.57	22.764
784.88	21.138
785.19	24.561
785.50	14.433
785.81	11.429
786.11	16.667
786.42	12.727
786.73	17.117
787.04	27.723
787.34	20.952
787.65	18.095
787.96	17.647
788.26	25.225
788.57	20.161
788.88	14.063
789.19	18.803
789.49	16.807
789.80	24.786
790.11	23.009
790.41	26.263
790.72	14.151
791.03	12.500
791.33	17.105
791.64	23.656
791.95	13.333
792.25	5.714
792.56	15.854
792.87	22.449
793.17	17.105
793.48	14.865
793.79	7.042
794.09	30.380
794.40	18.085
794.70	19.626
795.01	10.526
795.32	14.545
795.62	15.179
795.93	23.711
796.23	20.879
796.54	18.947
796.85	30.137
797.15	18.056
797.46	12.329
797.76	26.761
798.07	28.750
798.37	27.941
798.68	11.429
798.99	34.286
799.29	31.579
799.60	18.333
799.90	2.778
800.21	6.250
800.51	25.397
800.82	8.197
801.12	8.772
801.43	7.042
801.73	5.085
802.04	0.000
802.34	12.727
802.65	15.385
802.95	9.259
803.26	-2.500
803.56	15.385
803.87	13.158
804.17	4.839
804.48	32.308
804.78	12.821
805.09	13.953
805.39	0.000
805.70	-7.547
806.00	24.561
806.30	24.324
806.61	11.765
806.91	11.111
807.22	28.000
807.52	17.910
807.83	6.452
808.13	7.937
808.43	16.364
808.74	15.152
809.04	24.528
809.35	28.767
809.65	15.789
809.95	17.647
810.26	11.765
810.56	-2.000
810.86	-10.204
811.17	-31.429
811.47	15.385
811.77	3.226
812.08	-28.947
812.38	9.524
812.69	23.913
812.99	3.226
813.29	9.524
813.59	-40.741
813.90	17.021
814.20	-30.233
814.50	18.750
814.81	3.333
815.11	2.439
815.41	-6.667
815.72	45.714
816.02	16.667
816.32	35.897
816.62	5.405
816.93	-29.412
817.23	4.348
817.53	0.000
817.84	-11.765
818.14	-31.250
818.44	-37.931
818.74	-16.129
819.04	3.704
819.35	13.333
819.65	-4.000
819.95	-6.667
820.25	8.000
820.56	18.421
820.86	10.000
821.16	29.787
821.46	24.138
821.76	-10.256
822.07	-10.000
822.37	16.279
822.67	-10.000
822.97	13.514
823.27	0.000
823.57	8.000
823.88	29.730
824.18	-9.524
824.48	-7.692
824.78	-84.615
825.08	0.000
825.38	-41.667
825.69	-29.167
825.99	-40.000
826.29	10.811
826.59	-2.941
826.89	4.000
827.19	-28.571
827.49	18.421
827.79	-15.625
828.09	-33.333
828.39	26.087
828.70	-44.828
829.00	0.000
829.30	36.111
829.60	46.875
829.90	50.000
830.20	0.000
830.50	-19.048
830.80	-14.286
831.10	15.385
831.40	23.810
831.70	-5.882
832.00	0.000
832.30	-89.474
832.60	-87.500
832.90	-100.000
833.20	-94.118
833.50	-80.000
833.80	-66.667
834.10	0.000
834.40	12.500
834.70	38.889
835.00	-7.692
835.30	-4.167
835.60	13.793
835.90	-61.111
836.20	-100.000
836.50	-66.667
836.80	8.571
837.10	54.286
837.40	0.000
837.70	-118.182
838.00	4.167
838.30	12.500
838.60	-52.381
838.90	0.000
839.19	-26.087
839.49	-34.783
839.79	-44.444
840.09	-43.478
840.39	-9.091
840.69	12.500
840.99	-26.316
841.29	-131.250
841.59	7.143
841.88	5.556
842.18	0.000
842.48	-35.294
842.78	17.241
843.08	-50.000
843.38	-92.308
843.68	-88.889
843.97	-76.923
844.27	-54.545
844.57	-120.000
844.87	8.000
845.17	-220.000
845.47	-28.571
845.76	-33.333
846.06	0.000
846.36	-250.000
846.66	-100.000
846.96	-5.263
847.25	-20.833
847.55	8.333
847.85	-13.333
848.15	-40.000
848.44	30.769
848.74	26.316
849.04	800.000
849.34	-22.222
849.63	-94.737
849.93	0.000
850.23	-25.000
850.53	4.762
850.82	0.000
851.12	-31.579
851.42	-650.000
851.71	14.286
852.01	-25.000
852.31	5.882
852.61	-66.667
852.90	-9.524
853.20	-83.333
853.50	-33.333
853.79	-36.842
854.09	-80.000
854.39	-21.429
854.68	-43.478
854.98	-150.000
855.28	-6.897
855.57	-62.500
855.87	-65.000
856.17	-60.000
856.46	3.448
856.76	6.667
857.05	11.765
857.35	-100.000
857.65	-90.909
857.94	0.000
858.24	-21.429
858.53	-35.714
858.83	16.667
859.13	-144.444
859.42	-4.762
859.72	-112.500
860.01	-400.000
860.31	-50.000
860.60	-300.000
860.90	-211.111
861.20	-187.500
861.49	-228.571
861.79	52.941
862.08	-800.000
862.38	-100.000
862.67	-38.462
862.97	-29.412
863.26	20.000
863.56	-35.294
863.85	366.667
864.15	-100.000
864.44	-76.923
864.74	0.000
865.03	-200.000
865.33	-283.333
865.62	-41.176
865.92	-325.000
866.21	28.571
866.51	-83.333
866.80	-700.000
867.10	-366.667
867.39	-23.529
867.69	17.391
867.98	57.143
868.27	-160.000
868.57	-31.250
868.86	-63.636
869.16	35.294
869.45	-33.333
869.75	-200.000
870.04	2300.000
870.33	33.333
870.63	-280.000
870.92	-133.333
871.22	41.667
871.51	0.000
871.80	8.333
872.10	30.000
>>>>>End Processed Spectral Data<<<<<
