SpectraSuite Data File
++++++++++++++++++++++++++++++++++++
Date: Sat May 16 11:13:53 PDT 2015
User: schluterlab
Dark Spectrum Present: Yes
Reference Spectrum Present: Yes
Number of Sampled Component Spectra: 1
Spectrometers: USB2E3373
Integration Time (usec): 3000 (USB2E3373)
Spectra Averaged: 3 (USB2E3373)
Boxcar Smoothing: 0 (USB2E3373)
Correct for Electrical Dark: No (USB2E3373)
Strobe/Lamp Enabled: No (USB2E3373)
Correct for Detector Non-linearity: No (USB2E3373)
Correct for Stray Light: No (USB2E3373)
Number of Pixels in Processed Spectrum: 2048
>>>>>Begin Processed Spectral Data<<<<<
178.53	0.000
178.91	80.000
179.29	166.667
179.67	-800.000
180.04	7.692
180.42	-800.000
180.80	475.000
181.18	250.000
181.56	25.000
181.94	1700.000
182.31	500.000
182.69	-15.385
183.07	100.000
183.45	1150.000
183.83	433.333
184.20	-71.429
184.58	-212.500
184.96	-100.000
185.34	50.000
185.72	-475.000
186.09	166.667
186.47	-137.500
186.85	-187.500
187.23	25.000
187.61	50.000
187.98	-100.000
188.36	75.000
188.74	-112.500
189.12	800.000
189.49	242.857
189.87	-41.667
190.25	150.000
190.63	28.571
191.00	-111.111
191.38	400.000
191.76	-20.000
192.14	300.000
192.51	-140.000
192.89	-266.667
193.27	0.000
193.65	-66.667
194.02	-14.286
194.40	500.000
194.78	-50.000
195.15	-600.000
195.53	-72.727
195.91	-383.333
196.29	120.000
196.66	-33.333
197.04	400.000
197.42	-25.000
197.79	-6.667
198.17	-100.000
198.55	-350.000
198.92	-900.000
199.30	87.500
199.68	-750.000
200.05	-22.222
200.43	-77.778
200.81	-600.000
201.18	-50.000
201.56	128.571
201.94	-60.000
202.31	50.000
202.69	30.000
203.07	70.000
203.44	266.667
203.82	-166.667
204.19	-150.000
204.57	250.000
204.95	-800.000
205.32	37.500
205.70	700.000
206.08	-1200.000
206.45	5.556
206.83	-550.000
207.20	400.000
207.58	-200.000
207.96	-233.333
208.33	-12.500
208.71	77.778
209.08	230.000
209.46	-114.286
209.84	400.000
210.21	0.000
210.59	100.000
210.96	900.000
211.34	-183.333
211.71	-233.333
212.09	300.000
212.46	700.000
212.84	-1700.000
213.22	366.667
213.59	16.667
213.97	33.333
214.34	150.000
214.72	20.000
215.09	-366.667
215.47	133.333
215.84	-50.000
216.22	30.000
216.59	26.667
216.97	-100.000
217.34	950.000
217.72	-28.571
218.09	-100.000
218.47	-57.143
218.84	-42.857
219.22	14.286
219.59	0.000
219.97	128.571
220.34	225.000
220.72	125.000
221.09	-30.769
221.47	0.000
221.84	300.000
222.22	-450.000
222.59	1400.000
222.97	-150.000
223.34	-400.000
223.72	-300.000
224.09	-35.714
224.46	-50.000
224.84	-7.143
225.21	-42.857
225.59	45.455
225.96	-212.500
226.34	-14.286
226.71	-77.778
227.08	60.000
227.46	2500.000
227.83	-157.143
228.21	-237.500
228.58	450.000
228.95	12.500
229.33	-1000.000
229.70	-80.000
230.08	-900.000
230.45	25.000
230.82	16.667
231.20	-600.000
231.57	-250.000
231.95	-100.000
232.32	9.524
232.69	-100.000
233.07	-85.714
233.44	-750.000
233.81	-26.667
234.19	-88.889
234.56	12.500
234.93	21.875
235.31	-85.714
235.68	-114.286
236.05	-17.647
236.43	-18.182
236.80	-29.032
237.17	25.000
237.55	-47.619
237.92	-50.000
238.29	0.000
238.67	2.941
239.04	13.889
239.41	3.226
239.79	-7.692
240.16	-2.381
240.53	-5.455
240.91	25.641
241.28	20.000
241.65	23.077
242.02	8.197
242.40	-11.475
242.77	21.212
243.14	20.339
243.51	15.714
243.89	10.127
244.26	5.618
244.63	9.474
245.00	16.842
245.38	21.186
245.75	15.044
246.12	4.800
246.49	25.197
246.87	13.821
247.24	5.085
247.61	14.407
247.98	7.042
248.36	19.580
248.73	17.089
249.10	16.561
249.47	15.205
249.84	18.182
250.22	6.548
250.59	16.384
250.96	14.660
251.33	17.536
251.70	14.423
252.08	11.848
252.45	16.588
252.82	14.762
253.19	18.298
253.56	16.532
253.94	16.456
254.31	17.167
254.68	11.382
255.05	11.290
255.42	13.889
255.79	14.337
256.16	13.725
256.54	16.176
256.91	13.636
257.28	8.791
257.65	13.121
258.02	16.667
258.39	18.395
258.76	9.459
259.14	16.975
259.51	19.016
259.88	17.073
260.25	13.665
260.62	13.826
260.99	13.056
261.36	14.939
261.73	16.474
262.10	15.000
262.47	16.239
262.85	17.143
263.22	13.754
263.59	12.000
263.96	17.101
264.33	14.363
264.70	15.193
265.07	15.659
265.44	14.729
265.81	15.504
266.18	11.139
266.55	13.971
266.92	17.128
267.29	16.949
267.66	12.593
268.03	16.667
268.40	15.962
268.77	16.386
269.14	14.385
269.51	17.011
269.88	11.697
270.25	15.152
270.62	14.874
270.99	14.640
271.36	17.249
271.73	16.368
272.10	15.103
272.47	12.444
272.84	16.000
273.21	14.450
273.58	15.165
273.95	12.719
274.32	16.742
274.69	15.317
275.06	15.746
275.43	13.839
275.80	15.275
276.17	15.481
276.54	16.497
276.91	16.667
277.28	15.416
277.65	15.289
278.02	14.196
278.39	16.306
278.76	18.327
279.13	13.636
279.50	16.103
279.87	16.068
280.23	16.397
280.60	14.115
280.97	14.951
281.34	15.087
281.71	17.115
282.08	15.927
282.45	14.053
282.82	16.085
283.19	16.000
283.56	18.132
283.92	14.841
284.29	14.312
284.66	15.288
285.03	16.399
285.40	15.683
285.77	16.667
286.14	15.523
286.51	15.453
286.87	13.430
287.24	15.700
287.61	17.355
287.98	14.731
288.35	13.884
288.72	13.922
289.08	13.898
289.45	13.131
289.82	12.457
290.19	16.092
290.56	12.397
290.93	12.560
291.29	15.235
291.66	13.366
292.03	14.914
292.40	13.253
292.77	15.062
293.13	13.496
293.50	13.819
293.87	13.804
294.24	14.630
294.60	12.424
294.97	14.871
295.34	15.111
295.71	14.732
296.08	12.289
296.44	12.446
296.81	13.390
297.18	13.239
297.55	14.124
297.91	14.923
298.28	12.466
298.65	13.668
299.02	14.305
299.38	14.572
299.75	12.500
300.12	15.256
300.48	14.450
300.85	12.451
301.22	14.101
301.59	13.784
301.95	14.106
302.32	12.256
302.69	13.341
303.05	13.187
303.42	13.625
303.79	13.995
304.15	14.336
304.52	13.186
304.89	13.459
305.25	13.675
305.62	12.221
305.99	14.488
306.35	13.541
306.72	12.415
307.09	14.983
307.45	14.642
307.82	14.525
308.19	13.087
308.55	15.033
308.92	13.104
309.29	13.514
309.65	13.680
310.02	13.067
310.38	13.946
310.75	14.344
311.12	13.946
311.48	13.779
311.85	13.903
312.22	13.285
312.58	16.175
312.95	14.169
313.31	14.486
313.68	15.980
314.05	16.024
314.41	15.191
314.78	13.487
315.14	15.499
315.51	14.691
315.87	15.973
316.24	15.549
316.61	16.027
316.97	16.517
317.34	16.378
317.70	15.955
318.07	16.138
318.43	16.199
318.80	18.216
319.16	16.510
319.53	17.575
319.89	16.463
320.26	17.059
320.62	16.058
320.99	16.020
321.35	15.862
321.72	17.093
322.08	17.705
322.45	17.525
322.81	19.020
323.18	18.060
323.54	19.316
323.91	17.794
324.27	18.631
324.64	18.007
325.00	18.150
325.37	18.190
325.73	19.160
326.10	18.601
326.46	18.651
326.83	18.298
327.19	19.349
327.56	20.869
327.92	18.946
328.29	20.519
328.65	18.818
329.01	18.816
329.38	18.733
329.74	20.055
330.11	19.674
330.47	20.618
330.84	21.357
331.20	20.307
331.56	19.781
331.93	20.693
332.29	19.543
332.66	19.842
333.02	20.633
333.38	19.355
333.75	19.412
334.11	20.000
334.48	20.918
334.84	20.910
335.20	18.972
335.57	19.765
335.93	21.397
336.29	19.309
336.66	20.088
337.02	21.081
337.38	20.856
337.75	20.105
338.11	20.751
338.47	20.907
338.84	21.416
339.20	18.805
339.56	20.766
339.93	19.136
340.29	20.461
340.65	19.930
341.02	20.236
341.38	20.809
341.74	20.491
342.11	20.051
342.47	20.000
342.83	18.976
343.20	19.898
343.56	19.673
343.92	20.033
344.28	21.278
344.65	19.059
345.01	19.328
345.37	19.767
345.73	18.985
346.10	17.907
346.46	19.090
346.82	18.524
347.19	20.214
347.55	20.225
347.91	19.685
348.27	19.014
348.63	20.113
349.00	20.446
349.36	18.345
349.72	20.621
350.08	19.727
350.45	18.125
350.81	19.984
351.17	19.373
351.53	18.377
351.89	19.725
352.26	20.775
352.62	20.814
352.98	18.987
353.34	18.705
353.70	18.764
354.07	20.142
354.43	19.842
354.79	20.761
355.15	19.010
355.51	19.922
355.87	18.814
356.24	19.222
356.60	19.259
356.96	20.400
357.32	19.240
357.68	19.464
358.04	18.707
358.40	19.180
358.77	19.165
359.13	19.893
359.49	19.350
359.85	19.512
360.21	19.559
360.57	19.729
360.93	20.148
361.29	20.030
361.66	19.665
362.02	19.675
362.38	20.103
362.74	19.414
363.10	19.225
363.46	19.729
363.82	19.752
364.18	20.622
364.54	20.086
364.90	19.357
365.26	19.116
365.62	19.815
365.98	20.128
366.35	19.718
366.71	19.380
367.07	19.760
367.43	20.247
367.79	20.000
368.15	19.203
368.51	20.699
368.87	20.261
369.23	20.281
369.59	20.139
369.95	20.507
370.31	19.972
370.67	19.884
371.03	21.064
371.39	20.368
371.75	20.172
372.11	21.019
372.47	19.740
372.83	20.376
373.19	21.000
373.55	20.830
373.91	20.910
374.27	20.055
374.63	20.704
374.99	20.793
375.35	21.736
375.71	21.202
376.07	21.697
376.42	20.132
376.78	21.373
377.14	21.085
377.50	21.212
377.86	21.782
378.22	21.734
378.58	21.865
378.94	21.270
379.30	21.816
379.66	21.797
380.02	21.272
380.38	21.873
380.74	21.747
381.09	22.437
381.45	21.539
381.81	21.416
382.17	21.491
382.53	21.884
382.89	21.292
383.25	22.216
383.61	22.229
383.97	23.209
384.32	22.403
384.68	23.035
385.04	21.558
385.40	22.215
385.76	22.561
386.12	22.986
386.48	23.144
386.83	22.086
387.19	23.132
387.55	21.744
387.91	22.170
388.27	22.256
388.62	21.935
388.98	22.350
389.34	23.072
389.70	21.803
390.06	22.250
390.42	23.013
390.77	22.587
391.13	23.354
391.49	23.269
391.85	23.317
392.20	22.633
392.56	22.114
392.92	22.875
393.28	23.134
393.64	22.850
393.99	23.508
394.35	22.689
394.71	23.410
395.07	23.729
395.42	23.063
395.78	22.564
396.14	23.801
396.50	22.752
396.85	22.949
397.21	23.086
397.57	23.222
397.92	22.424
398.28	22.667
398.64	23.438
399.00	23.483
399.35	22.773
399.71	23.345
400.07	24.000
400.42	23.905
400.78	22.600
401.14	23.054
401.49	22.700
401.85	23.795
402.21	23.421
402.57	22.694
402.92	22.970
403.28	23.162
403.63	22.588
403.99	23.120
404.35	21.981
404.70	23.288
405.06	24.164
405.42	22.817
405.77	23.020
406.13	21.976
406.49	23.607
406.84	22.975
407.20	23.322
407.55	22.989
407.91	23.575
408.27	23.407
408.62	23.632
408.98	22.984
409.34	22.669
409.69	22.936
410.05	22.741
410.40	22.624
410.76	22.584
411.11	22.693
411.47	23.913
411.83	23.044
412.18	23.700
412.54	22.575
412.89	23.147
413.25	22.432
413.60	22.479
413.96	22.612
414.31	24.037
414.67	22.603
415.03	23.803
415.38	22.902
415.74	23.518
416.09	23.402
416.45	22.288
416.80	24.187
417.16	22.924
417.51	23.769
417.87	22.395
418.22	23.009
418.58	23.427
418.93	23.421
419.29	23.588
419.64	22.173
420.00	24.787
420.35	23.714
420.71	23.589
421.06	23.787
421.42	22.834
421.77	23.171
422.12	23.951
422.48	23.303
422.83	22.380
423.19	22.996
423.54	23.343
423.90	23.829
424.25	23.020
424.61	24.005
424.96	24.342
425.31	23.812
425.67	23.725
426.02	23.293
426.38	23.412
426.73	23.027
427.09	24.571
427.44	23.466
427.79	23.140
428.15	24.357
428.50	23.988
428.85	23.741
429.21	23.575
429.56	23.698
429.92	23.898
430.27	23.480
430.62	24.399
430.98	24.307
431.33	23.533
431.68	24.129
432.04	24.175
432.39	24.274
432.74	23.741
433.10	24.592
433.45	23.949
433.80	23.684
434.16	23.751
434.51	24.548
434.86	24.136
435.22	23.831
435.57	23.745
435.92	25.029
436.28	23.917
436.63	23.968
436.98	23.482
437.34	24.099
437.69	24.271
438.04	24.107
438.39	24.248
438.75	23.632
439.10	24.320
439.45	23.416
439.81	24.940
440.16	24.759
440.51	24.529
440.86	24.349
441.22	24.323
441.57	24.474
441.92	24.655
442.27	23.647
442.63	24.785
442.98	24.097
443.33	24.712
443.68	24.023
444.03	24.705
444.39	24.082
444.74	25.165
445.09	24.452
445.44	25.042
445.79	24.324
446.15	24.808
446.50	23.789
446.85	24.115
447.20	24.157
447.55	24.309
447.91	24.424
448.26	24.637
448.61	24.052
448.96	24.314
449.31	24.126
449.66	24.442
450.02	24.654
450.37	23.768
450.72	23.842
451.07	25.016
451.42	24.721
451.77	23.998
452.12	24.732
452.47	24.811
452.83	24.461
453.18	24.352
453.53	23.570
453.88	25.478
454.23	23.700
454.58	24.922
454.93	24.937
455.28	24.156
455.63	24.447
455.98	24.398
456.34	23.698
456.69	25.203
457.04	24.585
457.39	23.565
457.74	24.572
458.09	25.522
458.44	25.346
458.79	23.823
459.14	25.499
459.49	24.985
459.84	24.340
460.19	24.463
460.54	24.198
460.89	25.056
461.24	24.408
461.59	24.443
461.94	26.098
462.29	24.598
462.64	24.572
462.99	24.766
463.34	25.118
463.69	25.382
464.04	24.136
464.39	24.791
464.74	24.468
465.09	23.873
465.44	24.591
465.79	24.647
466.14	25.374
466.49	24.352
466.84	25.210
467.19	24.439
467.54	24.873
467.89	23.983
468.24	23.694
468.59	24.610
468.94	24.887
469.29	24.561
469.64	24.326
469.99	25.928
470.34	24.716
470.68	24.927
471.03	24.363
471.38	24.514
471.73	25.594
472.08	24.565
472.43	23.102
472.78	24.467
473.13	23.923
473.48	24.378
473.83	24.628
474.17	25.287
474.52	26.087
474.87	24.825
475.22	24.720
475.57	24.500
475.92	25.162
476.27	24.629
476.61	24.620
476.96	25.433
477.31	25.619
477.66	24.848
478.01	25.122
478.36	24.201
478.70	24.987
479.05	25.257
479.40	25.078
479.75	24.771
480.10	24.603
480.45	23.356
480.79	25.025
481.14	25.038
481.49	25.121
481.84	24.226
482.19	24.029
482.53	25.000
482.88	24.347
483.23	24.413
483.58	25.856
483.92	24.462
484.27	24.280
484.62	24.104
484.97	24.006
485.31	23.840
485.66	23.155
486.01	23.051
486.36	24.024
486.70	24.918
487.05	24.301
487.40	24.733
487.75	24.284
488.09	24.182
488.44	24.357
488.79	25.009
489.13	24.762
489.48	24.429
489.83	24.585
490.17	23.640
490.52	24.366
490.87	24.249
491.22	24.334
491.56	24.028
491.91	24.380
492.26	24.858
492.60	24.167
492.95	24.941
493.30	24.535
493.64	23.789
493.99	24.426
494.34	24.905
494.68	24.204
495.03	24.187
495.37	24.189
495.72	24.509
496.07	24.730
496.41	25.197
496.76	24.749
497.11	24.070
497.45	25.000
497.80	24.912
498.14	24.165
498.49	24.460
498.84	24.272
499.18	24.708
499.53	24.890
499.87	24.566
500.22	25.000
500.56	25.363
500.91	24.384
501.26	24.988
501.60	24.314
501.95	24.396
502.29	24.941
502.64	24.752
502.98	24.197
503.33	24.906
503.67	23.994
504.02	24.674
504.36	24.069
504.71	24.823
505.06	25.262
505.40	24.850
505.75	24.746
506.09	25.177
506.44	24.762
506.78	24.787
507.13	24.202
507.47	25.561
507.82	25.194
508.16	25.181
508.51	24.472
508.85	24.845
509.19	24.751
509.54	24.630
509.88	25.479
510.23	25.367
510.57	25.979
510.92	25.940
511.26	25.306
511.61	24.622
511.95	25.162
512.30	25.179
512.64	24.485
512.98	25.798
513.33	25.920
513.67	25.963
514.02	25.783
514.36	26.094
514.70	26.203
515.05	25.500
515.39	26.932
515.74	26.818
516.08	25.937
516.42	26.289
516.77	27.441
517.11	25.915
517.46	27.333
517.80	27.196
518.14	25.845
518.49	26.479
518.83	26.291
519.17	26.584
519.52	25.911
519.86	27.718
520.20	27.445
520.55	27.323
520.89	25.986
521.23	27.106
521.58	27.273
521.92	27.549
522.26	27.873
522.61	26.933
522.95	26.803
523.29	28.339
523.64	27.670
523.98	28.071
524.32	28.033
524.66	26.149
525.01	26.846
525.35	27.255
525.69	27.846
526.04	28.590
526.38	28.135
526.72	27.267
527.06	27.865
527.41	27.195
527.75	27.261
528.09	28.127
528.43	27.607
528.78	28.392
529.12	28.425
529.46	27.964
529.80	27.824
530.15	27.173
530.49	27.555
530.83	29.601
531.17	28.350
531.51	27.997
531.86	27.913
532.20	28.880
532.54	28.409
532.88	27.668
533.22	28.476
533.57	29.112
533.91	27.216
534.25	27.970
534.59	27.233
534.93	27.754
535.27	28.949
535.62	28.645
535.96	27.860
536.30	27.487
536.64	28.353
536.98	29.096
537.32	28.542
537.66	29.192
538.01	28.041
538.35	28.176
538.69	27.741
539.03	27.962
539.37	28.011
539.71	28.286
540.05	28.718
540.39	27.770
540.73	28.611
541.07	28.620
541.42	28.089
541.76	27.575
542.10	29.102
542.44	29.580
542.78	28.494
543.12	28.988
543.46	27.671
543.80	28.361
544.14	28.543
544.48	29.331
544.82	28.823
545.16	28.706
545.50	28.062
545.84	28.860
546.18	29.126
546.52	28.165
546.86	29.060
547.20	29.395
547.54	28.512
547.88	28.467
548.22	27.916
548.56	28.724
548.90	28.302
549.24	28.802
549.58	28.723
549.92	28.127
550.26	29.118
550.60	27.952
550.94	28.248
551.28	29.646
551.62	28.213
551.96	29.088
552.30	28.571
552.64	28.220
552.98	29.362
553.32	27.922
553.66	29.560
554.00	28.785
554.34	28.159
554.68	29.386
555.02	29.812
555.36	28.756
555.69	28.080
556.03	28.351
556.37	28.236
556.71	29.062
557.05	29.564
557.39	28.359
557.73	29.759
558.07	29.013
558.41	27.674
558.75	28.137
559.08	28.249
559.42	29.326
559.76	28.758
560.10	29.903
560.44	28.829
560.78	27.697
561.12	28.226
561.45	30.342
561.79	29.617
562.13	28.401
562.47	28.852
562.81	28.501
563.15	29.321
563.48	28.887
563.82	28.465
564.16	28.398
564.50	28.696
564.84	28.571
565.17	28.117
565.51	28.292
565.85	28.736
566.19	28.590
566.52	28.702
566.86	27.813
567.20	29.177
567.54	29.179
567.88	28.085
568.21	27.573
568.55	28.526
568.89	27.734
569.23	28.459
569.56	27.701
569.90	28.009
570.24	28.072
570.57	27.100
570.91	27.644
571.25	27.075
571.59	27.786
571.92	26.429
572.26	26.842
572.60	27.149
572.93	27.284
573.27	27.226
573.61	26.642
573.95	26.823
574.28	27.162
574.62	27.351
574.96	26.745
575.29	26.956
575.63	27.051
575.97	27.104
576.30	26.857
576.64	27.363
576.98	26.798
577.31	26.365
577.65	27.220
577.98	27.278
578.32	26.394
578.66	26.796
578.99	26.869
579.33	26.853
579.67	26.452
580.00	26.835
580.34	26.957
580.67	26.992
581.01	26.211
581.35	27.120
581.68	26.508
582.02	26.639
582.35	26.610
582.69	27.068
583.02	27.454
583.36	26.930
583.70	27.061
584.03	28.260
584.37	27.794
584.70	27.201
585.04	26.886
585.37	26.730
585.71	27.286
586.04	27.102
586.38	26.784
586.72	26.917
587.05	27.556
587.39	26.960
587.72	26.971
588.06	26.933
588.39	27.200
588.73	26.916
589.06	27.685
589.40	27.722
589.73	27.514
590.07	26.912
590.40	27.528
590.73	28.389
591.07	27.992
591.40	28.813
591.74	28.149
592.07	28.198
592.41	28.280
592.74	28.094
593.08	27.566
593.41	27.566
593.75	27.201
594.08	27.426
594.41	27.726
594.75	27.746
595.08	27.669
595.42	27.818
595.75	27.600
596.09	28.366
596.42	28.437
596.75	27.727
597.09	28.896
597.42	28.110
597.75	28.565
598.09	28.739
598.42	27.707
598.76	27.450
599.09	27.111
599.42	27.874
599.76	27.746
600.09	28.053
600.42	28.067
600.76	27.345
601.09	27.839
601.42	27.938
601.76	27.882
602.09	27.689
602.42	28.025
602.76	27.960
603.09	27.944
603.42	28.525
603.76	28.241
604.09	27.633
604.42	27.685
604.76	28.129
605.09	27.893
605.42	28.191
605.75	27.727
606.09	27.937
606.42	29.158
606.75	27.007
607.09	28.937
607.42	28.785
607.75	27.991
608.08	28.197
608.42	28.477
608.75	27.850
609.08	28.397
609.41	28.102
609.75	27.157
610.08	28.971
610.41	28.578
610.74	29.014
611.07	28.550
611.41	27.584
611.74	29.152
612.07	28.679
612.40	28.198
612.73	28.918
613.07	27.848
613.40	28.626
613.73	29.101
614.06	28.720
614.39	29.651
614.72	27.877
615.06	28.098
615.39	27.509
615.72	28.734
616.05	27.664
616.38	29.832
616.71	29.069
617.05	29.011
617.38	29.536
617.71	27.826
618.04	29.627
618.37	29.623
618.70	29.531
619.03	27.962
619.36	30.162
619.69	30.007
620.03	29.408
620.36	28.481
620.69	29.935
621.02	29.528
621.35	30.403
621.68	29.098
622.01	29.773
622.34	28.960
622.67	29.375
623.00	29.304
623.33	30.075
623.66	28.582
623.99	30.226
624.32	27.902
624.65	28.403
624.99	29.276
625.32	28.967
625.65	29.837
625.98	29.108
626.31	28.956
626.64	29.456
626.97	30.223
627.30	30.468
627.63	29.275
627.96	30.026
628.29	30.607
628.62	29.417
628.95	29.823
629.28	30.827
629.61	30.815
629.94	30.151
630.26	30.517
630.59	30.050
630.92	30.631
631.25	30.242
631.58	30.582
631.91	29.574
632.24	31.000
632.57	30.000
632.90	31.839
633.23	30.374
633.56	30.760
633.89	32.193
634.22	31.523
634.55	31.731
634.88	30.109
635.20	30.337
635.53	32.316
635.86	31.108
636.19	31.258
636.52	31.063
636.85	31.889
637.18	31.000
637.51	31.970
637.83	32.091
638.16	30.395
638.49	30.345
638.82	31.145
639.15	33.074
639.48	30.091
639.81	31.397
640.13	30.676
640.46	33.333
640.79	31.793
641.12	32.722
641.45	31.994
641.77	33.234
642.10	31.420
642.43	30.501
642.76	31.969
643.09	32.063
643.41	34.127
643.74	32.909
644.07	34.009
644.40	31.767
644.73	32.838
645.05	31.886
645.38	33.444
645.71	34.708
646.04	34.958
646.36	32.286
646.69	33.391
647.02	32.671
647.35	34.116
647.67	32.482
648.00	30.404
648.33	34.401
648.66	31.774
648.98	31.369
649.31	33.385
649.64	32.031
649.96	33.752
650.29	31.311
650.62	34.596
650.94	32.209
651.27	32.582
651.60	32.353
651.92	33.562
652.25	33.890
652.58	31.005
652.90	32.263
653.23	31.452
653.56	30.435
653.88	31.803
654.21	31.711
654.54	33.555
654.86	31.461
655.19	31.662
655.52	28.874
655.84	27.988
656.17	30.723
656.49	41.695
656.82	43.323
657.15	32.461
657.47	24.416
657.80	18.743
658.13	21.367
658.45	29.762
658.78	28.791
659.10	29.141
659.43	29.914
659.75	29.583
660.08	29.740
660.41	30.533
660.73	30.473
661.06	34.058
661.38	34.821
661.71	32.696
662.03	33.669
662.36	34.968
662.68	35.443
663.01	34.820
663.33	32.426
663.66	34.335
663.98	30.134
664.31	31.096
664.63	34.735
664.96	33.189
665.28	32.538
665.61	30.867
665.93	34.979
666.26	33.806
666.58	32.432
666.91	36.971
667.23	29.386
667.56	31.066
667.88	36.878
668.21	32.719
668.53	31.542
668.86	34.180
669.18	34.018
669.50	31.542
669.83	34.063
670.15	35.874
670.48	34.112
670.80	32.346
671.13	30.926
671.45	34.234
671.77	31.478
672.10	32.544
672.42	32.657
672.75	31.818
673.07	30.631
673.39	31.876
673.72	33.465
674.04	30.998
674.37	30.309
674.69	34.221
675.01	31.064
675.34	33.839
675.66	30.454
675.98	32.159
676.31	35.973
676.63	34.943
676.95	33.186
677.28	32.251
677.60	34.615
677.92	35.683
678.25	35.667
678.57	34.362
678.89	33.124
679.22	33.753
679.54	35.306
679.86	33.800
680.18	33.270
680.51	32.216
680.83	35.048
681.15	34.875
681.48	35.700
681.80	33.468
682.12	33.199
682.44	32.417
682.77	32.468
683.09	35.220
683.41	34.513
683.73	32.648
684.06	32.043
684.38	32.636
684.70	33.539
685.02	32.283
685.34	33.528
685.67	35.038
685.99	32.703
686.31	33.752
686.63	33.511
686.96	32.902
687.28	32.177
687.60	33.594
687.92	31.907
688.24	35.039
688.56	30.461
688.89	31.197
689.21	35.011
689.53	34.483
689.85	31.180
690.17	32.960
690.49	32.564
690.82	32.771
691.14	31.604
691.46	33.925
691.78	33.921
692.10	35.169
692.42	31.111
692.74	34.979
693.06	32.584
693.39	33.110
693.71	34.086
694.03	35.853
694.35	30.926
694.67	34.752
694.99	30.946
695.31	31.888
695.63	30.612
695.95	33.747
696.27	32.419
696.59	36.364
696.91	34.270
697.23	34.375
697.56	32.692
697.88	32.432
698.20	30.621
698.52	30.493
698.84	35.194
699.16	30.238
699.48	38.000
699.80	32.832
700.12	31.486
700.44	31.006
700.76	31.778
701.08	34.302
701.40	34.743
701.72	36.420
702.04	31.410
702.36	35.542
702.68	33.234
703.00	35.362
703.32	29.226
703.64	37.059
703.96	34.012
704.28	32.840
704.60	34.494
704.91	28.889
705.23	35.922
705.55	32.770
705.87	31.741
706.19	29.167
706.51	34.028
706.83	36.066
707.15	34.713
707.47	35.537
707.79	31.701
708.11	33.079
708.43	33.416
708.74	32.208
709.06	31.476
709.38	33.046
709.70	32.813
710.02	34.969
710.34	32.343
710.66	33.016
710.98	31.546
711.29	32.258
711.61	30.990
711.93	34.098
712.25	33.887
712.57	31.707
712.89	38.129
713.20	36.082
713.52	34.701
713.84	34.520
714.16	33.115
714.48	33.016
714.80	31.692
715.11	33.141
715.43	37.651
715.75	34.268
716.07	35.410
716.39	32.441
716.70	37.631
717.02	38.148
717.34	32.061
717.66	43.983
717.97	35.246
718.29	35.714
718.61	37.698
718.93	36.201
719.24	29.779
719.56	33.962
719.88	34.545
720.20	34.457
720.51	38.346
720.83	32.129
721.15	40.164
721.46	35.294
721.78	32.567
722.10	35.200
722.42	32.231
722.73	33.865
723.05	34.137
723.37	34.510
723.68	36.032
724.00	38.211
724.32	37.449
724.63	33.610
724.95	35.124
725.27	31.579
725.58	39.224
725.90	33.333
726.22	32.103
726.53	37.262
726.85	31.373
727.16	35.714
727.48	32.692
727.80	29.918
728.11	35.714
728.43	34.298
728.74	35.547
729.06	35.985
729.38	33.852
729.69	28.740
730.01	35.433
730.32	31.076
730.64	38.462
730.96	38.060
731.27	33.571
731.59	34.727
731.90	36.503
732.22	34.356
732.53	36.093
732.85	32.550
733.16	35.507
733.48	35.540
733.80	30.605
734.11	31.724
734.43	34.014
734.74	35.015
735.06	35.737
735.37	33.028
735.69	32.903
736.00	30.976
736.32	33.775
736.63	27.586
736.95	31.159
737.26	32.781
737.58	35.971
737.89	37.993
738.21	30.075
738.52	37.308
738.83	35.156
739.15	39.744
739.46	36.290
739.78	30.420
740.09	34.965
740.41	32.867
740.72	36.131
741.04	35.317
741.35	28.571
741.66	33.796
741.98	30.952
742.29	38.967
742.61	37.968
742.92	42.056
743.23	28.509
743.55	30.631
743.86	34.667
744.18	36.190
744.49	35.468
744.80	32.487
745.12	42.268
745.43	40.704
745.74	34.951
746.06	32.683
746.37	40.088
746.68	39.303
747.00	39.267
747.31	36.058
747.62	36.406
747.94	31.441
748.25	34.884
748.56	30.476
748.88	23.913
749.19	38.498
749.50	39.216
749.82	36.444
750.13	36.564
750.44	31.707
750.75	38.400
751.07	33.929
751.38	31.734
751.69	31.679
752.01	31.923
752.32	34.241
752.63	28.462
752.94	38.095
753.26	33.043
753.57	34.821
753.88	34.914
754.19	35.685
754.51	30.859
754.82	31.621
755.13	32.922
755.44	35.124
755.75	36.214
756.07	33.735
756.38	27.734
756.69	37.545
757.00	34.495
757.31	35.570
757.63	37.383
757.94	36.127
758.25	31.977
758.56	34.232
758.87	33.239
759.18	33.000
759.50	33.096
759.81	30.657
760.12	34.459
760.43	36.570
760.74	35.312
761.05	37.640
761.36	35.329
761.67	35.503
761.99	35.161
762.30	37.681
762.61	34.340
762.92	35.874
763.23	36.019
763.54	37.778
763.85	30.802
764.16	34.286
764.47	36.017
764.78	38.577
765.10	34.532
765.41	33.548
765.72	33.648
766.03	33.569
766.34	35.338
766.65	31.984
766.96	31.000
767.27	33.854
767.58	36.047
767.89	31.613
768.20	46.012
768.51	33.880
768.82	36.216
769.13	33.000
769.44	32.018
769.75	35.498
770.06	38.073
770.37	31.925
770.68	30.208
770.99	33.663
771.30	36.408
771.61	31.019
771.92	32.468
772.23	34.579
772.54	35.638
772.85	36.095
773.16	39.634
773.47	44.578
773.78	43.407
774.09	32.000
774.39	35.185
774.70	36.242
775.01	28.261
775.32	29.851
775.63	34.711
775.94	38.346
776.25	40.000
776.56	32.787
776.87	38.053
777.18	41.593
777.48	30.909
777.79	26.957
778.10	22.018
778.41	35.593
778.72	41.322
779.03	42.537
779.34	36.090
779.65	35.294
779.95	38.406
780.26	32.653
780.57	25.000
780.88	34.259
781.19	30.303
781.50	29.600
781.80	36.601
782.11	35.256
782.42	41.566
782.73	31.387
783.04	35.135
783.34	42.424
783.65	25.581
783.96	34.959
784.27	44.444
784.57	39.837
784.88	30.894
785.19	34.211
785.50	24.742
785.81	22.857
786.11	30.392
786.42	35.455
786.73	40.541
787.04	33.663
787.34	25.714
787.65	20.952
787.96	41.176
788.26	36.036
788.57	36.290
788.88	28.125
789.19	36.752
789.49	36.134
789.80	29.060
790.11	33.628
790.41	16.162
790.72	41.509
791.03	13.889
791.33	39.474
791.64	26.882
791.95	33.333
792.25	37.143
792.56	31.707
792.87	33.673
793.17	38.158
793.48	33.784
793.79	25.352
794.09	27.848
794.40	30.851
794.70	28.972
795.01	21.053
795.32	32.727
795.62	29.464
795.93	37.113
796.23	39.560
796.54	26.316
796.85	19.178
797.15	16.667
797.46	47.945
797.76	39.437
798.07	51.250
798.37	29.412
798.68	45.714
798.99	38.571
799.29	15.789
799.60	26.667
799.90	29.167
800.21	32.813
800.51	47.619
800.82	34.426
801.12	31.579
801.43	26.761
801.73	28.814
802.04	32.787
802.34	7.273
802.65	28.846
802.95	18.519
803.26	-2.500
803.56	51.923
803.87	18.421
804.17	33.871
804.48	30.769
804.78	46.154
805.09	39.535
805.39	25.000
805.70	32.075
806.00	49.123
806.30	29.730
806.61	22.059
806.91	25.926
807.22	37.333
807.52	34.328
807.83	35.484
808.13	25.397
808.43	25.455
808.74	30.303
809.04	30.189
809.35	27.397
809.65	36.842
809.95	32.353
810.26	29.412
810.56	6.000
810.86	8.163
811.17	45.714
811.47	17.308
811.77	12.903
812.08	21.053
812.38	45.238
812.69	19.565
812.99	35.484
813.29	19.048
813.59	-25.926
813.90	29.787
814.20	16.279
814.50	25.000
814.81	35.000
815.11	29.268
815.41	26.667
815.72	28.571
816.02	11.111
816.32	30.769
816.62	37.838
816.93	11.765
817.23	15.217
817.53	0.000
817.84	44.118
818.14	6.250
818.44	27.586
818.74	-25.806
819.04	14.815
819.35	0.000
819.65	32.000
819.95	36.667
820.25	0.000
820.56	10.526
820.86	15.000
821.16	36.170
821.46	18.966
821.76	2.564
822.07	15.000
822.37	11.628
822.67	-13.333
822.97	13.514
823.27	24.324
823.57	60.000
823.88	40.541
824.18	-14.286
824.48	65.385
824.78	-84.615
825.08	17.391
825.38	4.167
825.69	-8.333
825.99	-35.000
826.29	18.919
826.59	26.471
826.89	44.000
827.19	25.714
827.49	55.263
827.79	31.250
828.09	-26.667
828.39	60.870
828.70	-24.138
829.00	0.000
829.30	36.111
829.60	37.500
829.90	5.556
830.20	7.692
830.50	-33.333
830.80	28.571
831.10	17.949
831.40	28.571
831.70	29.412
832.00	37.500
832.30	42.105
832.60	81.250
832.90	-100.000
833.20	-58.824
833.50	20.000
833.80	-40.000
834.10	-25.000
834.40	4.167
834.70	22.222
835.00	46.154
835.30	29.167
835.60	6.897
835.90	-61.111
836.20	-136.364
836.50	-50.000
836.80	31.429
837.10	60.000
837.40	-11.765
837.70	-36.364
838.00	62.500
838.30	-43.750
838.60	14.286
838.90	30.000
839.19	8.696
839.49	21.739
839.79	-83.333
840.09	-30.435
840.39	-18.182
840.69	-31.250
840.99	10.526
841.29	-50.000
841.59	35.714
841.88	16.667
842.18	20.833
842.48	23.529
842.78	27.586
843.08	21.429
843.38	-7.692
843.68	-33.333
843.97	-53.846
844.27	-45.455
844.57	-140.000
844.87	48.000
845.17	120.000
845.47	-28.571
845.76	-44.444
846.06	0.000
846.36	-225.000
846.66	-160.000
846.96	68.421
847.25	33.333
847.55	-58.333
847.85	26.667
848.15	-90.000
848.44	100.000
848.74	42.105
849.04	433.333
849.34	66.667
849.63	15.789
849.93	0.000
850.23	5.000
850.53	-23.810
850.82	16.000
851.12	21.053
851.42	-650.000
851.71	28.571
852.01	-41.667
852.31	29.412
852.61	66.667
852.90	-38.095
853.20	50.000
853.50	16.667
853.79	-63.158
854.09	-13.333
854.39	3.571
854.68	47.826
854.98	-75.000
855.28	24.138
855.57	-31.250
855.87	-30.000
856.17	-86.667
856.46	34.483
856.76	13.333
857.05	-41.176
857.35	-69.231
857.65	9.091
857.94	33.333
858.24	21.429
858.53	-7.143
858.83	50.000
859.13	-122.222
859.42	61.905
859.72	-50.000
860.01	-300.000
860.31	25.000
860.60	-360.000
860.90	0.000
861.20	37.500
861.49	-100.000
861.79	76.471
862.08	250.000
862.38	8.333
862.67	-15.385
862.97	-23.529
863.26	35.000
863.56	-35.294
863.85	200.000
864.15	50.000
864.44	-38.462
864.74	50.000
865.03	-112.500
865.33	0.000
865.62	-23.529
865.92	-475.000
866.21	-50.000
866.51	-16.667
866.80	-1600.000
867.10	-66.667
867.39	-5.882
867.69	30.435
867.98	-157.143
868.27	-140.000
868.57	-6.250
868.86	0.000
869.16	-29.412
869.45	150.000
869.75	-171.429
870.04	1000.000
870.33	33.333
870.63	-60.000
870.92	-88.889
871.22	-91.667
871.51	-54.545
871.80	-33.333
872.10	100.000
>>>>>End Processed Spectral Data<<<<<
