SpectraSuite Data File
++++++++++++++++++++++++++++++++++++
Date: Sat May 16 11:43:48 PDT 2015
User: schluterlab
Dark Spectrum Present: Yes
Reference Spectrum Present: Yes
Number of Sampled Component Spectra: 1
Spectrometers: USB2E3373
Integration Time (usec): 3000 (USB2E3373)
Spectra Averaged: 3 (USB2E3373)
Boxcar Smoothing: 0 (USB2E3373)
Correct for Electrical Dark: No (USB2E3373)
Strobe/Lamp Enabled: No (USB2E3373)
Correct for Detector Non-linearity: No (USB2E3373)
Correct for Stray Light: No (USB2E3373)
Number of Pixels in Processed Spectrum: 2048
>>>>>Begin Processed Spectral Data<<<<<
178.53	0.000
178.91	126.667
179.29	166.667
179.67	-1300.000
180.04	-46.154
180.42	1300.000
180.80	175.000
181.18	275.000
181.56	-137.500
181.94	1000.000
182.31	425.000
182.69	-107.692
183.07	-566.667
183.45	1800.000
183.83	433.333
184.20	-357.143
184.58	-150.000
184.96	-275.000
185.34	87.500
185.72	-350.000
186.09	366.667
186.47	-250.000
186.85	-100.000
187.23	-100.000
187.61	-100.000
187.98	-287.500
188.36	-212.500
188.74	-112.500
189.12	2200.000
189.49	400.000
189.87	-50.000
190.25	575.000
190.63	-92.857
191.00	-100.000
191.38	480.000
191.76	-20.000
192.14	600.000
192.51	-340.000
192.89	-233.333
193.27	0.000
193.65	-77.778
194.02	-300.000
194.40	500.000
194.78	-150.000
195.15	-1300.000
195.53	-90.909
195.91	-383.333
196.29	80.000
196.66	-700.000
197.04	2200.000
197.42	-75.000
197.79	-20.000
198.17	-533.333
198.55	-1000.000
198.92	-1100.000
199.30	137.500
199.68	-600.000
200.05	-77.778
200.43	-233.333
200.81	-1600.000
201.18	-133.333
201.56	214.286
201.94	-13.333
202.31	-13.636
202.69	0.000
203.07	-140.000
203.44	666.667
203.82	-150.000
204.19	-250.000
204.57	-50.000
204.95	-1400.000
205.32	-56.250
205.70	800.000
206.08	-1200.000
206.45	27.778
206.83	-450.000
207.20	-150.000
207.58	-766.667
207.96	-166.667
208.33	-275.000
208.71	-77.778
209.08	240.000
209.46	-114.286
209.84	1100.000
210.21	0.000
210.59	-10.000
210.96	1400.000
211.34	-266.667
211.71	-566.667
212.09	325.000
212.46	1300.000
212.84	-1800.000
213.22	900.000
213.59	191.667
213.97	0.000
214.34	30.000
214.72	-50.000
215.09	-466.667
215.47	-400.000
215.84	-130.000
216.22	-80.000
216.59	-33.333
216.97	-475.000
217.34	450.000
217.72	-142.857
218.09	-333.333
218.47	-328.571
218.84	328.571
219.22	-57.143
219.59	0.000
219.97	228.571
220.34	500.000
220.72	225.000
221.09	-46.154
221.47	0.000
221.84	500.000
222.22	-400.000
222.59	1600.000
222.97	-187.500
223.34	-450.000
223.72	-633.333
224.09	14.286
224.46	-575.000
224.84	-14.286
225.21	-85.714
225.59	-45.455
225.96	-125.000
226.34	-71.429
226.71	-166.667
227.08	10.000
227.46	1900.000
227.83	-42.857
228.21	-212.500
228.58	500.000
228.95	-100.000
229.33	-1600.000
229.70	-300.000
230.08	-950.000
230.45	-33.333
230.82	-183.333
231.20	-500.000
231.57	-600.000
231.95	1900.000
232.32	-19.048
232.69	-100.000
233.07	-257.143
233.44	-1000.000
233.81	-40.000
234.19	-111.111
234.56	-25.000
234.93	6.250
235.31	-257.143
235.68	-150.000
236.05	-100.000
236.43	-90.909
236.80	-48.387
237.17	-8.333
237.55	-61.905
237.92	-100.000
238.29	-20.000
238.67	5.882
239.04	-16.667
239.41	-51.613
239.79	-25.641
240.16	-2.381
240.53	-14.545
240.91	-10.256
241.28	12.727
241.65	-1.538
242.02	-1.639
242.40	1.639
242.77	6.061
243.14	-15.254
243.51	-7.143
243.89	-1.266
244.26	-1.124
244.63	-1.053
245.00	-3.158
245.38	0.000
245.75	9.735
246.12	-2.400
246.49	7.087
246.87	0.813
247.24	-4.237
247.61	-4.237
247.98	-2.817
248.36	6.993
248.73	4.430
249.10	-5.096
249.47	8.772
249.84	9.659
250.22	0.595
250.59	10.169
250.96	4.188
251.33	6.635
251.70	10.096
252.08	6.635
252.45	9.005
252.82	3.810
253.19	6.383
253.56	6.855
253.94	5.063
254.31	6.438
254.68	5.691
255.05	7.258
255.42	9.524
255.79	6.093
256.16	9.412
256.54	4.779
256.91	0.000
257.28	6.960
257.65	7.092
258.02	7.233
258.39	6.020
258.76	3.716
259.14	6.481
259.51	6.885
259.88	7.927
260.25	8.385
260.62	6.431
260.99	4.748
261.36	7.927
261.73	9.827
262.10	10.278
262.47	5.983
262.85	8.286
263.22	3.152
263.59	7.077
263.96	4.058
264.33	7.859
264.70	6.906
265.07	7.143
265.44	5.168
265.81	8.010
266.18	8.608
266.55	5.882
266.92	7.305
267.29	5.811
267.66	7.901
268.03	8.213
268.40	10.094
268.77	6.265
269.14	6.032
269.51	7.126
269.88	5.046
270.25	4.662
270.62	7.780
270.99	6.757
271.36	6.760
271.73	8.969
272.10	4.805
272.47	7.333
272.84	10.889
273.21	8.028
273.58	7.692
273.95	8.114
274.32	7.240
274.69	9.628
275.06	8.793
275.43	5.580
275.80	10.591
276.17	6.485
276.54	9.572
276.91	7.407
277.28	9.939
277.65	4.959
278.02	6.681
278.39	8.448
278.76	7.769
279.13	8.893
279.50	9.742
279.87	5.920
280.23	7.895
280.60	6.958
280.97	7.961
281.34	7.737
281.71	10.192
282.08	8.266
282.45	6.517
282.82	5.426
283.19	7.091
283.56	9.158
283.92	7.244
284.29	6.691
284.66	9.532
285.03	11.586
285.40	7.749
285.77	10.000
286.14	7.762
286.51	7.815
286.87	7.441
287.24	7.338
287.61	8.430
287.98	7.279
288.35	7.273
288.72	7.131
289.08	7.797
289.45	9.933
289.82	4.844
290.19	9.195
290.56	9.091
290.93	9.857
291.29	7.455
291.66	7.246
292.03	10.047
292.40	9.488
292.77	9.472
293.13	7.317
293.50	9.955
293.87	8.589
294.24	8.145
294.60	7.727
294.97	10.774
295.34	8.000
295.71	8.482
296.08	8.449
296.44	8.441
296.81	9.259
297.18	8.873
297.55	11.017
297.91	9.902
298.28	8.630
298.65	10.879
299.02	12.166
299.38	10.027
299.75	10.598
300.12	8.846
300.48	11.509
300.85	9.699
301.22	11.384
301.59	10.403
301.95	11.839
302.32	9.518
302.69	10.526
303.05	10.012
303.42	10.125
303.79	10.885
304.15	11.730
304.52	11.902
304.89	9.917
305.25	10.012
305.62	11.281
305.99	11.425
306.35	10.877
306.72	10.934
307.09	12.259
307.45	12.259
307.82	10.838
308.19	12.416
308.55	11.111
308.92	11.600
309.29	12.865
309.65	11.983
310.02	12.635
310.38	12.000
310.75	13.320
311.12	14.256
311.48	12.944
311.85	12.770
312.22	14.006
312.58	14.954
312.95	12.946
313.31	14.585
313.68	15.075
314.05	15.529
314.41	14.588
314.78	13.886
315.14	15.202
315.51	15.096
315.87	16.070
316.24	14.869
316.61	16.507
316.97	16.617
317.34	16.667
317.70	17.254
318.07	17.444
318.43	17.041
318.80	18.873
319.16	18.105
319.53	17.293
319.89	17.027
320.26	19.706
320.62	17.115
320.99	20.000
321.35	18.818
321.72	18.628
322.08	21.167
322.45	20.000
322.81	22.382
323.18	22.959
323.54	22.458
323.91	23.911
324.27	23.479
324.64	24.497
325.00	25.393
325.37	26.516
325.73	26.772
326.10	27.104
326.46	28.546
326.83	29.277
327.19	30.859
327.56	30.750
327.92	30.841
328.29	31.515
328.65	31.091
329.01	33.216
329.38	33.898
329.74	34.890
330.11	35.177
330.47	36.331
330.84	36.572
331.20	37.094
331.56	37.466
331.93	38.544
332.29	40.913
332.66	38.630
333.02	38.462
333.38	41.308
333.75	40.873
334.11	40.178
334.48	41.218
334.84	41.295
335.20	40.691
335.57	42.419
335.93	44.942
336.29	39.593
336.66	42.026
337.02	42.703
337.38	41.979
337.75	42.669
338.11	42.487
338.47	41.459
338.84	43.103
339.20	42.619
339.56	45.276
339.93	42.416
340.29	42.073
340.65	43.619
341.02	41.821
341.38	42.628
341.74	43.353
342.11	43.174
342.47	42.403
342.83	42.989
343.20	43.894
343.56	42.204
343.92	44.240
344.28	44.239
344.65	43.812
345.01	43.445
345.37	43.771
345.73	41.653
346.10	42.273
346.46	42.486
346.82	42.983
347.19	42.728
347.55	43.018
347.91	44.646
348.27	43.675
348.63	42.407
349.00	42.323
349.36	42.701
349.72	43.949
350.08	43.144
350.45	43.893
350.81	44.029
351.17	42.605
351.53	42.562
351.89	42.846
352.26	43.333
352.62	43.702
352.98	42.801
353.34	42.766
353.70	42.239
354.07	42.880
354.43	43.953
354.79	43.185
355.15	43.690
355.51	42.812
355.87	42.530
356.24	43.368
356.60	44.803
356.96	44.034
357.32	44.022
357.68	41.609
358.04	43.264
358.40	42.923
358.77	42.040
359.13	44.759
359.49	42.630
359.85	43.064
360.21	42.161
360.57	42.244
360.93	42.741
361.29	43.797
361.66	42.454
362.02	44.527
362.38	44.314
362.74	43.516
363.10	43.113
363.46	43.732
363.82	44.388
364.18	44.067
364.54	43.888
364.90	44.375
365.26	43.224
365.62	44.405
365.98	44.737
366.35	45.141
366.71	43.904
367.07	44.672
367.43	43.995
367.79	43.780
368.15	42.745
368.51	43.776
368.87	44.574
369.23	43.649
369.59	43.889
369.95	44.679
370.31	45.288
370.67	44.252
371.03	44.606
371.39	44.130
371.75	43.062
372.11	44.978
372.47	44.469
372.83	45.897
373.19	44.214
373.55	45.531
373.91	44.879
374.27	44.353
374.63	45.342
374.99	46.592
375.35	44.078
375.71	46.523
376.07	45.380
376.42	45.960
376.78	46.536
377.14	47.322
377.50	47.453
377.86	45.514
378.22	46.796
378.58	46.695
378.94	47.041
379.30	45.704
379.66	47.116
380.02	46.465
380.38	46.405
380.74	46.483
381.09	46.632
381.45	46.122
381.81	46.763
382.17	47.807
382.53	46.079
382.89	46.890
383.25	47.803
383.61	46.875
383.97	48.438
384.32	48.436
384.68	48.489
385.04	47.705
385.40	47.778
385.76	48.049
386.12	48.220
386.48	48.639
386.83	48.098
387.19	47.759
387.55	49.182
387.91	47.659
388.27	48.975
388.62	48.257
388.98	48.577
389.34	47.797
389.70	48.660
390.06	47.918
390.42	49.103
390.77	47.950
391.13	50.248
391.49	48.472
391.85	49.190
392.20	47.027
392.56	48.564
392.92	48.203
393.28	48.909
393.64	49.609
393.99	49.354
394.35	49.818
394.71	49.351
395.07	49.843
395.42	48.689
395.78	48.460
396.14	49.907
396.50	49.969
396.85	49.105
397.21	47.995
397.57	48.024
397.92	50.585
398.28	49.389
398.64	47.829
399.00	50.225
399.35	48.591
399.71	49.071
400.07	49.015
400.42	48.540
400.78	48.539
401.14	48.443
401.49	48.880
401.85	51.007
402.21	48.987
402.57	49.090
402.92	50.975
403.28	47.733
403.63	47.214
403.99	48.664
404.35	48.249
404.70	48.683
405.06	49.077
405.42	47.355
405.77	48.077
406.13	49.517
406.49	49.790
406.84	48.650
407.20	49.470
407.55	49.905
407.91	47.863
408.27	49.142
408.62	48.166
408.98	50.273
409.34	48.385
409.69	48.204
410.05	48.575
410.40	48.927
410.76	50.326
411.11	49.501
411.47	47.954
411.83	48.289
412.18	50.062
412.54	48.505
412.89	49.149
413.25	48.583
413.60	48.663
413.96	48.306
414.31	49.419
414.67	49.905
415.03	47.801
415.38	49.447
415.74	50.773
416.09	49.169
416.45	48.082
416.80	49.935
417.16	49.568
417.51	50.755
417.87	49.385
418.22	50.442
418.58	49.936
418.93	50.031
419.29	50.251
419.64	50.628
420.00	51.033
420.35	50.976
420.71	50.420
421.06	51.953
421.42	49.649
421.77	51.368
422.12	51.203
422.48	50.027
422.83	50.968
423.19	49.722
423.54	51.066
423.90	51.995
424.25	51.640
424.61	52.292
424.96	51.492
425.31	51.202
425.67	52.665
426.02	51.865
426.38	51.906
426.73	53.010
427.09	53.186
427.44	53.011
427.79	53.314
428.15	53.800
428.50	52.727
428.85	53.177
429.21	53.735
429.56	54.219
429.92	52.956
430.27	53.340
430.62	54.180
430.98	51.856
431.33	53.735
431.68	55.121
432.04	55.120
432.39	54.986
432.74	54.556
433.10	54.136
433.45	54.462
433.80	55.207
434.16	54.648
434.51	55.507
434.86	56.942
435.22	55.011
435.57	55.018
435.92	56.331
436.28	55.430
436.63	55.512
436.98	54.296
437.34	55.405
437.69	56.768
438.04	55.303
438.39	56.258
438.75	56.752
439.10	56.913
439.45	56.427
439.81	56.687
440.16	57.013
440.51	57.647
440.86	57.432
441.22	55.777
441.57	57.316
441.92	57.136
442.27	57.089
442.63	56.974
442.98	55.530
443.33	57.166
443.68	57.165
444.03	57.859
444.39	56.779
444.74	58.535
445.09	58.114
445.44	58.301
445.79	59.052
446.15	58.927
446.50	57.104
446.85	56.696
447.20	57.814
447.55	58.785
447.91	59.517
448.26	58.268
448.61	58.517
448.96	60.392
449.31	59.526
449.66	59.588
450.02	57.285
450.37	58.783
450.72	58.023
451.07	59.837
451.42	59.108
451.77	60.263
452.12	59.476
452.47	59.257
452.83	59.697
453.18	60.531
453.53	61.878
453.88	61.483
454.23	59.432
454.58	61.964
454.93	61.083
455.28	60.867
455.63	60.442
455.98	61.867
456.34	60.483
456.69	60.725
457.04	60.910
457.39	60.407
457.74	61.607
458.09	60.557
458.44	61.836
458.79	60.874
459.14	61.894
459.49	61.693
459.84	62.282
460.19	60.322
460.54	61.222
460.89	62.164
461.24	61.141
461.59	61.313
461.94	62.190
462.29	61.584
462.64	62.516
462.99	64.859
463.34	61.377
463.69	63.359
464.04	62.214
464.39	63.620
464.74	60.284
465.09	61.155
465.44	63.170
465.79	62.775
466.14	64.614
466.49	62.752
466.84	63.325
467.19	63.840
467.54	62.785
467.89	64.180
468.24	62.470
468.59	64.210
468.94	64.759
469.29	63.093
469.64	63.005
469.99	65.496
470.34	65.397
470.68	66.061
471.03	64.900
471.38	65.347
471.73	66.294
472.08	65.395
472.43	64.221
472.78	65.000
473.13	65.805
473.48	65.475
473.83	64.826
474.17	66.051
474.52	65.473
474.87	64.860
475.22	64.897
475.57	65.611
475.92	66.577
476.27	65.257
476.61	63.887
476.96	66.574
477.31	66.685
477.66	65.523
478.01	66.613
478.36	65.165
478.70	67.218
479.05	66.090
479.40	66.477
479.75	65.494
480.10	65.476
480.45	64.458
480.79	66.979
481.14	66.382
481.49	67.038
481.84	66.343
482.19	66.377
482.53	66.335
482.88	66.872
483.23	65.587
483.58	66.975
483.92	67.129
484.27	66.017
484.62	66.091
484.97	65.978
485.31	63.648
485.66	62.769
486.01	62.463
486.36	63.791
486.70	65.653
487.05	64.607
487.40	65.518
487.75	64.570
488.09	65.195
488.44	64.581
488.79	64.202
489.13	64.777
489.48	67.129
489.83	67.074
490.17	67.479
490.52	67.844
490.87	69.053
491.22	69.173
491.56	67.315
491.91	69.466
492.26	67.877
492.60	68.649
492.95	69.062
493.30	68.366
493.64	67.748
493.99	69.025
494.34	69.095
494.68	70.459
495.03	68.547
495.37	70.206
495.72	70.432
496.07	69.029
496.41	68.689
496.76	69.087
497.11	70.608
497.45	69.157
497.80	69.335
498.14	70.972
498.49	70.568
498.84	68.252
499.18	70.273
499.53	69.021
499.87	69.402
500.22	69.853
500.56	70.235
500.91	69.015
501.26	69.820
501.60	69.283
501.95	71.643
502.29	69.627
502.64	68.977
502.98	70.244
503.33	70.207
503.67	69.444
504.02	70.884
504.36	70.294
504.71	70.719
505.06	70.494
505.40	70.808
505.75	70.833
506.09	71.082
506.44	71.378
506.78	71.199
507.13	73.223
507.47	72.353
507.82	70.728
508.16	71.710
508.51	72.076
508.85	73.137
509.19	71.690
509.54	72.304
509.88	72.606
510.23	73.847
510.57	72.593
510.92	71.858
511.26	71.823
511.61	71.814
511.95	72.899
512.30	72.622
512.64	74.402
512.98	72.992
513.33	73.915
513.67	73.814
514.02	73.490
514.36	74.294
514.70	74.533
515.05	73.699
515.39	74.394
515.74	75.451
516.08	74.179
516.42	74.448
516.77	74.292
517.11	74.657
517.46	76.017
517.80	76.414
518.14	76.087
518.49	76.151
518.83	74.777
519.17	75.488
519.52	73.511
519.86	75.806
520.20	77.751
520.55	75.077
520.89	77.332
521.23	75.946
521.58	76.426
521.92	76.504
522.26	77.460
522.61	75.856
522.95	76.005
523.29	77.116
523.64	76.765
523.98	77.594
524.32	77.938
524.66	75.466
525.01	76.365
525.35	77.384
525.69	76.708
526.04	79.504
526.38	78.358
526.72	76.628
527.06	77.734
527.41	76.568
527.75	76.238
528.09	78.028
528.43	78.098
528.78	75.879
529.12	76.440
529.46	78.157
529.80	77.857
530.15	77.270
530.49	77.296
530.83	76.948
531.17	77.778
531.51	77.897
531.86	78.078
532.20	78.677
532.54	76.471
532.88	76.812
533.22	77.206
533.57	77.154
533.91	74.906
534.25	73.664
534.59	74.891
534.93	75.233
535.27	76.526
535.62	75.767
535.96	74.531
536.30	75.458
536.64	77.689
536.98	79.237
537.32	78.093
537.66	76.511
538.01	76.014
538.35	75.946
538.69	76.136
539.03	76.710
539.37	75.981
539.71	75.517
540.05	78.410
540.39	77.701
540.73	78.507
541.07	77.596
541.42	75.962
541.76	75.083
542.10	77.178
542.44	74.617
542.78	75.712
543.12	77.461
543.46	75.137
543.80	75.050
544.14	74.614
544.48	75.853
544.82	75.913
545.16	75.855
545.50	74.361
545.84	77.538
546.18	74.896
546.52	77.240
546.86	76.852
547.20	76.090
547.54	74.793
547.88	74.983
548.22	75.229
548.56	75.618
548.90	75.943
549.24	74.071
549.58	76.641
549.92	77.102
550.26	74.855
550.60	75.107
550.94	77.080
551.28	75.922
551.62	76.662
551.96	76.411
552.30	74.704
552.64	76.144
552.98	75.123
553.32	77.706
553.66	75.703
554.00	75.053
554.34	75.596
554.68	74.269
555.02	75.036
555.36	74.623
555.69	75.072
556.03	74.947
556.37	75.676
556.71	77.094
557.05	75.831
557.39	75.724
557.73	76.368
558.07	76.413
558.41	75.916
558.75	75.665
559.08	75.720
559.42	77.642
559.76	76.074
560.10	75.839
560.44	75.217
560.78	74.043
561.12	72.809
561.45	74.178
561.79	74.007
562.13	75.947
562.47	75.140
562.81	74.328
563.15	73.058
563.48	74.153
563.82	74.239
564.16	72.279
564.50	74.261
564.84	73.148
565.17	73.806
565.51	73.012
565.85	73.834
566.19	75.560
566.52	72.994
566.86	72.819
567.20	73.366
567.54	72.475
567.88	71.078
568.21	72.260
568.55	70.626
568.89	69.384
569.23	68.626
569.56	67.423
569.90	68.017
570.24	67.832
570.57	65.694
570.91	66.440
571.25	65.986
571.59	66.469
571.92	64.167
572.26	64.080
572.60	63.481
572.93	63.704
573.27	63.963
573.61	63.292
573.95	63.278
574.28	62.843
574.62	63.294
574.96	62.787
575.29	62.957
575.63	63.048
575.97	62.487
576.30	62.839
576.64	62.559
576.98	61.806
577.31	62.360
577.65	62.671
577.98	61.864
578.32	62.050
578.66	62.083
578.99	62.861
579.33	61.718
579.67	62.693
580.00	61.880
580.34	61.840
580.67	61.780
581.01	60.786
581.35	61.708
581.68	60.496
582.02	61.245
582.35	61.568
582.69	61.843
583.02	62.710
583.36	61.916
583.70	61.674
584.03	62.419
584.37	62.111
584.70	61.882
585.04	61.671
585.37	60.263
585.71	60.910
586.04	62.437
586.38	62.016
586.72	62.317
587.05	63.127
587.39	62.278
587.72	61.587
588.06	62.008
588.39	62.005
588.73	62.794
589.06	63.427
589.40	63.999
589.73	63.562
590.07	63.037
590.40	62.177
590.73	64.614
591.07	64.549
591.40	64.991
591.74	64.813
592.07	64.865
592.41	63.864
592.74	64.066
593.08	63.165
593.41	62.763
593.75	63.007
594.08	65.313
594.41	65.693
594.75	63.798
595.08	63.647
595.42	63.692
595.75	63.102
596.09	63.912
596.42	63.871
596.75	63.605
597.09	65.227
597.42	63.378
597.75	63.906
598.09	64.166
598.42	63.677
598.76	63.746
599.09	63.220
599.42	63.245
599.76	62.665
600.09	64.618
600.42	63.236
600.76	63.653
601.09	63.160
601.42	62.762
601.76	62.812
602.09	64.213
602.42	63.251
602.76	62.900
603.09	63.548
603.42	62.973
603.76	63.901
604.09	63.837
604.42	62.032
604.76	63.236
605.09	64.060
605.42	64.051
605.75	63.131
606.09	62.723
606.42	63.469
606.75	62.173
607.09	64.005
607.42	61.884
607.75	64.371
608.08	64.799
608.42	65.374
608.75	62.570
609.08	64.540
609.41	63.827
609.75	64.066
610.08	64.412
610.41	64.723
610.74	65.039
611.07	65.264
611.41	64.549
611.74	63.959
612.07	65.736
612.40	64.819
612.73	63.920
613.07	64.282
613.40	65.846
613.73	64.741
614.06	63.866
614.39	65.558
614.72	64.078
615.06	63.913
615.39	64.352
615.72	65.888
616.05	64.053
616.38	65.293
616.71	64.084
617.05	65.320
617.38	67.059
617.71	66.892
618.04	67.267
618.37	67.107
618.70	67.731
619.03	65.741
619.36	67.724
619.69	67.121
620.03	65.978
620.36	68.284
620.69	69.562
621.02	67.960
621.35	67.984
621.68	70.492
622.01	70.631
622.34	68.012
622.67	68.906
623.00	67.865
623.33	70.075
623.66	68.316
623.99	67.669
624.32	68.304
624.65	68.580
624.99	67.961
625.32	68.563
625.65	68.920
625.98	69.484
626.31	70.310
626.64	70.628
626.97	70.719
627.30	70.043
627.63	70.553
627.96	71.453
628.29	71.048
628.62	69.914
628.95	71.654
629.28	71.053
629.61	72.522
629.94	71.834
630.26	74.652
630.59	73.769
630.92	71.972
631.25	72.883
631.58	74.180
631.91	73.617
632.24	74.889
632.57	73.778
632.90	76.207
633.23	76.402
633.56	72.749
633.89	75.472
634.22	73.554
634.55	76.683
634.88	75.574
635.20	74.657
635.53	77.226
635.86	76.574
636.19	74.969
636.52	72.760
636.85	74.128
637.18	76.125
637.51	76.952
637.83	77.097
638.16	74.605
638.49	77.241
638.82	75.418
639.15	76.394
639.48	73.930
639.81	77.455
640.13	77.162
640.46	75.926
640.79	77.031
641.12	75.740
641.45	79.627
641.77	77.545
642.10	78.097
642.43	77.693
642.76	79.685
643.09	80.476
643.41	80.635
643.74	79.809
644.07	79.251
644.40	78.120
644.73	81.188
645.05	76.628
645.38	82.616
645.71	79.381
646.04	80.000
646.36	80.628
646.69	77.163
647.02	81.408
647.35	83.213
647.67	82.847
648.00	80.141
648.33	79.258
648.66	74.355
648.98	77.070
649.31	76.923
649.64	75.938
649.96	74.882
650.29	75.574
650.62	79.862
650.94	76.391
651.27	78.336
651.60	79.066
651.92	78.253
652.25	74.124
652.58	78.535
652.90	74.318
653.23	73.548
653.56	77.258
653.88	76.066
654.21	78.356
654.54	76.910
654.86	75.923
655.19	70.487
655.52	63.870
655.84	56.914
656.17	60.667
656.49	81.430
656.82	83.410
657.15	63.125
657.47	46.965
657.80	36.399
658.13	40.987
658.45	55.017
658.78	55.066
659.10	54.047
659.43	53.092
659.75	53.619
660.08	54.948
660.41	55.807
660.73	63.256
661.06	72.899
661.38	76.964
661.71	77.055
662.03	81.048
662.36	82.516
662.68	78.059
663.01	80.255
663.33	87.755
663.66	81.545
663.98	82.143
664.31	83.445
664.63	83.186
664.96	81.562
665.28	78.308
665.61	75.899
665.93	76.955
666.26	76.113
666.58	77.131
666.91	83.964
667.23	82.675
667.56	80.272
667.88	82.579
668.21	81.567
668.53	81.308
668.86	83.372
669.18	81.735
669.50	81.075
669.83	83.942
670.15	76.457
670.48	80.140
670.80	76.082
671.13	80.361
671.45	78.378
671.77	76.660
672.10	76.923
672.42	76.753
672.75	75.636
673.07	73.694
673.39	74.317
673.72	78.150
674.04	79.618
674.37	74.021
674.69	78.689
675.01	74.468
675.34	77.223
675.66	78.618
675.98	77.974
676.31	80.769
676.63	80.920
676.95	78.982
677.28	78.654
677.60	78.733
677.92	79.956
678.25	77.024
678.57	78.601
678.89	73.585
679.22	74.843
679.54	72.781
679.86	72.400
680.18	74.715
680.51	70.950
680.83	74.476
681.15	71.484
681.48	76.876
681.80	73.185
682.12	75.453
682.44	70.334
682.77	71.645
683.09	72.746
683.41	76.991
683.73	75.571
684.06	71.828
684.38	76.151
684.70	74.486
685.02	72.047
685.34	72.125
685.67	72.159
685.99	71.645
686.31	75.224
686.63	70.567
686.96	69.131
687.28	70.328
687.60	72.461
687.92	72.957
688.24	72.441
688.56	71.142
688.89	73.504
689.21	73.304
689.53	73.793
689.85	75.278
690.17	74.888
690.49	76.905
690.82	78.072
691.14	75.236
691.46	77.827
691.78	74.449
692.10	73.517
692.42	74.889
692.74	74.464
693.06	73.933
693.39	73.154
693.71	74.041
694.03	73.650
694.35	69.977
694.67	70.922
694.99	76.215
695.31	76.020
695.63	76.020
695.95	76.675
696.27	75.062
696.59	78.342
696.91	79.213
697.23	75.521
697.56	73.077
697.88	73.649
698.20	72.377
698.52	68.161
698.84	78.883
699.16	71.905
699.48	74.500
699.80	72.180
700.12	74.055
700.44	75.978
700.76	73.761
701.08	77.035
701.40	76.133
701.72	76.235
702.04	81.410
702.36	78.614
702.68	78.144
703.00	76.522
703.32	72.493
703.64	82.353
703.96	77.326
704.28	75.148
704.60	77.532
704.91	78.095
705.23	75.405
705.55	75.000
705.87	76.451
706.19	77.778
706.51	73.958
706.83	79.344
707.15	77.707
707.47	75.758
707.79	71.907
708.11	68.702
708.43	71.820
708.74	68.831
709.06	72.423
709.38	69.828
709.70	72.187
710.02	72.086
710.34	73.597
710.66	69.841
710.98	72.555
711.29	69.355
711.61	73.802
711.93	75.738
712.25	72.425
712.57	72.474
712.89	80.216
713.20	74.914
713.52	72.388
713.84	77.224
714.16	78.361
714.48	72.063
714.80	72.615
715.11	68.300
715.43	70.181
715.75	74.455
716.07	70.492
716.39	73.244
716.70	72.125
717.02	72.222
717.34	72.519
717.66	76.349
717.97	74.180
718.29	77.731
718.61	78.175
718.93	73.118
719.24	69.485
719.56	70.566
719.88	77.091
720.20	75.281
720.51	77.444
720.83	84.337
721.15	75.000
721.46	69.412
721.78	72.797
722.10	73.600
722.42	72.314
722.73	71.315
723.05	77.108
723.37	68.235
723.68	72.470
724.00	77.642
724.32	72.428
724.63	68.050
724.95	78.926
725.27	68.860
725.58	75.000
725.90	73.016
726.22	69.742
726.53	74.525
726.85	66.275
727.16	74.812
727.48	71.154
727.80	72.951
728.11	73.529
728.43	74.380
728.74	75.781
729.06	72.727
729.38	69.261
729.69	72.441
730.01	69.291
730.32	76.494
730.64	67.766
730.96	74.627
731.27	69.643
731.59	63.987
731.90	64.724
732.22	65.644
732.53	71.192
732.85	64.094
733.16	74.275
733.48	63.763
733.80	69.395
734.11	63.448
734.43	69.048
734.74	65.875
735.06	66.771
735.37	67.890
735.69	64.839
736.00	63.636
736.32	66.225
736.63	61.379
736.95	68.116
737.26	64.901
737.58	66.547
737.89	68.459
738.21	61.654
738.52	65.000
738.83	63.672
739.15	73.504
739.46	68.952
739.78	64.685
740.09	65.385
740.41	66.434
740.72	69.708
741.04	68.254
741.35	69.264
741.66	69.444
741.98	69.048
742.29	69.484
742.61	70.053
742.92	77.570
743.23	63.596
743.55	71.171
743.86	72.000
744.18	70.476
744.49	74.384
744.80	80.711
745.12	73.711
745.43	68.844
745.74	74.272
746.06	65.854
746.37	72.687
746.68	77.114
747.00	77.487
747.31	68.269
747.62	68.664
747.94	69.869
748.25	71.163
748.56	74.286
748.88	67.935
749.19	66.667
749.50	78.431
749.82	68.000
750.13	71.806
750.44	75.610
750.75	70.400
751.07	67.857
751.38	65.683
751.69	67.557
752.01	66.538
752.32	64.981
752.63	69.615
752.94	67.063
753.26	68.261
753.57	75.893
753.88	65.086
754.19	66.390
754.51	67.187
754.82	70.751
755.13	67.490
755.44	71.901
755.75	68.313
756.07	63.454
756.38	65.625
756.69	68.953
757.00	62.718
757.31	65.436
757.63	65.109
757.94	62.717
758.25	62.500
758.56	63.342
758.87	58.807
759.18	65.333
759.50	64.769
759.81	59.489
760.12	64.527
760.43	62.783
760.74	67.500
761.05	61.236
761.36	65.569
761.67	57.692
761.99	62.581
762.30	62.319
762.61	65.283
762.92	69.058
763.23	72.038
763.54	68.000
763.85	72.152
764.16	61.224
764.47	66.525
764.78	63.296
765.10	63.309
765.41	59.677
765.72	61.321
766.03	63.604
766.34	63.910
766.65	61.943
766.96	63.000
767.27	66.146
767.58	69.767
767.89	63.226
768.20	71.779
768.51	69.945
768.82	64.324
769.13	64.500
769.44	67.544
769.75	63.636
770.06	65.596
770.37	60.563
770.68	67.187
770.99	62.871
771.30	63.592
771.61	64.352
771.92	56.710
772.23	64.953
772.54	63.830
772.85	60.947
773.16	68.293
773.47	65.663
773.78	63.187
774.09	69.333
774.39	61.111
774.70	59.060
775.01	64.493
775.32	62.687
775.63	65.289
775.94	69.173
776.25	58.571
776.56	70.492
776.87	65.487
777.18	71.681
777.48	67.273
777.79	53.913
778.10	68.807
778.41	56.780
778.72	68.595
779.03	63.433
779.34	63.158
779.65	65.359
779.95	65.217
780.26	59.864
780.57	62.069
780.88	70.370
781.19	49.495
781.50	65.600
781.80	58.170
782.11	64.103
782.42	58.434
782.73	58.394
783.04	56.757
783.34	62.879
783.65	61.240
783.96	68.293
784.27	52.991
784.57	65.041
784.88	65.041
785.19	65.789
785.50	52.577
785.81	57.143
786.11	61.765
786.42	60.909
786.73	67.568
787.04	62.376
787.34	69.524
787.65	55.238
787.96	69.608
788.26	68.468
788.57	56.452
788.88	49.219
789.19	57.265
789.49	63.025
789.80	50.427
790.11	68.142
790.41	69.697
790.72	59.434
791.03	59.722
791.33	57.895
791.64	53.763
791.95	72.000
792.25	55.714
792.56	57.317
792.87	58.163
793.17	53.947
793.48	44.595
793.79	57.746
794.09	51.899
794.40	52.128
794.70	59.813
795.01	58.772
795.32	50.909
795.62	58.929
795.93	53.608
796.23	51.648
796.54	54.737
796.85	61.644
797.15	43.056
797.46	54.795
797.76	63.380
798.07	70.000
798.37	47.059
798.68	60.000
798.99	58.571
799.29	67.105
799.60	68.333
799.90	43.056
800.21	53.125
800.51	60.317
800.82	45.902
801.12	64.912
801.43	66.197
801.73	38.983
802.04	68.852
802.34	63.636
802.65	59.615
802.95	50.000
803.26	42.500
803.56	80.769
803.87	57.895
804.17	62.903
804.48	49.231
804.78	58.974
805.09	51.163
805.39	68.750
805.70	28.302
806.00	52.632
806.30	58.108
806.61	55.882
806.91	51.852
807.22	54.667
807.52	68.657
807.83	45.161
808.13	33.333
808.43	45.455
808.74	51.515
809.04	58.491
809.35	38.356
809.65	78.947
809.95	35.294
810.26	58.824
810.56	44.000
810.86	46.939
811.17	68.571
811.47	32.692
811.77	41.935
812.08	23.684
812.38	59.524
812.69	30.435
812.99	61.290
813.29	47.619
813.59	-7.407
813.90	36.170
814.20	25.581
814.50	77.083
814.81	48.333
815.11	51.220
815.41	53.333
815.72	80.000
816.02	27.778
816.32	53.846
816.62	18.919
816.93	41.176
817.23	47.826
817.53	61.765
817.84	47.059
818.14	12.500
818.44	41.379
818.74	9.677
819.04	18.519
819.35	26.667
819.65	16.000
819.95	43.333
820.25	44.000
820.56	42.105
820.86	37.500
821.16	48.936
821.46	46.552
821.76	48.718
822.07	25.000
822.37	27.907
822.67	53.333
822.97	27.027
823.27	48.649
823.57	56.000
823.88	67.568
824.18	14.286
824.48	69.231
824.78	-30.769
825.08	8.696
825.38	37.500
825.69	12.500
825.99	20.000
826.29	32.432
826.59	32.353
826.89	84.000
827.19	8.571
827.49	23.684
827.79	9.375
828.09	50.000
828.39	47.826
828.70	27.586
829.00	34.483
829.30	58.333
829.60	68.750
829.90	61.111
830.20	19.231
830.50	-9.524
830.80	-3.571
831.10	15.385
831.40	-33.333
831.70	55.882
832.00	100.000
832.30	26.316
832.60	37.500
832.90	8.333
833.20	-35.294
833.50	6.667
833.80	-26.667
834.10	75.000
834.40	70.833
834.70	-27.778
835.00	61.538
835.30	20.833
835.60	34.483
835.90	-5.556
836.20	109.091
836.50	-25.000
836.80	14.286
837.10	65.714
837.40	76.471
837.70	-36.364
838.00	16.667
838.30	68.750
838.60	52.381
838.90	40.000
839.19	0.000
839.49	43.478
839.79	-27.778
840.09	4.348
840.39	13.636
840.69	-43.750
840.99	52.632
841.29	-43.750
841.59	-21.429
841.88	-50.000
842.18	29.167
842.48	-64.706
842.78	17.241
843.08	7.143
843.38	7.692
843.68	-88.889
843.97	-76.923
844.27	54.545
844.57	-80.000
844.87	36.000
845.17	-120.000
845.47	-50.000
845.76	-11.111
846.06	0.000
846.36	-425.000
846.66	-10.000
846.96	21.053
847.25	50.000
847.55	-83.333
847.85	80.000
848.15	-60.000
848.44	73.077
848.74	63.158
849.04	333.333
849.34	66.667
849.63	15.789
849.93	0.000
850.23	-15.000
850.53	19.048
850.82	0.000
851.12	31.579
851.42	-300.000
851.71	-64.286
852.01	-25.000
852.31	47.059
852.61	13.333
852.90	23.810
853.20	-100.000
853.50	5.556
853.79	-10.526
854.09	-26.667
854.39	17.857
854.68	13.043
854.98	-58.333
855.28	31.034
855.57	-18.750
855.87	-65.000
856.17	-53.333
856.46	0.000
856.76	40.000
857.05	-58.824
857.35	-246.154
857.65	45.455
857.94	-14.815
858.24	-71.429
858.53	-71.429
858.83	-116.667
859.13	-133.333
859.42	33.333
859.72	-37.500
860.01	-300.000
860.31	-75.000
860.60	-220.000
860.90	-66.667
861.20	-125.000
861.49	-185.714
861.79	-5.882
862.08	-350.000
862.38	-125.000
862.67	-30.769
862.97	17.647
863.26	40.000
863.56	-23.529
863.85	233.333
864.15	-70.000
864.44	-23.077
864.74	0.000
865.03	-162.500
865.33	-100.000
865.62	-17.647
865.92	-350.000
866.21	-85.714
866.51	-75.000
866.80	-1200.000
867.10	-33.333
867.39	0.000
867.69	52.174
867.98	-14.286
868.27	-200.000
868.57	-131.250
868.86	-181.818
869.16	-23.529
869.45	-133.333
869.75	-128.571
870.04	1100.000
870.33	-108.333
870.63	-220.000
870.92	-111.111
871.22	-100.000
871.51	-9.091
871.80	-83.333
872.10	0.000
>>>>>End Processed Spectral Data<<<<<
