SpectraSuite Data File
++++++++++++++++++++++++++++++++++++
Date: Sat May 16 11:20:18 PDT 2015
User: schluterlab
Dark Spectrum Present: Yes
Reference Spectrum Present: Yes
Number of Sampled Component Spectra: 1
Spectrometers: USB2E3373
Integration Time (usec): 3000 (USB2E3373)
Spectra Averaged: 3 (USB2E3373)
Boxcar Smoothing: 0 (USB2E3373)
Correct for Electrical Dark: No (USB2E3373)
Strobe/Lamp Enabled: No (USB2E3373)
Correct for Detector Non-linearity: No (USB2E3373)
Correct for Stray Light: No (USB2E3373)
Number of Pixels in Processed Spectrum: 2048
>>>>>Begin Processed Spectral Data<<<<<
178.53	0.000
178.91	100.000
179.29	800.000
179.67	-2000.000
180.04	7.692
180.42	900.000
180.80	400.000
181.18	325.000
181.56	12.500
181.94	-0.000
182.31	475.000
182.69	30.769
183.07	-633.333
183.45	1300.000
183.83	300.000
184.20	-114.286
184.58	-187.500
184.96	-125.000
185.34	106.250
185.72	-650.000
186.09	316.667
186.47	-250.000
186.85	-225.000
187.23	37.500
187.61	-275.000
187.98	-262.500
188.36	-100.000
188.74	-75.000
189.12	1000.000
189.49	214.286
189.87	-50.000
190.25	175.000
190.63	-42.857
191.00	-100.000
191.38	200.000
191.76	-46.667
192.14	500.000
192.51	-260.000
192.89	-333.333
193.27	0.000
193.65	-188.889
194.02	-214.286
194.40	500.000
194.78	-90.000
195.15	-200.000
195.53	-118.182
195.91	-316.667
196.29	300.000
196.66	-533.333
197.04	2200.000
197.42	-175.000
197.79	33.333
198.17	-233.333
198.55	-550.000
198.92	-400.000
199.30	225.000
199.68	-850.000
200.05	-33.333
200.43	-11.111
200.81	-700.000
201.18	-108.333
201.56	228.571
201.94	-26.667
202.31	13.636
202.69	-10.000
203.07	-30.000
203.44	300.000
203.82	-216.667
204.19	-250.000
204.57	-200.000
204.95	-1500.000
205.32	-25.000
205.70	800.000
206.08	-1900.000
206.45	-11.111
206.83	-1150.000
207.20	200.000
207.58	-466.667
207.96	-500.000
208.33	-175.000
208.71	-77.778
209.08	150.000
209.46	-142.857
209.84	500.000
210.21	0.000
210.59	115.000
210.96	100.000
211.34	-233.333
211.71	100.000
212.09	450.000
212.46	550.000
212.84	-2300.000
213.22	266.667
213.59	41.667
213.97	22.222
214.34	80.000
214.72	-40.000
215.09	-266.667
215.47	-250.000
215.84	60.000
216.22	-50.000
216.59	-20.000
216.97	-450.000
217.34	600.000
217.72	-100.000
218.09	-150.000
218.47	-171.429
218.84	242.857
219.22	-42.857
219.59	0.000
219.97	100.000
220.34	300.000
220.72	237.500
221.09	-69.231
221.47	0.000
221.84	766.667
222.22	-450.000
222.59	1300.000
222.97	-237.500
223.34	-750.000
223.72	-533.333
224.09	-28.571
224.46	-25.000
224.84	-100.000
225.21	-142.857
225.59	-54.545
225.96	-125.000
226.34	-71.429
226.71	-122.222
227.08	-25.000
227.46	500.000
227.83	-128.571
228.21	-125.000
228.58	800.000
228.95	-68.750
229.33	-1700.000
229.70	-140.000
230.08	-1000.000
230.45	-41.667
230.82	-233.333
231.20	-2000.000
231.57	-250.000
231.95	700.000
232.32	23.810
232.69	-66.667
233.07	-14.286
233.44	-850.000
233.81	-73.333
234.19	-55.556
234.56	18.750
234.93	0.000
235.31	-200.000
235.68	-42.857
236.05	-35.294
236.43	-18.182
236.80	-3.226
237.17	-8.333
237.55	-23.810
237.92	-9.091
238.29	2.857
238.67	20.588
239.04	5.556
239.41	0.000
239.79	-17.949
240.16	21.429
240.53	7.273
240.91	23.077
241.28	21.818
241.65	26.154
242.02	16.393
242.40	16.393
242.77	27.273
243.14	8.475
243.51	0.000
243.89	22.785
244.26	22.472
244.63	23.158
245.00	23.158
245.38	27.119
245.75	28.319
246.12	32.000
246.49	22.047
246.87	25.203
247.24	21.186
247.61	19.492
247.98	17.606
248.36	18.881
248.73	23.418
249.10	26.115
249.47	21.637
249.84	27.841
250.22	9.524
250.59	32.203
250.96	24.607
251.33	26.066
251.70	28.846
252.08	26.540
252.45	23.697
252.82	22.857
253.19	22.979
253.56	21.774
253.94	30.380
254.31	26.609
254.68	26.016
255.05	22.581
255.42	30.556
255.79	25.090
256.16	28.235
256.54	30.147
256.91	28.409
257.28	25.641
257.65	23.404
258.02	29.874
258.39	28.094
258.76	23.311
259.14	27.778
259.51	27.541
259.88	26.220
260.25	31.988
260.62	29.260
260.99	24.036
261.36	31.098
261.73	29.769
262.10	26.389
262.47	26.211
262.85	28.286
263.22	26.074
263.59	28.615
263.96	31.304
264.33	28.997
264.70	26.519
265.07	28.846
265.44	25.323
265.81	28.424
266.18	26.835
266.55	27.451
266.92	27.204
267.29	29.298
267.66	29.383
268.03	29.469
268.40	27.230
268.77	27.952
269.14	25.754
269.51	28.046
269.88	25.688
270.25	24.942
270.62	26.316
270.99	30.180
271.36	25.641
271.73	28.700
272.10	27.689
272.47	26.667
272.84	27.111
273.21	30.046
273.58	25.495
273.95	26.754
274.32	30.317
274.69	31.291
275.06	28.630
275.43	27.902
275.80	26.680
276.17	28.452
276.54	28.310
276.91	30.453
277.28	26.978
277.65	26.860
278.02	28.810
278.39	28.291
278.76	27.490
279.13	27.866
279.50	29.423
279.87	28.541
280.23	25.911
280.60	30.616
280.97	27.184
281.34	27.660
281.71	26.346
282.08	28.024
282.45	26.884
282.82	27.907
283.19	27.636
283.56	29.304
283.92	28.269
284.29	25.465
284.66	27.338
285.03	29.590
285.40	26.568
285.77	28.596
286.14	28.159
286.51	26.643
286.87	25.953
287.24	29.693
287.61	28.760
287.98	25.823
288.35	27.603
288.72	24.618
289.08	27.458
289.45	27.441
289.82	24.394
290.19	27.915
290.56	23.967
290.93	24.006
291.29	24.473
291.66	26.731
292.03	25.118
292.40	23.193
292.77	25.621
293.13	24.065
293.50	23.774
293.87	25.153
294.24	23.529
294.60	22.727
294.97	23.976
295.34	23.704
295.71	21.577
296.08	21.352
296.44	21.888
296.81	25.356
297.18	22.676
297.55	25.000
297.91	24.547
298.28	21.918
298.65	22.315
299.02	23.529
299.38	21.925
299.75	22.011
300.12	23.333
300.48	21.867
300.85	21.494
301.22	22.898
301.59	22.497
301.95	22.796
302.32	19.166
302.69	20.808
303.05	21.490
303.42	21.500
303.79	22.129
304.15	21.209
304.52	22.287
304.89	19.835
305.25	21.856
305.62	21.152
305.99	21.437
306.35	20.977
306.72	21.185
307.09	21.907
307.45	21.112
307.82	19.106
308.19	20.470
308.55	21.242
308.92	20.301
309.29	20.865
309.65	20.042
310.02	21.490
310.38	20.324
310.75	21.004
311.12	21.591
311.48	21.712
311.85	20.803
312.22	23.069
312.58	20.956
312.95	19.980
313.31	21.379
313.68	21.508
314.05	21.958
314.41	20.121
314.78	21.578
315.14	21.915
315.51	23.607
315.87	22.556
316.24	21.088
316.61	22.265
316.97	22.886
317.34	22.543
317.70	23.191
318.07	23.134
318.43	22.472
318.80	25.728
319.16	23.734
319.53	24.060
319.89	23.142
320.26	23.922
320.62	25.096
320.99	24.478
321.35	24.532
321.72	24.770
322.08	25.915
322.45	27.129
322.81	26.225
323.18	26.993
323.54	26.525
323.91	26.506
324.27	27.376
324.64	26.965
325.00	27.400
325.37	28.507
325.73	28.959
326.10	27.901
326.46	27.933
326.83	29.106
327.19	28.607
327.56	31.175
327.92	30.246
328.29	31.429
328.65	30.636
329.01	31.360
329.38	31.579
329.74	33.700
330.11	31.550
330.47	30.790
330.84	34.464
331.20	31.498
331.56	30.902
331.93	32.948
332.29	33.516
332.66	33.187
333.02	32.670
333.38	34.319
333.75	34.907
334.11	33.778
334.48	33.981
334.84	33.771
335.20	35.550
335.57	34.296
335.93	35.810
336.29	33.658
336.66	33.392
337.02	34.685
337.38	32.977
337.75	34.065
338.11	36.047
338.47	34.698
338.84	35.844
339.20	35.062
339.56	35.294
339.93	35.362
340.29	34.101
340.65	34.353
341.02	33.811
341.38	34.288
341.74	34.547
342.11	35.751
342.47	35.193
342.83	35.516
343.20	34.842
343.56	33.306
343.92	34.975
344.28	36.501
344.65	34.571
345.01	34.454
345.37	36.296
345.73	35.106
346.10	33.524
346.46	34.931
346.82	35.525
347.19	36.237
347.55	34.671
347.91	35.748
348.27	35.402
348.63	35.380
349.00	36.516
349.36	32.631
349.72	37.022
350.08	35.445
350.45	35.146
350.81	35.908
351.17	36.013
351.53	34.288
351.89	35.489
352.26	36.047
352.62	36.098
352.98	35.839
353.34	36.211
353.70	33.900
354.07	35.799
354.43	36.917
354.79	36.371
355.15	34.505
355.51	35.469
355.87	36.126
356.24	36.696
356.60	36.503
356.96	36.567
357.32	34.679
357.68	36.858
358.04	35.951
358.40	35.963
358.77	35.781
359.13	36.343
359.49	36.886
359.85	36.052
360.21	36.606
360.57	37.877
360.93	38.296
361.29	37.369
361.66	36.738
362.02	36.391
362.38	38.078
362.74	37.363
363.10	37.016
363.46	38.390
363.82	38.047
364.18	37.265
364.54	39.743
364.90	37.526
365.26	37.803
365.62	37.634
365.98	37.553
366.35	37.887
366.71	37.773
367.07	38.885
367.43	39.808
367.79	37.526
368.15	38.051
368.51	39.650
368.87	39.286
369.23	38.596
369.59	38.611
369.95	37.844
370.31	39.100
370.67	38.901
371.03	39.213
371.39	38.543
371.75	39.270
372.11	40.674
372.47	38.901
372.83	39.847
373.19	39.571
373.55	39.409
373.91	40.256
374.27	40.178
374.63	40.649
374.99	40.195
375.35	39.838
375.71	40.783
376.07	39.973
376.42	38.675
376.78	40.458
377.14	41.288
377.50	41.199
377.86	42.198
378.22	42.085
378.58	41.878
378.94	41.369
379.30	42.718
379.66	41.348
380.02	41.236
380.38	41.873
380.74	41.266
381.09	40.949
381.45	42.661
381.81	42.105
382.17	43.045
382.53	43.100
382.89	42.703
383.25	42.986
383.61	43.042
383.97	43.478
384.32	43.680
384.68	44.015
385.04	43.297
385.40	42.666
385.76	44.268
386.12	44.160
386.48	44.369
386.83	44.601
387.19	44.411
387.55	43.610
387.91	44.221
388.27	43.908
388.62	43.810
388.98	44.518
389.34	43.819
389.70	44.823
390.06	44.375
390.42	46.090
390.77	44.606
391.13	46.211
391.49	45.602
391.85	45.574
392.20	45.146
392.56	45.571
392.92	45.750
393.28	46.039
393.64	46.121
393.99	46.400
394.35	44.830
394.71	45.028
395.07	47.646
395.42	45.113
395.78	46.072
396.14	46.916
396.50	46.422
396.85	45.713
397.21	45.443
397.57	47.052
397.92	46.311
398.28	47.611
398.64	46.282
399.00	46.629
399.35	47.294
399.71	47.038
400.07	48.060
400.42	47.263
400.78	46.452
401.14	46.228
401.49	47.170
401.85	48.749
402.21	46.544
402.57	47.633
402.92	48.395
403.28	46.936
403.63	46.255
403.99	47.545
404.35	47.585
404.70	46.870
405.06	47.405
405.42	47.232
405.77	46.437
406.13	47.359
406.49	47.933
406.84	47.510
407.20	47.939
407.55	47.815
407.91	46.632
408.27	48.162
408.62	46.723
408.98	47.665
409.34	49.055
409.69	46.944
410.05	48.150
410.40	48.007
410.76	47.659
411.11	47.756
411.47	47.954
411.83	49.878
412.18	48.515
412.54	48.017
412.89	47.570
413.25	48.878
413.60	48.056
413.96	48.182
414.31	48.135
414.67	48.635
415.03	48.965
415.38	49.252
415.74	49.420
416.09	50.512
416.45	49.272
416.80	49.090
417.16	49.435
417.51	49.770
417.87	49.968
418.22	50.506
418.58	49.358
418.93	50.889
419.29	49.875
419.64	49.560
420.00	50.729
420.35	50.976
420.71	50.660
421.06	51.006
421.42	50.820
421.77	52.038
422.12	51.931
422.48	51.523
422.83	52.904
423.19	51.002
423.54	51.988
423.90	52.574
424.25	51.244
424.61	54.101
424.96	54.359
425.31	53.549
425.67	54.327
426.02	52.094
426.38	54.144
426.73	53.887
427.09	53.799
427.44	53.693
427.79	54.302
428.15	55.955
428.50	55.777
428.85	54.976
429.21	55.396
429.56	55.990
429.92	54.910
430.27	54.187
430.62	56.479
430.98	55.358
431.33	55.656
431.68	56.568
432.04	58.030
432.39	56.581
432.74	56.415
433.10	57.288
433.45	57.340
433.80	58.007
434.16	56.797
434.51	57.753
434.86	57.469
435.22	57.628
435.57	57.711
435.92	58.910
436.28	59.881
436.63	58.338
436.98	58.591
437.34	59.953
437.69	58.868
438.04	59.161
438.39	60.048
438.75	59.546
439.10	59.245
439.45	59.807
439.81	58.434
440.16	59.284
440.51	59.588
440.86	60.787
441.22	58.651
441.57	59.263
441.92	59.847
442.27	60.335
442.63	61.266
442.98	59.989
443.33	59.912
443.68	60.500
444.03	59.921
444.39	60.206
444.74	61.123
445.09	60.252
445.44	61.564
445.79	61.601
446.15	61.227
446.50	60.533
446.85	60.903
447.20	60.725
447.55	61.436
447.91	63.279
448.26	60.894
448.61	61.517
448.96	62.465
449.31	60.879
449.66	61.076
450.02	60.000
450.37	61.565
450.72	61.525
451.07	62.288
451.42	61.772
451.77	62.238
452.12	61.800
452.47	63.287
452.83	63.774
453.18	62.492
453.53	62.811
453.88	63.995
454.23	62.031
454.58	63.456
454.93	63.287
455.28	63.862
455.63	62.961
455.98	63.916
456.34	63.469
456.69	63.727
457.04	63.675
457.39	60.825
457.74	62.788
458.09	62.877
458.44	64.434
458.79	62.780
459.14	64.347
459.49	62.285
459.84	63.069
460.19	63.604
460.54	63.279
460.89	63.173
461.24	63.509
461.59	63.013
461.94	64.036
462.29	64.264
462.64	63.966
462.99	64.926
463.34	63.471
463.69	65.522
464.04	62.917
464.39	63.023
464.74	63.357
465.09	62.959
465.44	63.734
465.79	62.380
466.14	65.017
466.49	63.212
466.84	64.346
467.19	64.214
467.54	62.911
467.89	63.379
468.24	64.489
468.59	63.773
468.94	64.823
469.29	64.912
469.64	64.151
469.99	64.281
470.34	64.930
470.68	66.424
471.03	65.244
471.38	63.611
471.73	67.063
472.08	64.926
472.43	64.350
472.78	63.333
473.13	64.215
473.48	63.944
473.83	64.392
474.17	63.758
474.52	65.665
474.87	64.744
475.22	63.953
475.57	64.500
475.92	65.281
476.27	64.857
476.61	64.451
476.96	65.232
477.31	64.586
477.66	65.578
478.01	64.398
478.36	62.284
478.70	65.723
479.05	64.630
479.40	64.870
479.75	63.812
480.10	63.244
480.45	62.959
480.79	63.672
481.14	65.278
481.49	64.327
481.84	63.153
482.19	63.865
482.53	64.678
482.88	65.069
483.23	63.615
483.58	65.310
483.92	64.740
484.27	63.403
484.62	63.024
484.97	62.315
485.31	60.576
485.66	59.652
486.01	59.375
486.36	60.319
486.70	61.812
487.05	61.250
487.40	61.271
487.75	60.977
488.09	60.593
488.44	62.246
488.79	61.620
489.13	62.762
489.48	64.111
489.83	65.197
490.17	62.865
490.52	64.357
490.87	64.527
491.22	63.522
491.56	63.472
491.91	64.933
492.26	64.670
492.60	63.701
492.95	63.351
493.30	63.030
493.64	64.128
493.99	64.579
494.34	65.619
494.68	64.888
495.03	63.671
495.37	65.241
495.72	63.556
496.07	63.444
496.41	65.401
496.76	64.201
497.11	64.437
497.45	64.943
497.80	64.882
498.14	63.556
498.49	65.495
498.84	63.835
499.18	64.425
499.53	64.832
499.87	63.320
500.22	63.725
500.56	64.232
500.91	63.005
501.26	63.852
501.60	62.638
501.95	64.879
502.29	63.014
502.64	62.989
502.98	63.249
503.33	63.675
503.67	63.506
504.02	64.220
504.36	64.314
504.71	63.931
505.06	63.305
505.40	64.172
505.75	64.329
506.09	65.319
506.44	64.311
506.78	63.974
507.13	63.800
507.47	64.267
507.82	64.636
508.16	64.456
508.51	63.833
508.85	64.079
509.19	63.893
509.54	64.693
509.88	65.319
510.23	64.570
510.57	64.444
510.92	66.541
511.26	64.912
511.61	64.579
511.95	63.901
512.30	64.981
512.64	65.275
512.98	65.622
513.33	64.360
513.67	63.987
514.02	64.150
514.36	65.208
514.70	64.007
515.05	67.181
515.39	65.225
515.74	66.492
516.08	66.398
516.42	65.722
516.77	65.973
517.11	65.446
517.46	68.182
517.80	66.787
518.14	65.942
518.49	67.005
518.83	65.994
519.17	65.779
519.52	63.505
519.86	67.563
520.20	67.115
520.55	67.077
520.89	66.750
521.23	65.263
521.58	66.520
521.92	66.941
522.26	66.476
522.61	66.160
522.95	65.156
523.29	66.834
523.64	66.271
523.98	66.073
524.32	66.625
524.66	64.596
525.01	66.346
525.35	67.010
525.69	65.777
526.04	67.559
526.38	66.709
526.72	64.240
527.06	66.732
527.41	68.119
527.75	65.677
528.09	65.718
528.43	65.836
528.78	65.075
529.12	67.542
529.46	67.010
529.80	65.462
530.15	65.486
530.49	65.395
530.83	65.226
531.17	66.397
531.51	65.506
531.86	66.359
532.20	64.845
532.54	66.644
532.88	65.876
533.22	66.176
533.57	66.514
533.91	62.734
534.25	63.734
534.59	63.710
534.93	64.281
535.27	63.247
535.62	63.747
535.96	64.900
536.30	63.940
536.64	64.874
536.98	66.879
537.32	65.238
537.66	64.562
538.01	65.430
538.35	65.270
538.69	63.904
539.03	64.116
539.37	65.136
539.71	64.843
540.05	65.593
540.39	65.235
540.73	65.860
541.07	65.232
541.42	64.146
541.76	62.924
542.10	64.619
542.44	63.424
542.78	64.722
543.12	65.241
543.46	64.041
543.80	63.344
544.14	63.264
544.48	63.911
544.82	65.020
545.16	65.325
545.50	63.930
545.84	64.117
546.18	63.245
546.52	64.651
546.86	64.459
547.20	64.065
547.54	62.948
547.88	64.499
548.22	62.844
548.56	64.128
548.90	65.296
549.24	64.541
549.58	64.079
549.92	65.512
550.26	64.523
550.60	63.940
550.94	64.818
551.28	66.817
551.62	64.845
551.96	66.425
552.30	64.251
552.64	64.954
552.98	64.121
553.32	64.430
553.66	66.114
554.00	65.032
554.34	65.199
554.68	64.693
555.02	67.438
555.36	64.702
555.69	64.470
556.03	63.719
556.37	64.723
556.71	65.283
557.05	64.967
557.39	64.736
557.73	65.427
558.07	66.616
558.41	63.650
558.75	64.943
559.08	66.304
559.42	66.616
559.76	66.718
560.10	65.772
560.44	65.390
560.78	65.136
561.12	65.286
561.45	64.110
561.79	64.460
562.13	63.815
562.47	64.426
562.81	63.932
563.15	63.821
563.48	64.271
563.82	64.909
564.16	63.286
564.50	64.449
564.84	63.955
565.17	63.594
565.51	64.081
565.85	66.126
566.19	65.152
566.52	62.948
566.86	63.274
567.20	62.893
567.54	63.024
567.88	60.972
568.21	61.857
568.55	60.870
568.89	60.586
569.23	60.250
569.56	57.966
569.90	57.356
570.24	59.301
570.57	56.872
570.91	56.919
571.25	57.620
571.59	57.165
571.92	55.685
572.26	56.231
572.60	55.756
572.93	55.094
573.27	55.854
573.61	55.693
573.95	55.588
574.28	54.738
574.62	55.541
574.96	54.711
575.29	54.649
575.63	55.137
575.97	54.827
576.30	55.111
576.64	55.170
576.98	54.242
577.31	54.350
577.65	54.708
577.98	54.017
578.32	53.989
578.66	53.593
578.99	55.314
579.33	54.911
579.67	54.984
580.00	54.812
580.34	54.770
580.67	54.523
581.01	53.039
581.35	54.829
581.68	53.111
582.02	53.571
582.35	53.258
582.69	54.297
583.02	54.752
583.36	54.504
583.70	54.531
584.03	55.307
584.37	55.047
584.70	54.005
585.04	54.304
585.37	53.580
585.71	54.233
586.04	54.686
586.38	54.825
586.72	55.158
587.05	55.763
587.39	54.958
587.72	55.986
588.06	55.488
588.39	55.739
588.73	55.371
589.06	56.234
589.40	57.197
589.73	56.834
590.07	56.373
590.40	55.904
590.73	58.057
591.07	57.418
591.40	58.536
591.74	57.341
592.07	57.477
592.41	57.113
592.74	57.148
593.08	56.437
593.41	55.822
593.75	55.556
594.08	56.470
594.41	57.819
594.75	56.436
595.08	57.594
595.42	56.431
595.75	56.964
596.09	57.431
596.42	58.838
596.75	57.137
597.09	59.038
597.42	56.438
597.75	59.035
598.09	58.879
598.42	57.313
598.76	57.890
599.09	57.616
599.42	56.978
599.76	56.852
600.09	57.672
600.42	57.919
600.76	57.439
601.09	57.387
601.42	57.182
601.76	57.555
602.09	57.260
602.42	57.572
602.76	57.707
603.09	56.895
603.42	58.058
603.76	57.798
604.09	58.190
604.42	57.868
604.76	58.439
605.09	58.861
605.42	57.934
605.75	59.552
606.09	58.115
606.42	57.981
606.75	57.707
607.09	58.447
607.42	58.451
607.75	58.190
608.08	58.473
608.42	58.562
608.75	57.804
609.08	58.597
609.41	58.744
609.75	57.630
610.08	59.167
610.41	58.843
610.74	58.994
611.07	59.077
611.41	58.396
611.74	58.869
612.07	60.902
612.40	59.275
612.73	60.635
613.07	59.439
613.40	60.646
613.73	59.237
614.06	60.132
614.39	60.823
614.72	59.441
615.06	60.109
615.39	59.197
615.72	60.185
616.05	59.525
616.38	61.230
616.71	60.901
617.05	61.942
617.38	60.929
617.71	62.592
618.04	62.050
618.37	62.893
618.70	62.712
619.03	61.950
619.36	65.116
619.69	64.393
620.03	62.328
620.36	62.518
620.69	64.250
621.02	63.318
621.35	64.597
621.68	67.213
622.01	65.696
622.34	65.295
622.67	64.766
623.00	64.958
623.33	64.403
623.66	64.993
623.99	64.361
624.32	63.616
624.65	64.238
624.99	65.870
625.32	64.147
625.65	66.356
625.98	65.180
626.31	67.781
626.64	66.611
626.97	65.240
627.30	67.064
627.63	65.544
627.96	67.102
628.29	68.750
628.62	68.768
628.95	69.882
629.28	69.455
629.61	68.499
629.94	68.053
630.26	71.571
630.59	70.553
630.92	69.870
631.25	69.355
631.58	71.534
631.91	70.319
632.24	72.222
632.57	73.222
632.90	72.759
633.23	71.495
633.56	71.228
633.89	74.175
634.22	73.908
634.55	70.793
634.88	73.035
635.20	72.534
635.53	74.809
635.86	75.063
636.19	72.772
636.52	71.446
636.85	73.285
637.18	73.750
637.51	74.102
637.83	76.698
638.16	74.211
638.49	75.034
638.82	74.003
639.15	73.671
639.48	73.930
639.81	75.934
640.13	73.378
640.46	76.068
640.79	75.070
641.12	74.330
641.45	75.897
641.77	75.898
642.10	79.003
642.43	76.783
642.76	77.480
643.09	76.984
643.41	82.857
643.74	78.378
644.07	79.095
644.40	79.417
644.73	79.043
645.05	77.629
645.38	80.960
645.71	82.646
646.04	81.513
646.36	83.072
646.69	76.990
647.02	81.588
647.35	77.076
647.67	79.015
648.00	80.141
648.33	81.113
648.66	74.839
648.98	75.637
649.31	74.923
649.64	76.406
649.96	76.609
650.29	79.180
650.62	79.518
650.94	75.042
651.27	78.856
651.60	77.336
651.92	79.623
652.25	76.127
652.58	79.046
652.90	75.441
653.23	76.290
653.56	75.418
653.88	74.754
654.21	78.859
654.54	77.907
654.86	75.281
655.19	75.072
655.52	65.155
655.84	57.772
656.17	60.521
656.49	80.471
656.82	82.837
657.15	62.749
657.47	46.554
657.80	35.911
658.13	41.341
658.45	55.696
658.78	55.392
659.10	54.894
659.43	54.532
659.75	56.688
660.08	57.656
660.41	59.167
660.73	65.787
661.06	71.594
661.38	79.464
661.71	80.688
662.03	83.871
662.36	85.288
662.68	80.802
663.01	83.864
663.33	88.209
663.66	81.330
663.98	83.929
664.31	86.130
664.63	86.504
664.96	82.863
665.28	80.694
665.61	79.704
665.93	81.687
666.26	78.745
666.58	81.497
666.91	83.964
667.23	81.798
667.56	83.447
667.88	85.973
668.21	85.484
668.53	88.785
668.86	82.679
669.18	84.703
669.50	86.916
669.83	86.375
670.15	78.027
670.48	82.243
670.80	83.827
671.13	81.716
671.45	82.432
671.77	81.370
672.10	78.304
672.42	78.967
672.75	73.818
673.07	77.117
673.39	75.592
673.72	79.528
674.04	83.015
674.37	79.381
674.69	84.631
675.01	79.362
675.34	82.213
675.66	83.153
675.98	83.480
676.31	83.032
676.63	85.287
676.95	84.071
677.28	83.063
677.60	83.937
677.92	82.599
678.25	83.807
678.57	83.539
678.89	80.294
679.22	82.180
679.54	81.262
679.86	78.400
680.18	79.087
680.51	75.419
680.83	78.095
681.15	75.915
681.48	82.150
681.80	78.226
682.12	80.684
682.44	79.175
682.77	81.385
683.09	77.568
683.41	80.310
683.73	80.594
684.06	81.075
684.38	80.962
684.70	79.835
685.02	77.362
685.34	81.676
685.67	81.250
685.99	75.992
686.31	76.661
686.63	74.823
686.96	75.046
687.28	75.530
687.60	77.930
687.92	75.681
688.24	77.165
688.56	76.152
688.89	76.709
689.21	78.993
689.53	83.678
689.85	81.292
690.17	79.821
690.49	81.755
690.82	84.819
691.14	81.132
691.46	82.262
691.78	81.938
692.10	80.297
692.42	82.000
692.74	78.970
693.06	80.899
693.39	78.523
693.71	80.587
694.03	78.402
694.35	75.847
694.67	78.723
694.99	83.376
695.31	79.082
695.63	82.398
695.95	82.630
696.27	81.546
696.59	88.503
696.91	88.764
697.23	83.594
697.56	81.010
697.88	81.306
698.20	74.090
698.52	78.027
698.84	81.796
699.16	77.143
699.48	78.250
699.80	82.456
700.12	82.116
700.44	84.358
700.76	84.548
701.08	82.558
701.40	84.894
701.72	88.272
702.04	85.256
702.36	84.036
702.68	85.030
703.00	81.159
703.32	81.662
703.64	85.588
703.96	85.174
704.28	86.095
704.60	84.810
704.91	82.540
705.23	85.437
705.55	84.459
705.87	90.102
706.19	85.417
706.51	87.153
706.83	87.213
707.15	88.854
707.47	84.298
707.79	81.186
708.11	79.135
708.43	78.304
708.74	80.519
709.06	79.387
709.38	80.747
709.70	91.562
710.02	85.276
710.34	86.469
710.66	79.365
710.98	82.650
711.29	80.323
711.61	84.665
711.93	79.344
712.25	83.056
712.57	82.927
712.89	84.532
713.20	87.629
713.52	87.313
713.84	84.342
714.16	84.590
714.48	82.857
714.80	81.231
715.11	78.963
715.43	81.928
715.75	86.916
716.07	78.361
716.39	83.612
716.70	87.108
717.02	84.815
717.34	82.061
717.66	92.116
717.97	91.393
718.29	88.235
718.61	92.460
718.93	84.229
719.24	81.250
719.56	84.151
719.88	86.909
720.20	85.393
720.51	91.729
720.83	96.386
721.15	88.115
721.46	89.412
721.78	90.421
722.10	91.600
722.42	93.388
722.73	84.861
723.05	85.944
723.37	81.569
723.68	87.045
724.00	84.553
724.32	88.066
724.63	87.552
724.95	88.430
725.27	87.719
725.58	88.362
725.90	83.730
726.22	85.609
726.53	87.072
726.85	81.961
727.16	81.955
727.48	80.769
727.80	86.066
728.11	90.336
728.43	86.777
728.74	80.859
729.06	84.091
729.38	79.767
729.69	83.465
730.01	87.008
730.32	80.478
730.64	86.447
730.96	85.075
731.27	82.500
731.59	82.637
731.90	77.914
732.22	77.301
732.53	85.762
732.85	80.872
733.16	83.696
733.48	79.094
733.80	81.495
734.11	82.069
734.43	79.592
734.74	79.822
735.06	79.310
735.37	79.205
735.69	75.806
736.00	75.758
736.32	83.444
736.63	80.345
736.95	85.870
737.26	75.828
737.58	87.050
737.89	84.588
738.21	85.714
738.52	83.462
738.83	82.812
739.15	86.752
739.46	91.129
739.78	79.720
740.09	79.021
740.41	81.119
740.72	83.212
741.04	82.937
741.35	84.848
741.66	87.963
741.98	80.000
742.29	88.732
742.61	96.791
742.92	92.523
743.23	79.386
743.55	86.036
743.86	88.889
744.18	89.048
744.49	92.611
744.80	87.817
745.12	89.175
745.43	89.447
745.74	91.262
746.06	85.854
746.37	85.903
746.68	91.542
747.00	92.147
747.31	90.865
747.62	88.479
747.94	77.729
748.25	83.721
748.56	84.286
748.88	86.957
749.19	81.690
749.50	94.118
749.82	88.444
750.13	88.546
750.44	87.398
750.75	90.400
751.07	82.500
751.38	78.598
751.69	80.153
752.01	84.231
752.32	80.545
752.63	78.462
752.94	80.952
753.26	87.391
753.57	87.500
753.88	88.793
754.19	82.988
754.51	80.469
754.82	84.980
755.13	84.774
755.44	83.884
755.75	85.185
756.07	82.731
756.38	82.031
756.69	81.588
757.00	81.882
757.31	79.866
757.63	79.439
757.94	76.301
758.25	77.326
758.56	80.593
758.87	75.284
759.18	74.667
759.50	79.004
759.81	81.387
760.12	77.365
760.43	84.142
760.74	82.812
761.05	75.562
761.36	80.838
761.67	77.219
761.99	77.419
762.30	83.333
762.61	75.094
762.92	85.650
763.23	88.152
763.54	80.444
763.85	87.764
764.16	79.184
764.47	81.780
764.78	79.775
765.10	80.216
765.41	77.097
765.72	70.126
766.03	72.438
766.34	80.075
766.65	77.733
766.96	86.000
767.27	87.500
767.58	87.791
767.89	79.355
768.20	95.092
768.51	89.617
768.82	81.622
769.13	90.000
769.44	78.509
769.75	79.221
770.06	82.569
770.37	76.526
770.68	85.417
770.99	88.119
771.30	81.553
771.61	80.093
771.92	76.190
772.23	86.916
772.54	81.915
772.85	80.473
773.16	87.805
773.47	87.952
773.78	90.659
774.09	91.333
774.39	84.568
774.70	81.208
775.01	79.710
775.32	85.075
775.63	95.041
775.94	87.218
776.25	85.000
776.56	86.066
776.87	92.920
777.18	102.655
777.48	85.455
777.79	86.087
778.10	81.651
778.41	83.898
778.72	98.347
779.03	91.045
779.34	98.496
779.65	81.699
779.95	90.580
780.26	74.150
780.57	85.345
780.88	93.519
781.19	81.818
781.50	83.200
781.80	79.739
782.11	74.359
782.42	78.916
782.73	83.212
783.04	81.081
783.34	84.848
783.65	81.395
783.96	95.122
784.27	82.906
784.57	82.927
784.88	76.423
785.19	84.211
785.50	84.536
785.81	89.524
786.11	81.373
786.42	76.364
786.73	87.387
787.04	79.208
787.34	79.048
787.65	75.238
787.96	87.255
788.26	84.685
788.57	87.903
788.88	71.094
789.19	82.051
789.49	83.193
789.80	79.487
790.11	81.416
790.41	72.727
790.72	85.849
791.03	90.278
791.33	97.368
791.64	69.892
791.95	98.667
792.25	97.143
792.56	74.390
792.87	72.449
793.17	84.211
793.48	77.027
793.79	94.366
794.09	91.139
794.40	86.170
794.70	75.701
795.01	66.667
795.32	80.909
795.62	75.893
795.93	76.289
796.23	75.824
796.54	81.053
796.85	72.603
797.15	75.000
797.46	84.932
797.76	90.141
798.07	78.750
798.37	100.000
798.68	84.286
798.99	90.000
799.29	82.895
799.60	95.000
799.90	58.333
800.21	60.938
800.51	80.952
800.82	85.246
801.12	75.439
801.43	74.648
801.73	76.271
802.04	83.607
802.34	94.545
802.65	61.538
802.95	94.444
803.26	75.000
803.56	84.615
803.87	107.895
804.17	80.645
804.48	69.231
804.78	100.000
805.09	83.721
805.39	68.750
805.70	73.585
806.00	94.737
806.30	82.432
806.61	76.471
806.91	74.074
807.22	81.333
807.52	79.104
807.83	87.097
808.13	66.667
808.43	65.455
808.74	83.333
809.04	96.226
809.35	67.123
809.65	101.754
809.95	80.882
810.26	84.314
810.56	72.000
810.86	55.102
811.17	91.429
811.47	69.231
811.77	116.129
812.08	73.684
812.38	107.143
812.69	58.696
812.99	96.774
813.29	35.714
813.59	62.963
813.90	61.702
814.20	86.047
814.50	87.500
814.81	50.000
815.11	80.488
815.41	100.000
815.72	111.429
816.02	66.667
816.32	115.385
816.62	54.054
816.93	73.529
817.23	76.087
817.53	108.824
817.84	58.824
818.14	53.125
818.44	89.655
818.74	48.387
819.04	74.074
819.35	50.000
819.65	68.000
819.95	53.333
820.25	64.000
820.56	47.368
820.86	70.000
821.16	63.830
821.46	43.103
821.76	41.026
822.07	67.500
822.37	65.116
822.67	76.667
822.97	67.568
823.27	70.270
823.57	112.000
823.88	102.703
824.18	47.619
824.48	100.000
824.78	92.308
825.08	100.000
825.38	108.333
825.69	62.500
825.99	80.000
826.29	70.270
826.59	91.176
826.89	116.000
827.19	62.857
827.49	84.211
827.79	65.625
828.09	50.000
828.39	86.957
828.70	58.621
829.00	48.276
829.30	50.000
829.60	87.500
829.90	161.111
830.20	65.385
830.50	28.571
830.80	0.000
831.10	48.718
831.40	66.667
831.70	50.000
832.00	58.333
832.30	68.421
832.60	75.000
832.90	25.000
833.20	11.765
833.50	46.667
833.80	93.333
834.10	115.000
834.40	91.667
834.70	61.111
835.00	73.077
835.30	29.167
835.60	89.655
835.90	111.111
836.20	27.273
836.50	83.333
836.80	62.857
837.10	60.000
837.40	41.176
837.70	-18.182
838.00	66.667
838.30	31.250
838.60	61.905
838.90	70.000
839.19	4.348
839.49	82.609
839.79	16.667
840.09	26.087
840.39	22.727
840.69	-25.000
840.99	84.211
841.29	31.250
841.59	64.286
841.88	16.667
842.18	-25.000
842.48	0.000
842.78	51.724
843.08	28.571
843.38	123.077
843.68	-44.444
843.97	46.154
844.27	-18.182
844.57	80.000
844.87	4.000
845.17	-20.000
845.47	50.000
845.76	77.778
846.06	0.000
846.36	-225.000
846.66	-60.000
846.96	47.368
847.25	41.667
847.55	133.333
847.85	46.667
848.15	20.000
848.44	61.538
848.74	84.211
849.04	100.000
849.34	22.222
849.63	15.789
849.93	0.000
850.23	30.000
850.53	33.333
850.82	8.000
851.12	31.579
851.42	200.000
851.71	100.000
852.01	-8.333
852.31	-17.647
852.61	100.000
852.90	47.619
853.20	0.000
853.50	16.667
853.79	-31.579
854.09	60.000
854.39	46.429
854.68	30.435
854.98	-25.000
855.28	72.414
855.57	118.750
855.87	45.000
856.17	13.333
856.46	58.621
856.76	40.000
857.05	11.765
857.35	-38.462
857.65	63.636
857.94	33.333
858.24	50.000
858.53	7.143
858.83	-8.333
859.13	-66.667
859.42	80.952
859.72	25.000
860.01	-100.000
860.31	112.500
860.60	-120.000
860.90	-33.333
861.20	-62.500
861.49	14.286
861.79	35.294
862.08	-150.000
862.38	-91.667
862.67	61.538
862.97	82.353
863.26	65.000
863.56	0.000
863.85	133.333
864.15	-50.000
864.44	-30.769
864.74	60.000
865.03	-75.000
865.33	-33.333
865.62	11.765
865.92	-325.000
866.21	-92.857
866.51	-83.333
866.80	-100.000
867.10	-233.333
867.39	-11.765
867.69	4.348
867.98	-57.143
868.27	-160.000
868.57	-56.250
868.86	-18.182
869.16	29.412
869.45	-133.333
869.75	0.000
870.04	900.000
870.33	8.333
870.63	20.000
870.92	-88.889
871.22	-58.333
871.51	-54.545
871.80	-33.333
872.10	80.000
>>>>>End Processed Spectral Data<<<<<
