SpectraSuite Data File
++++++++++++++++++++++++++++++++++++
Date: Sat May 16 11:27:16 PDT 2015
User: schluterlab
Dark Spectrum Present: Yes
Reference Spectrum Present: Yes
Number of Sampled Component Spectra: 1
Spectrometers: USB2E3373
Integration Time (usec): 3000 (USB2E3373)
Spectra Averaged: 3 (USB2E3373)
Boxcar Smoothing: 0 (USB2E3373)
Correct for Electrical Dark: No (USB2E3373)
Strobe/Lamp Enabled: No (USB2E3373)
Correct for Detector Non-linearity: No (USB2E3373)
Correct for Stray Light: No (USB2E3373)
Number of Pixels in Processed Spectrum: 2048
>>>>>Begin Processed Spectral Data<<<<<
178.53	0.000
178.91	100.000
179.29	533.333
179.67	-1500.000
180.04	-84.615
180.42	800.000
180.80	325.000
181.18	600.000
181.56	-100.000
181.94	1800.000
182.31	525.000
182.69	-53.846
183.07	-633.333
183.45	1200.000
183.83	633.333
184.20	-142.857
184.58	-175.000
184.96	-600.000
185.34	137.500
185.72	-275.000
186.09	216.667
186.47	-325.000
186.85	-212.500
187.23	-62.500
187.61	-150.000
187.98	-387.500
188.36	-75.000
188.74	-325.000
189.12	400.000
189.49	485.714
189.87	-83.333
190.25	375.000
190.63	-128.571
191.00	-222.222
191.38	520.000
191.76	-26.667
192.14	440.000
192.51	-360.000
192.89	-433.333
193.27	0.000
193.65	-133.333
194.02	-71.429
194.40	533.333
194.78	-50.000
195.15	-1400.000
195.53	-54.545
195.91	-550.000
196.29	320.000
196.66	-533.333
197.04	3300.000
197.42	-325.000
197.79	13.333
198.17	-500.000
198.55	-700.000
198.92	-1600.000
199.30	150.000
199.68	-750.000
200.05	-55.556
200.43	-233.333
200.81	-1800.000
201.18	-41.667
201.56	214.286
201.94	20.000
202.31	-18.182
202.69	-80.000
203.07	-50.000
203.44	500.000
203.82	-283.333
204.19	-400.000
204.57	-100.000
204.95	-1800.000
205.32	6.250
205.70	500.000
206.08	-1900.000
206.45	-50.000
206.83	-1550.000
207.20	-300.000
207.58	-800.000
207.96	-333.333
208.33	-100.000
208.71	-155.556
209.08	220.000
209.46	-228.571
209.84	350.000
210.21	0.000
210.59	-30.000
210.96	1300.000
211.34	-250.000
211.71	-366.667
212.09	200.000
212.46	650.000
212.84	-2700.000
213.22	566.667
213.59	158.333
213.97	11.111
214.34	160.000
214.72	-200.000
215.09	-766.667
215.47	-133.333
215.84	-90.000
216.22	-110.000
216.59	-60.000
216.97	-275.000
217.34	900.000
217.72	-242.857
218.09	-300.000
218.47	-342.857
218.84	114.286
219.22	-142.857
219.59	0.000
219.97	300.000
220.34	625.000
220.72	137.500
221.09	-84.615
221.47	0.000
221.84	366.667
222.22	-950.000
222.59	1400.000
222.97	-250.000
223.34	-650.000
223.72	-566.667
224.09	-114.286
224.46	-200.000
224.84	-28.571
225.21	-85.714
225.59	-127.273
225.96	-225.000
226.34	-142.857
226.71	-188.889
227.08	-60.000
227.46	2300.000
227.83	-142.857
228.21	-250.000
228.58	650.000
228.95	-75.000
229.33	-2300.000
229.70	-300.000
230.08	-900.000
230.45	-16.667
230.82	-16.667
231.20	-2200.000
231.57	-650.000
231.95	2200.000
232.32	23.810
232.69	-100.000
233.07	-214.286
233.44	-850.000
233.81	-100.000
234.19	-77.778
234.56	-75.000
234.93	-9.375
235.31	-271.429
235.68	-121.429
236.05	-88.235
236.43	-54.545
236.80	-16.129
237.17	0.000
237.55	-66.667
237.92	-95.455
238.29	-34.286
238.67	-17.647
239.04	-19.444
239.41	-54.839
239.79	-58.974
240.16	-45.238
240.53	-30.909
240.91	-38.462
241.28	3.636
241.65	0.000
242.02	-11.475
242.40	-34.426
242.77	-3.030
243.14	-25.424
243.51	-27.143
243.89	-16.456
244.26	-11.236
244.63	-2.105
245.00	-5.263
245.38	0.000
245.75	-3.540
246.12	-8.000
246.49	-7.874
246.87	-11.382
247.24	-12.712
247.61	-7.627
247.98	-7.746
248.36	-16.783
248.73	-5.696
249.10	-14.650
249.47	-7.602
249.84	-3.977
250.22	-20.833
250.59	-4.520
250.96	-3.141
251.33	-3.791
251.70	-2.885
252.08	-0.948
252.45	-8.531
252.82	-6.667
253.19	-2.979
253.56	-2.016
253.94	-3.376
254.31	-6.438
254.68	-3.659
255.05	-7.258
255.42	0.397
255.79	-7.168
256.16	-4.314
256.54	-1.471
256.91	-6.439
257.28	-4.762
257.65	-6.738
258.02	0.000
258.39	-2.007
258.76	-6.757
259.14	-5.247
259.51	-1.311
259.88	-3.049
260.25	-0.932
260.62	-2.572
260.99	-3.561
261.36	-2.439
261.73	-0.867
262.10	0.833
262.47	-1.425
262.85	-1.714
263.22	-3.152
263.59	-0.923
263.96	-4.348
264.33	0.271
264.70	0.829
265.07	-3.571
265.44	-3.101
265.81	-3.876
266.18	-0.759
266.55	-1.716
266.92	-2.519
267.29	-0.242
267.66	-3.704
268.03	0.242
268.40	-0.235
268.77	-1.928
269.14	-1.856
269.51	1.609
269.88	-3.670
270.25	-6.061
270.62	-3.661
270.99	-1.351
271.36	-4.895
271.73	-1.794
272.10	-2.517
272.47	-4.222
272.84	-0.444
273.21	-1.376
273.58	-1.099
273.95	-3.509
274.32	-2.262
274.69	-1.094
275.06	-0.613
275.43	-2.902
275.80	2.240
276.17	-1.883
276.54	0.204
276.91	-2.469
277.28	-2.840
277.65	-1.033
278.02	-1.253
278.39	-0.589
278.76	-1.793
279.13	0.988
279.50	-0.795
279.87	-2.326
280.23	-1.619
280.60	-1.193
280.97	-0.971
281.34	-0.967
281.71	-0.385
282.08	-1.210
282.45	-1.833
282.82	-2.132
283.19	-0.909
283.56	1.648
283.92	-2.827
284.29	-3.346
284.66	-0.360
285.03	-0.357
285.40	-0.185
285.77	-0.351
286.14	-1.625
286.51	-0.888
286.87	1.270
287.24	-0.853
287.61	-0.992
287.98	-1.213
288.35	-3.140
288.72	-2.716
289.08	-2.542
289.45	-2.189
289.82	-3.287
290.19	0.493
290.56	-3.802
290.93	-3.021
291.29	-2.431
291.66	-0.805
292.03	0.000
292.40	0.151
292.77	-0.466
293.13	-1.301
293.50	0.297
293.87	0.153
294.24	-1.508
294.60	-2.727
294.97	-0.303
295.34	-1.185
295.71	-1.488
296.08	-1.690
296.44	-2.289
296.81	-1.425
297.18	-2.113
297.55	-1.130
297.91	-0.139
298.28	-2.329
298.65	-0.279
299.02	0.535
299.38	-1.604
299.75	-1.359
300.12	-1.154
300.48	-0.512
300.85	-1.573
301.22	0.776
301.59	-1.430
301.95	1.385
302.32	-0.782
302.69	-0.490
303.05	-0.122
303.42	-1.250
303.79	-0.120
304.15	-0.474
304.52	-0.467
304.89	-0.826
305.25	-1.221
305.62	-0.118
305.99	0.236
306.35	0.333
306.72	-1.481
307.09	1.249
307.45	-1.703
307.82	-0.447
308.19	0.000
308.55	0.000
308.92	-0.107
309.29	-0.973
309.65	0.636
310.02	-0.108
310.38	-0.865
310.75	1.434
311.12	0.723
311.48	0.522
311.85	0.412
312.22	-0.309
312.58	1.221
312.95	0.408
313.31	1.099
313.68	1.005
314.05	1.879
314.41	-0.101
314.78	-0.100
315.14	1.777
315.51	0.304
315.87	2.227
316.24	0.680
316.61	1.631
316.97	1.393
317.34	1.252
317.70	1.670
318.07	1.399
318.43	2.715
318.80	3.005
319.16	1.970
319.53	3.383
319.89	2.634
320.26	2.059
320.62	0.769
320.99	2.886
321.35	1.675
321.72	1.945
322.08	4.154
322.45	2.475
322.81	3.650
323.18	3.554
323.54	3.697
323.91	5.190
324.27	5.038
324.64	4.662
325.00	5.148
325.37	5.430
325.73	6.124
326.10	3.720
326.46	6.305
326.83	5.106
327.19	5.671
327.56	6.985
327.92	6.712
328.29	6.840
328.65	6.364
329.01	7.509
329.38	7.315
329.74	8.883
330.11	7.525
330.47	7.084
330.84	8.524
331.20	7.220
331.56	7.748
331.93	7.726
332.29	9.041
332.66	9.131
333.02	8.326
333.38	8.961
333.75	8.727
334.11	8.178
334.48	8.561
334.84	9.011
335.20	10.195
335.57	8.303
335.93	10.206
336.29	7.972
336.66	8.106
337.02	9.009
337.38	8.734
337.75	10.623
338.11	8.587
338.47	8.986
338.84	8.893
339.20	8.348
339.56	10.784
339.93	9.083
340.29	8.060
340.65	8.566
341.02	10.287
341.38	9.267
341.74	10.330
342.11	8.106
342.47	9.099
342.83	9.236
343.20	9.394
343.56	8.000
343.92	10.017
344.28	10.093
344.65	8.416
345.01	9.328
345.37	10.548
345.73	7.610
346.10	8.831
346.46	8.936
346.82	9.543
347.19	8.792
347.55	8.748
347.91	9.764
348.27	7.637
348.63	10.016
349.00	10.024
349.36	9.290
349.72	10.191
350.08	9.864
350.45	7.959
350.81	9.713
351.17	9.325
351.53	8.512
351.89	9.863
352.26	10.155
352.62	10.445
352.98	9.889
353.34	10.152
353.70	9.189
354.07	9.520
354.43	10.593
354.79	11.331
355.15	9.505
355.51	9.766
355.87	8.933
356.24	8.817
356.60	11.201
356.96	10.393
357.32	9.105
357.68	10.498
358.04	9.084
358.40	10.518
358.77	10.124
359.13	10.406
359.49	10.582
359.85	9.451
360.21	10.274
360.57	11.220
360.93	10.815
361.29	10.463
361.66	10.290
362.02	10.059
362.38	10.198
362.74	10.916
363.10	9.828
363.46	11.681
363.82	10.204
364.18	10.854
364.54	11.222
364.90	10.482
365.26	10.128
365.62	11.689
365.98	11.166
366.35	10.493
366.71	10.007
367.07	11.362
367.43	11.531
367.79	11.065
368.15	10.384
368.51	10.909
368.87	11.401
369.23	11.439
369.59	10.903
369.95	11.416
370.31	11.674
370.67	10.268
371.03	11.516
371.39	10.750
371.75	11.946
372.11	11.549
372.47	12.003
372.83	12.239
373.19	11.929
373.55	12.526
373.91	12.020
374.27	11.910
374.63	12.422
374.99	13.282
375.35	12.450
375.71	13.910
376.07	12.663
376.42	12.185
376.78	13.399
377.14	12.949
377.50	12.637
377.86	12.679
378.22	13.128
378.58	12.292
378.94	12.515
379.30	12.919
379.66	13.540
380.02	13.428
380.38	13.716
380.74	13.775
381.09	14.236
381.45	13.902
381.81	13.128
382.17	14.286
382.53	13.860
382.89	15.012
383.25	14.931
383.61	14.800
383.97	15.126
384.32	14.393
384.68	14.873
385.04	14.493
385.40	14.547
385.76	15.061
386.12	15.178
386.48	16.213
386.83	15.215
387.19	16.079
387.55	15.324
387.91	15.471
388.27	14.656
388.62	14.904
388.98	15.869
389.34	15.606
389.70	16.504
390.06	15.475
390.42	16.538
390.77	15.016
391.13	16.273
391.49	16.157
391.85	16.334
392.20	15.291
392.56	15.211
392.92	15.973
393.28	16.361
393.64	16.597
393.99	16.431
394.35	15.754
394.71	16.553
395.07	16.886
395.42	16.269
395.78	16.405
396.14	16.885
396.50	16.269
396.85	16.780
397.21	16.707
397.57	16.474
397.92	17.272
398.28	17.278
398.64	16.181
399.00	17.416
399.35	16.967
399.71	16.957
400.07	17.552
400.42	17.762
400.78	16.518
401.14	16.766
401.49	17.099
401.85	16.595
402.21	16.985
402.57	17.415
402.92	16.803
403.28	17.279
403.63	16.777
403.99	17.899
404.35	16.727
404.70	17.730
405.06	17.013
405.42	16.974
405.77	17.421
406.13	16.354
406.49	17.196
406.84	17.457
407.20	18.080
407.55	17.606
407.91	15.738
408.27	17.034
408.62	16.837
408.98	18.072
409.34	17.611
409.69	17.454
410.05	17.041
410.40	16.800
410.76	17.842
411.11	17.269
411.47	17.327
411.83	17.787
412.18	16.894
412.54	17.084
412.89	17.983
413.25	16.647
413.60	17.315
413.96	16.636
414.31	17.737
414.67	17.333
415.03	16.300
415.38	17.502
415.74	18.363
416.09	17.263
416.45	16.402
416.80	16.775
417.16	15.681
417.51	17.597
417.87	17.476
418.22	17.826
418.58	16.945
418.93	18.332
419.29	17.315
419.64	16.143
420.00	17.801
420.35	17.564
420.71	17.527
421.06	17.574
421.42	17.623
421.77	17.532
422.12	17.515
422.48	17.691
422.83	17.426
423.19	17.539
423.54	17.752
423.90	18.103
424.25	17.421
424.61	18.456
424.96	17.905
425.31	18.278
425.67	17.994
426.02	17.843
426.38	18.149
426.73	18.410
427.09	18.689
427.44	18.466
427.79	18.430
428.15	18.612
428.50	18.768
428.85	18.345
429.21	18.650
429.56	18.958
429.92	18.687
430.27	18.445
430.62	20.115
430.98	17.878
431.33	19.050
431.68	18.928
432.04	18.858
432.39	19.487
432.74	19.185
433.10	17.783
433.45	18.423
433.80	19.037
434.16	19.774
434.51	19.507
434.86	20.035
435.22	19.543
435.57	19.033
435.92	19.343
436.28	20.059
436.63	19.163
436.98	19.301
437.34	19.079
437.69	18.786
438.04	18.945
438.39	19.073
438.75	18.859
439.10	19.656
439.45	18.045
439.81	18.133
440.16	19.364
440.51	19.294
440.86	19.491
441.22	18.795
441.57	19.263
441.92	19.437
442.27	19.372
442.63	19.421
442.98	18.849
443.33	19.605
443.68	19.958
444.03	19.646
444.39	19.236
444.74	20.099
445.09	19.682
445.44	20.146
445.79	19.888
446.15	19.770
446.50	19.488
446.85	19.343
447.20	19.612
447.55	19.890
447.91	19.652
448.26	19.441
448.61	19.864
448.96	20.784
449.31	19.673
449.66	20.607
450.02	19.778
450.37	20.464
450.72	19.322
451.07	19.862
451.42	18.587
451.77	19.988
452.12	20.083
452.47	19.836
452.83	19.685
453.18	20.557
453.53	21.020
453.88	21.411
454.23	19.589
454.58	20.883
454.93	20.844
455.28	20.268
455.63	20.393
455.98	20.241
456.34	19.949
456.69	20.075
457.04	20.406
457.39	19.976
457.74	20.142
458.09	20.766
458.44	20.612
458.79	19.899
459.14	20.650
459.49	21.314
459.84	20.686
460.19	19.570
460.54	19.359
460.89	19.675
461.24	20.461
461.59	21.102
461.94	19.860
462.29	19.893
462.64	21.014
462.99	21.151
463.34	20.527
463.69	19.911
464.04	19.508
464.39	19.833
464.74	20.567
465.09	20.144
465.44	20.305
465.79	20.812
466.14	21.231
466.49	21.071
466.84	21.008
467.19	20.636
467.54	20.696
467.89	21.085
468.24	20.487
468.59	20.737
468.94	21.093
469.29	20.273
469.64	21.765
469.99	21.337
470.34	20.641
470.68	22.238
471.03	20.785
471.38	19.792
471.73	20.839
472.08	21.620
472.43	20.270
472.78	21.467
473.13	20.278
473.48	20.996
473.83	21.402
474.17	20.764
474.52	21.995
474.87	21.037
475.22	20.531
475.57	20.778
475.92	21.868
476.27	20.800
476.61	21.296
476.96	21.353
477.31	21.744
477.66	21.085
478.01	21.286
478.36	21.582
478.70	21.516
479.05	21.255
479.40	21.606
479.75	21.050
480.10	21.181
480.45	20.938
480.79	21.175
481.14	22.328
481.49	21.781
481.84	21.729
482.19	22.248
482.53	21.591
482.88	21.690
483.23	20.798
483.58	21.647
483.92	21.357
484.27	21.134
484.62	21.296
484.97	20.889
485.31	20.576
485.66	20.403
486.01	20.754
486.36	21.298
486.70	21.672
487.05	21.357
487.40	20.700
487.75	20.803
488.09	20.877
488.44	21.549
488.79	21.825
489.13	21.111
489.48	21.452
489.83	21.572
490.17	21.680
490.52	22.283
490.87	21.478
491.22	21.252
491.56	21.898
491.91	22.281
492.26	21.792
492.60	21.265
492.95	22.037
493.30	21.534
493.64	21.627
493.99	21.367
494.34	21.905
494.68	22.472
495.03	21.558
495.37	21.780
495.72	21.758
496.07	21.211
496.41	22.418
496.76	21.918
497.11	21.479
497.45	22.031
497.80	22.061
498.14	22.348
498.49	22.049
498.84	21.214
499.18	22.612
499.53	21.822
499.87	21.525
500.22	21.667
500.56	21.761
500.91	22.463
501.26	22.222
501.60	21.473
501.95	22.367
502.29	21.493
502.64	22.348
502.98	22.185
503.33	21.711
503.67	21.504
504.02	22.211
504.36	22.010
504.71	22.087
505.06	20.719
505.40	23.253
505.75	21.799
506.09	23.559
506.44	21.855
506.78	21.977
507.13	22.503
507.47	23.005
507.82	21.580
508.16	22.746
508.51	21.793
508.85	21.843
509.19	22.554
509.54	23.044
509.88	22.872
510.23	22.065
510.57	22.857
510.92	23.147
511.26	22.648
511.61	22.570
511.95	23.330
512.30	22.320
512.64	22.037
512.98	23.047
513.33	23.284
513.67	22.613
514.02	22.819
514.36	23.712
514.70	22.524
515.05	23.442
515.39	22.607
515.74	24.142
516.08	22.478
516.42	23.739
516.77	23.686
517.11	22.826
517.46	23.565
517.80	24.248
518.14	23.551
518.49	23.909
518.83	23.205
519.17	24.748
519.52	23.019
519.86	24.074
520.20	24.633
520.55	23.569
520.89	23.294
521.23	24.298
521.58	25.016
521.92	24.446
522.26	23.683
522.61	23.828
522.95	23.038
523.29	24.514
523.64	24.047
523.98	23.679
524.32	23.319
524.66	22.857
525.01	24.342
525.35	24.162
525.69	24.073
526.04	23.825
526.38	23.743
526.72	23.627
527.06	24.219
527.41	25.017
527.75	23.300
528.09	24.686
528.43	23.016
528.78	24.058
529.12	23.944
529.46	23.067
529.80	23.564
530.15	23.696
530.49	23.157
530.83	24.427
531.17	22.963
531.51	23.778
531.86	24.621
532.20	24.359
532.54	23.463
532.88	24.242
533.22	25.067
533.57	24.217
533.91	23.533
534.25	22.942
534.59	23.235
534.93	23.771
535.27	24.418
535.62	24.169
535.96	23.529
536.30	24.280
536.64	25.100
536.98	24.859
537.32	24.534
537.66	24.372
538.01	24.261
538.35	24.662
538.69	23.797
539.03	23.629
539.37	24.019
539.71	24.883
540.05	23.989
540.39	24.723
540.73	23.566
541.07	23.702
541.42	23.363
541.76	23.522
542.10	25.118
542.44	24.184
542.78	25.170
543.12	24.304
543.46	23.425
543.80	23.746
544.14	23.707
544.48	24.738
544.82	23.478
545.16	24.480
545.50	22.880
545.84	24.061
546.18	24.133
546.52	24.467
546.86	24.573
547.20	24.895
547.54	23.554
547.88	23.623
548.22	22.674
548.56	23.981
548.90	24.528
549.24	23.826
549.58	24.418
549.92	24.170
550.26	25.434
550.60	23.329
550.94	24.307
551.28	24.003
551.62	22.452
551.96	24.168
552.30	23.763
552.64	24.560
552.98	24.387
553.32	23.665
553.66	25.451
554.00	23.241
554.34	23.177
554.68	25.512
555.02	24.313
555.36	23.149
555.69	23.424
556.03	24.070
556.37	23.613
556.71	24.624
557.05	24.464
557.39	23.756
557.73	23.924
558.07	23.964
558.41	24.607
558.75	24.183
559.08	22.802
559.42	24.579
559.76	24.156
560.10	23.937
560.44	24.855
560.78	24.078
561.12	23.395
561.45	24.315
561.79	23.275
562.13	22.861
562.47	24.090
562.81	24.328
563.15	23.793
563.48	24.464
563.82	23.056
564.16	24.070
564.50	22.849
564.84	23.942
565.17	23.475
565.51	23.859
565.85	24.341
566.19	24.704
566.52	23.810
566.86	24.336
567.20	25.061
567.54	24.926
567.88	22.892
568.21	23.602
568.55	23.118
568.89	23.211
569.23	23.091
569.56	23.371
569.90	23.721
570.24	23.600
570.57	22.707
570.91	22.883
571.25	23.152
571.59	23.041
571.92	22.738
572.26	22.948
572.60	22.619
572.93	22.515
573.27	22.652
573.61	22.254
573.95	22.512
574.28	22.553
574.62	22.877
574.96	22.582
575.29	22.485
575.63	22.671
575.97	22.357
576.30	22.061
576.64	22.768
576.98	22.319
577.31	22.384
577.65	22.210
577.98	22.192
578.32	22.543
578.66	22.883
578.99	22.522
579.33	22.532
579.67	22.191
580.00	22.421
580.34	22.016
580.67	22.456
581.01	22.189
581.35	22.470
581.68	21.603
582.02	22.618
582.35	22.134
582.69	22.620
583.02	22.834
583.36	22.307
583.70	21.966
584.03	22.737
584.37	22.246
584.70	22.178
585.04	22.380
585.37	21.790
585.71	22.351
586.04	22.670
586.38	22.668
586.72	22.492
587.05	22.968
587.39	22.508
587.72	22.671
588.06	22.586
588.39	22.757
588.73	22.360
589.06	22.986
589.40	23.119
589.73	22.627
590.07	22.542
590.40	22.103
590.73	22.831
591.07	22.213
591.40	23.137
591.74	22.589
592.07	23.243
592.41	22.675
592.74	23.136
593.08	22.897
593.41	21.974
593.75	22.321
594.08	22.286
594.41	23.512
594.75	23.065
595.08	22.970
595.42	23.121
595.75	22.528
596.09	23.516
596.42	23.527
596.75	22.898
597.09	23.954
597.42	23.658
597.75	23.118
598.09	22.413
598.42	22.625
598.76	22.425
599.09	22.731
599.42	22.684
599.76	22.877
600.09	22.939
600.42	23.092
600.76	22.637
601.09	22.636
601.42	22.319
601.76	22.975
602.09	22.536
602.42	22.346
602.76	22.019
603.09	22.258
603.42	22.965
603.76	22.337
604.09	23.108
604.42	22.315
604.76	23.288
605.09	23.011
605.42	22.739
605.75	22.294
606.09	22.873
606.42	23.083
606.75	23.358
607.09	22.717
607.42	22.755
607.75	22.870
608.08	23.814
608.42	22.422
608.75	22.570
609.08	23.186
609.41	22.621
609.75	23.111
610.08	23.529
610.41	22.651
610.74	24.130
611.07	23.276
611.41	23.096
611.74	24.113
612.07	22.986
612.40	22.495
612.73	22.779
613.07	22.565
613.40	23.700
613.73	23.597
614.06	22.680
614.39	22.999
614.72	22.905
615.06	22.609
615.39	22.084
615.72	23.846
616.05	23.357
616.38	23.970
616.71	23.063
617.05	23.643
617.38	22.910
617.71	22.912
618.04	23.292
618.37	22.830
618.70	23.533
619.03	22.952
619.36	23.890
619.69	24.264
620.03	22.796
620.36	22.433
620.69	24.264
621.02	23.516
621.35	22.984
621.68	24.180
622.01	24.919
622.34	23.525
622.67	23.984
623.00	24.024
623.33	23.582
623.66	23.191
623.99	23.534
624.32	24.330
624.65	23.179
624.99	24.197
625.32	23.353
625.65	23.621
625.98	23.552
626.31	24.633
626.64	24.519
626.97	24.829
627.30	25.021
627.63	22.366
627.96	24.108
628.29	24.540
628.62	23.400
628.95	24.508
629.28	23.966
629.61	25.025
629.94	24.480
630.26	24.453
630.59	25.126
630.92	24.324
631.25	25.202
631.58	24.868
631.91	22.766
632.24	24.889
632.57	24.778
632.90	24.598
633.23	25.000
633.56	23.041
633.89	22.642
634.22	24.203
634.55	24.159
634.88	23.216
635.20	24.220
635.53	24.427
635.86	22.796
636.19	23.443
636.52	23.536
636.85	22.623
637.18	23.125
637.51	27.385
637.83	24.101
638.16	24.211
638.49	25.655
638.82	22.394
639.15	24.773
639.48	22.698
639.81	25.035
640.13	24.459
640.46	26.211
640.79	24.650
641.12	23.272
641.45	24.964
641.77	25.000
642.10	24.018
642.43	25.493
642.76	25.669
643.09	24.444
643.41	24.603
643.74	25.278
644.07	24.025
644.40	23.501
644.73	25.743
645.05	23.539
645.38	25.331
645.71	26.804
646.04	26.218
646.36	25.131
646.69	25.952
647.02	24.188
647.35	24.368
647.67	25.547
648.00	25.132
648.33	27.150
648.66	24.194
648.98	24.204
649.31	25.846
649.64	25.000
649.96	25.589
650.29	23.279
650.62	23.924
650.94	26.138
651.27	24.263
651.60	23.356
651.92	26.199
652.25	22.037
652.58	21.976
652.90	25.361
653.23	24.839
653.56	23.913
653.88	24.590
654.21	25.168
654.54	27.741
654.86	25.040
655.19	24.212
655.52	23.205
655.84	21.869
656.17	24.092
656.49	32.885
656.82	33.898
657.15	25.601
657.47	18.663
657.80	14.496
658.13	16.468
658.45	22.029
658.78	21.632
659.10	21.694
659.43	21.249
659.75	21.715
660.08	21.562
660.41	20.818
660.73	21.122
661.06	23.188
661.38	25.714
661.71	23.327
662.03	26.008
662.36	26.013
662.68	25.105
663.01	24.204
663.33	24.717
663.66	24.464
663.98	24.554
664.31	24.609
664.63	25.442
664.96	23.644
665.28	25.163
665.61	21.564
665.93	26.132
666.26	23.482
666.58	24.532
666.91	25.390
667.23	25.219
667.56	20.862
667.88	25.566
668.21	19.816
668.53	22.430
668.86	25.404
669.18	26.941
669.50	24.299
669.83	22.141
670.15	21.973
670.48	24.299
670.80	25.057
671.13	23.251
671.45	24.099
671.77	24.197
672.10	23.471
672.42	24.354
672.75	20.909
673.07	23.604
673.39	22.587
673.72	24.213
674.04	22.293
674.37	22.887
674.69	25.205
675.01	24.255
675.34	22.126
675.66	26.782
675.98	24.670
676.31	27.376
676.63	23.678
676.95	24.779
677.28	23.202
677.60	27.376
677.92	24.670
678.25	25.821
678.57	24.074
678.89	20.335
679.22	23.270
679.54	25.444
679.86	22.600
680.18	25.095
680.51	23.836
680.83	23.048
681.15	25.241
681.48	24.949
681.80	24.194
682.12	22.938
682.44	22.004
682.77	24.675
683.09	23.480
683.41	27.434
683.73	21.918
684.06	22.796
684.38	25.314
684.70	23.868
685.02	22.638
685.34	25.341
685.67	20.833
685.99	20.227
686.31	23.339
686.63	25.709
686.96	24.030
687.28	21.773
687.60	23.047
687.92	23.152
688.24	22.638
688.56	22.645
688.89	20.299
689.21	23.632
689.53	23.678
689.85	24.499
690.17	23.318
690.49	21.478
690.82	21.205
691.14	24.528
691.46	23.947
691.78	24.229
692.10	24.153
692.42	22.000
692.74	22.532
693.06	23.146
693.39	23.043
693.71	25.282
694.03	23.542
694.35	18.510
694.67	25.296
694.99	23.529
695.31	21.939
695.63	24.745
695.95	22.581
696.27	25.187
696.59	25.401
696.91	25.281
697.23	23.438
697.56	20.433
697.88	23.649
698.20	20.128
698.52	20.404
698.84	23.301
699.16	20.238
699.48	22.500
699.80	22.807
700.12	23.174
700.44	22.067
700.76	19.825
701.08	25.000
701.40	20.242
701.72	24.691
702.04	24.038
702.36	26.205
702.68	22.156
703.00	22.899
703.32	21.490
703.64	25.000
703.96	25.581
704.28	20.710
704.60	19.304
704.91	22.222
705.23	25.243
705.55	22.297
705.87	23.208
706.19	20.139
706.51	18.403
706.83	23.934
707.15	25.159
707.47	25.895
707.79	21.649
708.11	17.812
708.43	23.940
708.74	23.896
709.06	20.891
709.38	24.138
709.70	21.875
710.02	24.847
710.34	18.812
710.66	25.079
710.98	20.505
711.29	24.516
711.61	21.725
711.93	19.016
712.25	23.588
712.57	21.603
712.89	24.820
713.20	21.993
713.52	20.522
713.84	18.861
714.16	22.623
714.48	23.175
714.80	19.385
715.11	21.902
715.43	22.289
715.75	21.807
716.07	19.344
716.39	23.746
716.70	24.390
717.02	27.407
717.34	21.374
717.66	24.066
717.97	21.721
718.29	23.529
718.61	25.794
718.93	24.731
719.24	21.324
719.56	20.377
719.88	18.909
720.20	19.101
720.51	23.684
720.83	21.687
721.15	22.131
721.46	27.451
721.78	22.222
722.10	23.600
722.42	21.901
722.73	21.912
723.05	25.301
723.37	21.569
723.68	23.887
724.00	25.610
724.32	21.811
724.63	19.917
724.95	26.446
725.27	17.982
725.58	17.672
725.90	19.841
726.22	28.413
726.53	23.194
726.85	15.294
727.16	19.549
727.48	20.000
727.80	22.951
728.11	18.067
728.43	20.661
728.74	20.313
729.06	21.212
729.38	19.066
729.69	20.079
730.01	18.898
730.32	20.717
730.64	21.612
730.96	25.000
731.27	24.643
731.59	20.579
731.90	19.939
732.22	24.540
732.53	21.192
732.85	20.805
733.16	18.841
733.48	17.770
733.80	16.726
734.11	19.655
734.43	18.707
734.74	22.255
735.06	20.690
735.37	22.324
735.69	17.419
736.00	20.875
736.32	21.854
736.63	17.931
736.95	17.754
737.26	23.510
737.58	20.144
737.89	22.222
738.21	18.797
738.52	18.077
738.83	23.047
739.15	20.940
739.46	25.806
739.78	23.776
740.09	18.531
740.41	18.531
740.72	22.263
741.04	20.635
741.35	20.779
741.66	17.593
741.98	23.810
742.29	25.822
742.61	21.390
742.92	19.159
743.23	20.175
743.55	24.324
743.86	24.889
744.18	22.857
744.49	23.645
744.80	19.289
745.12	22.165
745.43	20.603
745.74	21.845
746.06	20.488
746.37	28.634
746.68	23.881
747.00	22.513
747.31	24.038
747.62	23.502
747.94	17.904
748.25	24.186
748.56	24.286
748.88	15.761
749.19	18.310
749.50	26.961
749.82	20.000
750.13	22.907
750.44	20.325
750.75	21.200
751.07	23.929
751.38	21.771
751.69	12.977
752.01	20.385
752.32	18.677
752.63	13.846
752.94	16.270
753.26	21.304
753.57	20.982
753.88	17.672
754.19	20.747
754.51	20.703
754.82	20.158
755.13	17.695
755.44	21.488
755.75	15.638
756.07	18.876
756.38	17.578
756.69	20.217
757.00	16.028
757.31	22.148
757.63	20.872
757.94	21.387
758.25	20.058
758.56	22.372
758.87	17.898
759.18	20.333
759.50	18.505
759.81	15.693
760.12	16.554
760.43	21.683
760.74	24.688
761.05	21.067
761.36	20.359
761.67	17.160
761.99	23.548
762.30	19.565
762.61	14.340
762.92	20.179
763.23	18.957
763.54	19.556
763.85	20.253
764.16	23.265
764.47	21.186
764.78	19.850
765.10	23.381
765.41	20.323
765.72	19.497
766.03	13.781
766.34	21.805
766.65	18.623
766.96	17.500
767.27	15.104
767.58	19.767
767.89	14.194
768.20	28.834
768.51	21.311
768.82	18.378
769.13	19.500
769.44	19.737
769.75	20.346
770.06	25.229
770.37	17.840
770.68	15.104
770.99	21.782
771.30	19.903
771.61	18.981
771.92	14.286
772.23	17.290
772.54	17.553
772.85	18.935
773.16	23.171
773.47	27.711
773.78	20.879
774.09	20.000
774.39	16.667
774.70	19.463
775.01	17.391
775.32	21.642
775.63	3.306
775.94	21.053
776.25	23.571
776.56	18.033
776.87	16.814
777.18	23.009
777.48	18.182
777.79	13.043
778.10	-0.917
778.41	12.712
778.72	16.529
779.03	20.149
779.34	15.038
779.65	10.458
779.95	13.768
780.26	9.524
780.57	-5.172
780.88	18.519
781.19	2.020
781.50	14.400
781.80	14.379
782.11	14.744
782.42	11.446
782.73	8.029
783.04	18.919
783.34	21.970
783.65	22.481
783.96	18.699
784.27	13.675
784.57	12.195
784.88	17.073
785.19	18.421
785.50	-4.124
785.81	20.952
786.11	15.686
786.42	5.455
786.73	11.712
787.04	13.861
787.34	15.238
787.65	5.714
787.96	11.765
788.26	19.820
788.57	20.161
788.88	16.406
789.19	15.385
789.49	5.042
789.80	17.949
790.11	23.894
790.41	19.192
790.72	18.868
791.03	1.389
791.33	7.895
791.64	22.581
791.95	9.333
792.25	12.857
792.56	-6.098
792.87	20.408
793.17	21.053
793.48	-6.757
793.79	9.859
794.09	5.063
794.40	12.766
794.70	11.215
795.01	11.404
795.32	2.727
795.62	12.500
795.93	4.124
796.23	8.791
796.54	18.947
796.85	4.110
797.15	-1.389
797.46	26.027
797.76	14.085
798.07	13.750
798.37	-2.941
798.68	17.143
798.99	8.571
799.29	6.579
799.60	0.000
799.90	-4.167
800.21	-6.250
800.51	9.524
800.82	19.672
801.12	-7.018
801.43	9.859
801.73	10.169
802.04	26.230
802.34	18.182
802.65	1.923
802.95	5.556
803.26	-12.500
803.56	9.615
803.87	-7.895
804.17	4.839
804.48	16.923
804.78	0.000
805.09	11.628
805.39	-31.250
805.70	-11.321
806.00	19.298
806.30	20.270
806.61	19.118
806.91	25.926
807.22	6.667
807.52	13.433
807.83	-1.613
808.13	-1.587
808.43	12.727
808.74	7.576
809.04	9.434
809.35	16.438
809.65	10.526
809.95	19.118
810.26	23.529
810.56	-10.000
810.86	-26.531
811.17	-22.857
811.47	-15.385
811.77	-12.903
812.08	-42.105
812.38	11.905
812.69	-10.870
812.99	3.226
813.29	-38.095
813.59	-11.111
813.90	-10.638
814.20	-11.628
814.50	-16.667
814.81	-13.333
815.11	-12.195
815.41	6.667
815.72	5.714
816.02	-30.556
816.32	10.256
816.62	-8.108
816.93	-23.529
817.23	10.870
817.53	-47.059
817.84	0.000
818.14	-21.875
818.44	-41.379
818.74	-19.355
819.04	-18.519
819.35	-20.000
819.65	-60.000
819.95	6.667
820.25	-4.000
820.56	-15.789
820.86	-12.500
821.16	-4.255
821.46	6.897
821.76	-10.256
822.07	-35.000
822.37	-6.977
822.67	-26.667
822.97	-5.405
823.27	2.703
823.57	16.000
823.88	-2.703
824.18	-52.381
824.48	-42.308
824.78	-61.538
825.08	-13.043
825.38	-41.667
825.69	12.500
825.99	-90.000
826.29	-18.919
826.59	-41.176
826.89	-12.000
827.19	-22.857
827.49	18.421
827.79	-18.750
828.09	-20.000
828.39	-21.739
828.70	-24.138
829.00	-3.448
829.30	-36.111
829.60	15.625
829.90	-66.667
830.20	-15.385
830.50	-119.048
830.80	-25.000
831.10	15.385
831.40	-66.667
831.70	2.941
832.00	20.833
832.30	-94.737
832.60	-37.500
832.90	-141.667
833.20	-129.412
833.50	-206.667
833.80	-100.000
834.10	-40.000
834.40	-4.167
834.70	5.556
835.00	-11.538
835.30	-29.167
835.60	-37.931
835.90	-77.778
836.20	-154.545
836.50	-75.000
836.80	-25.714
837.10	25.714
837.40	-58.824
837.70	-118.182
838.00	-25.000
838.30	-50.000
838.60	4.762
838.90	-5.000
839.19	-34.783
839.49	13.043
839.79	-105.556
840.09	-39.130
840.39	-72.727
840.69	-68.750
840.99	-47.368
841.29	-87.500
841.59	-50.000
841.88	-105.556
842.18	0.000
842.48	-111.765
842.78	10.345
843.08	7.143
843.38	-61.538
843.68	-133.333
843.97	-138.462
844.27	-72.727
844.57	-100.000
844.87	0.000
845.17	-200.000
845.47	-71.429
845.76	-33.333
846.06	0.000
846.36	-425.000
846.66	-160.000
846.96	-52.632
847.25	-33.333
847.55	-91.667
847.85	-73.333
848.15	-100.000
848.44	19.231
848.74	-15.789
849.04	633.333
849.34	-144.444
849.63	-84.211
849.93	0.000
850.23	-45.000
850.53	-28.571
850.82	-32.000
851.12	-21.053
851.42	-700.000
851.71	-50.000
852.01	-116.667
852.31	-41.176
852.61	-6.667
852.90	-4.762
853.20	-233.333
853.50	-33.333
853.79	-73.684
854.09	-53.333
854.39	3.571
854.68	-34.783
854.98	-225.000
855.28	-13.793
855.57	-68.750
855.87	-20.000
856.17	-113.333
856.46	3.448
856.76	-66.667
857.05	-17.647
857.35	-130.769
857.65	-63.636
857.94	-51.852
858.24	-78.571
858.53	-42.857
858.83	-16.667
859.13	-266.667
859.42	61.905
859.72	-125.000
860.01	-133.333
860.31	-150.000
860.60	-440.000
860.90	-177.778
861.20	-200.000
861.49	-114.286
861.79	70.588
862.08	-350.000
862.38	-175.000
862.67	-76.923
862.97	-29.412
863.26	-50.000
863.56	-52.941
863.85	333.333
864.15	-170.000
864.44	-146.154
864.74	-40.000
865.03	-200.000
865.33	-366.667
865.62	-41.176
865.92	-625.000
866.21	-92.857
866.51	-175.000
866.80	-900.000
867.10	-200.000
867.39	-35.294
867.69	-26.087
867.98	-128.571
868.27	-400.000
868.57	-68.750
868.86	-127.273
869.16	-17.647
869.45	-233.333
869.75	-171.429
870.04	2100.000
870.33	-33.333
870.63	-200.000
870.92	-166.667
871.22	-125.000
871.51	-181.818
871.80	-16.667
872.10	20.000
>>>>>End Processed Spectral Data<<<<<
