SpectraSuite Data File
++++++++++++++++++++++++++++++++++++
Date: Sat May 16 11:44:49 PDT 2015
User: schluterlab
Dark Spectrum Present: Yes
Reference Spectrum Present: Yes
Number of Sampled Component Spectra: 1
Spectrometers: USB2E3373
Integration Time (usec): 3000 (USB2E3373)
Spectra Averaged: 3 (USB2E3373)
Boxcar Smoothing: 0 (USB2E3373)
Correct for Electrical Dark: No (USB2E3373)
Strobe/Lamp Enabled: No (USB2E3373)
Correct for Detector Non-linearity: No (USB2E3373)
Correct for Stray Light: No (USB2E3373)
Number of Pixels in Processed Spectrum: 2048
>>>>>Begin Processed Spectral Data<<<<<
178.53	0.000
178.91	126.667
179.29	833.333
179.67	-1000.000
180.04	-38.462
180.42	200.000
180.80	200.000
181.18	350.000
181.56	-125.000
181.94	700.000
182.31	500.000
182.69	-84.615
183.07	-1033.333
183.45	1400.000
183.83	400.000
184.20	-414.286
184.58	-150.000
184.96	-425.000
185.34	106.250
185.72	-350.000
186.09	116.667
186.47	-212.500
186.85	-187.500
187.23	-175.000
187.61	-175.000
187.98	-250.000
188.36	-100.000
188.74	-50.000
189.12	1800.000
189.49	300.000
189.87	-75.000
190.25	400.000
190.63	-50.000
191.00	-177.778
191.38	360.000
191.76	-40.000
192.14	320.000
192.51	-140.000
192.89	-233.333
193.27	0.000
193.65	-122.222
194.02	-57.143
194.40	500.000
194.78	-150.000
195.15	-800.000
195.53	-127.273
195.91	-483.333
196.29	200.000
196.66	-766.667
197.04	2500.000
197.42	-450.000
197.79	53.333
198.17	-366.667
198.55	-900.000
198.92	-700.000
199.30	175.000
199.68	-800.000
200.05	-144.444
200.43	-155.556
200.81	-100.000
201.18	-41.667
201.56	214.286
201.94	-13.333
202.31	9.091
202.69	50.000
203.07	-50.000
203.44	466.667
203.82	-316.667
204.19	-350.000
204.57	-275.000
204.95	-1400.000
205.32	-43.750
205.70	900.000
206.08	-1800.000
206.45	-38.889
206.83	-1150.000
207.20	-250.000
207.58	-533.333
207.96	-333.333
208.33	-162.500
208.71	-77.778
209.08	140.000
209.46	-128.571
209.84	500.000
210.21	0.000
210.59	40.000
210.96	1000.000
211.34	-283.333
211.71	-133.333
212.09	325.000
212.46	1300.000
212.84	-1000.000
213.22	533.333
213.59	158.333
213.97	-33.333
214.34	180.000
214.72	-130.000
215.09	-366.667
215.47	-116.667
215.84	30.000
216.22	-90.000
216.59	6.667
216.97	-500.000
217.34	1250.000
217.72	-42.857
218.09	-316.667
218.47	-300.000
218.84	300.000
219.22	-42.857
219.59	0.000
219.97	214.286
220.34	525.000
220.72	250.000
221.09	-46.154
221.47	0.000
221.84	566.667
222.22	-450.000
222.59	400.000
222.97	-237.500
223.34	-800.000
223.72	-433.333
224.09	-57.143
224.46	-500.000
224.84	0.000
225.21	-200.000
225.59	-54.545
225.96	-175.000
226.34	-157.143
226.71	-144.444
227.08	0.000
227.46	1900.000
227.83	-242.857
228.21	-262.500
228.58	850.000
228.95	-62.500
229.33	-800.000
229.70	-100.000
230.08	-1000.000
230.45	-41.667
230.82	33.333
231.20	-1800.000
231.57	-600.000
231.95	500.000
232.32	71.429
232.69	-111.111
233.07	-142.857
233.44	-600.000
233.81	-80.000
234.19	-133.333
234.56	-50.000
234.93	9.375
235.31	-257.143
235.68	-192.857
236.05	-76.471
236.43	-72.727
236.80	-9.677
237.17	-54.167
237.55	-57.143
237.92	-81.818
238.29	-31.429
238.67	-8.824
239.04	-16.667
239.41	-38.710
239.79	-33.333
240.16	-26.190
240.53	-1.818
240.91	7.692
241.28	-23.636
241.65	15.385
242.02	-18.033
242.40	-3.279
242.77	-3.030
243.14	-22.034
243.51	-24.286
243.89	3.797
244.26	-7.865
244.63	6.316
245.00	-7.368
245.38	7.627
245.75	5.310
246.12	10.400
246.49	10.236
246.87	0.813
247.24	-5.932
247.61	-5.085
247.98	4.930
248.36	-1.399
248.73	5.063
249.10	1.911
249.47	7.018
249.84	3.409
250.22	2.381
250.59	3.390
250.96	4.712
251.33	10.427
251.70	4.808
252.08	9.005
252.45	4.739
252.82	0.000
253.19	6.809
253.56	6.048
253.94	6.751
254.31	4.721
254.68	7.317
255.05	5.242
255.42	5.952
255.79	6.452
256.16	8.627
256.54	5.882
256.91	5.682
257.28	6.593
257.65	8.865
258.02	7.547
258.39	7.358
258.76	3.716
259.14	7.407
259.51	8.525
259.88	6.402
260.25	8.696
260.62	3.215
260.99	8.605
261.36	6.402
261.73	7.803
262.10	10.278
262.47	5.983
262.85	11.429
263.22	5.444
263.59	3.385
263.96	6.667
264.33	9.485
264.70	6.906
265.07	9.341
265.44	8.527
265.81	5.943
266.18	4.810
266.55	8.824
266.92	7.809
267.29	6.780
267.66	5.679
268.03	11.594
268.40	8.216
268.77	8.193
269.14	7.657
269.51	9.655
269.88	4.587
270.25	5.594
270.62	7.323
270.99	8.559
271.36	6.760
271.73	7.175
272.10	9.382
272.47	7.333
272.84	10.000
273.21	7.569
273.58	9.231
273.95	8.333
274.32	6.109
274.69	8.096
275.06	10.225
275.43	5.804
275.80	10.387
276.17	7.741
276.54	7.332
276.91	8.230
277.28	8.114
277.65	8.058
278.02	6.263
278.39	9.430
278.76	10.956
279.13	9.881
279.50	8.549
279.87	8.245
280.23	6.275
280.60	10.537
280.97	6.602
281.34	8.317
281.71	10.769
282.08	7.258
282.45	6.110
282.82	8.915
283.19	8.000
283.56	9.158
283.92	8.127
284.29	7.621
284.66	6.295
285.03	10.517
285.40	8.303
285.77	9.123
286.14	10.108
286.51	7.105
286.87	10.889
287.24	9.556
287.61	8.595
287.98	7.452
288.35	7.934
288.72	8.659
289.08	8.983
289.45	8.418
289.82	8.824
290.19	10.509
290.56	8.430
290.93	10.175
291.29	8.914
291.66	7.568
292.03	10.518
292.40	8.886
292.77	10.248
293.13	9.756
293.50	9.658
293.87	9.969
294.24	8.899
294.60	8.485
294.97	10.926
295.34	10.519
295.71	9.226
296.08	8.756
296.44	8.441
296.81	9.829
297.18	9.155
297.55	10.028
297.91	12.273
298.28	9.863
298.65	9.902
299.02	11.497
299.38	9.358
299.75	9.783
300.12	9.872
300.48	10.230
300.85	8.388
301.22	9.961
301.59	10.923
301.95	11.335
302.32	9.387
302.69	9.792
303.05	10.867
303.42	9.500
303.79	10.407
304.15	12.085
304.52	11.085
304.89	10.626
305.25	10.623
305.62	9.753
305.99	13.428
306.35	12.875
306.72	11.162
307.09	11.464
307.45	11.010
307.82	10.279
308.19	11.857
308.55	11.547
308.92	10.204
309.29	11.568
309.65	12.725
310.02	11.123
310.38	11.027
310.75	13.217
311.12	13.120
311.48	12.839
311.85	13.800
312.22	12.873
312.58	13.835
312.95	13.863
313.31	14.286
313.68	14.372
314.05	14.243
314.41	12.777
314.78	13.586
315.14	14.511
315.51	13.982
315.87	15.489
316.24	15.258
316.61	15.643
316.97	15.522
317.34	15.800
317.70	15.028
318.07	16.604
318.43	15.356
318.80	17.653
319.16	15.385
319.53	17.293
319.89	14.581
320.26	15.784
320.62	15.962
320.99	16.716
321.35	16.355
321.72	17.400
322.08	16.419
322.45	17.327
322.81	19.789
323.18	19.789
323.54	19.316
323.91	19.741
324.27	19.677
324.64	20.201
325.00	20.942
325.37	20.724
325.73	22.485
326.10	20.638
326.46	22.680
326.83	22.383
327.19	22.435
327.56	25.298
327.92	24.809
328.29	24.242
328.65	23.909
329.01	25.530
329.38	25.513
329.74	26.740
330.11	27.199
330.47	26.703
330.84	28.231
331.20	28.249
331.56	27.803
331.93	28.330
332.29	29.315
332.66	30.114
333.02	29.140
333.38	30.376
333.75	29.653
334.11	29.156
334.48	30.715
334.84	30.796
335.20	31.472
335.57	31.679
335.93	32.766
336.29	31.178
336.66	31.806
337.02	33.243
337.38	32.264
337.75	33.363
338.11	31.574
338.47	33.363
338.84	33.394
339.20	32.689
339.56	33.690
339.93	32.981
340.29	32.152
340.65	33.042
341.02	32.968
341.38	32.856
341.74	32.345
342.11	33.447
342.47	33.047
342.83	33.081
343.20	33.219
343.56	31.837
343.92	33.890
344.28	34.399
344.65	33.746
345.01	33.950
345.37	35.797
345.73	32.406
346.10	31.889
346.46	32.575
346.82	34.002
347.19	32.786
347.55	33.467
347.91	33.228
348.27	32.538
348.63	33.926
349.00	33.890
349.36	31.928
349.72	35.748
350.08	34.082
350.45	33.097
350.81	33.280
351.17	33.441
351.53	32.617
351.89	32.902
352.26	33.721
352.62	33.717
352.98	33.861
353.34	33.253
353.70	32.201
354.07	32.966
354.43	33.281
354.79	33.756
355.15	33.946
355.51	34.219
355.87	33.992
356.24	33.598
356.60	34.972
356.96	35.643
357.32	34.521
357.68	33.640
358.04	33.333
358.40	33.411
358.77	32.998
359.13	33.818
359.49	34.014
359.85	33.918
360.21	33.638
360.57	34.488
360.93	34.296
361.29	35.575
361.66	34.375
362.02	34.246
362.38	35.143
362.74	33.993
363.10	34.146
363.46	35.043
363.82	35.423
364.18	35.239
364.54	36.097
364.90	35.010
365.26	34.736
365.62	35.638
365.98	34.495
366.35	35.704
366.71	35.518
367.07	36.838
367.43	36.857
367.79	35.052
368.15	34.922
368.51	36.224
368.87	35.371
369.23	35.789
369.59	36.806
369.95	35.800
370.31	36.357
370.67	36.732
371.03	35.860
371.39	36.139
371.75	36.552
372.11	37.446
372.47	36.876
372.83	36.579
373.19	36.143
373.55	37.016
373.91	37.767
374.27	36.482
374.63	36.508
374.99	37.065
375.35	36.339
375.71	37.542
376.07	37.303
376.42	36.954
376.78	37.712
377.14	38.983
377.50	38.491
377.86	37.581
378.22	38.128
378.58	37.678
378.94	37.670
379.30	38.330
379.66	38.009
380.02	38.859
380.38	39.094
380.74	38.804
381.09	38.547
381.45	39.737
381.81	38.596
382.17	39.286
382.53	38.237
382.89	39.115
383.25	39.615
383.61	38.502
383.97	39.314
384.32	39.237
384.68	39.601
385.04	38.949
385.40	39.562
385.76	40.610
386.12	39.975
386.48	40.223
386.83	40.491
387.19	39.331
387.55	40.218
387.91	40.130
388.27	39.445
388.62	39.964
388.98	38.704
389.34	41.310
389.70	40.438
390.06	40.522
390.42	42.244
390.77	40.063
391.13	41.304
391.49	40.611
391.85	40.461
392.20	40.291
392.56	40.134
392.92	40.046
393.28	41.274
393.64	41.191
393.99	41.108
394.35	41.180
394.71	41.878
395.07	41.243
395.42	39.690
395.78	40.541
396.14	41.931
396.50	41.774
396.85	41.086
397.21	40.462
397.57	40.061
397.92	41.276
398.28	41.722
398.64	41.820
399.00	41.348
399.35	41.150
399.71	40.592
400.07	41.075
400.42	40.633
400.78	40.906
401.14	41.078
401.49	40.802
401.85	41.977
402.21	41.836
402.57	40.473
402.92	42.542
403.28	41.789
403.63	39.904
403.99	40.895
404.35	40.036
404.70	41.018
405.06	41.176
405.42	38.991
405.77	40.498
406.13	39.409
406.49	41.043
406.84	40.432
407.20	41.284
407.55	40.405
407.91	40.350
408.27	40.748
408.62	40.770
408.98	41.298
409.34	40.341
409.69	40.517
410.05	40.085
410.40	40.589
410.76	41.020
411.11	40.835
411.47	41.624
411.83	42.176
412.18	41.460
412.54	39.536
412.89	41.130
413.25	39.847
413.60	40.279
413.96	40.604
414.31	41.162
414.67	40.825
415.03	41.009
415.38	40.599
415.74	42.139
416.09	42.327
416.45	40.476
416.80	42.003
417.16	40.598
417.51	42.351
417.87	42.913
418.22	43.047
418.58	43.004
418.93	43.164
419.29	42.033
419.64	42.776
420.00	42.710
420.35	43.347
420.71	43.457
421.06	42.426
421.42	42.447
421.77	42.881
422.12	43.984
422.48	42.758
422.83	42.882
423.19	42.984
423.54	43.746
423.90	44.130
424.25	44.796
424.61	45.597
424.96	46.401
425.31	45.836
425.67	44.871
426.02	44.349
426.38	45.977
426.73	45.354
427.09	45.404
427.44	46.420
427.79	45.698
428.15	46.499
428.50	46.804
428.85	47.062
429.21	46.043
429.56	47.031
429.92	46.643
430.27	46.710
430.62	47.492
430.98	47.569
431.33	48.026
431.68	48.472
432.04	48.405
432.39	48.376
432.74	48.082
433.10	49.128
433.45	46.690
433.80	47.144
434.16	47.179
434.51	49.151
434.86	49.209
435.22	48.552
435.57	49.143
435.92	49.238
436.28	49.318
436.63	49.802
436.98	48.912
437.34	50.148
437.69	49.008
438.04	51.049
438.39	49.819
438.75	50.175
439.10	50.639
439.45	49.970
439.81	51.205
440.16	50.539
440.51	50.882
440.86	50.781
441.22	51.078
441.57	50.263
441.92	50.946
442.27	51.353
442.63	51.717
442.98	51.862
443.33	51.620
443.68	51.954
444.03	51.572
444.39	51.640
444.74	51.707
445.09	51.974
445.44	52.504
445.79	52.830
446.15	52.683
446.50	51.932
446.85	52.181
447.20	52.349
447.55	52.597
447.91	53.341
448.26	52.570
448.61	52.066
448.96	54.230
449.31	54.059
449.66	52.891
450.02	52.687
450.37	53.159
450.72	52.712
451.07	54.494
451.42	52.169
451.77	54.937
452.12	54.231
452.47	53.652
452.83	53.582
453.18	55.155
453.53	54.726
453.88	55.024
454.23	54.293
454.58	55.376
454.93	55.290
455.28	54.685
455.63	56.265
455.98	55.663
456.34	54.574
456.69	56.410
457.04	56.116
457.39	55.144
457.74	55.641
458.09	56.032
458.44	56.409
458.79	56.390
459.14	55.619
459.49	55.181
459.84	54.413
460.19	55.191
460.54	55.717
460.89	55.549
461.24	55.434
461.59	56.624
461.94	56.906
462.29	56.939
462.64	56.588
462.99	56.426
463.34	56.921
463.69	56.361
464.04	56.298
464.39	56.033
464.74	55.615
465.09	55.201
465.44	55.556
465.79	56.289
466.14	57.940
466.49	56.649
466.84	55.882
467.19	56.733
467.54	57.152
467.89	56.967
468.24	57.185
468.59	56.527
468.94	59.164
469.29	56.920
469.64	57.817
469.99	59.284
470.34	58.317
470.68	59.157
471.03	58.568
471.38	57.083
471.73	58.531
472.08	58.768
472.43	58.687
472.78	57.667
473.13	58.516
473.48	59.285
473.83	58.995
474.17	59.490
474.52	59.655
474.87	58.974
475.22	57.581
475.57	57.722
475.92	59.179
476.27	58.229
476.61	59.606
476.96	58.468
477.31	59.096
477.66	58.937
478.01	59.211
478.36	57.727
478.70	60.224
479.05	60.249
479.40	59.741
479.75	58.206
480.10	58.284
480.45	59.236
480.79	59.822
481.14	60.110
481.49	58.955
481.84	58.807
482.19	59.434
482.53	59.801
482.88	59.136
483.23	59.061
483.58	58.557
483.92	60.487
484.27	58.972
484.62	58.531
484.97	58.106
485.31	56.288
485.66	55.273
486.01	55.478
486.36	56.813
486.70	58.854
487.05	57.018
487.40	57.505
487.75	57.861
488.09	56.980
488.44	58.593
488.79	58.437
489.13	59.604
489.48	60.073
489.83	59.825
490.17	61.123
490.52	60.553
490.87	61.062
491.22	60.299
491.56	60.880
491.91	61.546
492.26	60.849
492.60	60.990
492.95	60.543
493.30	59.600
493.64	60.602
493.99	61.185
494.34	61.333
494.68	61.751
495.03	60.373
495.37	61.947
495.72	61.346
496.07	61.567
496.41	63.363
496.76	61.416
497.11	62.789
497.45	61.686
497.80	62.231
498.14	60.658
498.49	62.933
498.84	61.748
499.18	62.232
499.53	61.861
499.87	61.921
500.22	61.569
500.56	62.481
500.91	62.808
501.26	62.737
501.60	61.675
501.95	62.174
502.29	62.305
502.64	62.565
502.98	61.667
503.33	61.795
503.67	60.776
504.02	62.337
504.36	62.598
504.71	62.513
505.06	61.308
505.40	63.124
505.75	62.703
506.09	63.448
506.44	61.855
506.78	63.322
507.13	62.410
507.47	62.911
507.82	63.294
508.16	63.679
508.51	63.472
508.85	64.130
509.19	63.579
509.54	63.795
509.88	63.085
510.23	62.998
510.57	64.550
510.92	64.178
511.26	64.062
511.61	62.581
511.95	64.009
512.30	65.695
512.64	63.773
512.98	64.411
513.33	63.317
513.67	63.596
514.02	64.765
514.36	64.211
514.70	64.403
515.05	65.866
515.39	64.129
515.74	64.980
516.08	65.245
516.42	65.382
516.77	65.222
517.11	64.874
517.46	66.268
517.80	66.968
518.14	66.184
518.49	66.707
518.83	64.985
519.17	65.187
519.52	63.389
519.86	65.890
520.20	66.993
520.55	67.077
520.89	66.374
521.23	65.018
521.58	66.332
521.92	67.511
522.26	67.111
522.61	66.730
522.95	67.071
523.29	66.270
523.64	67.395
523.98	67.027
524.32	65.556
524.66	65.466
525.01	65.639
525.35	66.044
525.69	67.274
526.04	66.971
526.38	66.264
526.72	65.262
527.06	66.406
527.41	67.525
527.75	66.139
528.09	68.365
528.43	66.098
528.78	65.766
529.12	67.093
529.46	66.753
529.80	66.236
530.15	65.808
530.49	66.171
530.83	66.077
531.17	67.407
531.51	65.171
531.86	65.569
532.20	66.397
532.54	66.176
532.88	65.876
533.22	66.377
533.57	67.689
533.91	64.419
534.25	64.111
534.59	64.585
534.93	63.597
535.27	64.884
535.62	66.432
535.96	65.094
536.30	65.183
536.64	65.671
536.98	67.655
537.32	66.275
537.66	66.395
538.01	66.048
538.35	66.419
538.69	65.374
539.03	64.794
539.37	65.536
539.71	64.910
540.05	66.210
540.39	65.789
540.73	66.206
541.07	66.598
541.42	65.496
541.76	63.787
542.10	65.969
542.44	64.957
542.78	65.807
543.12	65.716
543.46	64.863
543.80	64.682
544.14	64.338
544.48	65.092
544.82	65.562
545.16	66.398
545.50	62.921
545.84	64.882
546.18	66.644
546.52	64.794
546.86	65.242
547.20	67.440
547.54	63.154
547.88	64.698
548.22	64.679
548.56	63.594
548.90	62.871
549.24	64.401
549.58	65.420
549.92	65.088
550.26	64.812
550.60	64.723
550.94	64.891
551.28	64.936
551.62	65.066
551.96	65.195
552.30	64.181
552.64	66.080
552.98	64.821
553.32	64.646
553.66	66.402
554.00	65.387
554.34	64.477
554.68	66.228
555.02	64.978
555.36	63.695
555.69	65.258
556.03	64.982
556.37	66.216
556.71	64.639
557.05	66.593
557.39	66.370
557.73	65.864
558.07	67.144
558.41	65.146
558.75	66.920
559.08	65.447
559.42	66.692
559.76	65.874
560.10	66.518
560.44	66.185
560.78	65.553
561.12	63.630
561.45	66.164
561.79	65.645
562.13	64.797
562.47	63.866
562.81	63.720
563.15	64.171
563.48	65.100
563.82	64.233
564.16	63.556
564.50	64.583
564.84	63.823
565.17	64.191
565.51	63.820
565.85	66.261
566.19	65.679
566.52	63.340
566.86	62.769
567.20	62.349
567.54	62.611
567.88	63.540
568.21	62.248
568.55	62.619
568.89	61.183
569.23	59.972
569.56	59.269
569.90	58.851
570.24	59.263
570.57	57.329
570.91	57.565
571.25	57.685
571.59	57.946
571.92	56.548
572.26	56.471
572.60	55.880
572.93	55.931
573.27	55.305
573.61	55.521
573.95	55.349
574.28	55.101
574.62	55.465
574.96	54.835
575.29	55.259
575.63	55.084
575.97	55.016
576.30	55.440
576.64	55.117
576.98	53.969
577.31	54.470
577.65	54.887
577.98	54.121
578.32	54.767
578.66	54.610
578.99	54.836
579.33	54.660
579.67	54.857
580.00	54.712
580.34	54.966
580.67	54.793
581.01	53.496
581.35	54.597
581.68	53.282
582.02	53.828
582.35	53.900
582.69	54.880
583.02	54.841
583.36	54.457
583.70	55.479
584.03	55.981
584.37	55.291
584.70	55.564
585.04	54.304
585.37	53.675
585.71	53.895
586.04	55.420
586.38	54.771
586.72	55.468
587.05	56.471
587.39	55.176
587.72	55.376
588.06	55.626
588.39	55.882
588.73	56.035
589.06	57.065
589.40	55.926
589.73	56.728
590.07	57.174
590.40	57.232
590.73	56.857
591.07	58.279
591.40	59.315
591.74	57.385
592.07	58.288
592.41	58.344
592.74	56.879
593.08	56.196
593.41	56.447
593.75	55.984
594.08	57.764
594.41	57.523
594.75	56.776
595.08	57.594
595.42	56.647
595.75	56.523
596.09	57.392
596.42	59.124
596.75	57.395
597.09	58.415
597.42	58.053
597.75	57.440
598.09	57.569
598.42	57.932
598.76	57.060
599.09	56.511
599.42	56.055
599.76	55.681
600.09	57.061
600.42	56.362
600.76	57.702
601.09	56.210
601.42	57.420
601.76	56.620
602.09	57.382
602.42	57.160
602.76	57.416
603.09	57.298
603.42	57.655
603.76	57.399
604.09	56.628
604.42	56.869
604.76	57.130
605.09	57.052
605.42	57.979
605.75	57.352
606.09	56.787
606.42	57.185
606.75	56.720
607.09	58.094
607.42	58.055
607.75	57.395
608.08	57.433
608.42	58.231
608.75	56.589
609.08	58.792
609.41	58.495
609.75	58.264
610.08	58.431
610.41	58.458
610.74	58.269
611.07	57.961
611.41	57.791
611.74	59.023
612.07	60.150
612.40	58.635
612.73	57.674
613.07	59.218
613.40	59.606
613.73	59.128
614.06	57.770
614.39	60.034
614.72	58.101
615.06	58.043
615.39	58.058
615.72	58.284
616.05	57.703
616.38	58.793
616.71	59.459
617.05	60.374
617.38	60.495
617.71	60.319
618.04	60.559
618.37	61.321
618.70	61.082
619.03	60.122
619.36	61.875
619.69	61.809
620.03	60.675
620.36	61.392
620.69	63.819
621.02	62.557
621.35	62.823
621.68	63.197
622.01	62.864
622.34	63.121
622.67	62.734
623.00	64.346
623.33	62.463
623.66	62.112
623.99	61.203
624.32	62.202
624.65	61.369
624.99	62.733
625.32	61.826
625.65	61.849
625.98	62.911
626.31	64.029
626.64	62.343
626.97	63.613
627.30	63.745
627.63	62.090
627.96	65.013
628.29	63.603
628.62	63.992
628.95	65.650
629.28	64.286
629.61	64.475
629.94	65.784
630.26	66.998
630.59	66.935
630.92	66.266
631.25	65.927
631.58	67.725
631.91	67.340
632.24	69.333
632.57	66.222
632.90	67.126
633.23	68.107
633.56	65.263
633.89	68.750
634.22	69.185
634.55	68.389
634.88	68.682
635.20	66.792
635.53	70.483
635.86	67.254
636.19	66.911
636.52	67.861
636.85	67.870
637.18	65.750
637.51	70.384
637.83	69.241
638.16	70.658
638.49	71.310
638.82	70.013
639.15	70.428
639.48	67.056
639.81	69.156
640.13	67.703
640.46	70.370
640.79	70.168
641.12	69.958
641.45	69.010
641.77	72.754
642.10	70.695
642.43	69.347
642.76	70.551
643.09	72.063
643.41	71.111
643.74	71.542
644.07	72.231
644.40	71.151
644.73	71.782
645.05	69.783
645.38	73.013
645.71	75.430
646.04	75.630
646.36	72.426
646.69	72.318
647.02	75.271
647.35	75.451
647.67	73.175
648.00	73.462
648.33	72.007
648.66	69.355
648.98	71.815
649.31	70.154
649.64	74.063
649.96	69.545
650.29	70.164
650.62	73.838
650.94	69.815
651.27	72.617
651.60	70.588
651.92	73.973
652.25	68.948
652.58	70.017
652.90	69.502
653.23	68.710
653.56	69.565
653.88	69.016
654.21	71.477
654.54	69.934
654.86	69.502
655.19	67.622
655.52	58.881
655.84	51.828
656.17	54.798
656.49	73.699
656.82	76.708
657.15	58.498
657.47	43.301
657.80	33.796
658.13	38.874
658.45	52.339
658.78	51.269
659.10	52.279
659.43	52.174
659.75	52.872
660.08	54.688
660.41	56.465
660.73	61.386
661.06	66.377
661.38	71.786
661.71	69.598
662.03	72.984
662.36	74.414
662.68	69.409
663.01	73.248
663.33	73.243
663.66	74.034
663.98	72.545
664.31	73.378
664.63	77.212
664.96	71.584
665.28	76.356
665.61	75.476
665.93	72.222
666.26	71.862
666.58	70.686
666.91	73.051
667.23	72.368
667.56	72.562
667.88	73.982
668.21	71.889
668.53	76.402
668.86	74.827
669.18	76.256
669.50	74.065
669.83	77.129
670.15	71.076
670.48	75.234
670.80	74.260
671.13	74.944
671.45	72.523
671.77	69.593
672.10	70.020
672.42	66.605
672.75	65.091
673.07	65.405
673.39	64.845
673.72	69.291
674.04	73.248
674.37	67.835
674.69	71.107
675.01	69.574
675.34	70.065
675.66	70.194
675.98	71.586
676.31	72.398
676.63	74.943
676.95	69.912
677.28	71.462
677.60	72.851
677.92	72.907
678.25	69.584
678.57	69.136
678.89	68.973
679.22	67.086
679.54	68.245
679.86	66.400
680.18	69.772
680.51	65.922
680.83	68.571
681.15	65.125
681.48	69.777
681.80	69.556
682.12	68.612
682.44	66.012
682.77	68.615
683.09	68.553
683.41	70.354
683.73	71.005
684.06	68.387
684.38	67.155
684.70	67.490
685.02	64.173
685.34	66.277
685.67	65.720
685.99	65.595
686.31	67.325
686.63	64.894
686.96	65.250
687.28	63.584
687.60	66.016
687.92	63.035
688.24	67.717
688.56	63.928
688.89	67.308
689.21	69.147
689.53	73.563
689.85	66.592
690.17	69.058
690.49	66.744
690.82	70.602
691.14	63.915
691.46	68.736
691.78	70.264
692.10	66.525
692.42	65.111
692.74	68.455
693.06	70.112
693.39	66.667
693.71	67.720
694.03	65.659
694.35	65.463
694.67	68.794
694.99	68.286
695.31	67.602
695.63	67.092
695.95	70.223
696.27	66.334
696.59	69.251
696.91	71.629
697.23	72.135
697.56	68.269
697.88	64.189
698.20	65.953
698.52	62.332
698.84	67.961
699.16	65.000
699.48	68.250
699.80	69.674
700.12	69.773
700.44	67.039
700.76	70.554
701.08	67.442
701.40	70.091
701.72	71.914
702.04	72.756
702.36	73.193
702.68	70.359
703.00	71.304
703.32	61.032
703.64	67.647
703.96	70.640
704.28	66.864
704.60	68.671
704.91	70.159
705.23	72.168
705.55	69.932
705.87	68.601
706.19	65.625
706.51	70.833
706.83	72.787
707.15	70.064
707.47	69.972
707.79	66.753
708.11	63.359
708.43	64.838
708.74	64.675
709.06	66.017
709.38	63.218
709.70	69.062
710.02	71.166
710.34	69.967
710.66	69.206
710.98	69.716
711.29	69.355
711.61	67.732
711.93	65.902
712.25	67.110
712.57	66.551
712.89	68.705
713.20	70.103
713.52	69.030
713.84	70.463
714.16	70.492
714.48	69.841
714.80	66.769
715.11	62.536
715.43	68.976
715.75	71.963
716.07	65.902
716.39	65.886
716.70	68.641
717.02	68.148
717.34	70.992
717.66	77.178
717.97	69.262
718.29	75.630
718.61	73.413
718.93	63.799
719.24	68.015
719.56	63.774
719.88	67.273
720.20	67.416
720.51	68.797
720.83	73.494
721.15	68.443
721.46	67.451
721.78	68.582
722.10	71.600
722.42	69.421
722.73	66.534
723.05	67.068
723.37	64.314
723.68	62.753
724.00	65.041
724.32	71.605
724.63	62.656
724.95	68.182
725.27	69.737
725.58	64.655
725.90	65.873
726.22	67.528
726.53	65.399
726.85	66.275
727.16	72.556
727.48	61.154
727.80	64.344
728.11	67.647
728.43	70.248
728.74	65.234
729.06	60.227
729.38	62.257
729.69	60.630
730.01	70.079
730.32	62.550
730.64	63.004
730.96	67.164
731.27	62.500
731.59	62.379
731.90	60.123
732.22	57.669
732.53	66.556
732.85	60.067
733.16	64.493
733.48	60.976
733.80	59.786
734.11	58.966
734.43	63.605
734.74	60.831
735.06	62.696
735.37	59.021
735.69	57.742
736.00	60.606
736.32	62.914
736.63	60.000
736.95	62.681
737.26	56.623
737.58	66.906
737.89	63.799
738.21	59.774
738.52	58.462
738.83	63.672
739.15	61.111
739.46	63.306
739.78	58.741
740.09	62.587
740.41	60.490
740.72	66.788
741.04	61.508
741.35	59.307
741.66	62.963
741.98	64.762
742.29	61.972
742.61	67.380
742.92	66.822
743.23	61.404
743.55	66.216
743.86	67.111
744.18	63.333
744.49	68.966
744.80	69.036
745.12	73.196
745.43	63.317
745.74	70.874
746.06	62.927
746.37	65.198
746.68	65.174
747.00	65.969
747.31	66.346
747.62	56.682
747.94	64.629
748.25	68.372
748.56	63.810
748.88	61.413
749.19	59.624
749.50	75.490
749.82	68.889
750.13	66.960
750.44	65.854
750.75	66.800
751.07	58.571
751.38	57.565
751.69	64.122
752.01	62.308
752.32	57.977
752.63	61.154
752.94	59.524
753.26	68.696
753.57	64.286
753.88	58.190
754.19	63.900
754.51	59.375
754.82	57.708
755.13	58.848
755.44	62.397
755.75	64.609
756.07	57.430
756.38	62.500
756.69	59.928
757.00	59.582
757.31	60.067
757.63	58.567
757.94	58.960
758.25	58.430
758.56	58.491
758.87	57.955
759.18	51.667
759.50	62.989
759.81	59.854
760.12	56.081
760.43	60.194
760.74	59.688
761.05	54.213
761.36	57.784
761.67	57.101
761.99	53.871
762.30	61.594
762.61	56.226
762.92	64.574
763.23	66.351
763.54	60.444
763.85	59.072
764.16	58.367
764.47	63.136
764.78	58.427
765.10	60.791
765.41	55.806
765.72	53.774
766.03	49.823
766.34	59.023
766.65	53.846
766.96	60.500
767.27	63.021
767.58	61.628
767.89	65.806
768.20	67.485
768.51	71.038
768.82	61.081
769.13	56.000
769.44	57.456
769.75	62.771
770.06	59.633
770.37	60.563
770.68	58.333
770.99	61.386
771.30	58.252
771.61	56.481
771.92	50.649
772.23	55.607
772.54	58.511
772.85	57.396
773.16	65.854
773.47	63.855
773.78	55.495
774.09	66.667
774.39	62.963
774.70	59.732
775.01	63.043
775.32	60.448
775.63	52.066
775.94	66.165
776.25	63.571
776.56	73.770
776.87	67.257
777.18	71.681
777.48	60.000
777.79	53.043
778.10	61.468
778.41	54.237
778.72	69.421
779.03	69.403
779.34	66.917
779.65	60.784
779.95	71.014
780.26	53.741
780.57	62.931
780.88	62.963
781.19	62.626
781.50	59.200
781.80	54.902
782.11	57.051
782.42	53.012
782.73	56.204
783.04	57.432
783.34	62.121
783.65	57.364
783.96	63.415
784.27	70.940
784.57	57.724
784.88	49.593
785.19	62.281
785.50	45.361
785.81	55.238
786.11	59.804
786.42	45.455
786.73	58.559
787.04	60.396
787.34	43.810
787.65	61.905
787.96	64.706
788.26	63.964
788.57	58.871
788.88	55.469
789.19	48.718
789.49	60.504
789.80	53.846
790.11	50.442
790.41	59.596
790.72	57.547
791.03	72.222
791.33	65.789
791.64	58.065
791.95	61.333
792.25	52.857
792.56	52.439
792.87	44.898
793.17	65.789
793.48	41.892
793.79	47.887
794.09	53.165
794.40	63.830
794.70	51.402
795.01	45.614
795.32	50.000
795.62	39.286
795.93	47.423
796.23	51.648
796.54	60.000
796.85	43.836
797.15	36.111
797.46	52.055
797.76	59.155
798.07	50.000
798.37	51.471
798.68	65.714
798.99	55.714
799.29	67.105
799.60	48.333
799.90	48.611
800.21	42.188
800.51	46.032
800.82	44.262
801.12	66.667
801.43	29.577
801.73	38.983
802.04	67.213
802.34	58.182
802.65	59.615
802.95	59.259
803.26	52.500
803.56	61.538
803.87	26.316
804.17	56.452
804.48	55.385
804.78	20.513
805.09	72.093
805.39	50.000
805.70	33.962
806.00	68.421
806.30	50.000
806.61	39.706
806.91	37.037
807.22	50.667
807.52	46.269
807.83	41.935
808.13	30.159
808.43	43.636
808.74	53.030
809.04	45.283
809.35	56.164
809.65	66.667
809.95	52.941
810.26	74.510
810.56	42.000
810.86	59.184
811.17	65.714
811.47	48.077
811.77	51.613
812.08	28.947
812.38	45.238
812.69	2.174
812.99	61.290
813.29	30.952
813.59	11.111
813.90	53.191
814.20	51.163
814.50	27.083
814.81	43.333
815.11	48.780
815.41	6.667
815.72	68.571
816.02	22.222
816.32	58.974
816.62	40.541
816.93	52.941
817.23	39.130
817.53	44.118
817.84	41.176
818.14	59.375
818.44	44.828
818.74	0.000
819.04	59.259
819.35	63.333
819.65	-8.000
819.95	10.000
820.25	20.000
820.56	21.053
820.86	37.500
821.16	46.809
821.46	46.552
821.76	5.128
822.07	52.500
822.37	34.884
822.67	6.667
822.97	27.027
823.27	13.514
823.57	52.000
823.88	43.243
824.18	4.762
824.48	-3.846
824.78	30.769
825.08	34.783
825.38	62.500
825.69	37.500
825.99	-5.000
826.29	8.108
826.59	11.765
826.89	44.000
827.19	45.714
827.49	60.526
827.79	50.000
828.09	56.667
828.39	69.565
828.70	6.897
829.00	48.276
829.30	19.444
829.60	81.250
829.90	55.556
830.20	34.615
830.50	14.286
830.80	-17.857
831.10	20.513
831.40	-14.286
831.70	29.412
832.00	25.000
832.30	42.105
832.60	56.250
832.90	-25.000
833.20	-76.471
833.50	20.000
833.80	-46.667
834.10	-15.000
834.40	45.833
834.70	16.667
835.00	0.000
835.30	20.833
835.60	27.586
835.90	33.333
836.20	-45.455
836.50	8.333
836.80	48.571
837.10	68.571
837.40	-11.765
837.70	-18.182
838.00	37.500
838.30	31.250
838.60	-4.762
838.90	20.000
839.19	-8.696
839.49	-30.435
839.79	-33.333
840.09	13.043
840.39	9.091
840.69	-18.750
840.99	15.789
841.29	6.250
841.59	-42.857
841.88	16.667
842.18	-29.167
842.48	-5.882
842.78	31.034
843.08	-7.143
843.38	0.000
843.68	-66.667
843.97	-76.923
844.27	36.364
844.57	-20.000
844.87	8.000
845.17	20.000
845.47	-50.000
845.76	55.556
846.06	0.000
846.36	-375.000
846.66	-120.000
846.96	42.105
847.25	-16.667
847.55	-100.000
847.85	13.333
848.15	-70.000
848.44	50.000
848.74	31.579
849.04	300.000
849.34	0.000
849.63	-42.105
849.93	0.000
850.23	-45.000
850.53	33.333
850.82	40.000
851.12	5.263
851.42	-150.000
851.71	-21.429
852.01	-25.000
852.31	-17.647
852.61	6.667
852.90	-9.524
853.20	-200.000
853.50	-5.556
853.79	-21.053
854.09	-73.333
854.39	-7.143
854.68	39.130
854.98	-108.333
855.28	13.793
855.57	43.750
855.87	35.000
856.17	-13.333
856.46	17.241
856.76	20.000
857.05	-76.471
857.35	-69.231
857.65	45.455
857.94	-33.333
858.24	-64.286
858.53	-78.571
858.83	-91.667
859.13	-77.778
859.42	71.429
859.72	-87.500
860.01	-133.333
860.31	-125.000
860.60	-100.000
860.90	-88.889
861.20	-50.000
861.49	-42.857
861.79	29.412
862.08	-900.000
862.38	-16.667
862.67	-53.846
862.97	-11.765
863.26	10.000
863.56	-76.471
863.85	566.667
864.15	-130.000
864.44	69.231
864.74	-5.000
865.03	-162.500
865.33	-200.000
865.62	-47.059
865.92	-600.000
866.21	-57.143
866.51	-108.333
866.80	-600.000
867.10	-366.667
867.39	5.882
867.69	39.130
867.98	57.143
868.27	-220.000
868.57	-93.750
868.86	-154.545
869.16	-11.765
869.45	16.667
869.75	-85.714
870.04	1400.000
870.33	-41.667
870.63	-60.000
870.92	-22.222
871.22	-58.333
871.51	-36.364
871.80	8.333
872.10	50.000
>>>>>End Processed Spectral Data<<<<<
