SpectraSuite Data File
++++++++++++++++++++++++++++++++++++
Date: Sat May 16 11:42:30 PDT 2015
User: schluterlab
Dark Spectrum Present: Yes
Reference Spectrum Present: Yes
Number of Sampled Component Spectra: 1
Spectrometers: USB2E3373
Integration Time (usec): 3000 (USB2E3373)
Spectra Averaged: 3 (USB2E3373)
Boxcar Smoothing: 0 (USB2E3373)
Correct for Electrical Dark: No (USB2E3373)
Strobe/Lamp Enabled: No (USB2E3373)
Correct for Detector Non-linearity: No (USB2E3373)
Correct for Stray Light: No (USB2E3373)
Number of Pixels in Processed Spectrum: 2048
>>>>>Begin Processed Spectral Data<<<<<
178.53	0.000
178.91	93.333
179.29	366.667
179.67	-1400.000
180.04	-84.615
180.42	1100.000
180.80	350.000
181.18	425.000
181.56	-75.000
181.94	2000.000
182.31	350.000
182.69	-30.769
183.07	-433.333
183.45	1000.000
183.83	566.667
184.20	-185.714
184.58	-200.000
184.96	-325.000
185.34	125.000
185.72	-425.000
186.09	283.333
186.47	-87.500
186.85	-275.000
187.23	0.000
187.61	-300.000
187.98	-225.000
188.36	-237.500
188.74	-225.000
189.12	1300.000
189.49	214.286
189.87	-58.333
190.25	375.000
190.63	-42.857
191.00	-55.556
191.38	380.000
191.76	-20.000
192.14	400.000
192.51	-160.000
192.89	-333.333
193.27	0.000
193.65	-77.778
194.02	-171.429
194.40	500.000
194.78	-180.000
195.15	-900.000
195.53	-200.000
195.91	-483.333
196.29	200.000
196.66	-800.000
197.04	3100.000
197.42	-325.000
197.79	-26.667
198.17	-533.333
198.55	-800.000
198.92	-1500.000
199.30	287.500
199.68	-900.000
200.05	-133.333
200.43	-233.333
200.81	-2100.000
201.18	-133.333
201.56	300.000
201.94	-33.333
202.31	18.182
202.69	0.000
203.07	-130.000
203.44	566.667
203.82	-200.000
204.19	-350.000
204.57	-400.000
204.95	-1600.000
205.32	-25.000
205.70	1600.000
206.08	-2300.000
206.45	-33.333
206.83	-900.000
207.20	-100.000
207.58	-1066.667
207.96	-166.667
208.33	-125.000
208.71	-88.889
209.08	240.000
209.46	-300.000
209.84	950.000
210.21	0.000
210.59	20.000
210.96	1400.000
211.34	-166.667
211.71	-133.333
212.09	300.000
212.46	950.000
212.84	-2100.000
213.22	600.000
213.59	175.000
213.97	-111.111
214.34	170.000
214.72	-130.000
215.09	-300.000
215.47	-250.000
215.84	-130.000
216.22	-130.000
216.59	-20.000
216.97	-300.000
217.34	1150.000
217.72	-114.286
218.09	-300.000
218.47	-171.429
218.84	114.286
219.22	-14.286
219.59	0.000
219.97	214.286
220.34	575.000
220.72	225.000
221.09	7.692
221.47	0.000
221.84	366.667
222.22	-700.000
222.59	1200.000
222.97	-212.500
223.34	-850.000
223.72	-500.000
224.09	-64.286
224.46	-600.000
224.84	-28.571
225.21	-42.857
225.59	-72.727
225.96	-112.500
226.34	-57.143
226.71	-177.778
227.08	0.000
227.46	2500.000
227.83	-214.286
228.21	-187.500
228.58	300.000
228.95	-50.000
229.33	-2200.000
229.70	-480.000
230.08	-1300.000
230.45	-91.667
230.82	-350.000
231.20	-1600.000
231.57	-800.000
231.95	1500.000
232.32	-23.810
232.69	-100.000
233.07	-157.143
233.44	-1200.000
233.81	-60.000
234.19	-77.778
234.56	-43.750
234.93	-34.375
235.31	-257.143
235.68	-114.286
236.05	-82.353
236.43	-54.545
236.80	-22.581
237.17	-25.000
237.55	-19.048
237.92	-77.273
238.29	-22.857
238.67	8.824
239.04	-30.556
239.41	-35.484
239.79	-48.718
240.16	-21.429
240.53	-23.636
240.91	-30.769
241.28	-9.091
241.65	1.538
242.02	-27.869
242.40	-24.590
242.77	-13.636
243.14	-25.424
243.51	-32.857
243.89	-25.316
244.26	-12.360
244.63	-10.526
245.00	-1.053
245.38	-13.559
245.75	-12.389
246.12	-4.000
246.49	-9.449
246.87	-13.821
247.24	-11.017
247.61	-13.559
247.98	-11.268
248.36	-11.888
248.73	-5.063
249.10	-5.096
249.47	-5.848
249.84	0.000
250.22	-13.690
250.59	-5.085
250.96	-6.806
251.33	-5.213
251.70	-4.327
252.08	0.474
252.45	-5.213
252.82	-6.667
253.19	-5.106
253.56	-5.242
253.94	-5.907
254.31	-5.150
254.68	-4.472
255.05	-4.839
255.42	-3.968
255.79	-3.584
256.16	-1.569
256.54	-5.147
256.91	-7.955
257.28	-3.663
257.65	-4.965
258.02	1.572
258.39	-4.013
258.76	-3.716
259.14	-3.395
259.51	-2.623
259.88	-4.268
260.25	-2.174
260.62	-3.859
260.99	-4.451
261.36	-3.659
261.73	-2.312
262.10	0.556
262.47	-4.843
262.85	-2.571
263.22	-5.158
263.59	-6.154
263.96	-3.478
264.33	-1.355
264.70	-2.210
265.07	-2.747
265.44	-1.292
265.81	-2.067
266.18	-3.038
266.55	-3.922
266.92	-2.015
267.29	-2.179
267.66	-2.222
268.03	-0.966
268.40	0.235
268.77	-0.723
269.14	-4.408
269.51	-0.230
269.88	-5.046
270.25	-2.098
270.62	-1.831
270.99	-1.126
271.36	-2.564
271.73	-3.812
272.10	-3.661
272.47	-3.111
272.84	0.000
273.21	0.459
273.58	-1.978
273.95	-1.535
274.32	0.905
274.69	-1.094
275.06	0.409
275.43	-3.795
275.80	-1.833
276.17	-1.883
276.54	0.815
276.91	-2.263
277.28	-2.028
277.65	-3.099
278.02	0.000
278.39	0.982
278.76	-1.992
279.13	0.198
279.50	-1.392
279.87	-0.846
280.23	-1.215
280.60	-0.994
280.97	-1.553
281.34	-1.161
281.71	0.192
282.08	2.218
282.45	-5.499
282.82	-3.488
283.19	0.000
283.56	0.183
283.92	-1.590
284.29	-1.301
284.66	-2.158
285.03	0.178
285.40	-0.185
285.77	-0.526
286.14	-0.181
286.51	-2.131
286.87	-0.363
287.24	-1.365
287.61	0.496
287.98	-1.386
288.35	-0.826
288.72	-0.340
289.08	-1.695
289.45	0.168
289.82	-2.249
290.19	0.657
290.56	-1.983
290.93	-1.113
291.29	-1.621
291.66	-0.161
292.03	-0.157
292.40	-1.506
292.77	-1.242
293.13	-1.626
293.50	-0.446
293.87	-0.767
294.24	-0.905
294.60	-2.424
294.97	-0.910
295.34	-0.444
295.71	-0.744
296.08	-3.533
296.44	-1.860
296.81	-0.997
297.18	-1.127
297.55	0.282
297.91	0.418
298.28	-1.233
298.65	-1.116
299.02	0.134
299.38	-0.267
299.75	-0.543
300.12	0.641
300.48	-0.895
300.85	-1.442
301.22	0.388
301.59	-0.910
301.95	0.630
302.32	-0.652
302.69	0.122
303.05	0.000
303.42	-0.375
303.79	-0.120
304.15	0.829
304.52	-0.817
304.89	0.708
305.25	-1.465
305.62	0.353
305.99	1.767
306.35	0.333
306.72	-0.797
307.09	2.043
307.45	-0.341
307.82	1.341
308.19	0.671
308.55	0.218
308.92	0.215
309.29	0.432
309.65	0.424
310.02	0.108
310.38	1.189
310.75	0.922
311.12	1.550
311.48	1.670
311.85	1.442
312.22	2.266
312.58	2.543
312.95	2.548
313.31	3.197
313.68	3.719
314.05	2.967
314.41	1.308
314.78	2.498
315.14	3.653
315.51	1.520
315.87	3.679
316.24	3.207
316.61	3.263
316.97	4.279
317.34	3.854
317.70	3.247
318.07	5.131
318.43	4.307
318.80	4.977
319.16	5.441
319.53	4.229
319.89	3.763
320.26	5.882
320.62	5.096
320.99	5.473
321.35	5.123
321.72	5.629
322.08	7.023
322.45	6.634
322.81	7.397
323.18	7.493
323.54	8.133
323.91	9.361
324.27	8.175
324.64	8.958
325.00	9.948
325.37	11.403
325.73	12.161
326.10	10.806
326.46	11.996
326.83	12.511
327.19	13.344
327.56	15.077
327.92	14.528
328.29	14.545
328.65	13.636
329.01	15.459
329.38	17.038
329.74	16.575
330.11	17.951
330.47	18.710
330.84	18.515
331.20	17.599
331.56	16.682
331.93	17.229
332.29	19.361
332.66	17.823
333.02	19.005
333.38	19.803
333.75	18.611
334.11	19.022
334.48	18.711
334.84	20.122
335.20	19.592
335.57	20.217
335.93	20.949
336.29	19.841
336.66	19.824
337.02	20.541
337.38	20.143
337.75	20.369
338.11	20.841
338.47	19.929
338.84	19.782
339.20	20.211
339.56	20.677
339.93	19.136
340.29	19.221
340.65	19.231
341.02	20.152
341.38	19.882
341.74	19.898
342.11	20.222
342.47	20.773
342.83	20.487
343.20	21.520
343.56	18.531
343.92	20.451
344.28	21.447
344.65	19.637
345.01	19.496
345.37	20.432
345.73	19.149
346.10	19.706
346.46	19.009
346.82	19.487
347.19	20.214
347.55	20.867
347.91	19.606
348.27	19.173
348.63	20.194
349.00	21.161
349.36	18.189
349.72	20.223
350.08	20.209
350.45	19.149
350.81	19.347
351.17	19.051
351.53	20.127
351.89	20.129
352.26	20.853
352.62	20.968
352.98	20.411
353.34	19.424
353.70	18.919
354.07	20.535
354.43	20.000
354.79	19.889
355.15	20.367
355.51	20.000
355.87	19.526
356.24	19.063
356.60	20.951
356.96	20.477
357.32	18.686
357.68	19.234
358.04	20.708
358.40	19.258
358.77	19.243
359.13	19.587
359.49	19.879
359.85	19.893
360.21	19.939
360.57	20.482
360.93	20.000
361.29	20.553
361.66	19.131
362.02	19.749
362.38	20.176
362.74	19.927
363.10	19.154
363.46	20.014
363.82	20.627
364.18	19.899
364.54	20.372
364.90	19.147
365.26	19.044
365.62	20.884
365.98	20.484
366.35	20.493
366.71	19.168
367.07	20.607
367.43	21.139
367.79	20.962
368.15	20.128
368.51	19.860
368.87	20.604
369.23	20.491
369.59	19.931
369.95	20.155
370.31	20.394
370.67	19.523
371.03	19.752
371.39	19.661
371.75	19.599
372.11	20.875
372.47	20.463
372.83	21.001
373.19	19.571
373.55	19.493
373.91	19.417
374.27	19.576
374.63	19.945
374.99	20.097
375.35	19.448
375.71	21.404
376.07	20.876
376.42	19.801
376.78	20.392
377.14	21.627
377.50	20.954
377.86	20.546
378.22	20.666
378.58	20.506
378.94	19.914
379.30	21.450
379.66	20.704
380.02	20.202
380.38	21.088
380.74	20.399
381.09	20.621
381.45	20.048
381.81	21.295
382.17	20.927
382.53	20.426
382.89	19.856
383.25	20.891
383.61	21.757
383.97	21.494
384.32	21.026
384.68	21.463
385.04	20.350
385.40	20.694
385.76	21.037
386.12	21.611
386.48	21.040
386.83	20.920
387.19	20.921
387.55	21.442
387.91	21.636
388.27	19.783
388.62	20.853
388.98	21.078
389.34	20.441
389.70	21.011
390.06	20.075
390.42	21.603
390.77	20.694
391.13	21.739
391.49	20.774
391.85	21.259
392.20	20.267
392.56	20.648
392.92	21.164
393.28	22.044
393.64	21.527
393.99	21.354
394.35	21.776
394.71	21.309
395.07	21.030
395.42	20.501
395.78	21.056
396.14	22.368
396.50	20.306
396.85	22.147
397.21	20.899
397.57	21.094
397.92	21.604
398.28	20.944
398.64	20.940
399.00	21.404
399.35	20.349
399.71	21.312
400.07	21.731
400.42	21.229
400.78	20.215
401.14	21.976
401.49	21.050
401.85	20.500
402.21	21.216
402.57	21.238
402.92	21.397
403.28	21.324
403.63	20.851
403.99	21.442
404.35	20.954
404.70	20.714
405.06	21.684
405.42	20.172
405.77	20.475
406.13	20.613
406.49	21.150
406.84	21.296
407.20	21.378
407.55	20.773
407.91	20.078
408.27	21.324
408.62	21.046
408.98	20.861
409.34	21.268
409.69	20.857
410.05	21.104
410.40	20.294
410.76	21.577
411.11	21.322
411.47	20.588
411.83	21.088
412.18	20.483
412.54	20.500
412.89	21.264
413.25	19.717
413.60	21.142
413.96	20.579
414.31	20.856
414.67	20.190
415.03	21.151
415.38	21.080
415.74	21.778
416.09	22.123
416.45	21.362
416.80	22.042
417.16	21.661
417.51	21.996
417.87	20.841
418.22	21.555
418.58	21.053
418.93	21.766
419.29	21.330
419.64	21.294
420.00	22.236
420.35	20.993
420.71	21.549
421.06	21.953
421.42	21.429
421.77	22.557
422.12	22.216
422.48	21.807
422.83	22.779
423.19	20.713
423.54	22.536
423.90	21.747
424.25	22.059
424.61	21.954
424.96	23.698
425.31	22.303
425.67	22.350
426.02	21.400
426.38	22.202
426.73	22.443
427.09	22.488
427.44	22.386
427.79	22.558
428.15	23.459
428.50	22.991
428.85	22.122
429.21	22.357
429.56	22.240
429.92	22.495
430.27	22.233
430.62	22.780
430.98	22.530
431.33	23.533
431.68	23.324
432.04	23.671
432.39	23.590
432.74	23.561
433.10	23.129
433.45	23.258
433.80	22.620
434.16	23.858
434.51	23.836
434.86	23.374
435.22	23.664
435.57	23.990
435.92	23.681
436.28	24.095
436.63	24.194
436.98	23.196
437.34	23.509
437.69	23.921
438.04	24.107
438.39	24.489
438.75	23.690
439.10	24.375
439.45	24.019
439.81	23.855
440.16	23.793
440.51	24.765
440.86	24.523
441.22	24.102
441.57	24.000
441.92	25.013
442.27	24.459
442.63	24.517
442.98	23.984
443.33	24.163
443.68	25.221
444.03	25.049
444.39	25.061
444.74	24.835
445.09	25.000
445.44	25.042
445.79	25.293
446.15	25.520
446.50	24.769
446.85	24.423
447.20	24.719
447.55	25.249
447.91	24.986
448.26	24.525
448.61	24.958
448.96	25.938
449.31	25.648
449.66	26.445
450.02	24.543
450.37	25.855
450.72	25.593
451.07	26.461
451.42	25.279
451.77	26.152
452.12	27.235
452.47	25.252
452.83	25.684
453.18	26.565
453.53	26.057
453.88	27.033
454.23	25.333
454.58	26.849
454.93	26.574
455.28	25.813
455.63	25.921
455.98	26.446
456.34	25.731
456.69	26.767
457.04	25.876
457.39	25.658
457.74	27.171
458.09	25.754
458.44	26.386
458.79	26.962
459.14	25.898
459.49	26.761
459.84	25.913
460.19	26.372
460.54	25.771
460.89	25.729
461.24	25.926
461.59	26.260
461.94	27.116
462.29	27.040
462.64	27.207
462.99	26.707
463.34	26.604
463.69	26.527
464.04	26.596
464.39	26.045
464.74	26.478
465.09	25.376
465.44	26.058
465.79	26.565
466.14	26.985
466.49	26.540
466.84	27.731
467.19	26.434
467.54	25.759
467.89	26.510
468.24	27.316
468.59	26.733
468.94	27.588
469.29	26.901
469.64	26.887
469.99	27.819
470.34	27.589
470.68	28.343
471.03	27.942
471.38	26.875
471.73	27.552
472.08	27.309
472.43	27.606
472.78	27.200
473.13	27.568
473.48	27.250
473.83	27.667
474.17	27.707
474.52	28.005
474.87	27.448
475.22	27.552
475.57	26.778
475.92	27.538
476.27	27.029
476.61	27.606
476.96	27.166
477.31	27.287
477.66	26.508
478.01	27.769
478.36	27.030
478.70	26.695
479.05	27.150
479.40	26.943
479.75	26.707
480.10	27.480
480.45	26.692
480.79	27.493
481.14	27.496
481.49	26.912
481.84	27.184
482.19	27.364
482.53	27.936
482.88	27.717
483.23	26.995
483.58	27.891
483.92	28.141
484.27	26.850
484.62	26.782
484.97	27.202
485.31	26.080
485.66	25.355
486.01	25.551
486.36	26.350
486.70	27.712
487.05	27.171
487.40	26.736
487.75	26.446
488.09	26.745
488.44	26.996
488.79	27.485
489.13	27.235
489.48	28.059
489.83	27.729
490.17	27.471
490.52	28.080
490.87	27.575
491.22	27.884
491.56	27.454
491.91	28.435
492.26	27.689
492.60	27.069
492.95	27.987
493.30	27.632
493.64	27.927
493.99	27.677
494.34	28.190
494.68	27.622
495.03	27.533
495.37	27.581
495.72	28.242
496.07	27.874
496.41	27.652
496.76	28.037
497.11	28.168
497.45	28.161
497.80	28.164
498.14	28.684
498.49	27.574
498.84	26.990
499.18	28.704
499.53	27.180
499.87	27.558
500.22	27.353
500.56	27.864
500.91	27.882
501.26	28.530
501.60	27.588
501.95	28.068
502.29	27.208
502.64	27.911
502.98	27.647
503.33	27.632
503.67	26.964
504.02	27.668
504.36	27.990
504.71	27.761
505.06	26.311
505.40	28.743
505.75	28.404
506.09	28.210
506.44	28.070
506.78	27.647
507.13	27.446
507.47	28.638
507.82	28.240
508.16	28.238
508.51	27.821
508.85	27.795
509.19	27.211
509.54	28.488
509.88	28.191
510.23	28.616
510.57	28.466
510.92	28.947
511.26	28.230
511.61	27.538
511.95	28.987
512.30	27.927
512.64	28.269
512.98	28.603
513.33	28.501
513.67	27.862
514.02	27.629
514.36	28.199
514.70	28.297
515.05	28.988
515.39	29.066
515.74	29.087
516.08	28.415
516.42	27.252
516.77	28.134
517.11	28.146
517.46	29.844
517.80	29.182
518.14	28.563
518.49	28.631
518.83	28.546
519.17	28.182
519.52	27.820
519.86	28.853
520.20	28.117
520.55	29.108
520.89	28.178
521.23	28.144
521.58	28.213
521.92	27.866
522.26	28.889
522.61	28.264
522.95	27.760
523.29	27.962
523.64	27.670
523.98	28.262
524.32	28.661
524.66	27.764
525.01	28.966
525.35	28.415
525.69	27.977
526.04	28.264
526.38	28.581
526.72	28.033
527.06	28.451
527.41	28.383
527.75	27.459
528.09	28.127
528.43	27.869
528.78	28.078
529.12	28.041
529.46	26.933
529.80	27.502
530.15	27.302
530.49	27.038
530.83	28.815
531.17	28.013
531.51	26.658
531.86	27.913
532.20	28.205
532.54	28.209
532.88	27.668
533.22	27.473
533.57	27.676
533.91	26.654
534.25	25.959
534.59	26.671
534.93	26.820
535.27	27.753
535.62	28.133
535.96	27.473
536.30	26.963
536.64	27.424
536.98	28.037
537.32	27.574
537.66	27.970
538.01	26.667
538.35	27.027
538.69	27.139
539.03	27.353
539.37	28.210
539.71	26.751
540.05	27.964
540.39	27.978
540.73	27.574
541.07	26.776
541.42	26.469
541.76	25.714
542.10	27.616
542.44	27.115
542.78	27.273
543.12	27.020
543.46	25.890
543.80	26.689
544.14	25.588
544.48	26.706
544.82	26.725
545.16	26.828
545.50	25.841
545.84	26.912
546.18	27.393
546.52	26.671
546.86	26.994
547.20	27.567
547.54	25.551
547.88	25.946
548.22	26.474
548.56	25.919
548.90	26.617
549.24	25.018
549.58	26.112
549.92	26.360
550.26	26.373
550.60	26.245
550.94	26.642
551.28	26.486
551.62	26.514
551.96	26.411
552.30	26.063
552.64	25.968
552.98	26.980
553.32	26.335
553.66	26.748
554.00	26.866
554.34	25.199
554.68	25.512
555.02	26.339
555.36	25.234
555.69	25.501
556.03	25.474
556.37	25.320
556.71	26.056
557.05	26.090
557.39	25.093
557.73	27.206
558.07	26.375
558.41	24.907
558.75	25.399
559.08	24.747
559.42	26.417
559.76	25.690
560.10	25.951
560.44	26.084
560.78	25.539
561.12	25.604
561.45	26.027
561.79	25.575
562.13	25.596
562.47	24.300
562.81	24.823
563.15	24.353
563.48	26.399
563.82	24.746
564.16	25.085
564.50	25.470
564.84	24.405
565.17	25.531
565.51	25.098
565.85	26.910
566.19	25.033
566.52	24.984
566.86	25.158
567.20	25.424
567.54	25.340
567.88	24.344
568.21	24.273
568.55	24.549
568.89	24.105
569.23	23.230
569.56	23.792
569.90	23.289
570.24	23.901
570.57	22.777
570.91	22.951
571.25	22.795
571.59	22.822
571.92	22.887
572.26	23.038
572.60	22.898
572.93	22.948
573.27	22.409
573.61	22.139
573.95	22.858
574.28	22.268
574.62	22.471
574.96	22.084
575.29	22.409
575.63	22.458
575.97	22.411
576.30	22.143
576.64	22.820
576.98	22.145
577.31	21.979
577.65	22.523
577.98	21.798
578.32	21.995
578.66	22.330
578.99	22.140
579.33	22.130
579.67	22.419
580.00	21.974
580.34	22.162
580.67	22.236
581.01	21.732
581.35	21.776
581.68	21.660
582.02	21.718
582.35	21.775
582.69	22.379
583.02	22.502
583.36	22.331
583.70	21.864
584.03	22.064
584.37	22.273
584.70	21.623
585.04	21.848
585.37	21.838
585.71	22.134
586.04	22.138
586.38	21.973
586.72	21.843
587.05	22.118
587.39	21.633
587.72	21.874
588.06	21.733
588.39	22.586
588.73	22.028
589.06	22.283
589.40	22.776
589.73	22.380
590.07	22.251
590.40	22.362
590.73	22.591
591.07	22.541
591.40	23.224
591.74	22.502
592.07	22.117
592.41	22.548
592.74	21.483
593.08	21.970
593.41	21.875
593.75	21.629
594.08	22.466
594.41	22.625
594.75	20.951
595.08	22.632
595.42	21.929
595.75	21.720
596.09	21.925
596.42	21.727
596.75	22.380
597.09	22.974
597.42	21.912
597.75	21.701
598.09	22.594
598.42	22.227
598.76	21.968
599.09	21.705
599.42	21.722
599.76	21.971
600.09	21.985
600.42	21.838
600.76	21.996
601.09	21.534
601.42	21.686
601.76	21.768
602.09	21.554
602.42	21.523
602.76	21.396
603.09	21.855
603.42	21.595
603.76	21.619
604.09	21.946
604.42	21.565
604.76	21.762
605.09	21.790
605.42	22.163
605.75	21.604
606.09	20.756
606.42	20.947
606.75	21.683
607.09	22.011
607.42	20.951
607.75	21.810
608.08	22.368
608.42	21.429
608.75	21.589
609.08	21.627
609.41	20.927
609.75	20.527
610.08	21.422
610.41	22.072
610.74	21.615
611.07	22.008
611.41	20.928
611.74	21.645
612.07	22.019
612.40	21.215
612.73	21.648
613.07	20.804
613.40	22.660
613.73	21.689
614.06	21.142
614.39	21.928
614.72	20.894
615.06	20.435
615.39	21.161
615.72	21.510
616.05	21.093
616.38	21.822
616.71	21.742
617.05	21.773
617.38	21.238
617.71	20.946
618.04	20.994
618.37	20.943
618.70	21.773
619.03	21.124
619.36	22.551
619.69	23.116
620.03	21.832
620.36	20.886
620.69	21.393
621.02	21.157
621.35	22.016
621.68	20.984
622.01	20.793
622.34	21.584
622.67	20.859
623.00	22.494
623.33	22.090
623.66	20.679
623.99	21.955
624.32	20.312
624.65	21.781
624.99	20.986
625.32	20.883
625.65	20.901
625.98	21.674
626.31	23.083
626.64	21.590
626.97	21.147
627.30	21.702
627.63	20.035
627.96	21.062
628.29	21.140
628.62	19.771
628.95	21.358
629.28	22.086
629.61	21.394
629.94	21.834
630.26	21.372
630.59	22.412
630.92	21.021
631.25	21.875
631.58	21.693
631.91	20.851
632.24	22.000
632.57	21.222
632.90	23.103
633.23	21.262
633.56	20.702
633.89	21.698
634.22	21.370
634.55	21.034
634.88	22.249
635.20	19.600
635.53	23.537
635.86	20.277
636.19	20.635
636.52	21.744
636.85	20.818
637.18	20.250
637.51	21.933
637.83	20.506
638.16	20.263
638.49	21.103
638.82	20.463
639.15	23.087
639.48	20.104
639.81	21.853
640.13	20.946
640.46	21.510
640.79	22.689
641.12	21.580
641.45	22.095
641.77	20.509
642.10	19.940
642.43	20.637
642.76	21.102
643.09	20.952
643.41	22.698
643.74	21.304
644.07	21.217
644.40	21.394
644.73	21.617
645.05	20.367
645.38	23.344
645.71	22.852
646.04	19.832
646.36	20.070
646.69	22.318
647.02	21.119
647.35	22.022
647.67	21.533
648.00	21.793
648.33	21.585
648.66	19.839
648.98	18.949
649.31	21.692
649.64	23.281
649.96	19.466
650.29	19.344
650.62	19.621
650.94	22.597
651.27	21.664
651.60	19.896
651.92	22.260
652.25	20.367
652.58	18.399
652.90	19.743
653.23	19.839
653.56	17.726
653.88	20.000
654.21	20.973
654.54	18.937
654.86	21.348
655.19	20.057
655.52	19.426
655.84	17.912
656.17	19.011
656.49	26.139
656.82	27.298
657.15	20.922
657.47	15.444
657.80	11.782
658.13	13.493
658.45	17.993
658.78	18.030
659.10	17.808
659.43	17.728
659.75	17.585
660.08	18.229
660.41	17.896
660.73	17.052
661.06	20.725
661.38	21.250
661.71	18.929
662.03	18.952
662.36	22.601
662.68	16.034
663.01	23.567
663.33	20.408
663.66	21.674
663.98	17.857
664.31	17.897
664.63	22.345
664.96	18.655
665.28	16.052
665.61	19.662
665.93	19.547
666.26	20.040
666.58	18.919
666.91	19.822
667.23	21.053
667.56	19.728
667.88	20.588
668.21	19.585
668.53	16.355
668.86	22.864
669.18	18.493
669.50	17.056
669.83	17.762
670.15	21.076
670.48	18.458
670.80	17.540
671.13	16.704
671.45	16.667
671.77	18.844
672.10	20.118
672.42	20.111
672.75	16.727
673.07	19.279
673.39	18.397
673.72	20.866
674.04	17.834
674.37	19.794
674.69	19.877
675.01	16.383
675.34	17.137
675.66	21.166
675.98	15.419
676.31	17.195
676.63	18.621
676.95	19.912
677.28	19.026
677.60	19.457
677.92	18.062
678.25	18.381
678.57	18.930
678.89	17.191
679.22	17.191
679.54	19.329
679.86	17.200
680.18	18.251
680.51	15.456
680.83	19.238
681.15	18.112
681.48	18.458
681.80	17.137
682.12	17.304
682.44	18.075
682.77	15.801
683.09	19.078
683.41	19.690
683.73	19.178
684.06	18.280
684.38	19.247
684.70	16.872
685.02	14.173
685.34	13.840
685.67	18.182
685.99	13.611
686.31	19.031
686.63	16.844
686.96	17.375
687.28	15.607
687.60	16.992
687.92	15.175
688.24	17.323
688.56	16.633
688.89	13.889
689.21	17.505
689.53	16.782
689.85	16.927
690.17	15.919
690.49	17.321
690.82	16.627
691.14	15.802
691.46	17.295
691.78	14.978
692.10	17.585
692.42	13.556
692.74	15.665
693.06	16.629
693.39	16.555
693.71	17.156
694.03	15.983
694.35	15.350
694.67	14.421
694.99	12.788
695.31	16.327
695.63	13.265
695.95	16.625
696.27	15.461
696.59	17.914
696.91	18.258
697.23	15.625
697.56	13.462
697.88	16.216
698.20	14.989
698.52	14.126
698.84	15.291
699.16	16.429
699.48	14.750
699.80	16.291
700.12	17.632
700.44	12.849
700.76	13.411
701.08	15.698
701.40	12.689
701.72	15.123
702.04	14.744
702.36	15.060
702.68	13.473
703.00	13.913
703.32	14.040
703.64	18.529
703.96	16.860
704.28	15.680
704.60	12.975
704.91	11.429
705.23	16.505
705.55	13.514
705.87	15.358
706.19	13.542
706.51	9.722
706.83	16.721
707.15	16.242
707.47	18.457
707.79	12.629
708.11	13.486
708.43	17.207
708.74	14.286
709.06	14.763
709.38	15.230
709.70	5.937
710.02	15.644
710.34	14.191
710.66	8.571
710.98	13.565
711.29	11.935
711.61	14.696
711.93	13.770
712.25	16.279
712.57	16.725
712.89	11.511
713.20	13.402
713.52	9.701
713.84	13.879
714.16	14.098
714.48	13.651
714.80	12.923
715.11	14.986
715.43	17.771
715.75	16.822
716.07	12.787
716.39	12.709
716.70	14.634
717.02	12.222
717.34	14.885
717.66	14.108
717.97	15.574
718.29	11.765
718.61	18.254
718.93	15.054
719.24	12.500
719.56	11.321
719.88	13.818
720.20	12.360
720.51	16.541
720.83	12.450
721.15	11.475
721.46	12.157
721.78	12.644
722.10	12.000
722.42	11.157
722.73	13.944
723.05	13.655
723.37	13.725
723.68	13.360
724.00	16.260
724.32	10.288
724.63	7.884
724.95	16.116
725.27	8.333
725.58	10.776
725.90	9.524
726.22	18.081
726.53	17.110
726.85	8.627
727.16	18.421
727.48	11.923
727.80	7.787
728.11	15.126
728.43	8.264
728.74	16.016
729.06	14.015
729.38	13.230
729.69	8.268
730.01	12.205
730.32	4.781
730.64	16.117
730.96	13.806
731.27	8.214
731.59	12.540
731.90	12.577
732.22	13.497
732.53	13.245
732.85	9.396
733.16	7.246
733.48	9.408
733.80	5.694
734.11	14.138
734.43	12.245
734.74	14.243
735.06	11.912
735.37	11.621
735.69	8.065
736.00	10.774
736.32	16.225
736.63	9.310
736.95	11.232
737.26	12.583
737.58	12.230
737.89	17.204
738.21	7.519
738.52	11.923
738.83	12.891
739.15	7.265
739.46	10.081
739.78	11.538
740.09	11.538
740.41	6.993
740.72	14.964
741.04	5.556
741.35	8.658
741.66	12.500
741.98	10.000
742.29	12.207
742.61	6.952
742.92	13.551
743.23	6.579
743.55	9.009
743.86	9.333
744.18	14.286
744.49	12.315
744.80	10.152
745.12	9.278
745.43	8.040
745.74	14.078
746.06	10.732
746.37	13.216
746.68	12.438
747.00	14.136
747.31	8.173
747.62	6.912
747.94	6.114
748.25	9.767
748.56	8.571
748.88	4.891
749.19	11.268
749.50	18.627
749.82	15.111
750.13	12.335
750.44	9.350
750.75	6.000
751.07	12.500
751.38	8.118
751.69	5.344
752.01	9.231
752.32	9.728
752.63	5.385
752.94	8.730
753.26	11.304
753.57	9.821
753.88	9.483
754.19	5.394
754.51	6.250
754.82	9.486
755.13	8.642
755.44	6.612
755.75	12.346
756.07	1.606
756.38	9.375
756.69	10.108
757.00	11.498
757.31	9.396
757.63	12.773
757.94	12.139
758.25	6.105
758.56	16.442
758.87	13.352
759.18	5.333
759.50	11.388
759.81	5.839
760.12	6.419
760.43	14.563
760.74	14.062
761.05	11.236
761.36	12.275
761.67	9.467
761.99	10.000
762.30	9.420
762.61	10.943
762.92	7.175
763.23	6.161
763.54	8.889
763.85	12.236
764.16	10.204
764.47	11.441
764.78	14.607
765.10	10.432
765.41	8.065
765.72	7.862
766.03	5.300
766.34	12.030
766.65	10.121
766.96	5.000
767.27	5.729
767.58	8.721
767.89	7.742
768.20	8.589
768.51	5.464
768.82	8.649
769.13	4.500
769.44	6.579
769.75	6.061
770.06	9.174
770.37	10.329
770.68	8.854
770.99	3.960
771.30	7.282
771.61	2.315
771.92	5.195
772.23	11.682
772.54	4.255
772.85	5.325
773.16	5.488
773.47	5.422
773.78	14.835
774.09	-1.333
774.39	9.259
774.70	5.369
775.01	2.899
775.32	-2.239
775.63	5.785
775.94	7.519
776.25	7.857
776.56	6.557
776.87	6.195
777.18	7.965
777.48	-6.364
777.79	-8.696
778.10	-8.257
778.41	-4.237
778.72	4.959
779.03	13.433
779.34	12.030
779.65	6.536
779.95	8.696
780.26	4.082
780.57	-6.034
780.88	-5.556
781.19	-2.020
781.50	-13.600
781.80	10.458
782.11	-4.487
782.42	3.614
782.73	5.839
783.04	9.459
783.34	6.818
783.65	3.101
783.96	13.008
784.27	-3.419
784.57	-8.943
784.88	-8.130
785.19	9.649
785.50	-5.155
785.81	-1.905
786.11	-5.882
786.42	-6.364
786.73	-0.901
787.04	1.980
787.34	0.952
787.65	-1.905
787.96	0.980
788.26	4.505
788.57	3.226
788.88	-0.781
789.19	-0.855
789.49	-0.840
789.80	0.000
790.11	-0.885
790.41	4.040
790.72	11.321
791.03	-2.778
791.33	-11.842
791.64	2.151
791.95	-6.667
792.25	-15.714
792.56	6.098
792.87	6.122
793.17	-9.211
793.48	-10.811
793.79	-21.127
794.09	8.861
794.40	-3.191
794.70	0.935
795.01	-15.789
795.32	-10.909
795.62	0.893
795.93	0.000
796.23	-14.286
796.54	3.158
796.85	-12.329
797.15	-15.278
797.46	-2.740
797.76	9.859
798.07	1.250
798.37	10.294
798.68	12.857
798.99	-7.143
799.29	9.211
799.60	-8.333
799.90	-6.944
800.21	-7.813
800.51	-12.698
800.82	6.557
801.12	-26.316
801.43	-12.676
801.73	-6.780
802.04	-6.557
802.34	-23.636
802.65	1.923
802.95	7.407
803.26	-42.500
803.56	-11.538
803.87	-57.895
804.17	4.839
804.48	9.231
804.78	-43.590
805.09	-11.628
805.39	-28.125
805.70	-15.094
806.00	12.281
806.30	2.703
806.61	1.471
806.91	0.000
807.22	-6.667
807.52	2.985
807.83	-17.742
808.13	-15.873
808.43	-32.727
808.74	-4.545
809.04	-18.868
809.35	-8.219
809.65	-12.281
809.95	-7.353
810.26	7.843
810.56	-24.000
810.86	-12.245
811.17	-22.857
811.47	-9.615
811.77	-35.484
812.08	-68.421
812.38	-19.048
812.69	-13.043
812.99	-16.129
813.29	-38.095
813.59	-100.000
813.90	-25.532
814.20	-46.512
814.50	-6.250
814.81	-16.667
815.11	-46.341
815.41	-30.000
815.72	-37.143
816.02	-55.556
816.32	-30.769
816.62	-18.919
816.93	-44.118
817.23	-17.391
817.53	-8.824
817.84	-23.529
818.14	-25.000
818.44	-62.069
818.74	-61.290
819.04	-70.370
819.35	-16.667
819.65	-64.000
819.95	-30.000
820.25	-44.000
820.56	-28.947
820.86	-40.000
821.16	-12.766
821.46	-12.069
821.76	-25.641
822.07	-52.500
822.37	-20.930
822.67	-46.667
822.97	-40.541
823.27	-24.324
823.57	-28.000
823.88	-27.027
824.18	-100.000
824.48	-50.000
824.78	-230.769
825.08	-56.522
825.38	-50.000
825.69	-41.667
825.99	-110.000
826.29	-59.459
826.59	-26.471
826.89	-40.000
827.19	-31.429
827.49	-18.421
827.79	-43.750
828.09	-23.333
828.39	-13.043
828.70	-93.103
829.00	-31.034
829.30	-25.000
829.60	25.000
829.90	-72.222
830.20	-61.538
830.50	-57.143
830.80	-57.143
831.10	-28.205
831.40	-95.238
831.70	-67.647
832.00	-33.333
832.30	-63.158
832.60	-112.500
832.90	-108.333
833.20	-94.118
833.50	-160.000
833.80	-93.333
834.10	-45.000
834.40	-37.500
834.70	-50.000
835.00	-34.615
835.30	-125.000
835.60	10.345
835.90	-94.444
836.20	-200.000
836.50	-83.333
836.80	-40.000
837.10	25.714
837.40	-117.647
837.70	-118.182
838.00	-45.833
838.30	-81.250
838.60	-80.952
838.90	-50.000
839.19	-117.391
839.49	-21.739
839.79	-100.000
840.09	-65.217
840.39	-86.364
840.69	-93.750
840.99	-105.263
841.29	-93.750
841.59	-114.286
841.88	-27.778
842.18	-37.500
842.48	-52.941
842.78	-37.931
843.08	-100.000
843.38	-76.923
843.68	-300.000
843.97	-146.154
844.27	-90.909
844.57	-120.000
844.87	-52.000
845.17	-240.000
845.47	-107.143
845.76	-222.222
846.06	0.000
846.36	-500.000
846.66	-210.000
846.96	-78.947
847.25	-50.000
847.55	-100.000
847.85	33.333
848.15	-190.000
848.44	11.538
848.74	-68.421
849.04	633.333
849.34	-133.333
849.63	-100.000
849.93	0.000
850.23	-65.000
850.53	-61.905
850.82	-44.000
851.12	-68.421
851.42	-1000.000
851.71	-21.429
852.01	-100.000
852.31	-141.176
852.61	-60.000
852.90	-57.143
853.20	-300.000
853.50	-16.667
853.79	-68.421
854.09	-80.000
854.39	-96.429
854.68	-26.087
854.98	-308.333
855.28	-17.241
855.57	-31.250
855.87	-70.000
856.17	-93.333
856.46	-27.586
856.76	-60.000
857.05	-123.529
857.35	-184.615
857.65	-81.818
857.94	-48.148
858.24	-178.571
858.53	-142.857
858.83	-208.333
859.13	-233.333
859.42	-4.762
859.72	-225.000
860.01	-466.667
860.31	-237.500
860.60	-480.000
860.90	-222.222
861.20	-225.000
861.49	-257.143
861.79	-17.647
862.08	-1100.000
862.38	-166.667
862.67	-53.846
862.97	-82.353
863.26	-35.000
863.56	-64.706
863.85	500.000
864.15	-200.000
864.44	-15.385
864.74	-25.000
865.03	-300.000
865.33	-183.333
865.62	-47.059
865.92	-525.000
866.21	-100.000
866.51	-158.333
866.80	-900.000
867.10	-500.000
867.39	-64.706
867.69	-34.783
867.98	-214.286
868.27	-460.000
868.57	-37.500
868.86	-181.818
869.16	-47.059
869.45	-333.333
869.75	-214.286
870.04	1800.000
870.33	-125.000
870.63	-340.000
870.92	-88.889
871.22	-133.333
871.51	-63.636
871.80	-50.000
872.10	-110.000
>>>>>End Processed Spectral Data<<<<<
