SpectraSuite Data File
++++++++++++++++++++++++++++++++++++
Date: Sat May 16 11:17:18 PDT 2015
User: schluterlab
Dark Spectrum Present: Yes
Reference Spectrum Present: Yes
Number of Sampled Component Spectra: 1
Spectrometers: USB2E3373
Integration Time (usec): 3000 (USB2E3373)
Spectra Averaged: 3 (USB2E3373)
Boxcar Smoothing: 0 (USB2E3373)
Correct for Electrical Dark: No (USB2E3373)
Strobe/Lamp Enabled: No (USB2E3373)
Correct for Detector Non-linearity: No (USB2E3373)
Correct for Stray Light: No (USB2E3373)
Number of Pixels in Processed Spectrum: 2048
>>>>>Begin Processed Spectral Data<<<<<
178.53	0.000
178.91	106.667
179.29	433.333
179.67	-600.000
180.04	-153.846
180.42	-100.000
180.80	150.000
181.18	450.000
181.56	-12.500
181.94	1700.000
182.31	275.000
182.69	-46.154
183.07	-433.333
183.45	800.000
183.83	500.000
184.20	-114.286
184.58	-62.500
184.96	-225.000
185.34	131.250
185.72	-425.000
186.09	116.667
186.47	-125.000
186.85	-25.000
187.23	12.500
187.61	-100.000
187.98	-262.500
188.36	-137.500
188.74	-187.500
189.12	1500.000
189.49	400.000
189.87	-33.333
190.25	250.000
190.63	-14.286
191.00	-133.333
191.38	240.000
191.76	46.667
192.14	320.000
192.51	-380.000
192.89	0.000
193.27	0.000
193.65	-66.667
194.02	-242.857
194.40	300.000
194.78	-80.000
195.15	-700.000
195.53	-118.182
195.91	-200.000
196.29	40.000
196.66	-133.333
197.04	2000.000
197.42	-125.000
197.79	33.333
198.17	33.333
198.55	-800.000
198.92	-1200.000
199.30	175.000
199.68	-200.000
200.05	-66.667
200.43	-133.333
200.81	200.000
201.18	-83.333
201.56	171.429
201.94	-20.000
202.31	50.000
202.69	70.000
203.07	-80.000
203.44	300.000
203.82	-283.333
204.19	-350.000
204.57	-275.000
204.95	-800.000
205.32	37.500
205.70	-100.000
206.08	-1700.000
206.45	5.556
206.83	-600.000
207.20	0.000
207.58	-733.333
207.96	-100.000
208.33	-87.500
208.71	-133.333
209.08	190.000
209.46	-28.571
209.84	400.000
210.21	0.000
210.59	45.000
210.96	800.000
211.34	-166.667
211.71	-200.000
212.09	375.000
212.46	950.000
212.84	-1200.000
213.22	400.000
213.59	91.667
213.97	155.556
214.34	120.000
214.72	-110.000
215.09	-533.333
215.47	0.000
215.84	-50.000
216.22	-60.000
216.59	46.667
216.97	-125.000
217.34	450.000
217.72	-42.857
218.09	-300.000
218.47	-185.714
218.84	157.143
219.22	42.857
219.59	0.000
219.97	114.286
220.34	475.000
220.72	137.500
221.09	-61.538
221.47	0.000
221.84	300.000
222.22	-150.000
222.59	500.000
222.97	-125.000
223.34	-850.000
223.72	-266.667
224.09	35.714
224.46	-225.000
224.84	21.429
225.21	-85.714
225.59	-54.545
225.96	-75.000
226.34	-42.857
226.71	-111.111
227.08	25.000
227.46	2200.000
227.83	-114.286
228.21	-225.000
228.58	300.000
228.95	-6.250
229.33	-300.000
229.70	-80.000
230.08	-450.000
230.45	41.667
230.82	-133.333
231.20	-400.000
231.57	-300.000
231.95	1800.000
232.32	38.095
232.69	-33.333
233.07	-200.000
233.44	-1200.000
233.81	-46.667
234.19	-22.222
234.56	-25.000
234.93	31.250
235.31	-200.000
235.68	-100.000
236.05	29.412
236.43	-27.273
236.80	-12.903
237.17	20.833
237.55	19.048
237.92	-50.000
238.29	-5.714
238.67	14.706
239.04	11.111
239.41	0.000
239.79	7.692
240.16	14.286
240.53	21.818
240.91	41.026
241.28	1.818
241.65	27.692
242.02	29.508
242.40	13.115
242.77	18.182
243.14	1.695
243.51	27.143
243.89	21.519
244.26	23.596
244.63	33.684
245.00	34.737
245.38	27.966
245.75	28.319
246.12	28.000
246.49	26.772
246.87	19.512
247.24	12.712
247.61	28.814
247.98	26.761
248.36	28.671
248.73	27.848
249.10	31.210
249.47	23.977
249.84	28.977
250.22	22.619
250.59	24.294
250.96	27.225
251.33	23.223
251.70	23.077
252.08	21.327
252.45	20.853
252.82	26.667
253.19	33.191
253.56	28.629
253.94	27.004
254.31	30.472
254.68	30.894
255.05	29.435
255.42	28.968
255.79	28.315
256.16	29.412
256.54	26.838
256.91	26.515
257.28	27.839
257.65	31.206
258.02	32.075
258.39	29.431
258.76	29.054
259.14	30.556
259.51	32.131
259.88	29.878
260.25	33.540
260.62	29.260
260.99	28.783
261.36	28.354
261.73	33.526
262.10	30.278
262.47	25.071
262.85	30.571
263.22	30.946
263.59	28.000
263.96	30.145
264.33	27.913
264.70	32.044
265.07	28.846
265.44	27.649
265.81	28.424
266.18	31.139
266.55	27.941
266.92	30.479
267.29	30.024
267.66	30.864
268.03	31.159
268.40	28.169
268.77	29.398
269.14	26.682
269.51	29.195
269.88	31.193
270.25	27.972
270.62	29.519
270.99	28.153
271.36	29.371
271.73	30.493
272.10	30.892
272.47	29.778
272.84	34.000
273.21	31.651
273.58	28.352
273.95	28.070
274.32	31.222
274.69	29.322
275.06	30.879
275.43	30.804
275.80	31.976
276.17	32.845
276.54	29.328
276.91	30.864
277.28	30.629
277.65	29.752
278.02	31.106
278.39	28.880
278.76	30.478
279.13	29.249
279.50	29.225
279.87	30.233
280.23	30.364
280.60	28.827
280.97	29.903
281.34	26.886
281.71	28.846
282.08	31.855
282.45	30.346
282.82	28.488
283.19	28.727
283.56	29.487
283.92	29.505
284.29	28.253
284.66	28.957
285.03	31.016
285.40	31.181
285.77	29.825
286.14	32.491
286.51	28.419
286.87	29.401
287.24	30.034
287.61	30.744
287.98	27.730
288.35	26.281
288.72	27.504
289.08	26.441
289.45	27.104
289.82	25.433
290.19	28.243
290.56	26.777
290.93	25.119
291.29	29.173
291.66	23.994
292.03	27.786
292.40	26.355
292.77	24.845
293.13	27.317
293.50	26.003
293.87	25.920
294.24	26.546
294.60	24.091
294.97	26.859
295.34	23.704
295.71	24.256
296.08	22.734
296.44	24.607
296.81	25.641
297.18	25.915
297.55	23.446
297.91	23.710
298.28	23.014
298.65	21.757
299.02	24.866
299.38	22.059
299.75	23.234
300.12	23.333
300.48	22.762
300.85	20.577
301.22	24.062
301.59	22.367
301.95	23.174
302.32	21.904
302.69	23.745
303.05	21.856
303.42	21.750
303.79	21.292
304.15	20.853
304.52	22.170
304.89	24.203
305.25	21.612
305.62	21.269
305.99	22.615
306.35	20.644
306.72	21.640
307.09	23.950
307.45	19.977
307.82	21.341
308.19	20.805
308.55	21.351
308.92	20.623
309.29	21.189
309.65	20.891
310.02	19.222
310.38	19.351
310.75	20.389
311.12	22.521
311.48	21.921
311.85	20.288
312.22	20.494
312.58	20.448
312.95	17.941
313.31	20.579
313.68	20.201
314.05	19.782
314.41	19.215
314.78	20.380
315.14	21.125
315.51	20.669
315.87	19.845
316.24	20.311
316.61	20.250
316.97	21.393
317.34	20.809
317.70	19.109
318.07	20.522
318.43	19.195
318.80	20.845
319.16	19.043
319.53	20.583
319.89	18.062
320.26	19.216
320.62	18.269
320.99	20.498
321.35	18.621
321.72	18.833
322.08	19.782
322.45	19.109
322.81	18.732
323.18	20.365
323.54	18.484
323.91	18.906
324.27	19.392
324.64	18.556
325.00	19.110
325.37	20.362
325.73	20.472
326.10	17.803
326.46	19.089
326.83	18.553
327.19	20.017
327.56	20.273
327.92	18.692
328.29	19.827
328.65	17.545
329.01	19.611
329.38	17.841
329.74	20.055
330.11	19.946
330.47	19.346
330.84	18.607
331.20	18.682
331.56	17.776
331.93	18.828
332.29	18.813
332.66	19.140
333.02	18.281
333.38	18.907
333.75	17.542
334.11	19.289
334.48	18.005
334.84	19.248
335.20	19.060
335.57	18.321
335.93	19.964
336.29	18.335
336.66	18.062
337.02	18.919
337.38	18.360
337.75	18.876
338.11	18.605
338.47	18.772
338.84	17.514
339.20	18.278
339.56	19.875
339.93	17.989
340.29	17.892
340.65	17.483
341.02	17.454
341.38	18.281
341.74	18.967
342.11	18.089
342.47	18.712
342.83	17.632
343.20	18.019
343.56	17.959
343.92	18.280
344.28	18.923
344.65	16.584
345.01	17.647
345.37	18.355
345.73	16.939
346.10	17.253
346.46	18.197
346.82	17.963
347.19	17.584
347.55	17.817
347.91	18.031
348.27	16.547
348.63	17.447
349.00	17.582
349.36	16.784
349.72	18.312
350.08	17.803
350.45	17.179
350.81	16.640
351.17	16.801
351.53	16.070
351.89	18.108
352.26	17.984
352.62	18.126
352.98	17.247
353.34	17.666
353.70	17.375
354.07	16.994
354.43	16.759
354.79	18.225
355.15	17.013
355.51	17.344
355.87	17.075
356.24	17.077
356.60	17.728
356.96	18.630
357.32	17.102
357.68	17.241
358.04	16.474
358.40	17.324
358.77	16.770
359.13	16.526
359.49	16.629
359.85	16.463
360.21	17.808
360.57	17.244
360.93	17.481
361.29	16.442
361.66	16.463
362.02	16.346
362.38	16.801
362.74	17.582
363.10	15.710
363.46	17.735
363.82	18.076
364.18	16.715
364.54	17.584
364.90	16.981
365.26	16.476
365.62	17.391
365.98	17.639
366.35	17.113
366.71	15.927
367.07	17.431
367.43	17.776
367.79	17.182
368.15	16.714
368.51	17.413
368.87	18.338
369.23	17.053
369.59	16.667
369.95	18.323
370.31	18.214
370.67	16.847
371.03	16.472
371.39	16.973
371.75	17.310
372.11	17.575
372.47	16.847
372.83	17.177
373.19	17.071
373.55	17.452
373.91	17.639
374.27	16.906
374.63	16.839
374.99	17.177
375.35	15.680
375.71	18.366
376.07	17.180
376.42	15.762
376.78	17.582
377.14	17.559
377.50	17.344
377.86	17.425
378.22	16.834
378.58	17.356
378.94	16.646
379.30	16.941
379.66	16.940
380.02	16.756
380.38	16.254
380.74	17.292
381.09	17.340
381.45	16.468
381.81	16.213
382.17	17.293
382.53	16.657
382.89	16.866
383.25	18.182
383.61	17.158
383.97	18.126
384.32	17.897
384.68	17.654
385.04	17.391
385.40	16.920
385.76	17.134
386.12	18.176
386.48	18.317
386.83	17.423
387.19	17.215
387.55	17.565
387.91	16.775
388.27	16.104
388.62	17.668
388.98	17.383
389.34	17.319
389.70	17.052
390.06	17.402
390.42	17.692
390.77	17.476
391.13	18.137
391.49	17.093
391.85	18.017
392.20	17.233
392.56	17.593
392.92	18.026
393.28	17.681
393.64	17.859
393.99	18.215
394.35	17.518
394.71	18.345
395.07	17.389
395.42	17.402
395.78	16.970
396.14	18.006
396.50	18.654
396.85	17.150
397.21	17.801
397.57	17.933
397.92	17.623
398.28	18.222
398.64	17.847
399.00	18.596
399.35	17.644
399.71	18.757
400.07	17.851
400.42	18.431
400.78	16.696
401.14	17.665
401.49	17.925
401.85	17.633
402.21	17.878
402.57	17.354
402.92	18.502
403.28	17.279
403.63	17.136
403.99	18.397
404.35	17.391
404.70	17.613
405.06	18.281
405.42	16.974
405.77	17.534
406.13	17.604
406.49	17.795
406.84	17.636
407.20	17.903
407.55	17.099
407.91	17.034
408.27	18.566
408.62	18.280
408.98	17.890
409.34	17.367
409.69	18.336
410.05	18.011
410.40	17.535
410.76	17.783
411.11	18.080
411.47	17.711
411.83	17.848
412.18	17.946
412.54	16.290
412.89	18.287
413.25	17.060
413.60	16.403
413.96	16.636
414.31	17.859
414.67	17.079
415.03	17.982
415.38	18.608
415.74	18.557
416.09	17.072
416.45	16.997
416.80	18.661
417.16	17.874
417.51	18.516
417.87	17.346
418.22	18.142
418.58	18.100
418.93	17.351
419.29	18.381
419.64	17.211
420.00	18.044
420.35	17.682
420.71	18.067
421.06	17.456
421.42	17.037
421.77	17.476
422.12	18.019
422.48	17.477
422.83	17.995
423.19	17.428
423.54	17.925
423.90	17.178
424.25	16.855
424.61	18.516
424.96	17.905
425.31	17.272
425.67	18.281
426.02	17.556
426.38	17.967
426.73	17.592
427.09	17.279
427.44	17.898
427.79	17.442
428.15	18.133
428.50	18.475
428.85	18.525
429.21	17.875
429.56	18.125
429.92	18.687
430.27	17.797
430.62	18.652
430.98	18.557
431.33	17.129
431.68	18.123
432.04	17.683
432.39	19.031
432.74	18.106
433.10	17.895
433.45	17.559
433.80	18.253
434.16	17.464
434.51	17.973
434.86	19.039
435.22	18.318
435.57	17.258
435.92	18.933
436.28	18.338
436.63	17.637
436.98	17.468
437.34	18.074
437.69	17.153
438.04	18.378
438.39	18.953
438.75	18.685
439.10	18.157
439.45	18.105
439.81	17.651
440.16	18.058
440.51	19.118
440.86	18.392
441.22	16.805
441.57	17.263
441.92	17.238
442.27	17.857
442.63	17.489
442.98	17.212
443.33	18.122
443.68	18.551
444.03	17.976
444.39	18.257
444.74	18.392
445.09	17.818
445.44	18.120
445.79	17.899
446.15	18.620
446.50	17.529
446.85	18.214
447.20	17.773
447.55	18.619
447.91	17.855
448.26	17.318
448.61	18.506
448.96	18.711
449.31	17.869
449.66	18.260
450.02	17.673
450.37	17.913
450.72	17.910
451.07	18.228
451.42	17.286
451.77	18.552
452.12	17.759
452.47	18.451
452.83	17.822
453.18	18.027
453.53	19.092
453.88	18.242
454.23	18.259
454.58	19.577
454.93	18.262
455.28	18.037
455.63	18.305
455.98	19.277
456.34	17.980
456.69	19.387
457.04	17.947
457.39	17.763
457.74	18.724
458.09	18.155
458.44	18.995
458.79	17.993
459.14	18.825
459.49	18.591
459.84	18.943
460.19	18.377
460.54	17.846
460.89	17.489
461.24	19.247
461.59	18.640
461.94	18.332
462.29	18.463
462.64	18.445
462.99	19.143
463.34	18.704
463.69	18.702
464.04	18.453
464.39	18.160
464.74	17.908
465.09	19.242
465.44	17.992
465.79	18.443
466.14	18.930
466.49	18.365
466.84	19.088
467.19	19.701
467.54	17.658
467.89	18.866
468.24	19.656
468.59	18.676
468.94	17.621
469.29	18.324
469.64	19.205
469.99	19.649
470.34	19.773
470.68	20.349
471.03	20.303
471.38	19.444
471.73	19.371
472.08	19.009
472.43	19.369
472.78	19.533
473.13	19.152
473.48	19.655
473.83	18.238
474.17	18.599
474.52	20.780
474.87	19.872
475.22	19.292
475.57	18.944
475.92	19.114
476.27	19.371
476.61	19.042
476.96	19.340
477.31	19.053
477.66	19.092
478.01	18.855
478.36	18.963
478.70	20.075
479.05	18.821
479.40	20.000
479.75	19.419
480.10	19.097
480.45	19.149
480.79	20.188
481.14	19.518
481.49	19.748
481.84	18.909
482.19	19.415
482.53	19.271
482.88	18.700
483.23	19.859
483.58	20.074
483.92	19.207
484.27	19.495
484.62	18.575
484.97	19.330
485.31	18.528
485.66	17.996
486.01	17.702
486.36	17.966
486.70	18.529
487.05	18.487
487.40	18.937
487.75	18.754
488.09	18.808
488.44	19.114
488.79	19.455
489.13	19.589
489.48	19.943
489.83	19.782
490.17	19.939
490.52	20.697
490.87	18.753
491.22	19.150
491.56	19.722
491.91	18.989
492.26	19.858
492.60	19.648
492.95	20.181
493.30	19.867
493.64	19.135
493.99	20.315
494.34	18.952
494.68	20.552
495.03	20.220
495.37	19.420
495.72	20.187
496.07	20.601
496.41	20.750
496.76	19.772
497.11	20.820
497.45	19.780
497.80	20.810
498.14	20.138
498.49	20.191
498.84	20.922
499.18	21.004
499.53	20.507
499.87	19.595
500.22	20.294
500.56	20.210
500.91	20.788
501.26	20.864
501.60	19.981
501.95	20.580
502.29	20.406
502.64	20.415
502.98	21.035
503.33	20.912
503.67	20.163
504.02	20.666
504.36	20.245
504.71	19.352
505.06	20.519
505.40	21.357
505.75	20.986
506.09	21.689
506.44	20.852
506.78	21.475
507.13	21.009
507.47	21.596
507.82	21.322
508.16	21.606
508.51	21.123
508.85	21.377
509.19	21.559
509.54	21.406
509.88	22.234
510.23	21.960
510.57	21.799
510.92	21.697
511.26	21.318
511.61	21.058
511.95	21.929
512.30	21.990
512.64	21.091
512.98	22.387
513.33	21.856
513.67	21.441
514.02	21.980
514.36	22.216
514.70	22.354
515.05	22.985
515.39	21.915
515.74	23.909
516.08	21.671
516.42	21.643
516.77	23.975
517.11	22.368
517.46	23.026
517.80	22.864
518.14	22.705
518.49	23.491
518.83	22.136
519.17	22.795
519.52	23.019
519.86	24.014
520.20	23.533
520.55	23.323
520.89	23.982
521.23	23.810
521.58	24.326
521.92	24.066
522.26	24.381
522.61	23.891
522.95	23.612
523.29	23.950
523.64	23.423
523.98	24.061
524.32	23.507
524.66	23.292
525.01	23.635
525.35	24.098
525.69	23.357
526.04	24.217
526.38	24.252
526.72	22.925
527.06	23.177
527.41	24.224
527.75	24.158
528.09	24.024
528.43	23.869
528.78	23.932
529.12	24.648
529.46	23.905
529.80	25.242
530.15	24.791
530.49	25.032
530.83	25.082
531.17	24.310
531.51	23.577
531.86	25.543
532.20	24.764
532.54	24.265
532.88	25.033
533.22	24.332
533.57	24.804
533.91	23.596
534.25	23.884
534.59	22.299
534.93	23.584
535.27	23.851
535.62	24.361
535.96	23.659
536.30	23.757
536.64	24.436
536.98	24.718
537.32	23.912
537.66	24.304
538.01	23.849
538.35	24.932
538.69	24.799
539.03	24.441
539.37	23.420
539.71	24.283
540.05	23.783
540.39	24.307
540.73	25.570
541.07	24.454
541.42	24.038
541.76	23.189
542.10	25.388
542.44	23.318
542.78	24.491
543.12	24.983
543.46	23.425
543.80	23.344
544.14	23.909
544.48	24.869
544.82	23.681
545.16	25.084
545.50	24.361
545.84	25.243
546.18	24.896
546.52	25.107
546.86	25.142
547.20	23.418
547.54	24.036
547.88	24.552
548.22	22.346
548.56	24.449
548.90	25.000
549.24	23.896
549.58	25.194
549.92	25.088
550.26	25.145
550.60	24.751
550.94	25.620
551.28	25.734
551.62	24.372
551.96	25.036
552.30	24.390
552.64	25.053
552.98	24.247
553.32	23.954
553.66	26.172
554.00	25.373
554.34	24.765
554.68	24.781
555.02	24.964
555.36	24.227
555.69	24.355
556.03	24.561
556.37	25.036
556.71	25.268
557.05	25.499
557.39	25.019
557.73	25.602
558.07	24.943
558.41	24.607
558.75	25.019
559.08	24.747
559.42	25.651
559.76	25.383
560.10	25.354
560.44	24.494
560.78	24.565
561.12	23.879
561.45	24.795
561.79	24.251
562.13	24.334
562.47	25.070
562.81	24.328
563.15	24.773
563.48	24.948
563.82	25.287
564.16	24.882
564.50	23.992
564.84	25.529
565.17	23.740
565.51	23.990
565.85	24.949
566.19	26.153
566.52	23.353
566.86	23.515
567.20	24.879
567.54	24.099
567.88	23.004
568.21	23.714
568.55	23.171
568.89	22.515
569.23	22.999
569.56	22.488
569.90	22.659
570.24	22.999
570.57	21.793
570.91	22.101
571.25	21.757
571.59	22.354
571.92	21.786
572.26	21.180
572.60	22.184
572.93	21.926
573.27	21.738
573.61	21.078
573.95	21.554
574.28	21.595
574.62	21.835
574.96	21.087
575.29	21.265
575.63	21.874
575.97	21.629
576.30	21.595
576.64	21.070
576.98	21.349
577.31	21.549
577.65	21.651
577.98	21.113
578.32	20.501
578.66	21.048
578.99	21.185
579.33	21.276
579.67	21.278
580.00	21.081
580.34	21.282
580.67	21.329
581.01	20.475
581.35	21.208
581.68	20.458
582.02	20.911
582.35	20.604
582.69	21.272
583.02	21.618
583.36	21.115
583.70	21.710
584.03	21.929
584.37	21.705
584.70	21.174
585.04	21.418
585.37	20.644
585.71	21.626
586.04	21.150
586.38	20.823
586.72	21.646
587.05	21.439
587.39	21.770
587.72	22.060
588.06	21.898
588.39	21.703
588.73	21.967
589.06	22.283
589.40	22.398
589.73	22.734
590.07	21.668
590.40	22.251
590.73	22.631
591.07	22.746
591.40	22.747
591.74	23.197
592.07	22.568
592.41	22.463
592.74	22.406
593.08	22.245
593.41	21.711
593.75	21.991
594.08	22.789
594.41	22.255
594.75	22.537
595.08	22.368
595.42	22.399
595.75	21.205
596.09	22.352
596.42	22.668
596.75	22.725
597.09	23.152
597.42	22.130
597.75	22.232
598.09	22.684
598.42	22.404
598.76	22.135
599.09	22.257
599.42	21.069
599.76	22.122
600.09	22.786
600.42	22.256
600.76	22.298
601.09	22.028
601.42	22.042
601.76	22.625
602.09	22.945
602.42	22.428
602.76	21.728
603.09	22.097
603.42	22.361
603.76	22.617
604.09	22.387
604.42	22.565
604.76	22.983
605.09	23.644
605.42	22.207
605.75	22.510
606.09	22.956
606.42	21.450
606.75	22.112
607.09	22.408
607.42	22.667
607.75	22.517
608.08	23.136
608.42	23.037
608.75	22.523
609.08	23.234
609.41	22.920
609.75	23.306
610.08	23.676
610.41	22.651
610.74	22.921
611.07	23.073
611.41	22.642
611.74	23.496
612.07	23.416
612.40	23.188
612.73	24.340
613.07	23.060
613.40	24.685
613.73	23.161
614.06	23.504
614.39	23.506
614.72	22.570
615.06	24.293
615.39	22.409
615.72	23.194
616.05	22.474
616.38	24.434
616.71	24.204
617.05	24.789
617.38	24.025
617.71	23.710
618.04	24.658
618.37	24.969
618.70	24.576
619.03	24.441
619.36	25.018
619.69	25.341
620.03	24.311
620.36	24.332
620.69	25.197
621.02	24.581
621.35	26.452
621.68	23.934
622.01	24.757
622.34	25.621
622.67	24.531
623.00	26.320
623.33	25.896
623.66	24.889
623.99	24.511
624.32	25.074
624.65	24.945
624.99	24.272
625.32	25.150
625.65	25.874
625.98	25.743
626.31	25.693
626.64	25.774
626.97	26.027
627.30	25.447
627.63	24.957
627.96	26.371
628.29	25.919
628.62	25.406
628.95	25.787
629.28	25.658
629.61	25.221
629.94	25.236
630.26	27.137
630.59	27.739
630.92	27.127
631.25	26.714
631.58	26.772
631.91	25.106
632.24	27.222
632.57	26.889
632.90	27.471
633.23	28.388
633.56	26.550
633.89	28.538
634.22	26.328
634.55	28.486
634.88	28.416
635.20	27.965
635.53	28.372
635.86	26.574
636.19	29.304
636.52	28.076
636.85	26.354
637.18	24.750
637.51	28.625
637.83	29.561
638.16	26.316
638.49	27.586
638.82	26.512
639.15	28.664
639.48	26.070
639.81	28.077
640.13	28.919
640.46	29.487
640.79	29.272
641.12	28.632
641.45	29.125
641.77	27.994
642.10	27.644
642.43	27.769
642.76	29.134
643.09	28.095
643.41	30.000
643.74	29.730
644.07	30.733
644.40	29.498
644.73	31.518
645.05	28.881
645.38	30.132
645.71	28.522
646.04	31.429
646.36	30.017
646.69	28.547
647.02	31.227
647.35	30.325
647.67	28.832
648.00	32.337
648.33	30.691
648.66	27.258
648.98	27.070
649.31	27.538
649.64	30.469
649.96	28.885
650.29	29.672
650.62	30.637
650.94	28.836
651.27	29.116
651.60	26.471
651.92	27.568
652.25	30.551
652.58	26.746
652.90	28.571
653.23	28.548
653.56	29.097
653.88	26.885
654.21	30.369
654.54	30.066
654.86	29.856
655.19	26.504
655.52	23.129
655.84	19.501
656.17	21.504
656.49	28.827
656.82	30.286
657.15	23.035
657.47	17.130
657.80	13.177
658.13	15.465
658.45	21.577
658.78	21.610
659.10	21.594
659.43	21.494
659.75	21.715
660.08	23.490
660.41	23.083
660.73	25.303
661.06	25.652
661.38	30.714
661.71	26.195
662.03	29.032
662.36	32.836
662.68	27.637
663.01	29.724
663.33	30.839
663.66	31.116
663.98	28.571
664.31	29.754
664.63	31.637
664.96	27.332
665.28	28.416
665.61	25.581
665.93	29.012
666.26	30.162
666.58	29.938
666.91	30.067
667.23	28.509
667.56	30.385
667.88	28.733
668.21	28.341
668.53	31.075
668.86	31.409
669.18	31.279
669.50	30.140
669.83	28.224
670.15	27.578
670.48	28.972
670.80	31.207
671.13	25.734
671.45	27.477
671.77	26.981
672.10	29.586
672.42	26.753
672.75	27.273
673.07	23.604
673.39	28.233
673.72	27.756
674.04	30.786
674.37	26.804
674.69	31.352
675.01	27.447
675.34	27.766
675.66	29.590
675.98	27.533
676.31	32.127
676.63	28.966
676.95	30.088
677.28	30.626
677.60	32.353
677.92	30.837
678.25	31.291
678.57	29.630
678.89	26.205
679.22	26.834
679.54	29.980
679.86	25.000
680.18	26.426
680.51	26.816
680.83	27.429
681.15	28.131
681.48	29.412
681.80	27.621
682.12	26.157
682.44	27.308
682.77	27.489
683.09	28.512
683.41	29.867
683.73	29.909
684.06	27.527
684.38	30.544
684.70	25.926
685.02	26.181
685.34	24.756
685.67	25.947
685.99	27.977
686.31	28.187
686.63	27.305
686.96	25.693
687.28	25.626
687.60	25.586
687.92	23.930
688.24	29.921
688.56	26.854
688.89	27.350
689.21	27.790
689.53	28.966
689.85	27.171
690.17	29.596
690.49	29.561
690.82	28.434
691.14	26.651
691.46	29.933
691.78	27.093
692.10	27.966
692.42	27.556
692.74	27.897
693.06	26.966
693.39	24.161
693.71	26.637
694.03	27.646
694.35	25.282
694.67	26.478
694.99	27.366
695.31	30.102
695.63	27.806
695.95	28.784
696.27	29.177
696.59	29.947
696.91	31.742
697.23	29.167
697.56	26.683
697.88	26.802
698.20	24.839
698.52	26.009
698.84	27.427
699.16	25.952
699.48	26.000
699.80	30.075
700.12	27.960
700.44	24.860
700.76	26.822
701.08	28.779
701.40	25.982
701.72	29.630
702.04	31.090
702.36	26.807
702.68	27.844
703.00	26.667
703.32	25.788
703.64	30.882
703.96	29.942
704.28	28.402
704.60	29.747
704.91	27.619
705.23	29.450
705.55	30.068
705.87	30.375
706.19	25.347
706.51	30.556
706.83	32.459
707.15	25.796
707.47	28.099
707.79	29.897
708.11	24.173
708.43	28.180
708.74	25.714
709.06	25.348
709.38	25.862
709.70	26.562
710.02	29.755
710.34	25.413
710.66	27.619
710.98	24.921
711.29	25.806
711.61	29.393
711.93	30.492
712.25	29.568
712.57	24.042
712.89	28.417
713.20	32.302
713.52	27.612
713.84	25.623
714.16	24.918
714.48	24.127
714.80	24.000
715.11	26.225
715.43	28.012
715.75	29.595
716.07	24.590
716.39	28.094
716.70	28.571
717.02	25.556
717.34	26.336
717.66	26.971
717.97	27.869
718.29	27.731
718.61	31.349
718.93	27.599
719.24	24.265
719.56	29.434
719.88	30.909
720.20	29.588
720.51	27.820
720.83	24.096
721.15	25.410
721.46	28.627
721.78	24.521
722.10	27.200
722.42	25.207
722.73	27.888
723.05	24.900
723.37	29.412
723.68	21.862
724.00	27.236
724.32	25.926
724.63	24.896
724.95	34.298
725.27	25.000
725.58	26.724
725.90	29.762
726.22	32.103
726.53	29.278
726.85	22.745
727.16	26.692
727.48	25.000
727.80	26.230
728.11	29.412
728.43	25.207
728.74	24.609
729.06	28.030
729.38	26.848
729.69	22.047
730.01	24.803
730.32	26.295
730.64	26.374
730.96	25.746
731.27	23.571
731.59	24.437
731.90	24.540
732.22	23.006
732.53	27.815
732.85	25.503
733.16	27.536
733.48	22.997
733.80	24.199
734.11	27.586
734.43	22.449
734.74	24.036
735.06	24.138
735.37	23.547
735.69	24.516
736.00	23.569
736.32	26.821
736.63	22.414
736.95	23.913
737.26	22.185
737.58	24.820
737.89	26.882
738.21	22.556
738.52	26.538
738.83	29.297
739.15	27.350
739.46	29.032
739.78	26.224
740.09	23.427
740.41	25.175
740.72	24.088
741.04	25.794
741.35	16.017
741.66	28.241
741.98	27.143
742.29	21.596
742.61	31.016
742.92	31.776
743.23	28.070
743.55	27.477
743.86	33.333
744.18	26.190
744.49	28.079
744.80	26.904
745.12	28.866
745.43	28.141
745.74	29.612
746.06	24.390
746.37	29.956
746.68	29.353
747.00	35.079
747.31	22.115
747.62	27.189
747.94	25.328
748.25	27.907
748.56	26.190
748.88	17.391
749.19	28.169
749.50	30.392
749.82	23.111
750.13	31.278
750.44	25.610
750.75	28.800
751.07	29.286
751.38	22.509
751.69	22.519
752.01	25.385
752.32	21.012
752.63	18.077
752.94	22.619
753.26	30.000
753.57	26.339
753.88	26.293
754.19	21.992
754.51	21.875
754.82	24.111
755.13	25.926
755.44	30.579
755.75	23.457
756.07	21.285
756.38	21.094
756.69	25.632
757.00	20.209
757.31	21.477
757.63	24.922
757.94	21.098
758.25	20.640
758.56	24.528
758.87	21.591
759.18	22.333
759.50	25.979
759.81	20.438
760.12	20.946
760.43	27.508
760.74	22.500
761.05	22.472
761.36	19.760
761.67	22.781
761.99	20.000
762.30	24.275
762.61	24.528
762.92	29.148
763.23	27.962
763.54	23.556
763.85	23.207
764.16	24.490
764.47	27.119
764.78	23.221
765.10	23.741
765.41	21.290
765.72	21.698
766.03	19.435
766.34	19.549
766.65	25.101
766.96	21.500
767.27	22.396
767.58	29.070
767.89	20.000
768.20	28.834
768.51	27.322
768.82	23.243
769.13	19.000
769.44	21.491
769.75	22.078
770.06	16.972
770.37	25.822
770.68	21.354
770.99	22.772
771.30	22.330
771.61	19.444
771.92	20.779
772.23	23.364
772.54	24.468
772.85	16.568
773.16	23.171
773.47	28.313
773.78	29.670
774.09	20.000
774.39	26.543
774.70	26.174
775.01	28.986
775.32	20.896
775.63	29.752
775.94	21.805
776.25	24.286
776.56	22.131
776.87	26.549
777.18	27.434
777.48	27.273
777.79	22.609
778.10	19.266
778.41	18.644
778.72	19.008
779.03	29.104
779.34	18.797
779.65	25.490
779.95	26.812
780.26	18.367
780.57	8.621
780.88	21.296
781.19	10.101
781.50	16.000
781.80	13.725
782.11	22.436
782.42	17.470
782.73	14.599
783.04	25.676
783.34	24.242
783.65	34.109
783.96	21.951
784.27	29.915
784.57	13.821
784.88	20.325
785.19	23.684
785.50	17.526
785.81	15.238
786.11	19.608
786.42	11.818
786.73	29.730
787.04	27.723
787.34	28.571
787.65	11.429
787.96	16.667
788.26	27.027
788.57	25.000
788.88	17.187
789.19	25.641
789.49	18.487
789.80	16.239
790.11	23.894
790.41	16.162
790.72	31.132
791.03	9.722
791.33	10.526
791.64	21.505
791.95	16.000
792.25	11.429
792.56	12.195
792.87	23.469
793.17	11.842
793.48	0.000
793.79	8.451
794.09	21.519
794.40	12.766
794.70	18.692
795.01	17.544
795.32	22.727
795.62	16.071
795.93	25.773
796.23	4.396
796.54	41.053
796.85	23.288
797.15	1.389
797.46	12.329
797.76	35.211
798.07	23.750
798.37	27.941
798.68	21.429
798.99	24.286
799.29	17.105
799.60	23.333
799.90	9.722
800.21	-6.250
800.51	17.460
800.82	6.557
801.12	15.789
801.43	16.901
801.73	10.169
802.04	29.508
802.34	12.727
802.65	1.923
802.95	5.556
803.26	2.500
803.56	15.385
803.87	15.789
804.17	17.742
804.48	12.308
804.78	20.513
805.09	23.256
805.39	21.875
805.70	-3.774
806.00	24.561
806.30	39.189
806.61	10.294
806.91	22.222
807.22	13.333
807.52	14.925
807.83	1.613
808.13	15.873
808.43	14.545
808.74	24.242
809.04	13.208
809.35	34.247
809.65	21.053
809.95	26.471
810.26	56.863
810.56	4.000
810.86	8.163
811.17	22.857
811.47	-1.923
811.77	22.581
812.08	-36.842
812.38	11.905
812.69	10.870
812.99	6.452
813.29	4.762
813.59	-44.444
813.90	8.511
814.20	9.302
814.50	-12.500
814.81	26.667
815.11	-12.195
815.41	-10.000
815.72	17.143
816.02	8.333
816.32	30.769
816.62	13.514
816.93	-2.941
817.23	8.696
817.53	0.000
817.84	5.882
818.14	-3.125
818.44	-6.897
818.74	0.000
819.04	-14.815
819.35	0.000
819.65	-60.000
819.95	-30.000
820.25	-28.000
820.56	18.421
820.86	0.000
821.16	-10.638
821.46	8.621
821.76	-2.564
822.07	-17.500
822.37	16.279
822.67	-10.000
822.97	27.027
823.27	24.324
823.57	4.000
823.88	10.811
824.18	-4.762
824.48	11.538
824.78	23.077
825.08	8.696
825.38	8.333
825.69	-12.500
825.99	35.000
826.29	-24.324
826.59	-8.824
826.89	16.000
827.19	-31.429
827.49	-2.632
827.79	-12.500
828.09	6.667
828.39	26.087
828.70	-37.931
829.00	31.034
829.30	19.444
829.60	53.125
829.90	11.111
830.20	-34.615
830.50	-19.048
830.80	-3.571
831.10	30.769
831.40	0.000
831.70	0.000
832.00	0.000
832.30	31.579
832.60	-12.500
832.90	50.000
833.20	-88.235
833.50	-80.000
833.80	40.000
834.10	20.000
834.40	-4.167
834.70	-50.000
835.00	34.615
835.30	29.167
835.60	24.138
835.90	-11.111
836.20	-36.364
836.50	-125.000
836.80	-34.286
837.10	31.429
837.40	-47.059
837.70	-81.818
838.00	-8.333
838.30	-18.750
838.60	14.286
838.90	55.000
839.19	-8.696
839.49	-8.696
839.79	-50.000
840.09	0.000
840.39	-18.182
840.69	6.250
840.99	-31.579
841.29	25.000
841.59	-7.143
841.88	-11.111
842.18	-8.333
842.48	-58.824
842.78	3.448
843.08	42.857
843.38	-7.692
843.68	-55.556
843.97	-53.846
844.27	-27.273
844.57	-220.000
844.87	36.000
845.17	-260.000
845.47	-28.571
845.76	-88.889
846.06	0.000
846.36	-225.000
846.66	-180.000
846.96	-5.263
847.25	-8.333
847.55	8.333
847.85	-6.667
848.15	-140.000
848.44	30.769
848.74	36.842
849.04	500.000
849.34	22.222
849.63	-57.895
849.93	0.000
850.23	-40.000
850.53	4.762
850.82	-40.000
851.12	-47.368
851.42	-500.000
851.71	-57.143
852.01	-58.333
852.31	23.529
852.61	13.333
852.90	-33.333
853.20	-133.333
853.50	-16.667
853.79	-68.421
854.09	-20.000
854.39	-7.143
854.68	-34.783
854.98	-216.667
855.28	0.000
855.57	-100.000
855.87	-30.000
856.17	-33.333
856.46	10.345
856.76	-100.000
857.05	-88.235
857.35	-146.154
857.65	-18.182
857.94	-7.407
858.24	-28.571
858.53	-64.286
858.83	-16.667
859.13	0.000
859.42	57.143
859.72	-200.000
860.01	-366.667
860.31	-137.500
860.60	-260.000
860.90	-44.444
861.20	-75.000
861.49	-157.143
861.79	-70.588
862.08	-450.000
862.38	-83.333
862.67	-15.385
862.97	5.882
863.26	-20.000
863.56	-41.176
863.85	400.000
864.15	-100.000
864.44	-69.231
864.74	-5.000
865.03	-212.500
865.33	-266.667
865.62	11.765
865.92	-375.000
866.21	0.000
866.51	-91.667
866.80	-200.000
867.10	-100.000
867.39	-35.294
867.69	13.043
867.98	-142.857
868.27	-160.000
868.57	-93.750
868.86	-145.455
869.16	5.882
869.45	-16.667
869.75	-157.143
870.04	300.000
870.33	-58.333
870.63	-140.000
870.92	11.111
871.22	-41.667
871.51	-90.909
871.80	-16.667
872.10	-30.000
>>>>>End Processed Spectral Data<<<<<
