SpectraSuite Data File
++++++++++++++++++++++++++++++++++++
Date: Sat May 16 11:15:05 PDT 2015
User: schluterlab
Dark Spectrum Present: Yes
Reference Spectrum Present: Yes
Number of Sampled Component Spectra: 1
Spectrometers: USB2E3373
Integration Time (usec): 3000 (USB2E3373)
Spectra Averaged: 3 (USB2E3373)
Boxcar Smoothing: 0 (USB2E3373)
Correct for Electrical Dark: No (USB2E3373)
Strobe/Lamp Enabled: No (USB2E3373)
Correct for Detector Non-linearity: No (USB2E3373)
Correct for Stray Light: No (USB2E3373)
Number of Pixels in Processed Spectrum: 2048
>>>>>Begin Processed Spectral Data<<<<<
178.53	0.000
178.91	80.000
179.29	433.333
179.67	-1500.000
180.04	30.769
180.42	-200.000
180.80	-0.000
181.18	250.000
181.56	-12.500
181.94	400.000
182.31	225.000
182.69	-30.769
183.07	-133.333
183.45	1300.000
183.83	233.333
184.20	-57.143
184.58	-62.500
184.96	-25.000
185.34	156.250
185.72	-225.000
186.09	200.000
186.47	-200.000
186.85	-150.000
187.23	75.000
187.61	-25.000
187.98	-175.000
188.36	-37.500
188.74	-87.500
189.12	500.000
189.49	200.000
189.87	75.000
190.25	175.000
190.63	28.571
191.00	-111.111
191.38	220.000
191.76	73.333
192.14	360.000
192.51	-320.000
192.89	-333.333
193.27	0.000
193.65	-133.333
194.02	-114.286
194.40	-100.000
194.78	-170.000
195.15	-800.000
195.53	-90.909
195.91	-400.000
196.29	160.000
196.66	-400.000
197.04	2400.000
197.42	-175.000
197.79	86.667
198.17	200.000
198.55	-500.000
198.92	-300.000
199.30	125.000
199.68	-550.000
200.05	-55.556
200.43	-100.000
200.81	-1200.000
201.18	-66.667
201.56	157.143
201.94	6.667
202.31	40.909
202.69	-70.000
203.07	-20.000
203.44	600.000
203.82	-250.000
204.19	-425.000
204.57	-50.000
204.95	-1300.000
205.32	-6.250
205.70	300.000
206.08	-900.000
206.45	-27.778
206.83	-900.000
207.20	0.000
207.58	-533.333
207.96	-700.000
208.33	-87.500
208.71	-111.111
209.08	120.000
209.46	-142.857
209.84	650.000
210.21	0.000
210.59	70.000
210.96	-0.000
211.34	-150.000
211.71	-266.667
212.09	250.000
212.46	1050.000
212.84	-700.000
213.22	300.000
213.59	216.667
213.97	55.556
214.34	180.000
214.72	20.000
215.09	-300.000
215.47	-83.333
215.84	80.000
216.22	-10.000
216.59	66.667
216.97	-325.000
217.34	500.000
217.72	-57.143
218.09	-183.333
218.47	-157.143
218.84	142.857
219.22	-100.000
219.59	0.000
219.97	171.429
220.34	175.000
220.72	212.500
221.09	7.692
221.47	0.000
221.84	-200.000
222.22	-450.000
222.59	-300.000
222.97	-112.500
223.34	-200.000
223.72	-466.667
224.09	-57.143
224.46	-375.000
224.84	14.286
225.21	-128.571
225.59	-18.182
225.96	-125.000
226.34	14.286
226.71	-77.778
227.08	-10.000
227.46	1200.000
227.83	-42.857
228.21	-87.500
228.58	50.000
228.95	-75.000
229.33	-700.000
229.70	-140.000
230.08	-500.000
230.45	-25.000
230.82	-16.667
231.20	-100.000
231.57	-350.000
231.95	1300.000
232.32	4.762
232.69	11.111
233.07	-171.429
233.44	-1100.000
233.81	-73.333
234.19	11.111
234.56	-100.000
234.93	3.125
235.31	-171.429
235.68	-21.429
236.05	-5.882
236.43	-63.636
236.80	3.226
237.17	-16.667
237.55	-14.286
237.92	-63.636
238.29	-17.143
238.67	-17.647
239.04	-11.111
239.41	-51.613
239.79	-35.897
240.16	-28.571
240.53	-18.182
240.91	30.769
241.28	5.455
241.65	-7.692
242.02	4.918
242.40	-21.311
242.77	-6.061
243.14	-3.390
243.51	-27.143
243.89	-1.266
244.26	-2.247
244.63	6.316
245.00	8.421
245.38	1.695
245.75	8.850
246.12	3.200
246.49	1.575
246.87	3.252
247.24	0.847
247.61	-7.627
247.98	6.338
248.36	5.594
248.73	0.000
249.10	3.822
249.47	7.602
249.84	5.114
250.22	-1.786
250.59	3.390
250.96	8.901
251.33	8.531
251.70	8.654
252.08	2.844
252.45	-1.422
252.82	1.905
253.19	4.255
253.56	2.016
253.94	4.219
254.31	6.867
254.68	5.691
255.05	6.452
255.42	7.540
255.79	4.301
256.16	-0.392
256.54	6.985
256.91	3.030
257.28	4.396
257.65	6.738
258.02	7.547
258.39	5.351
258.76	5.743
259.14	7.407
259.51	5.902
259.88	6.098
260.25	5.280
260.62	4.823
260.99	7.418
261.36	5.793
261.73	7.803
262.10	3.889
262.47	2.849
262.85	10.571
263.22	6.017
263.59	4.000
263.96	4.348
264.33	6.233
264.70	6.354
265.07	4.396
265.44	5.426
265.81	4.910
266.18	4.304
266.55	4.902
266.92	7.809
267.29	3.874
267.66	3.704
268.03	7.488
268.40	6.573
268.77	6.506
269.14	5.104
269.51	3.678
269.88	3.440
270.25	5.594
270.62	4.805
270.99	4.279
271.36	7.226
271.73	3.587
272.10	6.407
272.47	3.778
272.84	5.556
273.21	5.734
273.58	5.714
273.95	4.386
274.32	5.430
274.69	6.127
275.06	6.748
275.43	6.250
275.80	6.314
276.17	5.858
276.54	8.147
276.91	3.498
277.28	6.085
277.65	7.025
278.02	5.846
278.39	6.483
278.76	3.187
279.13	6.324
279.50	5.964
279.87	5.708
280.23	6.883
280.60	4.374
280.97	4.854
281.34	3.675
281.71	5.000
282.08	5.847
282.45	3.462
282.82	5.039
283.19	4.364
283.56	7.875
283.92	5.654
284.29	3.346
284.66	5.396
285.03	6.774
285.40	5.904
285.77	6.140
286.14	5.054
286.51	4.440
286.87	6.715
287.24	5.631
287.61	5.950
287.98	5.546
288.35	4.463
288.72	5.433
289.08	4.576
289.45	5.219
289.82	3.460
290.19	5.911
290.56	4.793
290.93	4.928
291.29	4.376
291.66	3.543
292.03	7.221
292.40	5.120
292.77	4.503
293.13	5.041
293.50	5.498
293.87	5.061
294.24	5.128
294.60	3.182
294.97	6.525
295.34	4.889
295.71	5.208
296.08	1.382
296.44	3.147
296.81	5.840
297.18	5.070
297.55	4.379
297.91	6.416
298.28	3.973
298.65	4.742
299.02	5.882
299.38	5.348
299.75	5.299
300.12	4.872
300.48	4.476
300.85	4.063
301.22	4.140
301.59	4.161
301.95	7.305
302.32	3.651
302.69	4.162
303.05	4.518
303.42	4.500
303.79	4.306
304.15	5.687
304.52	5.368
304.89	5.785
305.25	5.739
305.62	3.995
305.99	7.067
306.35	5.216
306.72	5.695
307.09	6.243
307.45	4.881
307.82	5.140
308.19	5.705
308.55	4.031
308.92	4.726
309.29	5.514
309.65	6.469
310.02	5.724
310.38	4.432
310.75	5.738
311.12	6.198
311.48	6.994
311.85	6.900
312.22	7.930
312.58	8.138
312.95	8.359
313.31	8.092
313.68	9.045
314.05	8.803
314.41	7.847
314.78	7.393
315.14	8.786
315.51	7.903
315.87	9.971
316.24	9.718
316.61	10.173
316.97	9.751
317.34	8.960
317.70	10.111
318.07	11.847
318.43	11.142
318.80	11.737
319.16	11.351
319.53	11.090
319.89	12.700
320.26	13.529
320.62	11.154
320.99	13.532
321.35	13.399
321.72	13.101
322.08	15.826
322.45	14.851
322.81	17.675
323.18	17.099
323.54	17.560
323.91	17.424
324.27	18.726
324.64	18.282
325.00	18.499
325.37	19.819
325.73	21.610
326.10	19.929
326.46	22.242
326.83	22.298
327.19	23.103
327.56	24.276
327.92	23.704
328.29	25.541
328.65	24.364
329.01	25.088
329.38	26.851
329.74	26.648
330.11	27.108
330.47	26.703
330.84	27.039
331.20	26.534
331.56	27.165
331.93	27.087
332.29	27.397
332.66	26.514
333.02	27.511
333.38	29.301
333.75	27.427
334.11	28.800
334.48	27.979
334.84	28.609
335.20	27.571
335.57	28.339
335.93	29.454
336.29	27.281
336.66	29.427
337.02	29.189
337.38	28.075
337.75	28.709
338.11	29.159
338.47	28.737
338.84	28.403
339.20	28.998
339.56	29.857
339.93	28.395
340.29	27.812
340.65	28.759
341.02	29.933
341.38	28.475
341.74	29.128
342.11	28.584
342.47	28.841
342.83	28.967
343.20	29.804
343.56	28.082
343.92	29.299
344.28	31.203
344.65	28.713
345.01	28.151
345.37	29.402
345.73	28.560
346.10	27.719
346.46	27.376
346.82	28.629
347.19	28.595
347.55	27.689
347.91	28.740
348.27	28.003
348.63	28.271
349.00	28.481
349.36	28.025
349.72	29.061
350.08	29.350
350.45	29.157
350.81	29.618
351.17	29.984
351.53	28.242
351.89	28.456
352.26	28.062
352.62	29.570
352.98	30.142
353.34	29.736
353.70	28.031
354.07	29.426
354.43	29.644
354.79	29.635
355.15	29.233
355.51	28.984
355.87	28.933
356.24	29.944
356.60	29.412
356.96	29.176
357.32	28.662
357.68	28.429
358.04	29.407
358.40	28.848
358.77	28.825
359.13	29.839
359.49	30.385
359.85	29.726
360.21	30.594
360.57	30.798
360.93	29.407
361.29	31.016
361.66	29.192
362.02	29.734
362.38	30.814
362.74	30.623
363.10	28.838
363.46	30.769
363.82	29.883
364.18	30.897
364.54	32.023
364.90	31.027
365.26	30.884
365.62	31.076
365.98	31.010
366.35	30.775
366.71	30.585
367.07	30.981
367.43	31.091
367.79	30.241
368.15	30.512
368.51	30.769
368.87	31.731
369.23	31.439
369.59	29.792
369.95	30.867
370.31	32.208
370.67	30.007
371.03	31.633
371.39	31.259
371.75	32.189
372.11	31.851
372.47	31.309
372.83	32.267
373.19	32.714
373.55	33.286
373.91	31.579
374.27	31.485
374.63	32.091
374.99	32.684
375.35	31.561
375.71	32.546
376.07	32.444
376.42	32.252
376.78	32.876
377.14	32.881
377.50	33.269
377.86	32.705
378.22	33.543
378.58	32.922
378.94	32.737
379.30	33.394
379.66	33.212
380.02	32.264
380.38	33.414
380.74	33.998
381.09	33.802
381.45	32.876
381.81	33.031
382.17	32.769
382.53	32.766
382.89	32.775
383.25	33.414
383.61	33.491
383.97	33.497
384.32	32.916
384.68	34.281
385.04	34.360
385.40	34.267
385.76	34.207
386.12	33.354
386.48	33.911
386.83	33.252
387.19	33.891
387.55	33.253
387.91	34.084
388.27	33.414
388.62	33.894
388.98	34.525
389.34	32.375
389.70	34.592
390.06	33.810
390.42	34.936
390.77	34.259
391.13	35.901
391.49	34.623
391.85	33.915
392.20	34.163
392.56	33.293
392.92	34.170
393.28	35.075
393.64	34.576
393.99	34.400
394.35	34.489
394.71	34.033
395.07	35.279
395.42	33.671
395.78	33.375
396.14	35.888
396.50	34.862
396.85	34.547
397.21	35.055
397.57	35.137
397.92	35.539
398.28	34.500
398.64	33.908
399.00	35.281
399.35	35.118
399.71	35.017
400.07	35.284
400.42	35.827
400.78	35.242
401.14	35.329
401.49	35.259
401.85	34.594
402.21	34.565
402.57	34.830
402.92	35.620
403.28	34.804
403.63	34.272
403.99	33.996
404.35	35.085
404.70	34.172
405.06	35.179
405.42	35.117
405.77	34.729
406.13	34.583
406.49	35.351
406.84	34.493
407.20	35.041
407.55	34.199
407.91	34.715
408.27	36.213
408.62	34.215
408.98	35.355
409.34	35.101
409.69	34.909
410.05	34.566
410.40	35.561
410.76	34.440
411.11	35.224
411.47	34.399
411.83	34.597
412.18	34.344
412.54	35.082
412.89	35.358
413.25	34.298
413.60	34.022
413.96	34.319
414.31	34.618
414.67	34.159
415.03	34.347
415.38	34.678
415.74	35.180
416.09	35.102
416.45	34.259
416.80	36.021
417.16	35.150
417.51	35.522
417.87	34.822
418.22	35.335
418.58	34.981
418.93	36.113
419.29	36.198
419.64	34.171
420.00	35.176
420.35	34.831
420.71	36.014
421.06	37.101
421.42	35.012
421.77	35.567
422.12	34.639
422.48	36.398
422.83	35.877
423.19	35.356
423.54	35.159
423.90	35.049
424.25	35.464
424.61	36.550
424.96	36.864
425.31	36.445
425.67	36.046
426.02	36.317
426.38	35.874
426.73	36.587
427.09	36.152
427.44	36.648
427.79	35.872
428.15	36.804
428.50	36.657
428.85	36.871
429.21	36.635
429.56	36.667
429.92	37.475
430.27	37.039
430.62	36.782
430.98	37.010
431.33	36.766
431.68	37.962
432.04	37.269
432.39	38.006
432.74	37.590
433.10	38.042
433.45	36.500
433.80	38.354
434.16	37.775
434.51	37.589
434.86	38.547
435.22	37.361
435.57	38.862
435.92	38.980
436.28	39.228
436.63	37.366
436.98	37.686
437.34	37.626
437.69	38.390
438.04	38.741
438.39	38.026
438.75	38.417
439.10	38.145
439.45	37.779
439.81	37.169
440.16	37.990
440.51	37.824
440.86	38.809
441.22	37.313
441.57	38.000
441.92	38.159
442.27	39.123
442.63	39.002
442.98	38.431
443.33	39.264
443.68	39.083
444.03	38.752
444.39	40.088
444.74	38.711
445.09	38.871
445.44	39.111
445.79	38.858
446.15	39.321
446.50	37.779
446.85	38.635
447.20	38.713
447.55	38.232
447.91	39.360
448.26	38.492
448.61	38.540
448.96	39.496
449.31	38.839
449.66	38.580
450.02	38.283
450.37	38.087
450.72	38.531
451.07	38.781
451.42	39.777
451.77	38.959
452.12	39.094
452.47	38.728
452.83	37.857
453.18	39.975
453.53	38.806
453.88	39.833
454.23	37.848
454.58	39.776
454.93	38.413
455.28	39.324
455.63	39.742
455.98	39.699
456.34	38.628
456.69	39.650
457.04	39.582
457.39	38.517
457.74	38.689
458.09	39.965
458.44	40.185
458.79	38.789
459.14	39.247
459.49	39.609
459.84	38.561
460.19	38.365
460.54	38.415
460.89	39.350
461.24	39.405
461.59	39.215
461.94	39.211
462.29	39.726
462.64	39.196
462.99	40.027
463.34	38.960
463.69	38.486
464.04	37.727
464.39	38.949
464.74	38.416
465.09	37.222
465.44	38.015
465.79	39.143
466.14	38.665
466.49	38.227
466.84	39.316
467.19	40.150
467.54	37.785
467.89	38.533
468.24	38.895
468.59	39.038
468.94	39.035
469.29	38.532
469.64	39.016
469.99	38.488
470.34	38.410
470.68	39.535
471.03	39.849
471.38	38.681
471.73	39.231
472.08	37.818
472.43	38.932
472.78	38.267
473.13	38.966
473.48	38.098
473.83	38.400
474.17	38.790
474.52	39.770
474.87	38.403
475.22	38.761
475.57	37.667
475.92	38.715
476.27	37.543
476.61	38.592
476.96	37.898
477.31	38.159
477.66	38.462
478.01	37.979
478.36	38.030
478.70	39.188
479.05	38.129
479.40	38.549
479.75	38.583
480.10	38.839
480.45	36.605
480.79	37.759
481.14	38.585
481.49	38.432
481.84	37.910
482.19	37.688
482.53	38.258
482.88	37.352
483.23	37.136
483.58	38.205
483.92	38.032
484.27	37.129
484.62	37.667
484.97	37.607
485.31	36.320
485.66	36.107
486.01	36.250
486.36	36.990
486.70	37.901
487.05	37.582
487.40	37.553
487.75	37.282
488.09	36.967
488.44	38.024
488.79	37.708
489.13	37.467
489.48	38.622
489.83	37.686
490.17	37.440
490.52	37.409
490.87	36.074
491.22	37.459
491.56	37.454
491.91	37.691
492.26	37.217
492.60	37.108
492.95	37.506
493.30	36.160
493.64	37.518
493.99	36.711
494.34	37.905
494.68	38.062
495.03	37.620
495.37	37.070
495.72	36.542
496.07	37.072
496.41	36.869
496.76	37.397
497.11	36.788
497.45	37.213
497.80	37.069
498.14	37.819
498.49	36.364
498.84	36.505
499.18	37.135
499.53	37.457
499.87	36.197
500.22	36.029
500.56	37.669
500.91	37.291
501.26	37.458
501.60	36.447
501.95	37.681
502.29	36.231
502.64	37.058
502.98	36.033
503.33	36.372
503.67	36.446
504.02	35.732
504.36	36.618
504.71	35.917
505.06	35.547
505.40	37.076
505.75	36.179
506.09	36.906
506.44	35.639
506.78	36.227
507.13	35.376
507.47	36.359
507.82	36.448
508.16	36.166
508.51	36.218
508.85	35.818
509.19	35.583
509.54	35.835
509.88	36.543
510.23	35.639
510.57	36.190
510.92	35.822
511.26	36.151
511.61	35.529
511.95	34.968
512.30	36.339
512.64	35.893
512.98	36.524
513.33	35.585
513.67	35.567
514.02	35.570
514.36	36.565
514.70	35.257
515.05	35.277
515.39	35.698
515.74	36.707
516.08	35.504
516.42	35.581
516.77	35.240
517.11	35.183
517.46	36.842
517.80	36.763
518.14	35.568
518.49	35.087
518.83	35.193
519.17	35.406
519.52	34.702
519.86	35.842
520.20	35.269
520.55	34.646
520.89	35.128
521.23	35.775
521.58	35.110
521.92	34.389
522.26	35.048
522.61	34.284
522.95	34.716
523.29	34.483
523.64	34.603
523.98	34.691
524.32	34.067
524.66	34.286
525.01	34.104
525.35	34.021
525.69	34.613
526.04	33.877
526.38	35.010
526.72	33.525
527.06	34.115
527.41	33.333
527.75	33.003
528.09	34.878
528.43	33.508
528.78	33.543
529.12	34.955
529.46	32.990
529.80	33.828
530.15	34.385
530.49	33.506
530.83	33.792
531.17	32.795
531.51	33.825
531.86	33.575
532.20	32.861
532.54	33.021
532.88	33.663
533.22	33.289
533.57	33.877
533.91	33.021
534.25	32.558
534.59	32.292
534.93	32.794
535.27	32.851
535.62	32.737
535.96	33.290
536.30	31.152
536.64	32.404
536.98	33.475
537.32	32.688
537.66	32.722
538.01	32.715
538.35	33.986
538.69	31.350
539.03	31.686
539.37	32.269
539.71	32.755
540.05	31.460
540.39	32.895
540.73	32.619
541.07	32.445
541.42	31.938
541.76	30.831
542.10	32.816
542.44	31.912
542.78	32.497
543.12	30.482
543.46	31.301
543.80	31.304
544.14	31.363
544.48	31.824
544.82	30.717
545.16	31.187
545.50	31.359
545.84	31.015
546.18	31.345
546.52	31.366
546.86	31.624
547.20	30.520
547.54	30.234
547.88	30.922
548.22	30.734
548.56	31.329
548.90	30.391
549.24	31.044
549.58	30.840
549.92	31.590
550.26	32.009
550.60	31.721
550.94	30.803
551.28	31.151
551.62	29.616
551.96	30.174
552.30	29.826
552.64	29.979
552.98	30.834
553.32	29.293
553.66	30.570
554.00	30.775
554.34	28.881
554.68	29.240
555.02	29.812
555.36	29.835
555.69	28.797
556.03	29.965
556.37	29.516
556.71	29.921
557.05	29.564
557.39	29.399
557.73	30.780
558.07	28.711
558.41	28.945
558.75	28.973
559.08	27.860
559.42	30.245
559.76	29.218
560.10	30.574
560.44	29.624
560.78	28.253
561.12	29.262
561.45	28.493
561.79	27.805
562.13	28.331
562.47	28.641
562.81	27.581
563.15	27.712
563.48	27.298
563.82	28.262
564.16	28.195
564.50	28.159
564.84	28.241
565.17	28.249
565.51	29.074
565.85	28.533
566.19	28.854
566.52	28.245
566.86	27.560
567.20	27.966
567.54	28.884
567.88	27.582
568.21	28.020
568.55	27.094
568.89	27.435
569.23	27.626
569.56	27.028
569.90	27.262
570.24	27.321
570.57	26.221
570.91	26.692
571.25	26.135
571.59	26.787
571.92	26.488
572.26	25.884
572.60	26.435
572.93	26.045
573.27	26.311
573.61	25.495
573.95	26.237
574.28	25.712
574.62	26.258
574.96	25.997
575.29	25.661
575.63	26.360
575.97	25.351
576.30	25.295
576.64	25.535
576.98	25.106
577.31	25.292
577.65	25.498
577.98	25.285
578.32	25.089
578.66	25.713
578.99	25.579
579.33	25.069
579.67	24.880
580.00	25.322
580.34	25.196
580.67	25.423
581.01	24.566
581.35	25.142
581.68	24.466
582.02	24.380
582.35	24.967
582.69	25.397
583.02	25.199
583.36	25.000
583.70	25.013
584.03	25.081
584.37	24.871
584.70	24.425
585.04	24.810
585.37	24.320
585.71	24.286
586.04	23.987
586.38	24.432
586.72	24.352
587.05	24.724
587.39	24.119
587.72	24.024
588.06	24.127
588.39	24.295
588.73	24.532
589.06	25.096
589.40	24.871
589.73	24.717
590.07	23.962
590.40	24.945
590.73	24.230
591.07	24.262
591.40	24.523
591.74	24.240
592.07	23.784
592.41	23.992
592.74	24.481
593.08	23.927
593.41	23.520
593.75	23.376
594.08	24.335
594.41	24.325
594.75	23.518
595.08	23.459
595.42	23.880
595.75	23.484
596.09	23.516
596.42	23.732
596.75	23.329
597.09	24.711
597.42	23.352
597.75	23.384
598.09	23.588
598.42	23.641
598.76	22.924
599.09	22.968
599.42	22.799
599.76	22.839
600.09	23.817
600.42	22.864
600.76	22.787
601.09	22.826
601.42	22.715
601.76	23.481
602.09	22.536
602.42	23.333
602.76	22.559
603.09	22.984
603.42	23.368
603.76	23.175
604.09	22.787
604.42	22.190
604.76	22.242
605.09	23.282
605.42	23.005
605.75	22.639
606.09	22.499
606.42	22.413
606.75	22.155
607.09	23.114
607.42	21.479
607.75	22.163
608.08	22.775
608.42	22.091
608.75	22.290
609.08	22.796
609.41	21.724
609.75	21.404
610.08	22.108
610.41	22.169
610.74	22.534
611.07	22.262
611.41	21.785
611.74	22.057
612.07	21.966
612.40	21.855
612.73	21.756
613.07	21.354
613.40	22.824
613.73	21.744
614.06	21.087
614.39	21.702
614.72	21.285
615.06	21.359
615.39	20.564
615.72	21.619
616.05	20.817
616.38	22.635
616.71	20.841
617.05	21.773
617.38	21.858
617.71	20.639
618.04	21.988
618.37	21.447
618.70	22.099
619.03	20.853
619.36	21.071
619.69	21.895
620.03	20.937
620.36	21.519
620.69	21.680
621.02	20.624
621.35	21.532
621.68	21.148
622.01	21.278
622.34	21.429
622.67	20.625
623.00	20.735
623.33	21.567
623.66	19.498
623.99	20.977
624.32	20.387
624.65	20.015
624.99	20.090
625.32	20.659
625.65	20.202
625.98	19.953
626.31	21.452
626.64	19.916
626.97	21.490
627.30	20.936
627.63	19.516
627.96	20.191
628.29	20.864
628.62	20.153
628.95	20.276
629.28	21.523
629.61	20.805
629.94	21.267
630.26	21.372
630.59	21.407
630.92	20.120
631.25	22.379
631.58	20.529
631.91	19.681
632.24	21.556
632.57	20.889
632.90	20.575
633.23	19.276
633.56	20.819
633.89	20.165
634.22	19.481
634.55	19.832
634.88	20.435
635.20	18.851
635.53	19.720
635.86	19.018
636.19	19.536
636.52	20.908
636.85	18.412
637.18	17.750
637.51	20.074
637.83	19.441
638.16	20.263
638.49	20.414
638.82	19.305
639.15	21.141
639.48	19.196
639.81	22.268
640.13	19.324
640.46	22.222
640.79	18.627
641.12	21.580
641.45	21.090
641.77	17.964
642.10	19.335
642.43	21.093
642.76	19.213
643.09	19.048
643.41	19.365
643.74	19.078
644.07	19.345
644.40	18.639
644.73	19.967
645.05	17.863
645.38	17.715
645.71	20.962
646.04	21.849
646.36	18.848
646.69	17.474
647.02	20.217
647.35	19.134
647.67	19.526
648.00	21.617
648.33	20.067
648.66	18.387
648.98	17.675
649.31	20.769
649.64	18.125
649.96	19.466
650.29	16.721
650.62	19.449
650.94	18.381
651.27	17.851
651.60	18.166
651.92	20.205
652.25	18.865
652.58	16.695
652.90	19.422
653.23	18.387
653.56	17.224
653.88	17.049
654.21	18.456
654.54	19.934
654.86	18.299
655.19	18.911
655.52	18.367
655.84	16.688
656.17	17.932
656.49	25.077
656.82	26.579
657.15	20.332
657.47	14.887
657.80	11.474
658.13	13.139
658.45	18.106
658.78	18.269
659.10	18.804
659.43	18.340
659.75	18.883
660.08	18.750
660.41	17.750
660.73	19.802
661.06	20.580
661.38	18.750
661.71	17.973
662.03	17.742
662.36	15.778
662.68	19.409
663.01	18.471
663.33	15.420
663.66	19.099
663.98	15.848
664.31	14.318
664.63	19.469
664.96	16.703
665.28	19.306
665.61	14.376
665.93	17.284
666.26	18.421
666.58	18.711
666.91	17.372
667.23	19.298
667.56	16.327
667.88	19.231
668.21	17.281
668.53	16.355
668.86	18.245
669.18	18.950
669.50	16.822
669.83	18.735
670.15	15.247
670.48	15.654
670.80	17.540
671.13	16.704
671.45	14.865
671.77	17.987
672.10	16.765
672.42	19.742
672.75	17.636
673.07	16.577
673.39	16.576
673.72	18.307
674.04	15.924
674.37	14.433
674.69	18.443
675.01	14.894
675.34	16.486
675.66	19.006
675.98	16.300
676.31	17.195
676.63	14.023
676.95	17.035
677.28	17.633
677.60	17.647
677.92	15.419
678.25	18.818
678.57	15.844
678.89	15.514
679.22	14.465
679.54	17.949
679.86	14.800
680.18	16.350
680.51	15.270
680.83	17.714
681.15	15.414
681.48	19.473
681.80	14.718
682.12	16.700
682.44	16.110
682.77	14.286
683.09	18.658
683.41	16.593
683.73	14.612
684.06	14.839
684.38	16.946
684.70	14.198
685.02	14.173
685.34	16.959
685.67	15.530
685.99	13.422
686.31	15.260
686.63	15.426
686.96	17.006
687.28	13.295
687.60	14.648
687.92	13.424
688.24	14.567
688.56	16.032
688.89	13.034
689.21	14.223
689.53	12.184
689.85	16.704
690.17	10.987
690.49	14.088
690.82	16.386
691.14	12.972
691.46	15.965
691.78	15.639
692.10	15.678
692.42	14.667
692.74	15.021
693.06	15.730
693.39	15.436
693.71	13.770
694.03	14.687
694.35	13.544
694.67	15.366
694.99	12.532
695.31	16.071
695.63	16.837
695.95	15.136
696.27	16.708
696.59	16.310
696.91	18.820
697.23	13.021
697.56	13.942
697.88	12.387
698.20	12.420
698.52	13.229
698.84	16.019
699.16	13.810
699.48	12.250
699.80	19.048
700.12	14.861
700.44	10.615
700.76	15.160
701.08	15.116
701.40	16.012
701.72	13.580
702.04	16.026
702.36	13.253
702.68	12.275
703.00	14.203
703.32	12.607
703.64	16.471
703.96	13.372
704.28	15.680
704.60	11.076
704.91	15.238
705.23	15.210
705.55	17.230
705.87	16.041
706.19	14.931
706.51	12.847
706.83	17.377
707.15	11.146
707.47	16.253
707.79	12.113
708.11	11.450
708.43	16.209
708.74	13.247
709.06	13.928
709.38	12.356
709.70	10.000
710.02	15.337
710.34	14.191
710.66	13.968
710.98	10.726
711.29	12.903
711.61	13.738
711.93	14.426
712.25	12.292
712.57	11.498
712.89	20.144
713.20	18.213
713.52	8.209
713.84	13.523
714.16	12.459
714.48	13.968
714.80	13.231
715.11	9.222
715.43	16.566
715.75	15.576
716.07	13.770
716.39	15.719
716.70	14.634
717.02	14.444
717.34	13.359
717.66	9.959
717.97	13.525
718.29	13.445
718.61	15.079
718.93	17.563
719.24	10.294
719.56	10.189
719.88	11.636
720.20	11.610
720.51	15.038
720.83	11.245
721.15	15.164
721.46	14.902
721.78	8.812
722.10	14.800
722.42	12.810
722.73	11.155
723.05	13.655
723.37	13.333
723.68	14.170
724.00	18.293
724.32	11.934
724.63	12.863
724.95	16.942
725.27	10.088
725.58	12.500
725.90	9.524
726.22	16.974
726.53	12.548
726.85	5.882
727.16	13.158
727.48	9.615
727.80	10.656
728.11	12.605
728.43	12.810
728.74	15.234
729.06	12.879
729.38	12.840
729.69	12.205
730.01	13.386
730.32	10.757
730.64	15.751
730.96	14.552
731.27	7.500
731.59	13.505
731.90	9.509
732.22	14.724
732.53	18.212
732.85	10.403
733.16	15.580
733.48	12.195
733.80	7.117
734.11	11.379
734.43	9.184
734.74	11.276
735.06	12.226
735.37	10.398
735.69	10.323
736.00	8.081
736.32	12.252
736.63	10.345
736.95	11.232
737.26	12.914
737.58	10.432
737.89	12.903
738.21	7.519
738.52	15.769
738.83	14.062
739.15	12.393
739.46	15.726
739.78	13.636
740.09	10.140
740.41	12.587
740.72	13.139
741.04	12.698
741.35	9.524
741.66	14.815
741.98	7.619
742.29	15.493
742.61	16.043
742.92	15.421
743.23	8.772
743.55	9.459
743.86	19.556
744.18	10.952
744.49	16.256
744.80	17.259
745.12	10.825
745.43	10.050
745.74	12.136
746.06	6.829
746.37	16.740
746.68	15.423
747.00	8.377
747.31	4.808
747.62	10.138
747.94	16.157
748.25	12.558
748.56	10.000
748.88	4.348
749.19	11.737
749.50	16.176
749.82	12.000
750.13	14.537
750.44	13.008
750.75	3.600
751.07	15.357
751.38	5.904
751.69	10.687
752.01	10.769
752.32	11.284
752.63	7.692
752.94	9.921
753.26	13.478
753.57	9.375
753.88	7.759
754.19	9.959
754.51	7.812
754.82	8.696
755.13	13.580
755.44	10.331
755.75	13.169
756.07	5.221
756.38	10.937
756.69	10.108
757.00	10.105
757.31	10.738
757.63	14.019
757.94	11.561
758.25	7.267
758.56	12.668
758.87	9.659
759.18	6.000
759.50	12.100
759.81	4.015
760.12	5.743
760.43	15.210
760.74	14.375
761.05	14.607
761.36	10.479
761.67	11.243
761.99	5.806
762.30	11.232
762.61	14.340
762.92	12.556
763.23	9.953
763.54	8.000
763.85	11.392
764.16	8.163
764.47	8.475
764.78	10.112
765.10	14.748
765.41	9.355
765.72	11.950
766.03	4.594
766.34	10.902
766.65	5.263
766.96	8.500
767.27	10.417
767.58	5.233
767.89	9.677
768.20	13.497
768.51	16.940
768.82	10.270
769.13	6.500
769.44	6.140
769.75	12.554
770.06	7.339
770.37	14.085
770.68	15.625
770.99	10.396
771.30	12.136
771.61	8.333
771.92	7.792
772.23	8.411
772.54	6.915
772.85	4.142
773.16	10.976
773.47	14.458
773.78	14.286
774.09	6.667
774.39	8.642
774.70	5.369
775.01	7.971
775.32	7.463
775.63	-4.132
775.94	17.293
776.25	7.857
776.56	10.656
776.87	20.354
777.18	13.274
777.48	-4.545
777.79	5.217
778.10	0.000
778.41	4.237
778.72	14.876
779.03	17.164
779.34	9.774
779.65	7.190
779.95	12.319
780.26	-2.721
780.57	0.000
780.88	12.037
781.19	5.051
781.50	-3.200
781.80	11.111
782.11	3.846
782.42	7.229
782.73	7.299
783.04	12.162
783.34	5.303
783.65	10.078
783.96	11.382
784.27	12.821
784.57	0.000
784.88	4.065
785.19	18.421
785.50	-10.309
785.81	4.762
786.11	0.000
786.42	-2.727
786.73	6.306
787.04	8.911
787.34	12.381
787.65	8.571
787.96	5.882
788.26	16.216
788.57	5.645
788.88	6.250
789.19	3.419
789.49	3.361
789.80	0.000
790.11	9.735
790.41	0.000
790.72	15.094
791.03	8.333
791.33	5.263
791.64	19.355
791.95	1.333
792.25	8.571
792.56	3.659
792.87	17.347
793.17	10.526
793.48	-16.216
793.79	4.225
794.09	12.658
794.40	7.447
794.70	4.673
795.01	4.386
795.32	-4.545
795.62	12.500
795.93	10.309
796.23	-4.396
796.54	11.579
796.85	-1.370
797.15	-2.778
797.46	0.000
797.76	1.408
798.07	10.000
798.37	5.882
798.68	4.286
798.99	-2.857
799.29	11.842
799.60	1.667
799.90	0.000
800.21	4.688
800.51	0.000
800.82	1.639
801.12	-7.018
801.43	-8.451
801.73	-8.475
802.04	14.754
802.34	14.545
802.65	-11.538
802.95	3.704
803.26	-2.500
803.56	3.846
803.87	-15.789
804.17	-3.226
804.48	1.538
804.78	-33.333
805.09	11.628
805.39	-50.000
805.70	-7.547
806.00	28.070
806.30	17.568
806.61	10.294
806.91	13.580
807.22	0.000
807.52	7.463
807.83	-9.677
808.13	4.762
808.43	-5.455
808.74	12.121
809.04	11.321
809.35	13.699
809.65	14.035
809.95	23.529
810.26	-1.961
810.56	-6.000
810.86	10.204
811.17	5.714
811.47	3.846
811.77	-25.806
812.08	-44.737
812.38	11.905
812.69	-19.565
812.99	-6.452
813.29	14.286
813.59	-62.963
813.90	-4.255
814.20	-20.930
814.50	-20.833
814.81	-1.667
815.11	-12.195
815.41	-33.333
815.72	-2.857
816.02	-19.444
816.32	2.564
816.62	-5.405
816.93	-38.235
817.23	17.391
817.53	-20.588
817.84	-2.941
818.14	-40.625
818.44	-37.931
818.74	-45.161
819.04	-40.741
819.35	-30.000
819.65	-32.000
819.95	3.333
820.25	-16.000
820.56	0.000
820.86	-5.000
821.16	8.511
821.46	8.621
821.76	-20.513
822.07	-10.000
822.37	-11.628
822.67	-23.333
822.97	-13.514
823.27	-10.811
823.57	-40.000
823.88	-2.703
824.18	-71.429
824.48	15.385
824.78	-76.923
825.08	-47.826
825.38	-25.000
825.69	25.000
825.99	-40.000
826.29	-10.811
826.59	-14.706
826.89	8.000
827.19	-17.143
827.49	15.789
827.79	-31.250
828.09	-26.667
828.39	13.043
828.70	-31.034
829.00	-6.897
829.30	-27.778
829.60	21.875
829.90	0.000
830.20	-11.538
830.50	-66.667
830.80	-35.714
831.10	-2.564
831.40	-61.905
831.70	0.000
832.00	0.000
832.30	-21.053
832.60	-43.750
832.90	-33.333
833.20	-88.235
833.50	-93.333
833.80	13.333
834.10	-25.000
834.40	-16.667
834.70	-33.333
835.00	-3.846
835.30	-91.667
835.60	-20.690
835.90	-61.111
836.20	-136.364
836.50	-116.667
836.80	-8.571
837.10	25.714
837.40	-29.412
837.70	-90.909
838.00	4.167
838.30	-31.250
838.60	-38.095
838.90	20.000
839.19	-78.261
839.49	-39.130
839.79	-44.444
840.09	-21.739
840.39	-54.545
840.69	-87.500
840.99	15.789
841.29	0.000
841.59	-14.286
841.88	-44.444
842.18	-29.167
842.48	-100.000
842.78	-10.345
843.08	-50.000
843.38	15.385
843.68	-155.556
843.97	-69.231
844.27	-118.182
844.57	0.000
844.87	16.000
845.17	60.000
845.47	-35.714
845.76	-100.000
846.06	0.000
846.36	-400.000
846.66	-80.000
846.96	-47.368
847.25	-20.833
847.55	-66.667
847.85	53.333
848.15	-130.000
848.44	42.308
848.74	15.789
849.04	566.667
849.34	-33.333
849.63	-15.789
849.93	0.000
850.23	-60.000
850.53	-9.524
850.82	-12.000
851.12	-36.842
851.42	-550.000
851.71	-35.714
852.01	-16.667
852.31	41.176
852.61	-26.667
852.90	-38.095
853.20	66.667
853.50	5.556
853.79	21.053
854.09	-13.333
854.39	-35.714
854.68	-30.435
854.98	-150.000
855.28	10.345
855.57	-68.750
855.87	-40.000
856.17	-66.667
856.46	34.483
856.76	-33.333
857.05	-88.235
857.35	-207.692
857.65	100.000
857.94	-14.815
858.24	-78.571
858.53	-71.429
858.83	-91.667
859.13	-133.333
859.42	38.095
859.72	-100.000
860.01	-500.000
860.31	-62.500
860.60	-320.000
860.90	-155.556
861.20	-112.500
861.49	-42.857
861.79	52.941
862.08	-550.000
862.38	-66.667
862.67	-76.923
862.97	-35.294
863.26	5.000
863.56	-64.706
863.85	433.333
864.15	-20.000
864.44	-30.769
864.74	40.000
865.03	-287.500
865.33	-283.333
865.62	-29.412
865.92	-475.000
866.21	-57.143
866.51	-50.000
866.80	-900.000
867.10	-200.000
867.39	-82.353
867.69	-43.478
867.98	-100.000
868.27	-240.000
868.57	0.000
868.86	-109.091
869.16	-5.882
869.45	-116.667
869.75	-14.286
870.04	600.000
870.33	-16.667
870.63	-180.000
870.92	88.889
871.22	-50.000
871.51	9.091
871.80	8.333
872.10	0.000
>>>>>End Processed Spectral Data<<<<<
