SpectraSuite Data File
++++++++++++++++++++++++++++++++++++
Date: Sat May 16 11:36:22 PDT 2015
User: schluterlab
Dark Spectrum Present: Yes
Reference Spectrum Present: Yes
Number of Sampled Component Spectra: 1
Spectrometers: USB2E3373
Integration Time (usec): 3000 (USB2E3373)
Spectra Averaged: 3 (USB2E3373)
Boxcar Smoothing: 0 (USB2E3373)
Correct for Electrical Dark: No (USB2E3373)
Strobe/Lamp Enabled: No (USB2E3373)
Correct for Detector Non-linearity: No (USB2E3373)
Correct for Stray Light: No (USB2E3373)
Number of Pixels in Processed Spectrum: 2048
>>>>>Begin Processed Spectral Data<<<<<
178.53	0.000
178.91	73.333
179.29	600.000
179.67	-1200.000
180.04	-76.923
180.42	1200.000
180.80	475.000
181.18	325.000
181.56	-187.500
181.94	2000.000
182.31	475.000
182.69	-107.692
183.07	-633.333
183.45	1450.000
183.83	633.333
184.20	-300.000
184.58	-150.000
184.96	-325.000
185.34	150.000
185.72	-625.000
186.09	350.000
186.47	-212.500
186.85	-175.000
187.23	-162.500
187.61	-225.000
187.98	-400.000
188.36	-150.000
188.74	-200.000
189.12	2100.000
189.49	242.857
189.87	-58.333
190.25	375.000
190.63	-42.857
191.00	-122.222
191.38	240.000
191.76	-20.000
192.14	600.000
192.51	-340.000
192.89	-300.000
193.27	0.000
193.65	-200.000
194.02	-271.429
194.40	433.333
194.78	-90.000
195.15	-1100.000
195.53	-100.000
195.91	-500.000
196.29	360.000
196.66	-666.667
197.04	1500.000
197.42	-300.000
197.79	-20.000
198.17	-300.000
198.55	-1000.000
198.92	-1900.000
199.30	337.500
199.68	-750.000
200.05	-133.333
200.43	-166.667
200.81	-1500.000
201.18	-166.667
201.56	214.286
201.94	-46.667
202.31	22.727
202.69	-40.000
203.07	-140.000
203.44	733.333
203.82	-283.333
204.19	-425.000
204.57	-200.000
204.95	-500.000
205.32	-50.000
205.70	1200.000
206.08	-3800.000
206.45	-11.111
206.83	-1350.000
207.20	-300.000
207.58	-766.667
207.96	-766.667
208.33	-300.000
208.71	-166.667
209.08	240.000
209.46	-271.429
209.84	650.000
210.21	0.000
210.59	50.000
210.96	600.000
211.34	-300.000
211.71	-200.000
212.09	325.000
212.46	1100.000
212.84	-3100.000
213.22	766.667
213.59	158.333
213.97	-44.444
214.34	230.000
214.72	-140.000
215.09	-533.333
215.47	-316.667
215.84	-110.000
216.22	-190.000
216.59	-40.000
216.97	-550.000
217.34	900.000
217.72	-157.143
218.09	-183.333
218.47	-428.571
218.84	400.000
219.22	-171.429
219.59	0.000
219.97	328.571
220.34	525.000
220.72	175.000
221.09	-38.462
221.47	0.000
221.84	433.333
222.22	-600.000
222.59	700.000
222.97	-287.500
223.34	-800.000
223.72	-600.000
224.09	-128.571
224.46	-325.000
224.84	-14.286
225.21	-171.429
225.59	-45.455
225.96	-237.500
226.34	-242.857
226.71	-144.444
227.08	-35.000
227.46	1500.000
227.83	-185.714
228.21	-200.000
228.58	650.000
228.95	-31.250
229.33	-1900.000
229.70	-560.000
230.08	-1450.000
230.45	-83.333
230.82	-283.333
231.20	-1900.000
231.57	-700.000
231.95	1500.000
232.32	-42.857
232.69	-133.333
233.07	-285.714
233.44	-650.000
233.81	-100.000
234.19	-222.222
234.56	-118.750
234.93	-3.125
235.31	-157.143
235.68	-135.714
236.05	-29.412
236.43	-81.818
236.80	-32.258
237.17	-25.000
237.55	-66.667
237.92	-81.818
238.29	-5.714
238.67	-8.824
239.04	-16.667
239.41	-67.742
239.79	-41.026
240.16	-19.048
240.53	-21.818
240.91	-12.821
241.28	-7.273
241.65	10.769
242.02	16.393
242.40	-9.836
242.77	3.030
243.14	-15.254
243.51	-11.429
243.89	-3.797
244.26	-2.247
244.63	5.263
245.00	1.053
245.38	2.542
245.75	1.770
246.12	3.200
246.49	0.000
246.87	5.691
247.24	13.559
247.61	-15.254
247.98	7.746
248.36	-3.497
248.73	6.329
249.10	3.185
249.47	11.111
249.84	14.205
250.22	-1.786
250.59	10.734
250.96	5.236
251.33	10.900
251.70	12.019
252.08	12.322
252.45	13.270
252.82	4.286
253.19	11.915
253.56	8.871
253.94	6.329
254.31	15.021
254.68	8.943
255.05	7.661
255.42	13.492
255.79	6.452
256.16	11.765
256.54	10.662
256.91	10.606
257.28	8.059
257.65	11.702
258.02	14.151
258.39	10.033
258.76	9.122
259.14	9.259
259.51	13.115
259.88	16.159
260.25	14.907
260.62	12.862
260.99	10.089
261.36	11.890
261.73	13.006
262.10	13.056
262.47	11.681
262.85	11.714
263.22	12.034
263.59	8.923
263.96	11.594
264.33	13.279
264.70	14.641
265.07	11.538
265.44	14.212
265.81	9.819
266.18	11.646
266.55	10.294
266.92	14.106
267.29	12.833
267.66	10.864
268.03	13.527
268.40	12.207
268.77	11.325
269.14	11.369
269.51	11.954
269.88	9.404
270.25	9.790
270.62	9.611
270.99	14.414
271.36	15.385
271.73	11.435
272.10	11.899
272.47	9.333
272.84	12.222
273.21	14.450
273.58	12.747
273.95	12.500
274.32	13.122
274.69	14.442
275.06	14.110
275.43	11.384
275.80	13.442
276.17	11.088
276.54	14.868
276.91	10.288
277.28	13.387
277.65	15.083
278.02	12.317
278.39	12.377
278.76	10.757
279.13	11.462
279.50	14.513
279.87	11.839
280.23	11.336
280.60	12.525
280.97	10.680
281.34	11.992
281.71	12.308
282.08	14.113
282.45	11.813
282.82	11.628
283.19	11.818
283.56	14.286
283.92	13.251
284.29	10.595
284.66	11.331
285.03	15.686
285.40	14.207
285.77	13.860
286.14	11.011
286.51	12.966
286.87	12.704
287.24	13.311
287.61	13.719
287.98	10.399
288.35	11.074
288.72	12.394
289.08	10.508
289.45	12.121
289.82	10.381
290.19	14.286
290.56	9.752
290.93	12.878
291.29	10.535
291.66	12.721
292.03	13.030
292.40	11.898
292.77	12.578
293.13	14.146
293.50	11.887
293.87	11.043
294.24	12.368
294.60	9.242
294.97	11.229
295.34	9.037
295.71	11.161
296.08	10.906
296.44	9.442
296.81	11.538
297.18	10.141
297.55	12.994
297.91	12.971
298.28	10.548
298.65	11.994
299.02	11.631
299.38	11.631
299.75	11.413
300.12	10.897
300.48	12.148
300.85	9.961
301.22	11.643
301.59	11.573
301.95	13.224
302.32	9.387
302.69	11.016
303.05	10.012
303.42	10.625
303.79	10.646
304.15	12.559
304.52	11.669
304.89	11.570
305.25	10.623
305.62	9.048
305.99	11.896
306.35	12.542
306.72	10.023
307.09	13.507
307.45	11.351
307.82	10.838
308.19	11.409
308.55	10.349
308.92	9.667
309.29	10.486
309.65	11.453
310.02	10.799
310.38	9.405
310.75	11.270
311.12	11.054
311.48	12.735
311.85	9.578
312.22	10.299
312.58	11.699
312.95	10.805
313.31	11.189
313.68	12.261
314.05	12.859
314.41	10.262
314.78	11.189
315.14	11.550
315.51	12.057
315.87	11.907
316.24	12.051
316.61	11.804
316.97	12.139
317.34	13.006
317.70	11.224
318.07	11.847
318.43	10.861
318.80	13.146
319.16	11.445
319.53	12.500
319.89	11.289
320.26	11.078
320.62	11.154
320.99	11.343
321.35	11.626
321.72	10.747
322.08	12.463
322.45	10.495
322.81	12.104
323.18	12.392
323.54	12.662
323.91	12.141
324.27	12.643
324.64	11.700
325.00	12.304
325.37	12.217
325.73	12.598
326.10	11.692
326.46	12.785
326.83	12.596
327.19	12.844
327.56	12.436
327.92	12.574
328.29	13.853
328.65	12.818
329.01	13.869
329.38	12.400
329.74	13.828
330.11	14.053
330.47	12.080
330.84	13.749
331.20	13.087
331.56	13.036
331.93	12.789
332.29	13.881
332.66	12.906
333.02	12.489
333.38	14.068
333.75	13.891
334.11	12.978
334.48	12.533
334.84	13.473
335.20	12.589
335.57	12.545
335.93	15.130
336.29	12.755
336.66	12.599
337.02	13.964
337.38	12.478
337.75	12.379
338.11	13.148
338.47	12.633
338.84	12.341
339.20	13.093
339.56	13.725
339.93	12.434
340.29	12.400
340.65	12.413
341.02	13.659
341.38	12.890
341.74	13.209
342.11	13.396
342.47	13.047
342.83	12.091
343.20	12.895
343.56	11.102
343.92	13.523
344.28	14.130
344.65	12.624
345.01	13.529
345.37	14.701
345.73	11.375
346.10	11.447
346.46	13.729
346.82	12.510
347.19	11.915
347.55	12.039
347.91	13.307
348.27	12.331
348.63	14.216
349.00	12.808
349.36	12.256
349.72	13.057
350.08	13.713
350.45	12.372
350.81	13.376
351.17	12.621
351.53	12.729
351.89	12.530
352.26	12.791
352.62	13.671
352.98	12.342
353.34	13.110
353.70	13.668
354.07	13.139
354.43	13.992
354.79	12.678
355.15	11.901
355.51	11.328
355.87	12.490
356.24	12.391
356.60	14.504
356.96	13.934
357.32	12.668
357.68	12.414
358.04	11.932
358.40	13.689
358.77	12.674
359.13	13.389
359.49	12.774
359.85	12.805
360.21	12.481
360.57	13.855
360.93	13.481
361.29	12.556
361.66	10.899
362.02	12.130
362.38	12.326
362.74	12.381
363.10	12.841
363.46	14.031
363.82	12.901
364.18	12.301
364.54	14.367
364.90	12.369
365.26	12.054
365.62	13.542
365.98	14.011
366.35	12.254
366.71	12.685
367.07	12.421
367.43	14.345
367.79	12.715
368.15	12.589
368.51	13.147
368.87	13.599
369.23	12.702
369.59	13.264
369.95	13.813
370.31	13.783
370.67	12.437
371.03	12.974
371.39	12.235
371.75	13.734
372.11	12.267
372.47	12.654
372.83	12.656
373.19	12.571
373.55	14.286
373.91	12.945
374.27	13.347
374.63	13.872
374.99	13.700
375.35	12.584
375.71	14.315
376.07	13.142
376.42	11.921
376.78	13.268
377.14	12.881
377.50	13.926
377.86	13.199
378.22	13.317
378.58	12.662
378.94	12.700
379.30	13.650
379.66	13.054
380.02	13.191
380.38	12.931
380.74	13.072
381.09	13.591
381.45	14.379
381.81	13.188
382.17	12.782
382.53	12.827
382.89	14.055
383.25	14.148
383.61	14.033
383.97	14.268
384.32	13.079
384.68	14.148
385.04	12.923
385.40	12.964
385.76	13.537
386.12	13.804
386.48	14.295
386.83	13.865
387.19	13.449
387.55	13.507
387.91	13.693
388.27	13.148
388.62	13.161
388.98	13.265
389.34	14.443
389.70	13.216
390.06	13.797
390.42	13.397
390.77	13.691
391.13	14.348
391.49	14.036
391.85	13.965
392.20	13.107
392.56	13.073
392.92	14.090
393.28	14.524
393.64	13.590
393.99	14.523
394.35	13.504
394.71	13.342
395.07	14.187
395.42	13.766
395.78	13.136
396.14	14.206
396.50	14.128
396.85	13.510
397.21	13.548
397.57	13.860
397.92	14.520
398.28	13.833
398.64	14.277
399.00	14.101
399.35	13.980
399.71	14.460
400.07	13.731
400.42	14.538
400.78	13.119
401.14	13.952
401.49	14.092
401.85	14.155
402.21	13.349
402.57	13.774
402.92	14.034
403.28	13.909
403.63	13.421
403.99	13.487
404.35	13.647
404.70	13.868
405.06	14.821
405.42	13.592
405.77	13.971
406.13	13.174
406.49	14.140
406.84	13.617
407.20	14.782
407.55	12.920
407.91	12.824
408.27	14.645
408.62	14.492
408.98	14.190
409.34	13.589
409.69	14.745
410.05	13.948
410.40	13.795
410.76	15.175
411.11	14.090
411.47	13.747
411.83	14.548
412.18	13.923
412.54	13.423
412.89	14.459
413.25	13.577
413.60	13.730
413.96	12.877
414.31	14.679
414.67	13.714
415.03	13.713
415.38	13.988
415.74	14.433
416.09	13.747
416.45	13.294
416.80	14.109
417.16	13.688
417.51	15.102
417.87	13.786
418.22	13.654
418.58	14.313
418.93	14.531
419.29	14.868
419.64	13.882
420.00	14.216
420.35	13.838
420.71	13.866
421.06	14.970
421.42	13.349
421.77	13.680
422.12	14.382
422.48	14.591
422.83	13.952
423.19	13.307
423.54	14.870
423.90	14.286
424.25	14.253
424.61	14.113
424.96	14.511
425.31	14.310
425.67	14.212
426.02	13.655
426.38	14.640
426.73	14.611
427.09	14.645
427.44	14.034
427.79	14.593
428.15	14.482
428.50	14.721
428.85	14.269
429.21	13.835
429.56	14.375
429.92	15.180
430.27	14.158
430.62	14.211
430.98	14.637
431.33	14.141
431.68	14.960
432.04	15.109
432.39	16.125
432.74	14.808
433.10	14.406
433.45	13.472
433.80	15.062
434.16	14.777
434.51	14.575
434.86	15.114
435.22	14.477
435.57	14.259
435.92	15.299
436.28	14.481
436.63	14.302
436.98	14.719
437.34	15.357
437.69	14.469
438.04	15.031
438.39	15.162
438.75	14.319
439.10	15.047
439.45	14.544
439.81	15.120
440.16	14.651
440.51	14.941
440.86	14.691
441.22	14.096
441.57	14.947
441.92	14.578
442.27	15.152
442.63	14.431
442.98	14.673
443.33	15.211
443.68	14.799
444.03	14.980
444.39	14.586
444.74	14.978
445.09	14.857
445.44	14.856
445.79	14.737
446.15	15.936
446.50	14.970
446.85	15.187
447.20	14.913
447.55	15.525
447.91	15.048
448.26	15.028
448.61	14.827
448.96	15.406
449.31	15.558
449.66	15.512
450.02	15.069
450.37	14.899
450.72	14.181
451.07	14.519
451.42	14.622
451.77	15.978
452.12	15.435
452.47	15.680
452.83	14.910
453.18	15.370
453.53	14.988
453.88	16.208
454.23	14.571
454.58	16.035
454.93	15.050
455.28	15.233
455.63	15.541
455.98	15.602
456.34	14.422
456.69	16.260
457.04	15.366
457.39	15.311
457.74	15.357
458.09	16.125
458.44	15.647
458.79	14.574
459.14	15.916
459.49	15.038
459.84	15.964
460.19	14.618
460.54	14.943
460.89	14.798
461.24	15.968
461.59	15.123
461.94	15.341
462.29	16.021
462.64	16.140
462.99	16.399
463.34	15.463
463.69	14.504
464.04	14.997
464.39	15.950
464.74	15.721
465.09	14.913
465.44	15.059
465.79	16.131
466.14	16.226
466.49	15.717
466.84	16.146
467.19	14.651
467.54	15.063
467.89	16.030
468.24	15.618
468.59	15.365
468.94	15.177
469.29	14.360
469.64	15.364
469.99	16.475
470.34	15.230
470.68	17.297
471.03	17.137
471.38	16.111
471.73	15.455
472.08	15.328
472.43	15.894
472.78	15.867
473.13	15.242
473.48	15.763
473.83	15.695
474.17	16.497
474.52	16.496
474.87	16.084
475.22	15.811
475.57	16.111
475.92	16.037
476.27	15.543
476.61	15.887
476.96	15.875
477.31	16.577
477.66	16.491
478.01	16.802
478.36	16.291
478.70	16.017
479.05	17.361
479.40	16.114
479.75	16.157
480.10	15.923
480.45	15.184
480.79	16.634
481.14	16.458
481.49	16.167
481.84	16.597
482.19	15.943
482.53	16.477
482.88	16.042
483.23	16.620
483.58	16.790
483.92	16.101
484.27	15.729
484.62	16.199
484.97	15.978
485.31	15.296
485.66	15.268
486.01	15.349
486.36	15.622
486.70	16.290
487.05	15.690
487.40	16.213
487.75	15.974
488.09	15.473
488.44	15.798
488.79	16.484
489.13	16.356
489.48	16.599
489.83	16.769
490.17	16.674
490.52	16.938
490.87	16.767
491.22	16.394
491.56	16.435
491.91	16.603
492.26	16.840
492.60	16.223
492.95	16.897
493.30	15.579
493.64	16.408
493.99	16.157
494.34	16.571
494.68	16.854
495.03	16.444
495.37	15.782
495.72	16.699
496.07	16.893
496.41	16.906
496.76	16.986
497.11	16.533
497.45	16.954
497.80	16.208
498.14	17.092
498.49	15.972
498.84	16.214
499.18	17.349
499.53	17.048
499.87	15.589
500.22	15.882
500.56	16.758
500.91	16.502
501.26	16.885
501.60	16.514
501.95	16.908
502.29	16.722
502.64	16.502
502.98	16.627
503.33	17.246
503.67	16.523
504.02	16.610
504.36	17.157
504.71	16.565
505.06	15.976
505.40	17.116
505.75	16.463
506.09	17.796
506.44	17.143
506.78	17.010
507.13	17.250
507.47	17.371
507.82	17.295
508.16	17.565
508.51	17.208
508.85	17.340
509.19	16.641
509.54	17.600
509.88	18.245
510.23	17.400
510.57	17.143
510.92	18.743
511.26	17.438
511.61	16.901
511.95	17.457
512.30	16.877
512.64	17.140
512.98	17.327
513.33	18.177
513.67	16.750
514.02	17.002
514.36	17.285
514.70	18.223
515.05	17.896
515.39	17.820
515.74	18.034
516.08	17.752
516.42	17.507
516.77	17.851
517.11	18.364
517.46	18.002
517.80	17.509
518.14	17.271
518.49	17.095
518.83	17.507
519.17	18.887
519.52	17.293
519.86	17.443
520.20	18.337
520.55	18.523
520.89	18.535
521.23	18.742
521.58	18.307
521.92	18.936
522.26	19.365
522.61	18.314
522.95	17.869
523.29	18.934
523.64	17.926
523.98	18.523
524.32	19.107
524.66	17.764
525.01	18.240
525.35	18.814
525.69	17.957
526.04	18.473
526.38	18.905
526.72	17.625
527.06	18.555
527.41	18.548
527.75	18.416
528.09	18.465
528.43	17.836
528.78	18.028
529.12	18.630
529.46	17.977
529.80	18.980
530.15	19.446
530.49	18.499
530.83	20.170
531.17	18.047
531.51	18.352
531.86	18.631
532.20	18.893
532.54	18.783
532.88	17.984
533.22	18.115
533.57	18.734
533.91	18.102
534.25	17.913
534.59	18.551
534.93	18.482
535.27	18.628
535.62	19.246
535.96	19.198
536.30	18.063
536.64	18.194
536.98	19.562
537.32	18.176
537.66	17.855
538.01	18.351
538.35	18.446
538.69	18.048
539.03	18.280
539.37	18.031
539.71	19.146
540.05	18.095
540.39	18.490
540.73	19.281
541.07	19.467
541.42	19.109
541.76	17.874
542.10	19.446
542.44	18.921
542.78	19.403
543.12	18.262
543.46	18.151
543.80	18.796
544.14	19.208
544.48	19.816
544.82	18.877
545.16	19.048
545.50	17.833
545.84	18.428
546.18	18.655
546.52	19.061
546.86	18.875
547.20	19.480
547.54	17.837
547.88	18.447
548.22	18.087
548.56	18.637
548.90	18.531
549.24	17.589
549.58	17.643
549.92	19.364
550.26	19.364
550.60	18.492
550.94	19.051
551.28	18.435
551.62	19.129
551.96	19.320
552.30	18.049
552.64	19.423
552.98	18.991
553.32	17.965
553.66	17.592
554.00	18.905
554.34	17.617
554.68	18.202
555.02	18.886
555.36	18.548
555.69	18.696
556.03	18.105
556.37	19.061
556.71	18.611
557.05	19.956
557.39	19.154
557.73	19.037
558.07	19.216
558.41	18.624
558.75	18.631
559.08	17.899
559.42	17.688
559.76	17.868
560.10	19.239
560.44	19.292
560.78	18.232
561.12	18.150
561.45	18.356
561.79	18.188
562.13	18.163
562.47	18.347
562.81	18.883
563.15	18.055
563.48	18.245
563.82	18.391
564.16	18.864
564.50	18.683
564.84	18.188
565.17	18.236
565.51	17.992
565.85	18.796
566.19	19.960
566.52	18.526
566.86	17.509
567.20	18.523
567.54	18.074
567.88	17.588
568.21	17.897
568.55	18.028
568.89	17.048
569.23	17.307
569.56	16.772
569.90	16.994
570.24	17.174
570.57	17.329
570.91	16.967
571.25	16.764
571.59	17.328
571.92	17.173
572.26	16.537
572.60	16.755
572.93	16.631
573.27	16.768
573.61	16.490
573.95	17.163
574.28	16.624
574.62	16.345
574.96	16.152
575.29	16.514
575.63	16.883
575.97	15.831
576.30	16.415
576.64	16.527
576.98	16.770
577.31	16.114
577.65	16.484
577.98	16.151
578.32	16.207
578.66	16.118
578.99	16.169
579.33	16.679
579.67	16.713
580.00	16.468
580.34	16.292
580.67	16.597
581.01	16.065
581.35	16.095
581.68	15.954
582.02	15.880
582.35	15.902
582.69	16.261
583.02	16.821
583.36	16.301
583.70	16.436
584.03	16.622
584.37	16.617
584.70	15.940
585.04	16.253
585.37	15.895
585.71	16.255
586.04	16.287
586.38	16.653
586.72	16.432
587.05	17.106
587.39	16.198
587.72	16.379
588.06	16.451
588.39	16.520
588.73	16.566
589.06	16.528
589.40	16.798
589.73	16.537
590.07	16.533
590.40	17.196
590.73	16.713
591.07	17.172
591.40	17.158
591.74	16.768
592.07	16.847
592.41	17.197
592.74	16.641
593.08	16.787
593.41	16.184
593.75	16.320
594.08	16.751
594.41	16.562
594.75	16.723
595.08	16.579
595.42	16.980
595.75	16.318
596.09	17.385
596.42	17.226
596.75	16.774
597.09	17.676
597.42	16.849
597.75	16.873
598.09	17.352
598.42	16.615
598.76	17.027
599.09	16.456
599.42	16.378
599.76	16.421
600.09	17.137
600.42	17.053
600.76	16.271
601.09	16.445
601.42	15.987
601.76	16.822
602.09	16.564
602.42	16.790
602.76	16.577
603.09	16.734
603.42	16.519
603.76	17.431
604.09	16.940
604.42	16.903
604.76	17.226
605.09	17.631
605.42	17.199
605.75	16.602
606.09	16.314
606.42	16.087
606.75	17.003
607.09	16.939
607.42	16.989
607.75	16.424
608.08	17.488
608.42	17.313
608.75	16.262
609.08	17.146
609.41	16.442
609.75	17.211
610.08	16.373
610.41	16.964
610.74	17.070
611.07	16.379
611.41	16.894
611.74	17.789
612.07	17.615
612.40	17.004
612.73	16.963
613.07	16.015
613.40	17.022
613.73	16.839
614.06	16.914
614.39	17.362
614.72	16.369
615.06	17.228
615.39	16.603
615.72	16.404
616.05	16.565
616.38	17.121
616.71	17.297
617.05	17.732
617.38	18.266
617.71	16.462
618.04	17.453
618.37	16.415
618.70	18.514
619.03	17.536
619.36	17.618
619.69	17.660
620.03	17.080
620.36	17.511
620.69	17.229
621.02	17.199
621.35	17.984
621.68	18.115
622.01	17.638
622.34	18.401
622.67	18.047
623.00	17.904
623.33	18.433
623.66	17.282
623.99	17.594
624.32	17.113
624.65	17.366
624.99	17.177
625.32	17.216
625.65	17.638
625.98	16.823
626.31	17.781
626.64	18.577
626.97	17.979
627.30	17.702
627.63	16.494
627.96	17.842
628.29	17.831
628.62	18.434
628.95	19.094
629.28	17.763
629.61	16.487
629.94	17.958
630.26	18.787
630.59	19.196
630.92	18.819
631.25	19.758
631.58	18.307
631.91	18.191
632.24	17.889
632.57	19.111
632.90	21.379
633.23	16.822
633.56	18.596
633.89	19.458
634.22	18.890
634.55	18.389
634.88	19.347
635.20	18.851
635.53	19.338
635.86	18.514
636.19	18.193
636.52	18.757
636.85	17.569
637.18	17.250
637.51	19.579
637.83	18.775
638.16	18.289
638.49	18.759
638.82	17.117
639.15	18.418
639.48	15.694
639.81	20.332
640.13	18.649
640.46	19.516
640.79	19.888
641.12	18.477
641.45	18.364
641.77	18.114
642.10	18.580
642.43	19.727
642.76	20.000
643.09	17.143
643.41	20.952
643.74	18.283
644.07	19.345
644.40	20.583
644.73	21.122
645.05	18.030
645.38	19.536
645.71	20.275
646.04	21.681
646.36	16.928
646.69	20.415
647.02	19.675
647.35	20.758
647.67	19.891
648.00	18.278
648.33	21.417
648.66	18.065
648.98	18.949
649.31	19.692
649.64	19.062
649.96	17.582
650.29	14.918
650.62	20.310
650.94	20.573
651.27	19.931
651.60	17.474
651.92	19.178
652.25	18.531
652.58	18.739
652.90	19.262
653.23	18.226
653.56	17.224
653.88	17.705
654.21	19.631
654.54	20.266
654.86	20.225
655.19	17.765
655.52	17.234
655.84	15.178
656.17	16.595
656.49	22.937
656.82	24.020
657.15	18.168
657.47	13.424
657.80	10.292
658.13	12.065
658.45	16.277
658.78	16.663
659.10	16.712
659.43	16.595
659.75	17.427
660.08	17.344
660.41	16.581
660.73	17.382
661.06	20.725
661.38	19.107
661.71	18.164
662.03	19.758
662.36	20.896
662.68	18.987
663.01	21.019
663.33	19.048
663.66	21.030
663.98	14.509
664.31	16.331
664.63	18.584
664.96	19.523
665.28	18.221
665.61	19.662
665.93	19.547
666.26	20.648
666.58	20.998
666.91	18.486
667.23	21.272
667.56	18.821
667.88	19.231
668.21	20.276
668.53	20.093
668.86	21.478
669.18	21.689
669.50	20.794
669.83	18.005
670.15	19.507
670.48	19.626
670.80	18.451
671.13	16.253
671.45	17.117
671.77	20.557
672.10	18.935
672.42	18.819
672.75	18.364
673.07	18.378
673.39	19.308
673.72	22.047
674.04	18.896
674.37	19.794
674.69	20.287
675.01	19.574
675.34	20.390
675.66	20.950
675.98	18.722
676.31	17.195
676.63	18.161
676.95	22.124
677.28	19.258
677.60	20.362
677.92	20.485
678.25	19.256
678.57	21.399
678.89	19.706
679.22	18.029
679.54	19.527
679.86	18.400
680.18	18.061
680.51	14.711
680.83	18.095
681.15	19.268
681.48	19.675
681.80	16.129
682.12	17.103
682.44	19.057
682.77	17.316
683.09	19.497
683.41	19.912
683.73	14.155
684.06	17.419
684.38	19.456
684.70	18.107
685.02	18.898
685.34	18.713
685.67	17.424
685.99	18.904
686.31	18.851
686.63	18.617
686.96	17.745
687.28	16.185
687.60	17.578
687.92	16.537
688.24	15.354
688.56	18.036
688.89	16.239
689.21	18.381
689.53	17.471
689.85	18.708
690.17	18.610
690.49	18.476
690.82	17.108
691.14	17.217
691.46	19.956
691.78	19.163
692.10	18.644
692.42	16.000
692.74	20.601
693.06	16.854
693.39	19.239
693.71	19.639
694.03	17.711
694.35	17.381
694.67	17.730
694.99	14.322
695.31	19.133
695.63	15.816
695.95	19.603
696.27	17.955
696.59	19.519
696.91	21.348
697.23	21.615
697.56	15.625
697.88	17.568
698.20	20.128
698.52	16.143
698.84	21.359
699.16	18.810
699.48	15.750
699.80	16.541
700.12	19.647
700.44	19.274
700.76	14.577
701.08	16.570
701.40	17.221
701.72	16.667
702.04	19.231
702.36	21.386
702.68	16.168
703.00	20.000
703.32	16.905
703.64	20.294
703.96	16.860
704.28	16.272
704.60	15.506
704.91	16.190
705.23	19.417
705.55	19.932
705.87	16.041
706.19	18.403
706.51	17.361
706.83	19.672
707.15	17.197
707.47	22.590
707.79	13.918
708.11	13.232
708.43	19.701
708.74	17.662
709.06	16.435
709.38	17.529
709.70	17.187
710.02	21.472
710.34	16.502
710.66	17.778
710.98	16.088
711.29	13.548
711.61	16.294
711.93	17.705
712.25	17.276
712.57	15.679
712.89	21.583
713.20	22.337
713.52	16.045
713.84	16.370
714.16	18.361
714.48	18.413
714.80	12.308
715.11	19.020
715.43	22.590
715.75	18.380
716.07	23.279
716.39	19.732
716.70	17.770
717.02	21.852
717.34	20.229
717.66	17.427
717.97	20.492
718.29	15.126
718.61	19.444
718.93	21.864
719.24	11.765
719.56	9.057
719.88	21.091
720.20	17.228
720.51	19.173
720.83	20.482
721.15	16.803
721.46	17.255
721.78	17.625
722.10	20.000
722.42	20.248
722.73	17.530
723.05	18.072
723.37	18.824
723.68	16.599
724.00	17.886
724.32	18.107
724.63	15.353
724.95	22.727
725.27	12.719
725.58	17.241
725.90	10.714
726.22	18.450
726.53	19.392
726.85	13.725
727.16	17.669
727.48	14.231
727.80	11.475
728.11	18.067
728.43	17.769
728.74	19.531
729.06	20.833
729.38	17.121
729.69	13.386
730.01	16.142
730.32	22.709
730.64	16.850
730.96	20.522
731.27	12.500
731.59	16.720
731.90	15.031
732.22	16.871
732.53	21.854
732.85	16.443
733.16	14.493
733.48	13.937
733.80	13.523
734.11	19.310
734.43	20.068
734.74	19.288
735.06	18.809
735.37	14.985
735.69	14.516
736.00	19.865
736.32	16.225
736.63	15.172
736.95	14.493
737.26	19.868
737.58	19.424
737.89	19.713
738.21	13.158
738.52	13.077
738.83	16.406
739.15	14.103
739.46	19.355
739.78	20.280
740.09	18.881
740.41	15.035
740.72	16.058
741.04	15.476
741.35	14.719
741.66	18.519
741.98	12.857
742.29	24.883
742.61	13.904
742.92	18.692
743.23	17.105
743.55	18.468
743.86	22.667
744.18	12.857
744.49	17.734
744.80	16.751
745.12	15.464
745.43	18.593
745.74	17.961
746.06	18.049
746.37	19.383
746.68	16.418
747.00	12.565
747.31	10.577
747.62	17.051
747.94	13.974
748.25	18.140
748.56	15.238
748.88	9.783
749.19	17.840
749.50	20.588
749.82	20.000
750.13	18.062
750.44	15.854
750.75	18.400
751.07	19.286
751.38	15.867
751.69	15.649
752.01	17.692
752.32	14.008
752.63	13.462
752.94	15.079
753.26	16.087
753.57	18.750
753.88	15.517
754.19	10.788
754.51	18.750
754.82	14.625
755.13	19.342
755.44	14.463
755.75	18.930
756.07	14.056
756.38	15.234
756.69	15.884
757.00	16.376
757.31	12.416
757.63	19.626
757.94	16.474
758.25	14.826
758.56	19.137
758.87	13.352
759.18	11.000
759.50	16.370
759.81	10.584
760.12	13.514
760.43	17.799
760.74	19.375
761.05	17.416
761.36	14.970
761.67	16.864
761.99	13.548
762.30	19.928
762.61	18.868
762.92	19.731
763.23	15.640
763.54	20.000
763.85	19.831
764.16	17.551
764.47	19.915
764.78	16.854
765.10	16.906
765.41	13.548
765.72	18.239
766.03	10.954
766.34	18.421
766.65	18.219
766.96	18.000
767.27	16.667
767.58	18.023
767.89	17.419
768.20	17.178
768.51	6.011
768.82	20.000
769.13	9.500
769.44	14.474
769.75	18.615
770.06	16.972
770.37	13.615
770.68	16.667
770.99	17.822
771.30	16.019
771.61	15.278
771.92	12.987
772.23	14.953
772.54	12.766
772.85	10.651
773.16	21.951
773.47	21.687
773.78	18.132
774.09	16.667
774.39	22.222
774.70	14.765
775.01	17.391
775.32	10.448
775.63	4.959
775.94	13.534
776.25	20.714
776.56	15.574
776.87	22.124
777.18	21.239
777.48	2.727
777.79	9.565
778.10	7.339
778.41	11.017
778.72	23.140
779.03	17.164
779.34	9.774
779.65	15.033
779.95	23.913
780.26	11.565
780.57	4.310
780.88	21.296
781.19	7.071
781.50	5.600
781.80	7.843
782.11	10.897
782.42	15.060
782.73	5.839
783.04	17.568
783.34	13.636
783.65	13.953
783.96	13.821
784.27	11.111
784.57	19.512
784.88	5.691
785.19	6.140
785.50	-2.062
785.81	3.810
786.11	0.980
786.42	0.000
786.73	12.613
787.04	13.861
787.34	-0.952
787.65	6.667
787.96	6.863
788.26	9.910
788.57	16.935
788.88	12.500
789.19	4.274
789.49	15.966
789.80	10.256
790.11	13.274
790.41	11.111
790.72	22.642
791.03	-5.556
791.33	-5.263
791.64	16.129
791.95	13.333
792.25	0.000
792.56	2.439
792.87	20.408
793.17	-2.632
793.48	-1.351
793.79	-8.451
794.09	11.392
794.40	10.638
794.70	10.280
795.01	1.754
795.32	19.091
795.62	6.250
795.93	14.433
796.23	4.396
796.54	22.105
796.85	8.219
797.15	-6.944
797.46	0.000
797.76	0.000
798.07	18.750
798.37	2.941
798.68	15.714
798.99	11.429
799.29	13.158
799.60	-11.667
799.90	6.944
800.21	-6.250
800.51	9.524
800.82	26.230
801.12	-1.754
801.43	19.718
801.73	5.085
802.04	22.951
802.34	-25.455
802.65	-17.308
802.95	-3.704
803.26	-5.000
803.56	19.231
803.87	-26.316
804.17	4.839
804.48	13.846
804.78	-20.513
805.09	-4.651
805.39	-31.250
805.70	-1.887
806.00	17.544
806.30	20.270
806.61	4.412
806.91	14.815
807.22	-9.333
807.52	-8.955
807.83	-9.677
808.13	0.000
808.43	3.636
808.74	10.606
809.04	-9.434
809.35	4.110
809.65	-1.754
809.95	-2.941
810.26	7.843
810.56	10.000
810.86	-18.367
811.17	-17.143
811.47	-3.846
811.77	-22.581
812.08	-21.053
812.38	0.000
812.69	6.522
812.99	-16.129
813.29	-11.905
813.59	-74.074
813.90	-6.383
814.20	-39.535
814.50	-12.500
814.81	10.000
815.11	-21.951
815.41	-20.000
815.72	25.714
816.02	-27.778
816.32	-10.256
816.62	-2.703
816.93	-35.294
817.23	-30.435
817.53	-26.471
817.84	-2.941
818.14	-50.000
818.44	-58.621
818.74	-48.387
819.04	-51.852
819.35	6.667
819.65	-68.000
819.95	-6.667
820.25	44.000
820.56	-28.947
820.86	-7.500
821.16	2.128
821.46	10.345
821.76	-12.821
822.07	-32.500
822.37	-16.279
822.67	-16.667
822.97	-32.432
823.27	10.811
823.57	-20.000
823.88	-5.405
824.18	-71.429
824.48	-34.615
824.78	-138.462
825.08	-43.478
825.38	-41.667
825.69	-41.667
825.99	-40.000
826.29	-16.216
826.59	-23.529
826.89	-20.000
827.19	-28.571
827.49	-15.789
827.79	-18.750
828.09	-40.000
828.39	26.087
828.70	-17.241
829.00	-34.483
829.30	16.667
829.60	-9.375
829.90	-66.667
830.20	-46.154
830.50	-52.381
830.80	-25.000
831.10	20.513
831.40	-104.762
831.70	-2.941
832.00	-25.000
832.30	-73.684
832.60	-31.250
832.90	-183.333
833.20	-105.882
833.50	-140.000
833.80	6.667
834.10	-25.000
834.40	-8.333
834.70	-22.222
835.00	7.692
835.30	-54.167
835.60	-13.793
835.90	-61.111
836.20	-72.727
836.50	-133.333
836.80	-17.143
837.10	34.286
837.40	-29.412
837.70	-127.273
838.00	29.167
838.30	-100.000
838.60	-19.048
838.90	0.000
839.19	-65.217
839.49	-17.391
839.79	-111.111
840.09	-30.435
840.39	-27.273
840.69	-50.000
840.99	-31.579
841.29	-87.500
841.59	-42.857
841.88	-83.333
842.18	-20.833
842.48	-52.941
842.78	-27.586
843.08	-57.143
843.38	30.769
843.68	-177.778
843.97	-92.308
844.27	-127.273
844.57	-40.000
844.87	12.000
845.17	-180.000
845.47	-114.286
845.76	-166.667
846.06	0.000
846.36	-525.000
846.66	-170.000
846.96	-26.316
847.25	-54.167
847.55	-141.667
847.85	-40.000
848.15	-220.000
848.44	34.615
848.74	-26.316
849.04	666.667
849.34	-44.444
849.63	-52.632
849.93	0.000
850.23	-105.000
850.53	4.762
850.82	-12.000
851.12	-36.842
851.42	-550.000
851.71	-57.143
852.01	-91.667
852.31	-29.412
852.61	-40.000
852.90	-52.381
853.20	-300.000
853.50	-72.222
853.79	-89.474
854.09	-160.000
854.39	-35.714
854.68	0.000
854.98	-158.333
855.28	-3.448
855.57	-25.000
855.87	-35.000
856.17	-26.667
856.46	-13.793
856.76	-33.333
857.05	-70.588
857.35	-123.077
857.65	-163.636
857.94	-14.815
858.24	-142.857
858.53	-71.429
858.83	-75.000
859.13	-233.333
859.42	33.333
859.72	-112.500
860.01	-166.667
860.31	-50.000
860.60	-460.000
860.90	-233.333
861.20	-125.000
861.49	-142.857
861.79	-58.824
862.08	-1400.000
862.38	-100.000
862.67	7.692
862.97	-88.235
863.26	15.000
863.56	0.000
863.85	533.333
864.15	-140.000
864.44	-130.769
864.74	0.000
865.03	-187.500
865.33	-333.333
865.62	-29.412
865.92	-575.000
866.21	-114.286
866.51	-116.667
866.80	-1600.000
867.10	-600.000
867.39	-47.059
867.69	8.696
867.98	-42.857
868.27	-260.000
868.57	-62.500
868.86	-227.273
869.16	11.765
869.45	-400.000
869.75	-42.857
870.04	1600.000
870.33	-100.000
870.63	-180.000
870.92	-88.889
871.22	-25.000
871.51	-72.727
871.80	-108.333
872.10	-40.000
>>>>>End Processed Spectral Data<<<<<
