SpectraSuite Data File
++++++++++++++++++++++++++++++++++++
Date: Sat May 16 11:09:33 PDT 2015
User: schluterlab
Dark Spectrum Present: Yes
Reference Spectrum Present: Yes
Number of Sampled Component Spectra: 1
Spectrometers: USB2E3373
Integration Time (usec): 3000 (USB2E3373)
Spectra Averaged: 3 (USB2E3373)
Boxcar Smoothing: 0 (USB2E3373)
Correct for Electrical Dark: No (USB2E3373)
Strobe/Lamp Enabled: No (USB2E3373)
Correct for Detector Non-linearity: No (USB2E3373)
Correct for Stray Light: No (USB2E3373)
Number of Pixels in Processed Spectrum: 2048
>>>>>Begin Processed Spectral Data<<<<<
178.53	0.000
178.91	-13.333
179.29	300.000
179.67	100.000
180.04	30.769
180.42	-500.000
180.80	-50.000
181.18	-50.000
181.56	187.500
181.94	-100.000
182.31	175.000
182.69	130.769
183.07	-200.000
183.45	1100.000
183.83	-33.333
184.20	-85.714
184.58	87.500
184.96	125.000
185.34	75.000
185.72	-250.000
186.09	-16.667
186.47	-112.500
186.85	-62.500
187.23	25.000
187.61	150.000
187.98	-125.000
188.36	50.000
188.74	-25.000
189.12	400.000
189.49	214.286
189.87	8.333
190.25	-75.000
190.63	0.000
191.00	-133.333
191.38	140.000
191.76	46.667
192.14	220.000
192.51	-100.000
192.89	66.667
193.27	0.000
193.65	44.444
194.02	-42.857
194.40	166.667
194.78	30.000
195.15	-500.000
195.53	-18.182
195.91	-200.000
196.29	40.000
196.66	-33.333
197.04	1500.000
197.42	-100.000
197.79	73.333
198.17	-66.667
198.55	450.000
198.92	1200.000
199.30	-0.000
199.68	250.000
200.05	-33.333
200.43	-77.778
200.81	-500.000
201.18	0.000
201.56	71.429
201.94	6.667
202.31	31.818
202.69	120.000
203.07	-40.000
203.44	333.333
203.82	-183.333
204.19	125.000
204.57	-25.000
204.95	-500.000
205.32	31.250
205.70	-0.000
206.08	-900.000
206.45	22.222
206.83	150.000
207.20	200.000
207.58	-466.667
207.96	-400.000
208.33	-75.000
208.71	11.111
209.08	120.000
209.46	-85.714
209.84	650.000
210.21	0.000
210.59	95.000
210.96	-600.000
211.34	-166.667
211.71	33.333
212.09	200.000
212.46	100.000
212.84	-1300.000
213.22	233.333
213.59	-16.667
213.97	55.556
214.34	50.000
214.72	30.000
215.09	-166.667
215.47	-100.000
215.84	20.000
216.22	10.000
216.59	113.333
216.97	-50.000
217.34	700.000
217.72	-71.429
218.09	-116.667
218.47	-128.571
218.84	28.571
219.22	71.429
219.59	0.000
219.97	142.857
220.34	250.000
220.72	137.500
221.09	7.692
221.47	0.000
221.84	-233.333
222.22	-50.000
222.59	100.000
222.97	25.000
223.34	0.000
223.72	300.000
224.09	0.000
224.46	-225.000
224.84	42.857
225.21	-100.000
225.59	100.000
225.96	-25.000
226.34	42.857
226.71	77.778
227.08	65.000
227.46	900.000
227.83	14.286
228.21	-25.000
228.58	-450.000
228.95	-6.250
229.33	-700.000
229.70	-160.000
230.08	-200.000
230.45	8.333
230.82	50.000
231.20	0.000
231.57	50.000
231.95	200.000
232.32	100.000
232.69	33.333
233.07	0.000
233.44	-550.000
233.81	46.667
234.19	88.889
234.56	0.000
234.93	56.250
235.31	-42.857
235.68	0.000
236.05	-64.706
236.43	-40.909
236.80	29.032
237.17	37.500
237.55	23.810
237.92	18.182
238.29	14.286
238.67	41.176
239.04	30.556
239.41	16.129
239.79	-2.564
240.16	0.000
240.53	14.545
240.91	35.897
241.28	20.000
241.65	30.769
242.02	26.230
242.40	14.754
242.77	24.242
243.14	33.898
243.51	17.143
243.89	24.051
244.26	33.708
244.63	40.000
245.00	29.474
245.38	27.119
245.75	34.513
246.12	28.800
246.49	23.622
246.87	21.138
247.24	22.881
247.61	31.356
247.98	28.169
248.36	23.776
248.73	28.481
249.10	29.299
249.47	29.240
249.84	26.136
250.22	21.429
250.59	31.638
250.96	27.225
251.33	33.175
251.70	27.404
252.08	26.540
252.45	24.645
252.82	27.143
253.19	31.489
253.56	24.597
253.94	28.270
254.31	24.893
254.68	28.049
255.05	25.000
255.42	31.746
255.79	22.581
256.16	29.412
256.54	28.676
256.91	26.894
257.28	24.176
257.65	26.241
258.02	29.245
258.39	27.090
258.76	25.338
259.14	27.469
259.51	31.803
259.88	29.268
260.25	29.193
260.62	28.617
260.99	27.300
261.36	25.610
261.73	30.347
262.10	30.833
262.47	25.071
262.85	30.571
263.22	26.074
263.59	28.000
263.96	26.667
264.33	24.119
264.70	29.834
265.07	28.297
265.44	24.806
265.81	27.907
266.18	26.582
266.55	28.186
266.92	32.997
267.29	28.571
267.66	29.877
268.03	26.812
268.40	26.526
268.77	27.952
269.14	27.610
269.51	28.506
269.88	25.229
270.25	25.874
270.62	26.773
270.99	29.054
271.36	25.408
271.73	26.457
272.10	27.002
272.47	24.889
272.84	28.222
273.21	28.440
273.58	27.033
273.95	24.561
274.32	29.864
274.69	26.696
275.06	28.630
275.43	27.232
275.80	27.291
276.17	28.661
276.54	27.291
276.91	25.514
277.28	26.775
277.65	26.860
278.02	27.557
278.39	26.719
278.76	23.904
279.13	27.668
279.50	26.839
279.87	26.004
280.23	27.935
280.60	26.044
280.97	26.796
281.34	26.112
281.71	29.231
282.08	27.016
282.45	26.273
282.82	26.938
283.19	26.909
283.56	29.304
283.92	25.265
284.29	26.580
284.66	26.079
285.03	27.273
285.40	25.646
285.77	28.070
286.14	26.534
286.51	23.623
286.87	27.042
287.24	25.427
287.61	24.628
287.98	25.477
288.35	24.959
288.72	24.788
289.08	23.729
289.45	26.431
289.82	23.183
290.19	25.452
290.56	21.983
290.93	23.529
291.29	23.825
291.66	23.671
292.03	23.391
292.40	22.289
292.77	24.224
293.13	23.252
293.50	23.774
293.87	22.393
294.24	21.870
294.60	23.333
294.97	23.369
295.34	21.481
295.71	21.577
296.08	21.966
296.44	21.602
296.81	20.655
297.18	21.549
297.55	22.881
297.91	23.152
298.28	19.041
298.65	20.921
299.02	21.925
299.38	20.455
299.75	20.380
300.12	20.897
300.48	20.844
300.85	20.446
301.22	20.957
301.59	21.586
301.95	20.151
302.32	18.383
302.69	19.584
303.05	18.926
303.42	19.125
303.79	19.976
304.15	19.313
304.52	19.370
304.89	18.890
305.25	19.658
305.62	17.744
305.99	20.848
306.35	18.646
306.72	18.337
307.09	19.637
307.45	17.253
307.82	18.324
308.19	18.233
308.55	18.083
308.92	18.367
309.29	18.270
309.65	18.028
310.02	17.171
310.38	17.946
310.75	18.033
311.12	17.975
311.48	18.894
311.85	17.920
312.22	18.435
312.58	19.329
312.95	17.227
313.31	17.483
313.68	18.090
314.05	17.606
314.41	17.304
314.78	17.582
315.14	17.769
315.51	18.136
315.87	18.587
316.24	18.173
316.61	17.562
316.97	18.109
317.34	17.437
317.70	17.347
318.07	17.257
318.43	17.509
318.80	18.873
319.16	17.636
319.53	18.609
319.89	16.369
320.26	18.529
320.62	16.923
320.99	18.010
321.35	14.877
321.72	16.991
322.08	17.903
322.45	16.832
322.81	16.523
323.18	16.811
323.54	18.392
323.91	17.887
324.27	17.205
324.64	16.088
325.00	16.928
325.37	17.557
325.73	18.635
326.10	16.475
326.46	16.550
326.83	17.021
327.19	16.764
327.56	17.462
327.92	17.077
328.29	16.710
328.65	16.455
329.01	16.873
329.38	15.968
329.74	17.857
330.11	17.407
330.47	16.530
330.84	17.782
331.20	16.606
331.56	16.408
331.93	16.252
332.29	17.169
332.66	16.857
333.02	15.928
333.38	16.308
333.75	17.631
334.11	16.178
334.48	16.152
334.84	17.848
335.20	16.489
335.57	15.975
335.93	16.473
336.29	15.855
336.66	15.154
337.02	16.577
337.38	15.865
337.75	16.330
338.11	16.816
338.47	16.904
338.84	16.697
339.20	16.081
339.56	16.310
339.93	16.490
340.29	15.058
340.65	15.297
341.02	16.863
341.38	17.186
341.74	17.443
342.11	14.676
342.47	16.481
342.83	16.205
343.20	16.738
343.56	13.959
343.92	16.528
344.28	16.821
344.65	16.584
345.01	14.454
345.37	16.528
345.73	14.894
346.10	14.227
346.46	15.191
346.82	15.798
347.19	16.105
347.55	15.650
347.91	16.693
348.27	15.115
348.63	16.236
349.00	15.513
349.36	14.286
349.72	16.003
350.08	15.718
350.45	14.972
350.81	15.446
351.17	14.228
351.53	14.718
351.89	15.198
352.26	15.969
352.62	15.975
352.98	15.190
353.34	15.907
353.70	14.131
354.07	14.713
354.43	14.783
354.79	15.452
355.15	14.936
355.51	14.922
355.87	15.099
356.24	15.250
356.60	15.391
356.96	16.474
357.32	15.202
357.68	15.172
358.04	15.012
358.40	15.004
358.77	14.760
359.13	15.073
359.49	14.739
359.85	15.244
360.21	14.536
360.57	14.383
360.93	14.963
361.29	14.574
361.66	14.253
362.02	14.571
362.38	14.527
362.74	14.359
363.10	14.347
363.46	15.100
363.82	14.650
364.18	14.110
364.54	15.654
364.90	14.116
365.26	14.123
365.62	15.396
365.98	15.434
366.35	14.366
366.71	13.813
367.07	15.102
367.43	14.894
367.79	15.120
368.15	13.940
368.51	15.175
368.87	15.316
369.23	15.228
369.59	14.028
369.95	14.588
370.31	15.682
370.67	14.751
371.03	14.942
371.39	14.074
371.75	14.306
372.11	14.275
372.47	14.244
372.83	14.812
373.19	14.357
373.55	14.919
373.91	14.794
374.27	13.484
374.63	14.838
374.99	14.534
375.35	14.401
375.71	14.855
376.07	14.579
376.42	14.172
376.78	14.641
377.14	15.254
377.50	14.442
377.86	13.849
378.22	15.201
378.58	13.836
378.94	14.242
379.30	14.077
379.66	14.511
380.02	13.666
380.38	13.414
380.74	14.654
381.09	14.060
381.45	14.558
381.81	14.096
382.17	14.912
382.53	13.860
382.89	14.713
383.25	14.148
383.61	13.856
383.97	14.574
384.32	14.143
384.68	14.933
385.04	14.493
385.40	13.938
385.76	13.963
386.12	13.991
386.48	14.356
386.83	14.294
387.19	14.585
387.55	13.992
387.91	14.464
388.27	13.571
388.62	14.062
388.98	14.052
389.34	13.647
389.70	13.946
390.06	13.487
390.42	14.231
390.77	13.754
391.13	14.534
391.49	14.348
391.85	14.713
392.20	14.138
392.56	13.195
392.92	13.805
393.28	14.983
393.64	14.432
393.99	14.092
394.35	13.929
394.71	13.959
395.07	13.936
395.42	13.409
395.78	13.514
396.14	14.206
396.50	14.251
396.85	14.436
397.21	14.399
397.57	13.799
397.92	14.461
398.28	14.444
398.64	14.753
399.00	15.000
399.35	13.416
399.71	15.273
400.07	14.985
400.42	14.355
400.78	13.775
401.14	14.611
401.49	14.387
401.85	13.545
402.21	13.886
402.57	14.199
402.92	14.663
403.28	13.542
403.63	13.901
403.99	14.170
404.35	13.829
404.70	14.628
405.06	14.245
405.42	13.530
405.77	14.140
406.13	14.026
406.49	13.960
406.84	13.617
407.20	14.370
407.55	13.680
407.91	14.313
408.27	14.583
408.62	13.951
408.98	13.827
409.34	13.224
409.69	14.367
410.05	13.766
410.40	14.040
410.76	13.871
411.11	14.464
411.47	13.939
411.83	14.059
412.18	13.614
412.54	13.850
412.89	13.913
413.25	12.633
413.60	14.277
413.96	13.555
414.31	13.700
414.67	13.524
415.03	14.036
415.38	14.314
415.74	14.369
416.09	13.619
416.45	13.757
416.80	13.979
417.16	13.688
417.51	14.839
417.87	13.722
418.22	13.021
418.58	14.313
418.93	14.040
419.29	14.680
419.64	13.631
420.00	14.156
420.35	13.306
420.71	13.926
421.06	13.787
421.42	13.817
421.77	14.015
422.12	13.318
422.48	13.683
422.83	13.895
423.19	13.641
423.54	13.833
423.90	13.592
424.25	13.122
424.61	14.113
424.96	13.985
425.31	13.862
425.67	13.524
426.02	13.196
426.38	13.793
426.73	14.085
427.09	13.419
427.44	13.125
427.79	13.663
428.15	13.704
428.50	14.018
428.85	13.909
429.21	13.890
429.56	13.750
429.92	13.577
430.27	13.460
430.62	13.845
430.98	13.905
431.33	13.661
431.68	13.405
432.04	13.990
432.39	13.675
432.74	13.789
433.10	13.675
433.45	13.990
433.80	13.214
434.16	14.455
434.51	14.082
434.86	13.708
435.22	13.697
435.57	14.198
435.92	14.302
436.28	14.243
436.63	13.002
436.98	13.631
437.34	13.113
437.69	13.536
438.04	13.103
438.39	13.779
438.75	13.271
439.10	13.881
439.45	13.699
439.81	13.614
440.16	13.913
440.51	14.412
440.86	13.997
441.22	12.659
441.57	14.632
441.92	13.862
442.27	13.528
442.63	13.358
442.98	13.205
443.33	13.674
443.68	13.236
444.03	13.654
444.39	13.461
444.74	13.987
445.09	13.542
445.44	13.618
445.79	13.208
446.15	13.855
446.50	13.010
446.85	13.443
447.20	13.585
447.55	13.702
447.91	13.700
448.26	13.408
448.61	13.639
448.96	14.118
449.31	13.303
449.66	13.967
450.02	12.853
450.37	13.043
450.72	12.768
451.07	13.828
451.42	13.135
451.77	13.704
452.12	13.230
452.47	13.665
452.83	12.871
453.18	13.472
453.53	13.682
453.88	14.354
454.23	13.603
454.58	13.860
454.93	13.917
455.28	12.874
455.63	13.821
455.98	13.675
456.34	13.024
456.69	13.821
457.04	13.522
457.39	13.397
457.74	13.113
458.09	14.501
458.44	14.203
458.79	13.397
459.14	13.919
459.49	14.150
459.84	14.109
460.19	13.842
460.54	13.612
460.89	12.892
461.24	14.390
461.59	14.713
461.94	12.985
462.29	14.235
462.64	13.505
462.99	14.525
463.34	13.437
463.69	13.550
464.04	13.064
464.39	13.620
464.74	13.712
465.09	13.470
465.44	13.818
465.79	13.818
466.14	13.867
466.49	13.356
466.84	14.406
467.19	14.589
467.54	13.354
467.89	12.762
468.24	13.895
468.59	14.179
468.94	13.248
469.29	13.450
469.64	13.679
469.99	14.045
470.34	13.627
470.68	14.172
471.03	14.866
471.38	12.778
471.73	13.357
472.08	14.056
472.43	13.385
472.78	12.800
473.13	13.121
473.48	13.912
473.83	14.454
474.17	13.949
474.52	14.130
474.87	15.210
475.22	13.510
475.57	13.500
475.92	14.147
476.27	14.000
476.61	13.972
476.96	13.304
477.31	13.563
477.66	13.890
478.01	14.155
478.36	13.724
478.70	13.294
479.05	13.845
479.40	14.404
479.75	13.812
480.10	13.194
480.45	13.104
480.79	13.919
481.14	14.501
481.49	13.746
481.84	13.454
482.19	13.659
482.53	13.589
482.88	13.859
483.23	13.380
483.58	14.524
483.92	13.139
484.27	13.381
484.62	13.348
484.97	13.445
485.31	13.696
485.66	13.388
486.01	13.456
486.36	13.574
486.70	13.681
487.05	13.744
487.40	13.729
487.75	13.897
488.09	13.064
488.44	13.701
488.79	13.760
489.13	14.074
489.48	14.233
489.83	13.930
490.17	13.365
490.52	13.496
490.87	13.256
491.22	13.545
491.56	13.796
491.91	14.170
492.26	13.915
492.60	13.463
492.95	13.375
493.30	13.483
493.64	13.540
493.99	14.149
494.34	13.667
494.68	13.249
495.03	13.528
495.37	13.717
495.72	14.293
496.07	14.359
496.41	13.849
496.76	14.064
497.11	13.424
497.45	14.655
497.80	13.307
498.14	13.802
498.49	13.661
498.84	13.932
499.18	14.376
499.53	13.785
499.87	13.369
500.22	13.824
500.56	12.906
500.91	14.039
501.26	13.780
501.60	12.807
501.95	14.348
502.29	13.699
502.64	13.909
502.98	13.512
503.33	14.192
503.67	13.410
504.02	13.182
504.36	14.069
504.71	13.374
505.06	13.779
505.40	13.623
505.75	13.415
506.09	14.307
506.44	13.985
506.78	14.049
507.13	13.285
507.47	14.189
507.82	13.784
508.16	14.249
508.51	13.138
508.85	14.286
509.19	13.658
509.54	14.059
509.88	13.989
510.23	14.203
510.57	14.550
510.92	14.393
511.26	13.610
511.61	13.175
511.95	14.116
512.30	13.854
512.64	13.523
512.98	14.631
513.33	13.674
513.67	14.461
514.02	13.591
514.36	14.017
514.70	13.922
515.05	14.523
515.39	13.899
515.74	14.485
516.08	14.697
516.42	14.901
516.77	14.731
517.11	13.501
517.46	13.935
517.80	14.380
518.14	13.768
518.49	13.867
518.83	13.472
519.17	14.210
519.52	13.707
519.86	14.516
520.20	15.037
520.55	14.585
520.89	13.087
521.23	15.263
521.58	14.357
521.92	13.553
522.26	13.206
522.61	13.815
522.95	13.019
523.29	14.483
523.64	13.492
523.98	14.258
524.32	14.393
524.66	13.975
525.01	13.744
525.35	14.175
525.69	13.858
526.04	14.752
526.38	14.768
526.72	13.474
527.06	14.323
527.41	14.587
527.75	13.267
528.09	14.361
528.43	14.426
528.78	13.317
529.12	14.917
529.46	14.820
529.80	13.622
530.15	14.166
530.49	12.743
530.83	15.586
531.17	14.007
531.51	14.668
531.86	14.286
532.20	14.845
532.54	13.971
532.88	14.229
533.22	13.302
533.57	13.773
533.91	14.357
534.25	14.393
534.59	14.179
534.93	13.379
535.27	14.537
535.62	14.066
535.96	14.027
536.30	12.958
536.64	15.073
536.98	13.842
537.32	13.131
537.66	14.121
538.01	14.433
538.35	14.257
538.69	13.302
539.03	14.760
539.37	14.305
539.71	13.742
540.05	13.708
540.39	14.335
540.73	14.236
541.07	15.505
541.42	13.369
541.76	13.223
542.10	15.395
542.44	14.457
542.78	13.908
543.12	13.917
543.46	12.808
543.80	13.712
544.14	14.439
544.48	14.567
544.82	14.344
545.16	14.085
545.50	13.594
545.84	13.769
546.18	14.424
546.52	14.367
546.86	14.744
547.20	13.361
547.54	13.154
547.88	14.599
548.22	13.237
548.56	13.560
548.90	14.151
549.24	13.945
549.58	15.314
549.92	14.134
550.26	13.801
550.60	14.438
550.94	14.307
551.28	13.544
551.62	14.032
551.96	14.327
552.30	14.355
552.64	14.708
552.98	13.665
553.32	14.069
553.66	14.275
554.00	14.783
554.34	14.007
554.68	13.304
555.02	13.314
555.36	14.019
555.69	14.040
556.03	13.895
556.37	14.367
556.71	14.603
557.05	13.673
557.39	13.363
557.73	15.317
558.07	14.243
558.41	14.809
558.75	14.297
559.08	13.696
559.42	13.476
559.76	14.340
560.10	14.840
560.44	14.523
560.78	14.266
561.12	14.148
561.45	14.110
561.79	13.728
562.13	14.306
562.47	14.986
562.81	14.074
563.15	14.066
563.48	14.029
563.82	13.928
564.16	14.131
564.50	14.583
564.84	14.683
565.17	13.859
565.51	14.342
565.85	14.875
566.19	13.570
566.52	14.351
566.86	13.654
567.20	14.407
567.54	15.239
567.88	13.903
568.21	13.814
568.55	14.157
568.89	13.320
569.23	13.697
569.56	13.913
569.90	13.926
570.24	14.205
570.57	13.497
570.91	14.145
571.25	14.235
571.59	14.362
571.92	14.286
572.26	14.290
572.60	13.900
572.93	13.750
573.27	13.841
573.61	13.622
573.95	14.396
574.28	13.516
574.62	14.362
574.96	13.983
575.29	13.923
575.63	14.415
575.97	14.105
576.30	14.196
576.64	14.543
576.98	13.685
577.31	14.255
577.65	13.957
577.98	14.470
578.32	14.144
578.66	14.128
578.99	14.163
579.33	13.891
579.67	14.431
580.00	14.038
580.34	13.870
580.67	14.244
581.01	13.757
581.35	14.096
581.68	13.874
582.02	14.191
582.35	13.900
582.69	14.087
583.02	14.567
583.36	14.085
583.70	14.235
584.03	14.817
584.37	14.073
584.70	14.222
585.04	14.025
585.37	13.771
585.71	13.667
586.04	14.007
586.38	13.766
586.72	14.233
587.05	14.245
587.39	14.149
587.72	14.096
588.06	14.470
588.39	14.099
588.73	14.363
589.06	14.514
589.40	14.840
589.73	14.483
590.07	14.020
590.40	14.613
590.73	13.994
591.07	14.221
591.40	13.951
591.74	14.466
592.07	14.144
592.41	14.565
592.74	14.297
593.08	14.418
593.41	13.882
593.75	13.650
594.08	13.803
594.41	14.455
594.75	14.421
595.08	14.624
595.42	14.270
595.75	13.598
596.09	14.047
596.42	14.403
596.75	14.748
597.09	14.960
597.42	13.575
597.75	14.305
598.09	14.731
598.42	13.654
598.76	13.995
599.09	13.891
599.42	14.302
599.76	14.496
600.09	14.466
600.42	14.432
600.76	14.388
601.09	13.976
601.42	13.573
601.76	14.330
602.09	13.783
602.42	13.868
602.76	13.295
603.09	14.153
603.42	13.900
603.76	13.363
604.09	14.537
604.42	14.321
604.76	14.348
605.09	14.241
605.42	14.539
605.75	13.713
606.09	13.906
606.42	14.202
606.75	13.654
607.09	14.292
607.42	13.908
607.75	14.393
608.08	14.641
608.42	14.144
608.75	13.645
609.08	14.028
609.41	13.403
609.75	14.188
610.08	14.314
610.41	14.458
610.74	14.700
611.07	14.047
611.41	13.767
611.74	15.013
612.07	14.715
612.40	14.499
612.73	14.917
613.07	13.924
613.40	14.888
613.73	14.005
614.06	13.839
614.39	15.558
614.72	14.469
615.06	14.130
615.39	13.728
615.72	14.720
616.05	13.805
616.38	14.277
616.71	13.814
617.05	15.139
617.38	13.560
617.71	14.373
618.04	14.099
618.37	14.214
618.70	15.059
619.03	14.353
619.36	14.870
619.69	15.865
620.03	14.394
620.36	13.572
620.69	14.645
621.02	14.384
621.35	13.790
621.68	13.934
622.01	13.916
622.34	14.907
622.67	13.672
623.00	14.537
623.33	15.149
623.66	13.811
623.99	13.835
624.32	14.211
624.65	14.275
624.99	13.667
625.32	12.725
625.65	14.608
625.98	13.693
626.31	14.519
626.64	14.561
626.97	14.726
627.30	14.213
627.63	13.903
627.96	14.621
628.29	13.695
628.62	14.327
628.95	14.173
629.28	13.910
629.61	14.033
629.94	14.367
630.26	14.513
630.59	14.874
630.92	13.714
631.25	14.819
631.58	14.074
631.91	13.511
632.24	14.444
632.57	15.444
632.90	13.908
633.23	13.318
633.56	14.386
633.89	14.505
634.22	13.105
634.55	14.423
634.88	14.268
635.20	12.360
635.53	14.758
635.86	14.232
636.19	14.286
636.52	14.695
636.85	11.913
637.18	12.500
637.51	15.366
637.83	14.381
638.16	13.158
638.49	13.241
638.82	12.999
639.15	15.045
639.48	12.322
639.81	14.799
640.13	14.189
640.46	13.960
640.79	15.126
641.12	15.656
641.45	13.343
641.77	14.371
642.10	13.746
642.43	15.326
642.76	13.386
643.09	12.698
643.41	15.556
643.74	15.262
644.07	15.289
644.40	14.263
644.73	15.512
645.05	12.855
645.38	15.232
645.71	15.979
646.04	16.639
646.36	12.391
646.69	14.360
647.02	14.621
647.35	13.718
647.67	13.869
648.00	15.290
648.33	16.695
648.66	12.258
648.98	13.535
649.31	14.615
649.64	15.312
649.96	13.344
650.29	12.459
650.62	13.941
650.94	13.491
651.27	13.692
651.60	14.879
651.92	13.699
652.25	14.858
652.58	13.458
652.90	14.286
653.23	14.839
653.56	12.040
653.88	13.934
654.21	14.597
654.54	15.947
654.86	13.965
655.19	14.613
655.52	14.135
655.84	13.732
656.17	14.856
656.49	20.522
656.82	21.580
657.15	16.243
657.47	12.088
657.80	9.145
658.13	10.542
658.45	14.221
658.78	14.211
659.10	14.022
659.43	14.085
659.75	14.477
660.08	14.375
660.41	13.952
660.73	13.311
661.06	14.928
661.38	15.893
661.71	12.811
662.03	14.315
662.36	15.991
662.68	12.658
663.01	13.588
663.33	12.925
663.66	16.094
663.98	12.723
664.31	14.318
664.63	15.929
664.96	13.449
665.28	16.703
665.61	9.937
665.93	14.403
666.26	13.765
666.58	14.761
666.91	14.922
667.23	12.939
667.56	14.286
667.88	14.706
668.21	13.825
668.53	11.449
668.86	13.395
669.18	15.068
669.50	15.187
669.83	11.436
670.15	15.471
670.48	12.617
670.80	12.073
671.13	10.835
671.45	13.288
671.77	16.060
672.10	12.032
672.42	12.362
672.75	12.545
673.07	14.775
673.39	13.843
673.72	14.173
674.04	13.588
674.37	11.546
674.69	15.164
675.01	13.830
675.34	15.184
675.66	14.687
675.98	13.436
676.31	14.480
676.63	12.874
676.95	12.611
677.28	15.545
677.60	16.516
677.92	15.859
678.25	16.193
678.57	16.667
678.89	12.159
679.22	14.675
679.54	14.201
679.86	14.000
680.18	14.068
680.51	13.780
680.83	12.762
681.15	13.102
681.48	16.227
681.80	16.129
682.12	12.274
682.44	13.752
682.77	12.554
683.09	15.094
683.41	16.372
683.73	13.927
684.06	15.699
684.38	14.435
684.70	9.877
685.02	14.961
685.34	11.306
685.67	10.795
685.99	14.178
686.31	15.260
686.63	14.007
686.96	13.678
687.28	14.451
687.60	11.914
687.92	11.089
688.24	13.386
688.56	12.224
688.89	12.821
689.21	15.536
689.53	14.713
689.85	12.472
690.17	15.695
690.49	11.778
690.82	12.289
691.14	15.094
691.46	14.191
691.78	14.317
692.10	13.983
692.42	11.111
692.74	15.880
693.06	14.831
693.39	11.857
693.71	17.833
694.03	16.631
694.35	13.544
694.67	13.475
694.99	9.974
695.31	14.541
695.63	10.969
695.95	14.888
696.27	16.209
696.59	13.636
696.91	16.011
697.23	13.542
697.56	12.500
697.88	14.640
698.20	11.777
698.52	12.780
698.84	15.534
699.16	12.857
699.48	12.000
699.80	16.040
700.12	14.610
700.44	8.380
700.76	12.828
701.08	15.988
701.40	13.293
701.72	14.198
702.04	15.385
702.36	15.663
702.68	13.473
703.00	11.884
703.32	12.321
703.64	17.059
703.96	15.116
704.28	16.864
704.60	8.861
704.91	13.968
705.23	14.239
705.55	11.149
705.87	16.041
706.19	9.375
706.51	15.625
706.83	16.721
707.15	14.331
707.47	15.427
707.79	13.918
708.11	13.486
708.43	14.214
708.74	13.506
709.06	11.699
709.38	13.218
709.70	10.312
710.02	11.963
710.34	11.221
710.66	12.063
710.98	13.249
711.29	12.581
711.61	8.946
711.93	15.410
712.25	12.625
712.57	11.498
712.89	14.029
713.20	14.777
713.52	13.060
713.84	13.167
714.16	11.803
714.48	12.063
714.80	11.385
715.11	12.392
715.43	19.277
715.75	16.199
716.07	12.459
716.39	13.378
716.70	16.028
717.02	10.741
717.34	16.412
717.66	15.353
717.97	11.885
718.29	14.286
718.61	15.476
718.93	12.545
719.24	10.294
719.56	10.566
719.88	14.909
720.20	9.738
720.51	12.030
720.83	10.040
721.15	10.246
721.46	14.510
721.78	9.579
722.10	13.200
722.42	10.331
722.73	10.359
723.05	13.655
723.37	15.294
723.68	10.121
724.00	16.667
724.32	17.284
724.63	17.012
724.95	16.942
725.27	10.965
725.58	11.638
725.90	9.524
726.22	17.343
726.53	17.110
726.85	7.843
727.16	11.278
727.48	14.615
727.80	8.197
728.11	13.025
728.43	11.570
728.74	13.672
729.06	16.667
729.38	15.564
729.69	16.535
730.01	14.567
730.32	13.546
730.64	17.949
730.96	14.552
731.27	15.000
731.59	16.399
731.90	13.497
732.22	11.043
732.53	16.225
732.85	10.403
733.16	14.855
733.48	16.725
733.80	12.100
734.11	14.138
734.43	15.646
734.74	16.024
735.06	14.420
735.37	14.067
735.69	13.548
736.00	12.795
736.32	15.563
736.63	10.000
736.95	17.029
737.26	15.894
737.58	11.871
737.89	19.713
738.21	10.526
738.52	14.615
738.83	16.406
739.15	13.675
739.46	15.323
739.78	14.336
740.09	13.287
740.41	13.287
740.72	15.693
741.04	15.476
741.35	9.957
741.66	14.815
741.98	12.857
742.29	16.432
742.61	12.834
742.92	21.963
743.23	10.088
743.55	14.414
743.86	21.778
744.18	12.381
744.49	21.675
744.80	14.213
745.12	17.526
745.43	11.055
745.74	14.563
746.06	14.146
746.37	18.943
746.68	14.428
747.00	18.325
747.31	14.423
747.62	14.286
747.94	13.537
748.25	12.558
748.56	19.048
748.88	6.522
749.19	18.310
749.50	20.588
749.82	16.444
750.13	18.943
750.44	13.821
750.75	10.400
751.07	16.429
751.38	13.284
751.69	11.450
752.01	12.692
752.32	9.339
752.63	11.538
752.94	11.905
753.26	13.913
753.57	12.054
753.88	11.638
754.19	10.788
754.51	13.672
754.82	15.810
755.13	12.346
755.44	13.223
755.75	11.523
756.07	4.819
756.38	12.891
756.69	15.523
757.00	12.195
757.31	17.114
757.63	17.445
757.94	16.474
758.25	12.791
758.56	18.059
758.87	13.920
759.18	14.333
759.50	13.523
759.81	6.204
760.12	13.176
760.43	14.563
760.74	15.937
761.05	13.764
761.36	14.072
761.67	14.201
761.99	10.645
762.30	12.681
762.61	16.604
762.92	16.592
763.23	19.431
763.54	12.444
763.85	16.034
764.16	15.918
764.47	13.136
764.78	17.228
765.10	14.748
765.41	15.806
765.72	13.836
766.03	7.774
766.34	14.662
766.65	12.955
766.96	16.500
767.27	13.021
767.58	11.628
767.89	12.258
768.20	20.859
768.51	17.486
768.82	9.730
769.13	11.000
769.44	14.035
769.75	12.987
770.06	13.303
770.37	15.493
770.68	12.500
770.99	8.911
771.30	15.534
771.61	13.426
771.92	13.420
772.23	12.150
772.54	16.489
772.85	11.243
773.16	15.854
773.47	16.265
773.78	19.780
774.09	16.000
774.39	20.370
774.70	12.081
775.01	10.145
775.32	13.433
775.63	4.959
775.94	13.534
776.25	7.857
776.56	25.410
776.87	17.699
777.18	18.584
777.48	1.818
777.79	12.174
778.10	10.092
778.41	4.237
778.72	16.529
779.03	18.657
779.34	21.053
779.65	18.954
779.95	5.797
780.26	12.245
780.57	-0.862
780.88	18.519
781.19	-1.010
781.50	12.800
781.80	9.804
782.11	8.974
782.42	10.843
782.73	4.380
783.04	12.838
783.34	21.970
783.65	13.953
783.96	12.195
784.27	14.530
784.57	13.008
784.88	9.756
785.19	10.526
785.50	-7.216
785.81	17.143
786.11	16.667
786.42	7.273
786.73	10.811
787.04	13.861
787.34	20.952
787.65	6.667
787.96	3.922
788.26	20.721
788.57	20.161
788.88	13.281
789.19	11.111
789.49	10.084
789.80	17.094
790.11	20.354
790.41	18.182
790.72	19.811
791.03	-4.167
791.33	2.632
791.64	8.602
791.95	18.667
792.25	18.571
792.56	7.317
792.87	25.510
793.17	13.158
793.48	0.000
793.79	9.859
794.09	11.392
794.40	21.277
794.70	13.084
795.01	-5.263
795.32	8.182
795.62	10.714
795.93	2.062
796.23	6.593
796.54	21.053
796.85	15.068
797.15	1.389
797.46	16.438
797.76	15.493
798.07	17.500
798.37	23.529
798.68	25.714
798.99	21.429
799.29	15.789
799.60	31.667
799.90	-5.556
800.21	14.063
800.51	11.111
800.82	24.590
801.12	8.772
801.43	4.225
801.73	1.695
802.04	29.508
802.34	7.273
802.65	15.385
802.95	27.778
803.26	-12.500
803.56	19.231
803.87	13.158
804.17	16.129
804.48	21.538
804.78	-2.564
805.09	11.628
805.39	-15.625
805.70	3.774
806.00	24.561
806.30	27.027
806.61	10.294
806.91	4.938
807.22	2.667
807.52	8.955
807.83	3.226
808.13	4.762
808.43	-9.091
808.74	27.273
809.04	5.660
809.35	12.329
809.65	17.544
809.95	17.647
810.26	29.412
810.56	-22.000
810.86	14.286
811.17	0.000
811.47	3.846
811.77	-9.677
812.08	-5.263
812.38	23.810
812.69	13.043
812.99	29.032
813.29	19.048
813.59	-18.519
813.90	2.128
814.20	-9.302
814.50	16.667
814.81	11.667
815.11	19.512
815.41	-13.333
815.72	25.714
816.02	-11.111
816.32	46.154
816.62	0.000
816.93	-29.412
817.23	28.261
817.53	-20.588
817.84	20.588
818.14	-21.875
818.44	-6.897
818.74	19.355
819.04	0.000
819.35	6.667
819.65	-20.000
819.95	26.667
820.25	-20.000
820.56	23.684
820.86	7.500
821.16	0.000
821.46	18.966
821.76	7.692
822.07	-2.500
822.37	27.907
822.67	6.667
822.97	32.432
823.27	24.324
823.57	16.000
823.88	24.324
824.18	-38.095
824.48	3.846
824.78	-153.846
825.08	21.739
825.38	8.333
825.69	33.333
825.99	-65.000
826.29	-5.405
826.59	-14.706
826.89	44.000
827.19	-5.714
827.49	23.684
827.79	9.375
828.09	-13.333
828.39	39.130
828.70	-31.034
829.00	17.241
829.30	33.333
829.60	25.000
829.90	-11.111
830.20	-46.154
830.50	-42.857
830.80	10.714
831.10	7.692
831.40	19.048
831.70	11.765
832.00	45.833
832.30	21.053
832.60	0.000
832.90	-8.333
833.20	-41.176
833.50	-26.667
833.80	-86.667
834.10	20.000
834.40	29.167
834.70	-66.667
835.00	-3.846
835.30	8.333
835.60	27.586
835.90	-22.222
836.20	9.091
836.50	-50.000
836.80	-8.571
837.10	51.429
837.40	-17.647
837.70	-118.182
838.00	12.500
838.30	62.500
838.60	23.810
838.90	-10.000
839.19	34.783
839.49	47.826
839.79	-22.222
840.09	26.087
840.39	4.545
840.69	-43.750
840.99	0.000
841.29	-6.250
841.59	42.857
841.88	0.000
842.18	33.333
842.48	-29.412
842.78	3.448
843.08	35.714
843.38	-69.231
843.68	33.333
843.97	-7.692
844.27	-54.545
844.57	40.000
844.87	24.000
845.17	100.000
845.47	0.000
845.76	-55.556
846.06	0.000
846.36	0.000
846.66	-90.000
846.96	-36.842
847.25	45.833
847.55	-116.667
847.85	26.667
848.15	-40.000
848.44	42.308
848.74	52.632
849.04	166.667
849.34	0.000
849.63	-42.105
849.93	0.000
850.23	-5.000
850.53	66.667
850.82	32.000
851.12	73.684
851.42	-350.000
851.71	35.714
852.01	0.000
852.31	76.471
852.61	40.000
852.90	-19.048
853.20	33.333
853.50	5.556
853.79	-5.263
854.09	0.000
854.39	17.857
854.68	21.739
854.98	-191.667
855.28	10.345
855.57	-43.750
855.87	30.000
856.17	-80.000
856.46	3.448
856.76	0.000
857.05	-35.294
857.35	-115.385
857.65	-45.455
857.94	-18.519
858.24	-14.286
858.53	-14.286
858.83	-66.667
859.13	-22.222
859.42	80.952
859.72	-62.500
860.01	-266.667
860.31	-50.000
860.60	-320.000
860.90	-111.111
861.20	-100.000
861.49	-171.429
861.79	41.176
862.08	-300.000
862.38	-83.333
862.67	-15.385
862.97	88.235
863.26	40.000
863.56	-58.824
863.85	100.000
864.15	-80.000
864.44	-53.846
864.74	-45.000
865.03	-50.000
865.33	0.000
865.62	29.412
865.92	-350.000
866.21	-57.143
866.51	-16.667
866.80	-200.000
867.10	33.333
867.39	-11.765
867.69	30.435
867.98	100.000
868.27	-40.000
868.57	-43.750
868.86	-18.182
869.16	70.588
869.45	-16.667
869.75	-71.429
870.04	-500.000
870.33	-25.000
870.63	-80.000
870.92	0.000
871.22	-91.667
871.51	18.182
871.80	0.000
872.10	40.000
>>>>>End Processed Spectral Data<<<<<
