SpectraSuite Data File
++++++++++++++++++++++++++++++++++++
Date: Sat May 16 11:40:57 PDT 2015
User: schluterlab
Dark Spectrum Present: Yes
Reference Spectrum Present: Yes
Number of Sampled Component Spectra: 1
Spectrometers: USB2E3373
Integration Time (usec): 3000 (USB2E3373)
Spectra Averaged: 3 (USB2E3373)
Boxcar Smoothing: 0 (USB2E3373)
Correct for Electrical Dark: No (USB2E3373)
Strobe/Lamp Enabled: No (USB2E3373)
Correct for Detector Non-linearity: No (USB2E3373)
Correct for Stray Light: No (USB2E3373)
Number of Pixels in Processed Spectrum: 2048
>>>>>Begin Processed Spectral Data<<<<<
178.53	0.000
178.91	106.667
179.29	333.333
179.67	-700.000
180.04	-23.077
180.42	1300.000
180.80	375.000
181.18	525.000
181.56	-175.000
181.94	1700.000
182.31	275.000
182.69	-38.462
183.07	-400.000
183.45	1300.000
183.83	700.000
184.20	-71.429
184.58	-250.000
184.96	-150.000
185.34	150.000
185.72	-475.000
186.09	50.000
186.47	-200.000
186.85	-187.500
187.23	-37.500
187.61	-125.000
187.98	-212.500
188.36	-150.000
188.74	-187.500
189.12	400.000
189.49	314.286
189.87	-100.000
190.25	425.000
190.63	0.000
191.00	-144.444
191.38	400.000
191.76	26.667
192.14	500.000
192.51	-100.000
192.89	-400.000
193.27	0.000
193.65	-155.556
194.02	-228.571
194.40	633.333
194.78	-110.000
195.15	-600.000
195.53	-190.909
195.91	-366.667
196.29	320.000
196.66	-800.000
197.04	1800.000
197.42	-225.000
197.79	-53.333
198.17	-400.000
198.55	-850.000
198.92	-1800.000
199.30	250.000
199.68	-1150.000
200.05	-122.222
200.43	-288.889
200.81	-1200.000
201.18	-33.333
201.56	285.714
201.94	-93.333
202.31	-4.545
202.69	-40.000
203.07	-60.000
203.44	466.667
203.82	-300.000
204.19	-750.000
204.57	-225.000
204.95	-2300.000
205.32	-43.750
205.70	400.000
206.08	-2300.000
206.45	-50.000
206.83	-1100.000
207.20	-300.000
207.58	-766.667
207.96	-600.000
208.33	-200.000
208.71	-133.333
209.08	250.000
209.46	-371.429
209.84	800.000
210.21	0.000
210.59	55.000
210.96	200.000
211.34	-233.333
211.71	-333.333
212.09	425.000
212.46	400.000
212.84	-1900.000
213.22	733.333
213.59	175.000
213.97	-55.556
214.34	190.000
214.72	-100.000
215.09	-333.333
215.47	-200.000
215.84	-80.000
216.22	-110.000
216.59	6.667
216.97	-500.000
217.34	550.000
217.72	-171.429
218.09	-216.667
218.47	-257.143
218.84	257.143
219.22	-85.714
219.59	0.000
219.97	228.571
220.34	275.000
220.72	275.000
221.09	-100.000
221.47	0.000
221.84	333.333
222.22	-450.000
222.59	1700.000
222.97	-287.500
223.34	-1100.000
223.72	-466.667
224.09	-50.000
224.46	-325.000
224.84	-57.143
225.21	-214.286
225.59	-72.727
225.96	-212.500
226.34	-171.429
226.71	-77.778
227.08	-35.000
227.46	2300.000
227.83	-114.286
228.21	-187.500
228.58	850.000
228.95	-43.750
229.33	-1600.000
229.70	-420.000
230.08	-1500.000
230.45	25.000
230.82	-350.000
231.20	-1000.000
231.57	-450.000
231.95	1400.000
232.32	-57.143
232.69	-200.000
233.07	-214.286
233.44	-850.000
233.81	-60.000
234.19	-100.000
234.56	-31.250
234.93	6.250
235.31	-214.286
235.68	-107.143
236.05	0.000
236.43	-9.091
236.80	-6.452
237.17	-8.333
237.55	14.286
237.92	-36.364
238.29	-5.714
238.67	17.647
239.04	19.444
239.41	9.677
239.79	-17.949
240.16	7.143
240.53	23.636
240.91	38.462
241.28	47.273
241.65	50.769
242.02	29.508
242.40	32.787
242.77	34.848
243.14	40.678
243.51	32.857
243.89	43.038
244.26	38.202
244.63	50.526
245.00	30.526
245.38	37.288
245.75	38.053
246.12	44.800
246.49	35.433
246.87	37.398
247.24	35.593
247.61	38.136
247.98	36.620
248.36	38.462
248.73	36.076
249.10	37.580
249.47	54.971
249.84	42.614
250.22	30.952
250.59	45.198
250.96	42.932
251.33	42.654
251.70	44.712
252.08	40.758
252.45	47.867
252.82	44.762
253.19	44.255
253.56	44.758
253.94	45.992
254.31	49.785
254.68	50.000
255.05	39.113
255.42	44.444
255.79	44.444
256.16	49.020
256.54	44.118
256.91	43.561
257.28	42.491
257.65	42.908
258.02	48.742
258.39	44.482
258.76	46.284
259.14	45.062
259.51	46.885
259.88	46.037
260.25	48.447
260.62	45.016
260.99	44.807
261.36	50.000
261.73	47.977
262.10	47.500
262.47	50.427
262.85	52.857
263.22	44.126
263.59	47.077
263.96	48.696
264.33	50.678
264.70	49.724
265.07	51.099
265.44	46.512
265.81	41.602
266.18	49.114
266.55	42.892
266.92	49.118
267.29	45.763
267.66	48.889
268.03	47.101
268.40	45.775
268.77	46.024
269.14	45.244
269.51	44.368
269.88	42.661
270.25	45.688
270.62	48.284
270.99	46.622
271.36	48.718
271.73	45.291
272.10	50.801
272.47	48.222
272.84	47.556
273.21	46.789
273.58	47.692
273.95	48.246
274.32	47.964
274.69	46.827
275.06	46.830
275.43	49.777
275.80	49.287
276.17	46.025
276.54	47.047
276.91	47.325
277.28	47.059
277.65	44.215
278.02	47.390
278.39	44.204
278.76	48.805
279.13	46.245
279.50	49.702
279.87	44.820
280.23	45.142
280.60	46.521
280.97	45.049
281.34	47.195
281.71	45.000
282.08	48.992
282.45	45.825
282.82	49.225
283.19	47.273
283.56	47.070
283.92	48.233
284.29	47.212
284.66	45.144
285.03	44.029
285.40	45.941
285.77	46.140
286.14	47.653
286.51	45.293
286.87	44.465
287.24	44.539
287.61	43.967
287.98	45.234
288.35	42.975
288.72	44.822
289.08	42.034
289.45	41.919
289.82	43.253
290.19	42.200
290.56	43.471
290.93	40.223
291.29	42.950
291.66	41.224
292.03	40.502
292.40	37.952
292.77	40.062
293.13	40.000
293.50	40.565
293.87	40.337
294.24	38.763
294.60	37.424
294.97	38.240
295.34	38.370
295.71	37.500
296.08	35.023
296.44	36.052
296.81	36.040
297.18	35.634
297.55	36.158
297.91	38.354
298.28	34.658
298.65	36.960
299.02	36.765
299.38	35.294
299.75	35.870
300.12	37.051
300.48	35.166
300.85	34.731
301.22	35.058
301.59	34.980
301.95	36.146
302.32	33.507
302.69	35.251
303.05	33.211
303.42	31.500
303.79	33.014
304.15	32.938
304.52	33.372
304.89	33.176
305.25	34.432
305.62	32.550
305.99	33.333
306.35	33.851
306.72	32.688
307.09	32.123
307.45	33.031
307.82	31.844
308.19	32.550
308.55	32.353
308.92	31.472
309.29	32.432
309.65	31.389
310.02	30.886
310.38	30.703
310.75	31.352
311.12	30.785
311.48	31.002
311.85	30.999
312.22	31.102
312.58	30.926
312.95	29.867
313.31	31.269
313.68	32.261
314.05	31.751
314.41	30.885
314.78	30.969
315.14	30.405
315.51	30.193
315.87	30.591
316.24	30.321
316.61	29.750
316.97	32.040
317.34	30.539
317.70	29.870
318.07	30.784
318.43	30.056
318.80	30.986
319.16	29.456
319.53	30.639
319.89	29.351
320.26	30.588
320.62	28.365
320.99	30.348
321.35	29.458
321.72	28.966
322.08	30.762
322.45	29.307
322.81	28.818
323.18	29.875
323.54	28.651
323.91	29.657
324.27	29.278
324.64	29.525
325.00	28.796
325.37	29.774
325.73	28.609
326.10	28.167
326.46	29.422
326.83	29.447
327.19	27.606
327.56	29.216
327.92	29.397
328.29	29.784
328.65	28.000
329.01	28.180
329.38	29.706
329.74	29.029
330.11	27.471
330.47	28.429
330.84	29.881
331.20	27.708
331.56	28.532
331.93	28.597
332.29	28.402
332.66	28.622
333.02	29.774
333.38	28.405
333.75	27.605
334.11	28.622
334.48	27.184
334.84	28.784
335.20	28.014
335.57	28.069
335.93	28.201
336.29	28.078
336.66	26.872
337.02	28.829
337.38	27.897
337.75	27.480
338.11	28.086
338.47	28.826
338.84	27.858
339.20	27.592
339.56	27.540
339.93	27.249
340.29	26.484
340.65	27.885
341.02	27.656
341.38	28.559
341.74	27.773
342.11	27.645
342.47	26.781
342.83	26.113
343.20	27.071
343.56	24.735
343.92	26.962
344.28	28.091
344.65	26.403
345.01	26.807
345.37	27.492
345.73	26.678
346.10	25.920
346.46	26.483
346.82	25.982
347.19	25.883
347.55	25.762
347.91	27.008
348.27	25.139
348.63	27.948
349.00	26.730
349.36	25.683
349.72	27.468
350.08	25.421
350.45	25.611
350.81	26.911
351.17	26.045
351.53	25.457
351.89	26.677
352.26	26.202
352.62	26.728
352.98	26.187
353.34	26.059
353.70	24.170
354.07	24.784
354.43	26.008
354.79	25.990
355.15	25.240
355.51	25.078
355.87	25.455
356.24	25.655
356.60	26.511
356.96	25.558
357.32	24.782
357.68	24.751
358.04	26.097
358.40	25.135
358.77	25.116
359.13	25.784
359.49	24.565
359.85	24.466
360.21	24.962
360.57	26.883
360.93	25.111
361.29	25.710
361.66	24.466
362.02	25.074
362.38	25.165
362.74	24.908
363.10	23.960
363.46	26.068
363.82	25.583
364.18	24.385
364.54	25.375
364.90	24.668
365.26	25.107
365.62	25.944
365.98	25.533
366.35	25.282
366.71	24.595
367.07	24.065
367.43	25.944
367.79	24.811
368.15	24.324
368.51	25.385
368.87	25.343
369.23	25.754
369.59	25.069
369.95	24.947
370.31	26.512
370.67	23.500
371.03	24.854
371.39	23.197
371.75	24.535
372.11	25.610
372.47	24.584
372.83	24.965
373.19	24.786
373.55	24.912
373.91	24.111
374.27	23.409
374.63	24.707
374.99	25.591
375.35	24.092
375.71	24.308
376.07	24.572
376.42	23.245
376.78	24.706
377.14	25.288
377.50	24.307
377.86	24.642
378.22	24.372
378.58	24.583
378.94	24.106
379.30	24.132
379.66	25.076
380.02	24.064
380.38	23.746
380.74	24.443
381.09	24.722
381.45	24.403
381.81	24.077
382.17	23.997
382.53	23.830
382.89	24.402
383.25	25.226
383.61	23.703
383.97	23.944
384.32	23.967
384.68	24.244
385.04	24.034
385.40	23.981
385.76	24.756
386.12	24.485
386.48	25.124
386.83	24.417
387.19	23.610
387.55	23.925
387.91	24.363
388.27	23.643
388.62	24.760
388.98	24.652
389.34	24.051
389.70	23.325
390.06	24.363
390.42	25.192
390.77	23.975
391.13	25.280
391.49	25.203
391.85	24.314
392.20	23.847
392.56	23.519
392.92	23.959
393.28	25.086
393.64	24.534
393.99	24.985
394.35	24.513
394.71	23.657
395.07	24.357
395.42	23.421
395.78	24.136
396.14	25.296
396.50	24.037
396.85	24.923
397.21	24.119
397.57	24.863
397.92	24.122
398.28	24.000
398.64	24.390
399.00	24.775
399.35	24.408
399.71	25.552
400.07	25.194
400.42	24.757
400.78	24.270
401.14	23.473
401.49	23.880
401.85	24.527
402.21	24.672
402.57	24.090
402.92	24.544
403.28	23.836
403.63	23.787
403.99	24.549
404.35	24.215
404.70	24.166
405.06	24.452
405.42	24.293
405.77	23.982
406.13	23.566
406.49	24.865
406.84	23.275
407.20	24.853
407.55	24.256
407.91	24.093
408.27	24.081
408.62	24.173
408.98	23.954
409.34	24.193
409.69	23.629
410.05	24.742
410.40	25.261
410.76	24.422
411.11	24.501
411.47	25.192
411.83	24.878
412.18	23.391
412.54	23.917
412.89	24.362
413.25	22.963
413.60	24.605
413.96	23.413
414.31	24.220
414.67	24.317
415.03	23.674
415.38	24.984
415.74	25.064
416.09	23.785
416.45	22.884
416.80	23.797
417.16	24.518
417.51	25.148
417.87	23.948
418.22	22.882
418.58	25.032
418.93	24.280
419.29	23.588
419.64	23.492
420.00	24.423
420.35	24.246
420.71	24.850
421.06	24.852
421.42	23.126
421.77	24.121
422.12	24.566
422.48	24.212
422.83	25.057
423.19	23.998
423.54	24.380
423.90	24.060
424.25	23.812
424.61	25.211
424.96	25.571
425.31	24.092
425.67	24.470
426.02	23.006
426.38	24.743
426.73	24.781
427.09	24.755
427.44	24.148
427.79	23.837
428.15	24.417
428.50	23.988
428.85	24.580
429.21	24.018
429.56	24.896
429.92	24.449
430.27	24.277
430.62	24.869
430.98	24.307
431.33	24.600
431.68	24.343
432.04	25.238
432.39	24.672
432.74	23.861
433.10	24.536
433.45	24.352
433.80	24.636
434.16	24.933
434.51	25.096
434.86	24.605
435.22	25.278
435.57	24.113
435.92	23.916
436.28	24.392
436.63	23.855
436.98	24.456
437.34	24.217
437.69	24.096
438.04	24.504
438.39	24.549
438.75	24.447
439.10	25.597
439.45	24.744
439.81	23.795
440.16	24.532
440.51	25.471
440.86	24.581
441.22	24.268
441.57	24.684
441.92	23.887
442.27	24.242
442.63	24.893
442.98	24.153
443.33	24.767
443.68	24.179
444.03	24.853
444.39	24.131
444.74	25.385
445.09	23.684
445.44	25.155
445.79	25.038
446.15	24.699
446.50	23.952
446.85	24.012
447.20	23.647
447.55	25.138
447.91	25.660
448.26	24.525
448.61	24.222
448.96	25.042
449.31	24.521
449.66	25.358
450.02	22.659
450.37	24.058
450.72	24.746
451.07	25.707
451.42	23.978
451.77	25.075
452.12	23.897
452.47	25.189
452.83	24.170
453.18	24.794
453.53	24.627
453.88	24.880
454.23	24.002
454.58	24.984
454.93	24.244
455.28	23.901
455.63	23.894
455.98	25.542
456.34	23.952
456.69	25.328
457.04	24.708
457.39	24.342
457.74	24.808
458.09	24.768
458.44	25.173
458.79	23.879
459.14	24.986
459.49	25.281
459.84	24.733
460.19	24.940
460.54	24.380
460.89	24.608
461.24	24.954
461.59	24.326
461.94	24.507
462.29	24.122
462.64	24.506
462.99	24.900
463.34	23.700
463.69	24.618
464.04	24.370
464.39	24.074
464.74	25.414
465.09	24.354
465.44	24.535
465.79	26.001
466.14	24.626
466.49	24.928
466.84	25.150
467.19	24.439
467.54	24.937
467.89	25.154
468.24	24.466
468.59	24.859
468.94	23.987
469.29	23.522
469.64	25.539
469.99	24.173
470.34	23.647
470.68	24.273
471.03	25.258
471.38	23.819
471.73	24.406
472.08	23.360
472.43	24.260
472.78	23.867
473.13	23.791
473.48	23.421
473.83	24.566
474.17	24.204
474.52	24.105
474.87	24.709
475.22	23.776
475.57	24.278
475.92	24.784
476.27	23.886
476.61	24.732
476.96	24.371
477.31	24.220
477.66	24.294
478.01	24.149
478.36	24.411
478.70	23.865
479.05	24.392
479.40	23.990
479.75	24.261
480.10	24.058
480.45	23.404
480.79	24.679
481.14	25.088
481.49	24.976
481.84	24.919
482.19	24.532
482.53	24.290
482.88	23.493
483.23	24.836
483.58	25.162
483.92	24.224
484.27	23.527
484.62	23.499
484.97	24.786
485.31	23.456
485.66	23.223
486.01	23.879
486.36	25.308
486.70	26.233
487.05	25.079
487.40	24.866
487.75	25.154
488.09	25.540
488.44	25.778
488.79	25.115
489.13	25.637
489.48	25.653
489.83	24.236
490.17	24.467
490.52	24.411
490.87	23.603
491.22	23.914
491.56	24.676
491.91	24.857
492.26	24.811
492.60	24.215
492.95	24.893
493.30	24.297
493.64	23.930
493.99	23.996
494.34	24.429
494.68	24.813
495.03	24.331
495.37	24.730
495.72	24.902
496.07	24.261
496.41	24.919
496.76	24.977
497.11	24.965
497.45	25.718
497.80	24.812
498.14	24.951
498.49	24.058
498.84	24.417
499.18	24.464
499.53	24.988
499.87	24.373
500.22	25.196
500.56	24.312
500.91	24.631
501.26	25.036
501.60	23.977
501.95	25.556
502.29	24.516
502.64	25.554
502.98	24.533
503.33	24.295
503.67	24.425
504.02	24.095
504.36	25.000
504.71	24.519
505.06	23.964
505.40	24.551
505.75	24.848
506.09	25.379
506.44	25.213
506.78	24.586
507.13	24.511
507.47	24.883
507.82	24.368
508.16	24.870
508.51	24.833
508.85	23.706
509.19	24.542
509.54	24.630
509.88	25.638
510.23	24.738
510.57	25.503
510.92	24.705
511.26	24.455
511.61	24.028
511.95	24.461
512.30	24.739
512.64	24.096
512.98	24.972
513.33	25.535
513.67	24.009
514.02	24.273
514.36	25.374
514.70	25.467
515.05	24.185
515.39	24.221
515.74	25.305
516.08	24.899
516.42	24.986
516.77	25.072
517.11	24.428
517.46	26.256
517.80	24.910
518.14	24.275
518.49	24.507
518.83	24.095
519.17	25.459
519.52	24.812
519.86	24.134
520.20	25.550
520.55	24.369
520.89	24.483
521.23	25.092
521.58	24.702
521.92	25.966
522.26	25.206
522.61	23.638
522.95	24.059
523.29	25.455
523.64	24.172
523.98	24.889
524.32	24.953
524.66	23.913
525.01	24.277
525.35	25.515
525.69	24.333
526.04	24.739
526.38	25.271
526.72	24.330
527.06	25.130
527.41	25.281
527.75	24.026
528.09	24.686
528.43	25.705
528.78	25.063
529.12	25.032
529.46	24.549
529.80	25.113
530.15	25.241
530.49	25.291
530.83	26.523
531.17	24.916
531.51	25.318
531.86	25.346
532.20	24.764
532.54	25.201
532.88	24.835
533.22	24.666
533.57	26.110
533.91	25.406
534.25	26.084
534.59	24.922
534.93	25.078
535.27	25.047
535.62	25.512
535.96	25.533
536.30	23.691
536.64	25.299
536.98	25.989
537.32	25.294
537.66	24.236
538.01	25.361
538.35	25.878
538.69	25.067
539.03	25.322
539.37	25.017
539.71	24.683
540.05	25.360
540.39	25.900
540.73	26.192
541.07	25.410
541.42	24.510
541.76	24.651
542.10	26.536
542.44	25.183
542.78	25.373
543.12	24.644
543.46	24.658
543.80	24.080
544.14	24.916
544.48	25.525
544.82	25.237
545.16	26.023
545.50	25.437
545.84	25.174
546.18	25.659
546.52	26.458
546.86	25.855
547.20	25.176
547.54	24.105
547.88	25.547
548.22	24.509
548.56	24.850
548.90	25.202
549.24	25.158
549.58	25.547
549.92	25.583
550.26	25.939
550.60	25.178
550.94	25.109
551.28	24.981
551.62	24.963
551.96	25.398
552.30	25.087
552.64	25.053
552.98	25.158
553.32	25.541
553.66	26.316
554.00	25.586
554.34	24.838
554.68	24.854
555.02	25.977
555.36	24.515
555.69	24.928
556.03	25.333
556.37	25.676
556.71	26.056
557.05	25.795
557.39	25.464
557.73	26.842
558.07	26.225
558.41	25.804
558.75	25.171
559.08	24.825
559.42	25.268
559.76	26.764
560.10	25.802
560.44	25.289
560.78	25.400
561.12	25.604
561.45	25.753
561.79	24.599
562.13	25.877
562.47	25.280
562.81	25.035
563.15	25.682
563.48	24.672
563.82	24.814
564.16	25.828
564.50	25.538
564.84	25.198
565.17	25.796
565.51	25.880
565.85	26.437
566.19	25.362
566.52	24.462
566.86	25.917
567.20	26.877
567.54	27.820
567.88	25.907
568.21	26.957
568.55	26.299
568.89	25.746
569.23	25.590
569.56	25.809
569.90	26.239
570.24	26.080
570.57	25.378
570.91	25.366
571.25	26.816
571.59	26.007
571.92	26.577
572.26	26.123
572.60	25.535
572.93	25.550
573.27	26.159
573.61	25.839
573.95	25.812
574.28	25.790
574.62	26.309
574.96	26.346
575.29	25.813
575.63	26.520
575.97	25.863
576.30	25.925
576.64	25.770
576.98	25.802
577.31	25.721
577.65	25.811
577.98	25.971
578.32	25.637
578.66	26.310
578.99	26.391
579.33	26.250
579.67	26.300
580.00	26.166
580.34	25.954
580.67	26.600
581.01	25.846
581.35	26.257
581.68	25.782
582.02	26.033
582.35	26.478
582.69	26.524
583.02	26.636
583.36	26.430
583.70	26.165
584.03	27.128
584.37	26.766
584.70	26.381
585.04	26.582
585.37	25.871
585.71	25.665
586.04	26.520
586.38	25.769
586.72	26.494
587.05	26.083
587.39	25.813
587.72	26.440
588.06	26.905
588.39	26.260
588.73	26.192
589.06	26.758
589.40	26.451
589.73	25.921
590.07	26.293
590.40	26.827
590.73	26.869
591.07	26.434
591.40	26.343
591.74	27.194
592.07	26.757
592.41	25.223
592.74	25.980
593.08	26.090
593.41	25.822
593.75	25.420
594.08	26.456
594.41	25.915
594.75	26.274
595.08	25.940
595.42	26.770
595.75	26.534
596.09	26.698
596.42	27.660
596.75	26.261
597.09	26.714
597.42	25.753
597.75	25.686
598.09	26.615
598.42	25.806
598.76	25.664
599.09	25.730
599.42	26.144
599.76	26.387
600.09	25.763
600.42	25.788
600.76	26.365
601.09	25.256
601.42	25.960
601.76	25.857
602.09	26.012
602.42	26.132
602.76	25.883
603.09	26.694
603.42	26.994
603.76	26.007
604.09	26.272
604.42	26.228
604.76	27.126
605.09	26.311
605.42	26.507
605.75	25.399
606.09	26.110
606.42	26.058
606.75	25.891
607.09	26.158
607.42	25.924
607.75	26.004
608.08	26.751
608.42	27.200
608.75	26.168
609.08	26.303
609.41	26.806
609.75	26.134
610.08	27.304
610.41	25.735
610.74	27.031
611.07	26.623
611.41	25.870
611.74	26.735
612.07	25.832
612.40	25.906
612.73	26.764
613.07	25.647
613.40	27.313
613.73	26.158
614.06	25.426
614.39	25.874
614.72	25.698
615.06	26.196
615.39	25.502
615.72	26.779
616.05	25.897
616.38	26.233
616.71	25.526
617.05	26.417
617.38	27.059
617.71	25.737
618.04	26.957
618.37	25.975
618.70	26.076
619.03	26.473
619.36	26.216
619.69	26.561
620.03	25.344
620.36	24.543
620.69	27.207
621.02	25.495
621.35	26.452
621.68	26.230
622.01	24.191
622.34	26.630
622.67	26.172
623.00	26.549
623.33	26.642
623.66	25.258
623.99	25.038
624.32	25.595
624.65	26.416
624.99	26.438
625.32	25.449
625.65	24.398
625.98	27.074
626.31	26.591
626.64	26.778
626.97	26.199
627.30	26.638
627.63	24.957
627.96	25.152
628.29	24.632
628.62	24.737
628.95	25.787
629.28	24.530
629.61	25.908
629.94	24.858
630.26	24.652
630.59	25.226
630.92	25.626
631.25	27.520
631.58	25.185
631.91	25.426
632.24	27.111
632.57	26.222
632.90	25.402
633.23	25.818
633.56	24.912
633.89	24.528
634.22	24.911
634.55	25.361
634.88	25.030
635.20	24.594
635.53	25.191
635.86	24.937
636.19	22.833
636.52	25.090
636.85	24.308
637.18	23.375
637.51	25.898
637.83	25.566
638.16	25.658
638.49	25.379
638.82	25.225
639.15	26.589
639.48	24.254
639.81	24.758
640.13	25.946
640.46	24.359
640.79	25.210
641.12	26.093
641.45	23.960
641.77	26.198
642.10	23.867
642.43	25.038
642.76	23.622
643.09	23.333
643.41	25.238
643.74	24.006
644.07	25.117
644.40	24.149
644.73	24.917
645.05	24.374
645.38	25.166
645.71	27.320
646.04	26.050
646.36	23.211
646.69	23.529
647.02	24.910
647.35	23.466
647.67	26.095
648.00	25.835
648.33	25.970
648.66	23.226
648.98	25.478
649.31	24.769
649.64	24.375
649.96	24.333
650.29	23.770
650.62	24.785
650.94	25.632
651.27	25.650
651.60	24.048
651.92	23.459
652.25	25.876
652.58	22.487
652.90	24.719
653.23	26.452
653.56	22.575
653.88	24.754
654.21	25.000
654.54	24.917
654.86	23.596
655.19	25.072
655.52	24.490
655.84	24.905
656.17	27.476
656.49	38.399
656.82	40.250
657.15	31.349
657.47	22.986
657.80	17.510
658.13	20.458
658.45	27.857
658.78	27.728
659.10	28.867
659.43	27.802
659.75	28.009
660.08	26.406
660.41	25.420
660.73	25.303
661.06	25.507
661.38	24.286
661.71	23.518
662.03	24.798
662.36	23.881
662.68	23.629
663.01	24.628
663.33	24.943
663.66	25.322
663.98	22.098
664.31	24.609
664.63	25.442
664.96	21.258
665.28	21.475
665.61	23.890
665.93	26.543
666.26	24.494
666.58	25.156
666.91	24.499
667.23	24.781
667.56	23.356
667.88	24.434
668.21	23.963
668.53	23.832
668.86	24.018
669.18	22.146
669.50	22.897
669.83	23.601
670.15	26.009
670.48	22.196
670.80	20.729
671.13	20.767
671.45	19.820
671.77	24.411
672.10	23.274
672.42	24.723
672.75	22.545
673.07	22.883
673.39	24.044
673.72	24.409
674.04	23.142
674.37	23.093
674.69	24.795
675.01	21.915
675.34	22.777
675.66	22.246
675.98	24.009
676.31	26.244
676.63	25.287
676.95	21.460
677.28	21.114
677.60	23.303
677.92	24.449
678.25	25.164
678.57	24.486
678.89	21.174
679.22	22.432
679.54	23.866
679.86	21.200
680.18	23.764
680.51	23.277
680.83	25.714
681.15	24.470
681.48	25.761
681.80	23.589
682.12	21.127
682.44	21.611
682.77	20.996
683.09	22.222
683.41	26.106
683.73	22.831
684.06	21.720
684.38	22.385
684.70	24.280
685.02	25.000
685.34	22.417
685.67	23.485
685.99	19.471
686.31	24.057
686.63	23.404
686.96	22.551
687.28	22.351
687.60	24.609
687.92	20.233
688.24	25.394
688.56	21.242
688.89	19.444
689.21	25.602
689.53	22.299
689.85	22.717
690.17	21.749
690.49	22.864
690.82	21.446
691.14	20.991
691.46	24.169
691.78	25.771
692.10	22.034
692.42	23.556
692.74	23.176
693.06	22.022
693.39	23.043
693.71	23.702
694.03	23.974
694.35	21.896
694.67	20.095
694.99	19.949
695.31	21.429
695.63	18.878
695.95	24.318
696.27	22.195
696.59	21.123
696.91	21.629
697.23	24.219
697.56	20.913
697.88	21.622
698.20	23.126
698.52	17.489
698.84	23.301
699.16	22.143
699.48	21.500
699.80	23.559
700.12	23.678
700.44	21.508
700.76	20.700
701.08	21.512
701.40	20.846
701.72	22.840
702.04	22.115
702.36	21.988
702.68	18.263
703.00	22.029
703.32	17.765
703.64	26.471
703.96	24.128
704.28	22.485
704.60	19.937
704.91	21.587
705.23	21.683
705.55	19.257
705.87	21.843
706.19	19.792
706.51	23.264
706.83	22.951
707.15	18.790
707.47	25.069
707.79	20.876
708.11	20.356
708.43	24.439
708.74	20.779
709.06	17.827
709.38	18.678
709.70	18.750
710.02	20.552
710.34	19.142
710.66	18.095
710.98	21.767
711.29	16.452
711.61	17.252
711.93	20.000
712.25	17.940
712.57	20.209
712.89	19.065
713.20	18.557
713.52	19.403
713.84	21.708
714.16	20.656
714.48	19.048
714.80	19.692
715.11	19.308
715.43	25.000
715.75	22.430
716.07	18.033
716.39	23.411
716.70	24.042
717.02	18.889
717.34	20.229
717.66	21.992
717.97	15.574
718.29	20.168
718.61	18.254
718.93	16.846
719.24	16.544
719.56	16.226
719.88	20.000
720.20	17.978
720.51	15.414
720.83	16.867
721.15	14.754
721.46	23.137
721.78	17.241
722.10	20.800
722.42	15.702
722.73	22.311
723.05	20.884
723.37	22.353
723.68	20.243
724.00	19.106
724.32	17.284
724.63	16.183
724.95	23.140
725.27	14.035
725.58	24.138
725.90	15.476
726.22	22.509
726.53	20.152
726.85	16.078
727.16	25.188
727.48	22.308
727.80	15.574
728.11	18.067
728.43	19.008
728.74	24.219
729.06	21.591
729.38	20.233
729.69	20.079
730.01	20.079
730.32	17.530
730.64	17.216
730.96	21.642
731.27	22.500
731.59	18.328
731.90	21.166
732.22	16.871
732.53	18.543
732.85	16.443
733.16	20.290
733.48	18.815
733.80	18.505
734.11	22.069
734.43	19.048
734.74	19.881
735.06	18.809
735.37	21.101
735.69	18.387
736.00	18.519
736.32	20.530
736.63	12.414
736.95	18.841
737.26	20.861
737.58	20.504
737.89	22.939
738.21	17.293
738.52	17.692
738.83	21.875
739.15	18.803
739.46	21.774
739.78	17.832
740.09	20.979
740.41	16.783
740.72	20.438
741.04	18.254
741.35	18.182
741.66	15.741
741.98	12.381
742.29	19.249
742.61	18.717
742.92	21.495
743.23	17.982
743.55	17.568
743.86	19.556
744.18	16.667
744.49	25.616
744.80	19.289
745.12	19.588
745.43	20.101
745.74	20.874
746.06	18.049
746.37	22.467
746.68	22.388
747.00	13.613
747.31	12.981
747.62	17.051
747.94	15.721
748.25	22.326
748.56	17.143
748.88	9.239
749.19	21.596
749.50	21.078
749.82	19.111
750.13	23.789
750.44	20.732
750.75	20.400
751.07	17.143
751.38	18.450
751.69	18.702
752.01	18.077
752.32	19.066
752.63	14.231
752.94	15.476
753.26	19.565
753.57	20.982
753.88	21.121
754.19	19.502
754.51	20.313
754.82	20.949
755.13	16.872
755.44	16.529
755.75	22.222
756.07	15.261
756.38	24.609
756.69	19.495
757.00	19.164
757.31	20.805
757.63	21.495
757.94	21.676
758.25	15.407
758.56	25.876
758.87	18.750
759.18	18.000
759.50	20.996
759.81	12.044
760.12	15.203
760.43	18.447
760.74	24.688
761.05	24.719
761.36	21.557
761.67	23.077
761.99	18.387
762.30	20.290
762.61	18.868
762.92	17.937
763.23	14.218
763.54	21.778
763.85	16.456
764.16	15.510
764.47	19.492
764.78	18.727
765.10	19.784
765.41	18.065
765.72	17.296
766.03	16.608
766.34	19.173
766.65	16.194
766.96	14.500
767.27	25.000
767.58	11.047
767.89	9.677
768.20	14.724
768.51	17.486
768.82	22.162
769.13	15.000
769.44	15.351
769.75	19.913
770.06	19.266
770.37	15.023
770.68	16.667
770.99	14.356
771.30	23.786
771.61	14.352
771.92	16.883
772.23	17.757
772.54	14.894
772.85	14.793
773.16	12.805
773.47	17.470
773.78	18.681
774.09	21.333
774.39	20.988
774.70	9.396
775.01	11.594
775.32	13.433
775.63	3.306
775.94	17.293
776.25	16.429
776.56	13.934
776.87	7.965
777.18	14.159
777.48	9.091
777.79	6.087
778.10	8.257
778.41	7.627
778.72	11.570
779.03	15.672
779.34	12.782
779.65	15.686
779.95	23.913
780.26	6.803
780.57	-2.586
780.88	12.037
781.19	4.040
781.50	7.200
781.80	13.725
782.11	12.179
782.42	22.289
782.73	13.869
783.04	15.541
783.34	13.636
783.65	10.853
783.96	21.138
784.27	12.821
784.57	17.886
784.88	7.317
785.19	19.298
785.50	-6.186
785.81	2.857
786.11	3.922
786.42	18.182
786.73	22.523
787.04	19.802
787.34	15.238
787.65	-8.571
787.96	15.686
788.26	26.126
788.57	20.161
788.88	18.750
789.19	10.256
789.49	14.286
789.80	12.821
790.11	15.044
790.41	8.081
790.72	17.925
791.03	-4.167
791.33	-9.211
791.64	15.054
791.95	1.333
792.25	24.286
792.56	9.756
792.87	8.163
793.17	9.211
793.48	-10.811
793.79	-4.225
794.09	8.861
794.40	25.532
794.70	14.953
795.01	2.632
795.32	15.455
795.62	6.250
795.93	9.278
796.23	-4.396
796.54	20.000
796.85	-5.479
797.15	-4.167
797.46	6.849
797.76	16.901
798.07	12.500
798.37	0.000
798.68	15.714
798.99	0.000
799.29	25.000
799.60	8.333
799.90	-11.111
800.21	-14.063
800.51	-3.175
800.82	13.115
801.12	5.263
801.43	-7.042
801.73	6.780
802.04	13.115
802.34	-1.818
802.65	-30.769
802.95	1.852
803.26	-40.000
803.56	-5.769
803.87	-7.895
804.17	9.677
804.48	9.231
804.78	-23.077
805.09	9.302
805.39	-50.000
805.70	-32.075
806.00	19.298
806.30	16.216
806.61	7.353
806.91	6.173
807.22	5.333
807.52	7.463
807.83	-3.226
808.13	-28.571
808.43	-16.364
808.74	13.636
809.04	-5.660
809.35	1.370
809.65	21.053
809.95	10.294
810.26	-19.608
810.56	6.000
810.86	-36.735
811.17	-11.429
811.47	-5.769
811.77	-32.258
812.08	-47.368
812.38	23.810
812.69	-26.087
812.99	-6.452
813.29	-14.286
813.59	-22.222
813.90	-2.128
814.20	-48.837
814.50	-29.167
814.81	8.333
815.11	-19.512
815.41	-40.000
815.72	28.571
816.02	2.778
816.32	-15.385
816.62	-16.216
816.93	-26.471
817.23	6.522
817.53	-11.765
817.84	2.941
818.14	-34.375
818.44	-34.483
818.74	-25.806
819.04	-40.741
819.35	-40.000
819.65	-80.000
819.95	-20.000
820.25	-32.000
820.56	-15.789
820.86	-12.500
821.16	8.511
821.46	1.724
821.76	-28.205
822.07	-35.000
822.37	-11.628
822.67	-46.667
822.97	-13.514
823.27	-13.514
823.57	-28.000
823.88	-27.027
824.18	-14.286
824.48	-69.231
824.78	-123.077
825.08	-34.783
825.38	-54.167
825.69	0.000
825.99	-75.000
826.29	-32.432
826.59	-35.294
826.89	-36.000
827.19	-22.857
827.49	-15.789
827.79	-28.125
828.09	-36.667
828.39	-65.217
828.70	-72.414
829.00	-44.828
829.30	-25.000
829.60	28.125
829.90	-38.889
830.20	-38.462
830.50	-76.190
830.80	-32.143
831.10	-5.128
831.40	-57.143
831.70	-11.765
832.00	-29.167
832.30	-31.579
832.60	-75.000
832.90	-175.000
833.20	-152.941
833.50	-80.000
833.80	-133.333
834.10	-20.000
834.40	-16.667
834.70	16.667
835.00	-65.385
835.30	-12.500
835.60	-3.448
835.90	-72.222
836.20	-127.273
836.50	-75.000
836.80	-11.429
837.10	-2.857
837.40	-70.588
837.70	-72.727
838.00	-37.500
838.30	-93.750
838.60	-38.095
838.90	-10.000
839.19	-26.087
839.49	-21.739
839.79	-122.222
840.09	-82.609
840.39	-27.273
840.69	-56.250
840.99	-73.684
841.29	-56.250
841.59	-64.286
841.88	-77.778
842.18	-45.833
842.48	-117.647
842.78	0.000
843.08	-50.000
843.38	-7.692
843.68	-166.667
843.97	-107.692
844.27	-145.455
844.57	-280.000
844.87	-56.000
845.17	-380.000
845.47	-78.571
845.76	-144.444
846.06	0.000
846.36	-475.000
846.66	-110.000
846.96	-57.895
847.25	-66.667
847.55	-125.000
847.85	-13.333
848.15	-180.000
848.44	53.846
848.74	-31.579
849.04	900.000
849.34	-133.333
849.63	-63.158
849.93	0.000
850.23	-90.000
850.53	9.524
850.82	-36.000
851.12	-42.105
851.42	-950.000
851.71	-57.143
852.01	-191.667
852.31	-76.471
852.61	-86.667
852.90	-38.095
853.20	-216.667
853.50	-77.778
853.79	-57.895
854.09	-80.000
854.39	28.571
854.68	-21.739
854.98	-200.000
855.28	-13.793
855.57	-56.250
855.87	-95.000
856.17	-113.333
856.46	-10.345
856.76	-80.000
857.05	-47.059
857.35	-92.308
857.65	-72.727
857.94	-7.407
858.24	-50.000
858.53	-78.571
858.83	-141.667
859.13	-266.667
859.42	14.286
859.72	-187.500
860.01	-633.333
860.31	-212.500
860.60	-560.000
860.90	-133.333
861.20	-162.500
861.49	-214.286
861.79	-41.176
862.08	-250.000
862.38	-191.667
862.67	-107.692
862.97	-17.647
863.26	-40.000
863.56	-47.059
863.85	500.000
864.15	-180.000
864.44	-100.000
864.74	-40.000
865.03	-225.000
865.33	-233.333
865.62	-5.882
865.92	-650.000
866.21	-171.429
866.51	-150.000
866.80	-1500.000
867.10	-233.333
867.39	-64.706
867.69	17.391
867.98	-128.571
868.27	-460.000
868.57	-43.750
868.86	-154.545
869.16	-47.059
869.45	-100.000
869.75	-257.143
870.04	800.000
870.33	-8.333
870.63	-80.000
870.92	-133.333
871.22	-75.000
871.51	-109.091
871.80	8.333
872.10	-10.000
>>>>>End Processed Spectral Data<<<<<
