SpectraSuite Data File
++++++++++++++++++++++++++++++++++++
Date: Sat May 16 11:45:58 PDT 2015
User: schluterlab
Dark Spectrum Present: Yes
Reference Spectrum Present: Yes
Number of Sampled Component Spectra: 1
Spectrometers: USB2E3373
Integration Time (usec): 3000 (USB2E3373)
Spectra Averaged: 3 (USB2E3373)
Boxcar Smoothing: 0 (USB2E3373)
Correct for Electrical Dark: No (USB2E3373)
Strobe/Lamp Enabled: No (USB2E3373)
Correct for Detector Non-linearity: No (USB2E3373)
Correct for Stray Light: No (USB2E3373)
Number of Pixels in Processed Spectrum: 2048
>>>>>Begin Processed Spectral Data<<<<<
178.53	0.000
178.91	100.000
179.29	500.000
179.67	-1000.000
180.04	-76.923
180.42	1200.000
180.80	300.000
181.18	350.000
181.56	-62.500
181.94	600.000
182.31	600.000
182.69	-100.000
183.07	-566.667
183.45	1100.000
183.83	566.667
184.20	-214.286
184.58	-12.500
184.96	-425.000
185.34	137.500
185.72	-500.000
186.09	300.000
186.47	-187.500
186.85	-225.000
187.23	-112.500
187.61	-100.000
187.98	-200.000
188.36	-237.500
188.74	-162.500
189.12	800.000
189.49	314.286
189.87	-25.000
190.25	425.000
190.63	-7.143
191.00	-166.667
191.38	320.000
191.76	-66.667
192.14	560.000
192.51	-240.000
192.89	-533.333
193.27	0.000
193.65	-177.778
194.02	-285.714
194.40	566.667
194.78	-140.000
195.15	-1400.000
195.53	-145.455
195.91	-366.667
196.29	200.000
196.66	-466.667
197.04	2400.000
197.42	-75.000
197.79	26.667
198.17	-733.333
198.55	-800.000
198.92	-500.000
199.30	250.000
199.68	-400.000
200.05	-111.111
200.43	-177.778
200.81	-1500.000
201.18	-175.000
201.56	242.857
201.94	-80.000
202.31	-4.545
202.69	-110.000
203.07	-140.000
203.44	500.000
203.82	-83.333
204.19	-250.000
204.57	-150.000
204.95	-2500.000
205.32	-68.750
205.70	2000.000
206.08	-2200.000
206.45	-44.444
206.83	-850.000
207.20	-550.000
207.58	-966.667
207.96	-400.000
208.33	-150.000
208.71	-155.556
209.08	250.000
209.46	-142.857
209.84	950.000
210.21	0.000
210.59	20.000
210.96	500.000
211.34	-416.667
211.71	-600.000
212.09	400.000
212.46	1500.000
212.84	-2500.000
213.22	800.000
213.59	50.000
213.97	-155.556
214.34	210.000
214.72	-60.000
215.09	-633.333
215.47	-200.000
215.84	-10.000
216.22	-20.000
216.59	40.000
216.97	-350.000
217.34	750.000
217.72	-142.857
218.09	-216.667
218.47	-271.429
218.84	200.000
219.22	-128.571
219.59	0.000
219.97	357.143
220.34	650.000
220.72	212.500
221.09	-100.000
221.47	0.000
221.84	300.000
222.22	-150.000
222.59	1500.000
222.97	-187.500
223.34	-1050.000
223.72	-300.000
224.09	-21.429
224.46	-650.000
224.84	-50.000
225.21	-371.429
225.59	-45.455
225.96	-287.500
226.34	-128.571
226.71	-177.778
227.08	-10.000
227.46	1500.000
227.83	-300.000
228.21	-137.500
228.58	350.000
228.95	-25.000
229.33	-800.000
229.70	-40.000
230.08	-1050.000
230.45	16.667
230.82	-250.000
231.20	-1300.000
231.57	-650.000
231.95	1700.000
232.32	0.000
232.69	-244.444
233.07	-300.000
233.44	-900.000
233.81	-133.333
234.19	-111.111
234.56	-43.750
234.93	25.000
235.31	-214.286
235.68	-135.714
236.05	-82.353
236.43	-81.818
236.80	-38.710
237.17	-20.833
237.55	-80.952
237.92	-86.364
238.29	-31.429
238.67	-5.882
239.04	-16.667
239.41	-51.613
239.79	-53.846
240.16	-21.429
240.53	-7.273
240.91	5.128
241.28	-14.545
241.65	1.538
242.02	-6.557
242.40	-4.918
242.77	-12.121
243.14	-1.695
243.51	-17.143
243.89	-8.861
244.26	0.000
244.63	9.474
245.00	-13.684
245.38	6.780
245.75	-4.425
246.12	-1.600
246.49	2.362
246.87	-5.691
247.24	-10.169
247.61	-11.017
247.98	-6.338
248.36	-8.392
248.73	9.494
249.10	-1.274
249.47	5.848
249.84	2.841
250.22	-7.143
250.59	5.085
250.96	2.094
251.33	5.687
251.70	9.135
252.08	3.791
252.45	9.479
252.82	-0.952
253.19	1.277
253.56	3.226
253.94	6.751
254.31	3.004
254.68	7.724
255.05	5.645
255.42	8.333
255.79	3.584
256.16	6.667
256.54	4.412
256.91	2.652
257.28	1.832
257.65	4.610
258.02	9.748
258.39	2.676
258.76	2.365
259.14	7.099
259.51	5.574
259.88	6.707
260.25	8.075
260.62	2.894
260.99	2.671
261.36	5.793
261.73	6.358
262.10	5.833
262.47	4.843
262.85	7.714
263.22	2.006
263.59	1.846
263.96	6.667
264.33	7.046
264.70	6.906
265.07	6.868
265.44	4.910
265.81	5.426
266.18	2.025
266.55	4.167
266.92	7.809
267.29	6.053
267.66	6.667
268.03	6.522
268.40	8.216
268.77	5.783
269.14	4.408
269.51	6.667
269.88	3.899
270.25	3.497
270.62	5.721
270.99	6.532
271.36	4.429
271.73	4.260
272.10	5.263
272.47	4.000
272.84	9.333
273.21	5.963
273.58	8.352
273.95	6.360
274.32	6.561
274.69	9.190
275.06	6.544
275.43	2.902
275.80	8.554
276.17	7.950
276.54	8.961
276.91	5.967
277.28	7.708
277.65	5.579
278.02	6.263
278.39	7.662
278.76	6.574
279.13	5.534
279.50	10.139
279.87	5.708
280.23	5.870
280.60	7.753
280.97	5.049
281.34	6.576
281.71	6.154
282.08	6.250
282.45	4.684
282.82	7.171
283.19	5.455
283.56	8.242
283.92	7.597
284.29	5.204
284.66	7.554
285.03	9.626
285.40	6.458
285.77	9.298
286.14	8.484
286.51	5.684
286.87	6.171
287.24	9.044
287.61	6.942
287.98	5.373
288.35	7.603
288.72	4.244
289.08	3.729
289.45	7.744
289.82	5.536
290.19	7.389
290.56	4.298
290.93	4.610
291.29	5.186
291.66	5.797
292.03	7.221
292.40	7.229
292.77	6.677
293.13	6.667
293.50	5.646
293.87	6.135
294.24	6.184
294.60	3.788
294.97	5.463
295.34	5.333
295.71	7.738
296.08	4.301
296.44	3.433
296.81	5.128
297.18	6.338
297.55	4.802
297.91	6.555
298.28	5.616
298.65	4.463
299.02	7.086
299.38	4.278
299.75	4.484
300.12	5.641
300.48	5.754
300.85	3.932
301.22	5.433
301.59	4.811
301.95	6.423
302.32	3.520
302.69	5.875
303.05	4.762
303.42	4.000
303.79	5.144
304.15	4.739
304.52	6.184
304.89	5.903
305.25	5.128
305.62	5.523
305.99	6.007
306.35	6.992
306.72	4.442
307.09	6.470
307.45	4.994
307.82	5.251
308.19	5.369
308.55	5.229
308.92	4.619
309.29	4.973
309.65	6.257
310.02	5.832
310.38	4.000
310.75	5.225
311.12	5.165
311.48	6.681
311.85	5.355
312.22	6.076
312.58	5.697
312.95	5.708
313.31	6.094
313.68	5.930
314.05	6.726
314.41	4.326
314.78	4.496
315.14	6.120
315.51	5.674
315.87	6.099
316.24	5.151
316.61	6.910
316.97	5.771
317.34	4.913
317.70	6.215
318.07	6.250
318.43	5.431
318.80	6.291
319.16	5.347
319.53	5.357
319.89	6.209
320.26	6.765
320.62	4.808
320.99	6.667
321.35	4.828
321.72	4.708
322.08	6.528
322.45	5.743
322.81	7.397
323.18	6.724
323.54	7.301
323.91	7.507
324.27	6.844
324.64	5.576
325.00	8.115
325.37	7.330
325.73	8.399
326.10	6.023
326.46	7.531
326.83	8.340
327.19	6.839
327.56	9.710
327.92	8.156
328.29	8.831
328.65	7.455
329.01	8.304
329.38	9.010
329.74	7.784
330.11	8.341
330.47	7.720
330.84	9.991
331.20	8.845
331.56	7.931
331.93	9.503
332.29	10.137
332.66	8.341
333.02	7.602
333.38	9.946
333.75	8.994
334.11	8.889
334.48	9.444
334.84	10.674
335.20	10.284
335.57	8.213
335.93	9.758
336.29	9.389
336.66	8.194
337.02	9.099
337.38	8.467
337.75	8.780
338.11	8.766
338.47	9.075
338.84	10.526
339.20	9.754
339.56	9.447
339.93	8.818
340.29	8.326
340.65	9.353
341.02	9.696
341.38	8.593
341.74	9.653
342.11	9.386
342.47	10.472
342.83	7.976
343.20	9.308
343.56	9.796
343.92	9.432
344.28	10.513
344.65	9.158
345.01	9.916
345.37	10.797
345.73	9.247
346.10	9.403
346.46	9.017
346.82	9.543
347.19	8.546
347.55	9.230
347.91	10.079
348.27	9.308
348.63	9.855
349.00	10.263
349.36	7.963
349.72	9.952
350.08	9.783
350.45	8.905
350.81	10.669
351.17	9.486
351.53	8.433
351.89	9.458
352.26	9.535
352.62	11.521
352.98	9.415
353.34	9.512
353.70	9.344
354.07	9.205
354.43	9.486
354.79	8.479
355.15	9.665
355.51	9.844
355.87	9.565
356.24	8.499
356.60	10.073
356.96	10.239
357.32	10.451
357.68	9.885
358.04	8.776
358.40	10.054
358.77	9.737
359.13	10.712
359.49	9.977
359.85	9.680
360.21	9.589
360.57	10.090
360.93	10.963
361.29	10.090
361.66	9.451
362.02	9.763
362.38	10.785
362.74	9.817
363.10	9.613
363.46	11.538
363.82	9.913
364.18	9.696
364.54	10.722
364.90	9.364
365.26	10.057
365.62	9.907
365.98	10.100
366.35	10.423
366.71	9.302
367.07	10.656
367.43	10.913
367.79	10.034
368.15	10.171
368.51	11.329
368.87	11.332
369.23	10.526
369.59	11.181
369.95	10.289
370.31	11.252
370.67	9.834
371.03	10.496
371.39	9.901
371.75	11.516
372.11	10.832
372.47	11.569
372.83	9.736
373.19	10.857
373.55	11.541
373.91	11.451
374.27	10.678
374.63	10.697
374.99	10.640
375.35	10.767
375.71	11.816
376.07	10.883
376.42	10.199
376.78	11.046
377.14	10.847
377.50	11.863
377.86	11.313
378.22	11.369
378.58	10.253
378.94	10.604
379.30	10.786
379.66	10.929
380.02	11.111
380.38	11.299
380.74	10.785
381.09	11.072
381.45	11.695
381.81	11.131
382.17	10.714
382.53	11.793
382.89	12.440
383.25	11.499
383.61	12.028
383.97	12.186
384.32	10.826
384.68	11.306
385.04	11.413
385.40	10.895
385.76	11.890
386.12	11.430
386.48	12.376
386.83	12.025
387.19	11.596
387.55	12.114
387.91	11.263
388.27	11.037
388.62	12.260
388.98	11.266
389.34	11.812
389.70	11.328
390.06	11.249
390.42	12.115
390.77	11.672
391.13	13.168
391.49	11.666
391.85	11.783
392.20	12.015
392.56	12.156
392.92	11.808
393.28	12.227
393.64	12.207
393.99	12.615
394.35	12.105
394.71	11.427
395.07	12.367
395.42	11.681
395.78	11.251
396.14	12.461
396.50	12.661
396.85	13.078
397.21	12.272
397.57	12.462
397.92	12.881
398.28	12.556
398.64	11.957
399.00	12.697
399.35	11.894
399.71	11.905
400.07	12.776
400.42	12.287
400.78	12.105
401.14	12.096
401.49	11.733
401.85	12.020
402.21	12.515
402.57	12.257
402.92	12.964
403.28	12.745
403.63	11.803
403.99	11.746
404.35	12.379
404.70	12.756
405.06	11.822
405.42	11.931
405.77	11.256
406.13	12.436
406.49	12.283
406.84	11.518
407.20	13.251
407.55	12.413
407.91	11.399
408.27	12.929
408.62	12.568
408.98	12.492
409.34	12.005
409.69	12.035
410.05	11.765
410.40	11.895
410.76	13.041
411.11	12.469
411.47	12.788
411.83	12.347
412.18	12.314
412.54	12.264
412.89	12.272
413.25	11.570
413.60	11.786
413.96	12.261
414.31	12.783
414.67	11.810
415.03	12.160
415.38	13.858
415.74	12.371
416.09	12.980
416.45	11.376
416.80	11.964
417.16	11.296
417.51	12.935
417.87	12.168
418.22	12.769
418.58	13.158
418.93	12.937
419.29	11.669
419.64	11.997
420.00	12.880
420.35	12.774
420.71	12.305
421.06	13.018
421.42	12.529
421.77	13.009
422.12	13.542
422.48	12.774
422.83	12.870
423.19	12.751
423.54	13.256
423.90	12.955
424.25	12.952
424.61	13.028
424.96	13.692
425.31	13.024
425.67	13.295
426.02	12.851
426.38	14.035
426.73	13.033
427.09	13.051
427.44	13.239
427.79	12.733
428.15	13.645
428.50	13.431
428.85	13.070
429.21	12.784
429.56	13.385
429.92	13.427
430.27	13.210
430.62	13.741
430.98	13.800
431.33	12.914
431.68	13.029
432.04	14.550
432.39	14.416
432.74	13.489
433.10	13.562
433.45	13.644
433.80	13.438
434.16	14.025
434.51	13.644
434.86	14.001
435.22	14.310
435.57	13.953
435.92	14.654
436.28	14.243
436.63	13.850
436.98	12.944
437.34	14.826
437.69	14.002
438.04	14.010
438.39	15.162
438.75	13.213
439.10	14.992
439.45	14.182
439.81	14.759
440.16	14.367
440.51	14.765
440.86	14.112
441.22	14.096
441.57	14.316
441.92	14.322
442.27	15.043
442.63	14.968
442.98	14.052
443.33	14.607
443.68	14.904
444.03	14.587
444.39	14.684
444.74	14.593
445.09	14.693
445.44	14.744
445.79	15.145
446.15	15.005
446.50	14.208
446.85	15.136
447.20	15.117
447.55	15.414
447.91	15.722
448.26	14.804
448.61	14.431
448.96	15.350
449.31	14.600
449.66	14.768
450.02	14.681
450.37	14.957
450.72	14.407
451.07	15.462
451.42	14.932
451.77	15.440
452.12	15.197
452.47	15.302
452.83	15.550
453.18	15.750
453.53	15.299
453.88	15.730
454.23	14.933
454.58	15.600
454.93	16.373
455.28	14.723
455.63	15.172
455.98	16.627
456.34	14.803
456.69	16.073
457.04	15.612
457.39	14.533
457.74	16.657
458.09	16.531
458.44	15.820
458.79	15.191
459.14	16.258
459.49	15.867
459.84	15.233
460.19	15.513
460.54	15.668
460.89	15.415
461.24	15.968
461.59	15.533
461.94	15.850
462.29	15.843
462.64	15.810
462.99	16.131
463.34	15.868
463.69	15.585
464.04	15.759
464.39	15.472
464.74	15.780
465.09	16.296
465.44	16.356
465.79	16.469
466.14	15.765
466.49	15.717
466.84	17.467
467.19	16.085
467.54	15.127
467.89	16.091
468.24	16.330
468.59	16.302
468.94	15.756
469.29	16.439
469.64	16.038
469.99	16.205
470.34	16.299
470.68	17.006
471.03	17.688
471.38	16.458
471.73	17.063
472.08	16.131
472.43	16.088
472.78	16.467
473.13	15.441
473.48	16.209
473.83	16.439
474.17	16.051
474.52	17.199
474.87	16.550
475.22	15.929
475.57	16.222
475.92	16.631
476.27	17.200
476.61	17.239
476.96	16.378
477.31	16.954
477.66	16.934
478.01	17.774
478.36	16.658
478.70	16.818
479.05	17.415
479.40	16.995
479.75	16.514
480.10	17.262
480.45	16.876
480.79	17.423
481.14	17.561
481.49	16.505
481.84	17.245
482.19	17.588
482.53	17.377
482.88	16.991
483.23	17.418
483.58	17.900
483.92	17.248
484.27	16.305
484.62	17.149
484.97	17.030
485.31	16.640
485.66	15.750
486.01	16.305
486.36	16.716
486.70	17.584
487.05	17.003
487.40	17.121
487.75	17.883
488.09	16.986
488.44	17.456
488.79	17.404
489.13	17.383
489.48	17.659
489.83	18.079
490.17	17.719
490.52	18.342
490.87	17.367
491.22	17.609
491.56	18.056
491.91	17.844
492.26	17.217
492.60	16.984
492.95	17.040
493.30	17.532
493.64	17.395
493.99	17.782
494.34	17.667
494.68	18.165
495.03	17.639
495.37	17.404
495.72	18.173
496.07	17.973
496.41	18.110
496.76	17.443
497.11	17.381
497.45	17.529
497.80	17.509
498.14	18.271
498.49	18.031
498.84	18.010
499.18	18.713
499.53	18.217
499.87	17.857
500.22	18.186
500.56	18.759
500.91	18.522
501.26	18.583
501.60	17.862
501.95	18.068
502.29	18.281
502.64	18.388
502.98	18.160
503.33	18.515
503.67	17.146
504.02	18.155
504.36	18.186
504.71	18.389
505.06	18.422
505.40	19.411
505.75	18.750
506.09	18.049
506.44	18.396
506.78	18.314
507.13	18.898
507.47	19.144
507.82	18.534
508.16	18.808
508.51	19.114
508.85	18.789
509.19	19.100
509.54	18.975
509.88	18.989
510.23	18.763
510.57	19.365
510.92	19.764
511.26	18.501
511.61	19.276
511.95	19.612
512.30	19.901
512.64	18.475
512.98	20.242
513.33	20.154
513.67	19.765
514.02	19.966
514.36	19.889
514.70	20.374
515.05	19.954
515.39	20.012
515.74	21.175
516.08	19.827
516.42	20.397
516.77	19.873
517.11	20.080
517.46	20.634
517.80	21.179
518.14	19.686
518.49	21.219
518.83	21.128
519.17	20.485
519.52	20.069
519.86	20.550
520.20	21.088
520.55	20.677
520.89	21.728
521.23	21.306
521.58	21.317
521.92	21.659
522.26	22.222
522.61	21.166
522.95	20.676
523.29	21.129
523.64	21.674
523.98	22.406
524.32	22.124
524.66	21.491
525.01	20.552
525.35	21.843
525.69	22.707
526.04	22.193
526.38	22.661
526.72	21.073
527.06	22.070
527.41	22.112
527.75	21.320
528.09	21.906
528.43	22.361
528.78	21.796
529.12	22.215
529.46	22.229
529.80	21.498
530.15	22.730
530.49	22.445
530.83	23.510
531.17	22.492
531.51	21.902
531.86	21.593
532.20	22.200
532.54	23.730
532.88	22.398
533.22	22.460
533.57	22.389
533.91	21.598
534.25	21.370
534.59	21.986
534.93	22.215
535.27	22.215
535.62	22.698
535.96	22.948
536.30	21.531
536.64	22.377
536.98	24.647
537.32	24.257
537.66	23.082
538.01	22.818
538.35	23.243
538.69	22.527
539.03	22.749
539.37	23.486
539.71	23.015
540.05	23.029
540.39	23.269
540.73	23.359
541.07	22.951
541.42	22.620
541.76	21.595
542.10	23.835
542.44	22.851
542.78	23.948
543.12	22.607
543.46	22.192
543.80	22.274
544.14	22.700
544.48	23.688
544.82	23.410
545.16	23.742
545.50	22.409
545.84	23.783
546.18	23.232
546.52	22.973
546.86	23.433
547.20	24.262
547.54	21.350
547.88	23.358
548.22	21.625
548.56	22.244
548.90	23.248
549.24	22.214
549.58	22.512
549.92	23.392
550.26	24.061
550.60	22.973
550.94	23.285
551.28	22.724
551.62	23.412
551.96	23.878
552.30	22.300
552.64	22.238
552.98	24.597
553.32	23.160
553.66	23.360
554.00	24.094
554.34	23.032
554.68	22.588
555.02	23.806
555.36	23.652
555.69	23.639
556.03	22.877
556.37	22.475
556.71	24.409
557.05	24.390
557.39	23.608
557.73	23.851
558.07	24.039
558.41	22.962
558.75	24.183
559.08	23.191
559.42	23.507
559.76	24.310
560.10	23.266
560.44	24.422
560.78	24.008
561.12	23.326
561.45	24.247
561.79	22.927
562.13	22.791
562.47	23.950
562.81	22.984
563.15	23.233
563.48	23.981
563.82	23.867
564.16	23.732
564.50	23.454
564.84	23.347
565.17	22.878
565.51	23.794
565.85	24.611
566.19	25.033
566.52	23.092
566.86	23.009
567.20	23.971
567.54	23.804
567.88	22.892
568.21	22.875
568.55	23.012
568.89	22.465
569.23	22.027
569.56	22.068
569.90	22.463
570.24	22.360
570.57	21.722
570.91	21.625
571.25	22.309
571.59	22.229
571.92	21.905
572.26	21.750
572.60	20.974
572.93	21.369
573.27	21.037
573.61	20.677
573.95	21.927
574.28	21.258
574.62	22.039
574.96	21.087
575.29	21.850
575.63	21.290
575.97	21.278
576.30	21.869
576.64	21.775
576.98	21.423
577.31	21.478
577.65	21.382
577.98	21.237
578.32	21.174
578.66	21.556
578.99	21.782
579.33	21.377
579.67	21.481
580.00	21.354
580.34	21.111
580.67	21.819
581.01	21.321
581.35	21.376
581.68	21.069
582.02	21.149
582.35	20.982
582.69	21.674
583.02	22.126
583.36	21.902
583.70	22.197
584.03	22.333
584.37	22.003
584.70	22.125
585.04	21.468
585.37	21.527
585.71	21.432
586.04	22.062
586.38	20.984
586.72	22.069
587.05	21.863
587.39	21.388
587.72	22.272
588.06	21.926
588.39	21.931
588.73	22.420
589.06	22.858
589.40	22.673
589.73	22.734
590.07	22.505
590.40	22.472
590.73	22.351
591.07	21.844
591.40	23.267
591.74	22.850
592.07	23.063
592.41	23.057
592.74	22.944
593.08	22.005
593.41	22.368
593.75	21.761
594.08	22.502
594.41	23.290
594.75	22.537
595.08	22.481
595.42	22.471
595.75	22.822
596.09	22.584
596.42	23.732
596.75	22.768
597.09	23.241
597.42	22.741
597.75	22.453
598.09	22.413
598.42	22.139
598.76	22.550
599.09	21.665
599.42	22.184
599.76	22.461
600.09	22.672
600.42	22.598
600.76	23.352
601.09	22.218
601.42	22.517
601.76	23.053
602.09	22.413
602.42	22.593
602.76	22.268
603.09	22.702
603.42	23.529
603.76	22.417
604.09	22.867
604.42	22.689
604.76	22.809
605.09	22.966
605.42	23.183
605.75	22.855
606.09	22.665
606.42	23.000
606.75	23.100
607.09	23.202
607.42	22.403
607.75	23.135
608.08	24.401
608.42	23.463
608.75	22.523
609.08	23.527
609.41	22.571
609.75	23.159
610.08	23.725
610.41	22.795
610.74	23.646
611.07	23.631
611.41	22.895
611.74	24.062
612.07	23.738
612.40	22.814
612.73	23.533
613.07	23.060
613.40	24.357
613.73	23.924
614.06	23.504
614.39	24.634
614.72	23.799
615.06	22.935
615.39	23.874
615.72	23.466
616.05	22.695
616.38	24.144
616.71	23.904
617.05	24.729
617.38	23.406
617.71	23.894
618.04	23.168
618.37	24.528
618.70	24.707
619.03	23.764
619.36	24.806
619.69	24.480
620.03	23.485
620.36	23.558
620.69	25.413
621.02	25.266
621.35	24.355
621.68	25.328
622.01	24.434
622.34	25.233
622.67	23.438
623.00	23.948
623.33	25.821
623.66	24.225
623.99	24.586
624.32	24.702
624.65	24.724
624.99	24.421
625.32	24.850
625.65	25.253
625.98	25.196
626.31	26.183
626.64	25.356
626.97	26.541
627.30	25.277
627.63	25.216
627.96	26.110
628.29	25.460
628.62	26.361
628.95	26.673
629.28	25.940
629.61	25.123
629.94	27.694
630.26	26.044
630.59	27.437
630.92	26.326
631.25	26.512
631.58	26.772
631.91	26.170
632.24	26.222
632.57	27.222
632.90	25.402
633.23	26.869
633.56	26.784
633.89	27.241
634.22	26.446
634.55	28.606
634.88	27.449
635.20	26.092
635.53	26.718
635.86	25.819
636.19	26.496
636.52	25.687
636.85	25.872
637.18	25.750
637.51	27.633
637.83	25.433
638.16	25.789
638.49	26.621
638.82	26.512
639.15	26.589
639.48	28.405
639.81	27.109
640.13	27.162
640.46	27.350
640.79	26.331
641.12	27.645
641.45	27.403
641.77	27.994
642.10	26.133
642.43	27.314
642.76	27.244
643.09	26.190
643.41	27.143
643.74	30.684
644.07	28.237
644.40	26.256
644.73	26.238
645.05	27.880
645.38	30.960
645.71	29.210
646.04	30.084
646.36	27.051
646.69	28.374
647.02	28.700
647.35	27.978
647.67	28.832
648.00	27.944
648.33	29.174
648.66	26.290
648.98	28.025
649.31	26.923
649.64	26.875
649.96	26.531
650.29	28.852
650.62	27.883
650.94	27.319
651.27	28.423
651.60	26.644
651.92	27.568
652.25	28.715
652.58	26.917
652.90	25.201
653.23	28.065
653.56	26.087
653.88	26.066
654.21	29.195
654.54	28.571
654.86	27.287
655.19	26.504
655.52	24.717
655.84	21.408
656.17	23.715
656.49	32.363
656.82	34.258
657.15	26.020
657.47	19.228
657.80	14.873
658.13	17.023
658.45	22.972
658.78	23.259
659.10	23.636
659.43	23.852
659.75	24.390
660.08	24.635
660.41	24.324
660.73	24.642
661.06	27.826
661.38	29.821
661.71	27.725
662.03	29.637
662.36	29.638
662.68	26.582
663.01	27.601
663.33	27.891
663.66	28.326
663.98	28.125
664.31	29.306
664.63	30.752
664.96	29.067
665.28	28.200
665.61	28.330
665.93	27.778
666.26	29.352
666.58	30.146
666.91	30.512
667.23	29.825
667.56	26.531
667.88	31.222
668.21	30.415
668.53	29.439
668.86	29.099
669.18	30.137
669.50	28.972
669.83	28.467
670.15	28.475
670.48	28.738
670.80	28.474
671.13	28.442
671.45	25.450
671.77	28.908
672.10	29.389
672.42	28.044
672.75	28.545
673.07	26.126
673.39	28.233
673.72	27.953
674.04	29.936
674.37	27.423
674.69	29.303
675.01	29.149
675.34	26.681
675.66	29.806
675.98	25.991
676.31	30.995
676.63	31.494
676.95	26.327
677.28	26.682
677.60	29.412
677.92	27.974
678.25	29.540
678.57	29.218
678.89	26.415
679.22	27.044
679.54	28.205
679.86	25.600
680.18	28.327
680.51	25.885
680.83	29.714
681.15	26.590
681.48	28.398
681.80	26.411
682.12	26.761
682.44	26.130
682.77	27.922
683.09	32.285
683.41	28.540
683.73	28.995
684.06	24.516
684.38	28.033
684.70	28.807
685.02	28.937
685.34	27.290
685.67	25.758
685.99	24.764
686.31	28.007
686.63	25.709
686.96	26.063
687.28	25.434
687.60	28.125
687.92	24.903
688.24	27.756
688.56	26.854
688.89	26.496
689.21	26.477
689.53	30.805
689.85	30.067
690.17	28.924
690.49	26.328
690.82	26.747
691.14	27.358
691.46	25.942
691.78	27.753
692.10	27.331
692.42	26.667
692.74	27.897
693.06	24.944
693.39	26.398
693.71	25.734
694.03	29.806
694.35	26.637
694.67	26.714
694.99	23.018
695.31	28.061
695.63	25.255
695.95	29.280
696.27	26.185
696.59	27.807
696.91	28.652
697.23	31.771
697.56	25.000
697.88	25.000
698.20	24.839
698.52	26.682
698.84	27.670
699.16	26.905
699.48	23.500
699.80	24.561
700.12	29.975
700.44	24.302
700.76	27.114
701.08	28.488
701.40	24.169
701.72	29.012
702.04	27.244
702.36	27.410
702.68	24.551
703.00	27.246
703.32	25.788
703.64	31.765
703.96	29.070
704.28	27.219
704.60	25.633
704.91	24.444
705.23	29.126
705.55	25.000
705.87	30.375
706.19	23.264
706.51	26.736
706.83	33.443
707.15	27.389
707.47	28.650
707.79	24.742
708.11	23.919
708.43	26.185
708.74	23.896
709.06	30.084
709.38	27.299
709.70	26.875
710.02	24.540
710.34	26.403
710.66	27.619
710.98	28.707
711.29	26.774
711.61	26.518
711.93	31.148
712.25	28.904
712.57	28.920
712.89	29.496
713.20	29.553
713.52	25.000
713.84	29.181
714.16	27.869
714.48	26.667
714.80	21.846
715.11	25.937
715.43	30.723
715.75	26.168
716.07	25.246
716.39	29.097
716.70	29.268
717.02	24.074
717.34	29.008
717.66	28.216
717.97	27.049
718.29	27.311
718.61	28.968
718.93	25.448
719.24	25.735
719.56	21.132
719.88	24.364
720.20	25.094
720.51	28.571
720.83	29.317
721.15	26.639
721.46	27.451
721.78	26.054
722.10	25.600
722.42	25.207
722.73	27.888
723.05	28.112
723.37	29.020
723.68	24.696
724.00	30.488
724.32	30.453
724.63	24.481
724.95	32.645
725.27	28.509
725.58	28.017
725.90	27.381
726.22	29.889
726.53	29.278
726.85	23.922
727.16	26.692
727.48	28.846
727.80	25.000
728.11	27.311
728.43	23.554
728.74	27.344
729.06	27.652
729.38	26.848
729.69	21.654
730.01	29.134
730.32	25.100
730.64	29.304
730.96	23.507
731.27	26.786
731.59	27.974
731.90	24.233
732.22	21.779
732.53	30.132
732.85	27.517
733.16	23.188
733.48	24.042
733.80	23.843
734.11	26.552
734.43	28.571
734.74	22.849
735.06	25.392
735.37	27.829
735.69	20.323
736.00	25.253
736.32	26.821
736.63	22.069
736.95	26.812
737.26	25.497
737.58	28.058
737.89	27.599
738.21	24.060
738.52	23.462
738.83	24.219
739.15	26.923
739.46	29.435
739.78	25.874
740.09	23.776
740.41	23.776
740.72	27.372
741.04	21.429
741.35	22.511
741.66	25.926
741.98	24.286
742.29	25.352
742.61	27.807
742.92	29.439
743.23	22.368
743.55	24.324
743.86	27.556
744.18	21.429
744.49	29.064
744.80	32.487
745.12	28.351
745.43	31.658
745.74	24.757
746.06	22.439
746.37	28.194
746.68	26.368
747.00	20.942
747.31	26.442
747.62	21.659
747.94	25.328
748.25	25.581
748.56	31.429
748.88	25.000
749.19	24.883
749.50	26.471
749.82	28.000
750.13	31.278
750.44	27.236
750.75	24.800
751.07	26.429
751.38	26.199
751.69	21.756
752.01	25.769
752.32	26.070
752.63	22.308
752.94	28.968
753.26	27.826
753.57	27.679
753.88	23.707
754.19	22.407
754.51	23.047
754.82	30.040
755.13	22.222
755.44	21.488
755.75	30.041
756.07	21.687
756.38	19.922
756.69	24.188
757.00	20.557
757.31	24.832
757.63	28.037
757.94	23.121
758.25	27.035
758.56	28.571
758.87	25.000
759.18	24.000
759.50	24.555
759.81	21.533
760.12	17.905
760.43	23.301
760.74	27.500
761.05	25.281
761.36	23.054
761.67	24.852
761.99	25.484
762.30	28.623
762.61	24.151
762.92	28.700
763.23	24.645
763.54	20.000
763.85	23.207
764.16	26.122
764.47	28.814
764.78	22.472
765.10	24.460
765.41	23.548
765.72	22.327
766.03	15.548
766.34	25.940
766.65	23.482
766.96	23.000
767.27	22.917
767.58	28.488
767.89	27.097
768.20	28.221
768.51	27.869
768.82	25.946
769.13	26.500
769.44	23.246
769.75	23.377
770.06	27.064
770.37	20.657
770.68	29.687
770.99	23.762
771.30	21.359
771.61	23.611
771.92	25.974
772.23	22.897
772.54	19.681
772.85	24.852
773.16	24.390
773.47	24.096
773.78	29.670
774.09	18.667
774.39	25.309
774.70	26.846
775.01	17.391
775.32	22.388
775.63	23.140
775.94	27.820
776.25	25.000
776.56	26.230
776.87	31.858
777.18	21.239
777.48	10.909
777.79	17.391
778.10	18.349
778.41	26.271
778.72	19.008
779.03	26.119
779.34	18.797
779.65	21.569
779.95	18.116
780.26	15.646
780.57	13.793
780.88	22.222
781.19	9.091
781.50	16.000
781.80	25.490
782.11	23.077
782.42	22.892
782.73	11.679
783.04	25.000
783.34	25.758
783.65	20.155
783.96	24.390
784.27	18.803
784.57	22.764
784.88	17.073
785.19	33.333
785.50	2.062
785.81	27.619
786.11	18.627
786.42	16.364
786.73	23.423
787.04	23.762
787.34	20.952
787.65	12.381
787.96	19.608
788.26	24.324
788.57	23.387
788.88	28.906
789.19	22.222
789.49	17.647
789.80	21.368
790.11	16.814
790.41	20.202
790.72	22.642
791.03	2.778
791.33	9.211
791.64	13.978
791.95	14.667
792.25	30.000
792.56	9.756
792.87	19.388
793.17	17.105
793.48	9.459
793.79	9.859
794.09	20.253
794.40	15.957
794.70	7.477
795.01	10.526
795.32	10.909
795.62	13.393
795.93	9.278
796.23	18.681
796.54	18.947
796.85	9.589
797.15	2.778
797.46	2.740
797.76	21.127
798.07	28.750
798.37	16.176
798.68	12.857
798.99	12.857
799.29	18.421
799.60	1.667
799.90	0.000
800.21	-1.563
800.51	19.048
800.82	29.508
801.12	3.509
801.43	16.901
801.73	6.780
802.04	14.754
802.34	18.182
802.65	3.846
802.95	12.963
803.26	-15.000
803.56	23.077
803.87	-21.053
804.17	9.677
804.48	23.077
804.78	17.949
805.09	-13.953
805.39	-50.000
805.70	9.434
806.00	5.263
806.30	14.865
806.61	23.529
806.91	9.877
807.22	21.333
807.52	17.910
807.83	14.516
808.13	11.111
808.43	7.273
808.74	21.212
809.04	16.981
809.35	24.658
809.65	28.070
809.95	16.176
810.26	9.804
810.56	-12.000
810.86	-4.082
811.17	5.714
811.47	15.385
811.77	19.355
812.08	-34.211
812.38	19.048
812.69	4.348
812.99	-6.452
813.29	4.762
813.59	-66.667
813.90	17.021
814.20	9.302
814.50	2.083
814.81	11.667
815.11	14.634
815.41	-16.667
815.72	0.000
816.02	13.889
816.32	12.821
816.62	-2.703
816.93	-38.235
817.23	6.522
817.53	-11.765
817.84	29.412
818.14	-59.375
818.44	3.448
818.74	-16.129
819.04	-18.519
819.35	-6.667
819.65	-36.000
819.95	16.667
820.25	-4.000
820.56	0.000
820.86	-30.000
821.16	12.766
821.46	31.034
821.76	-17.949
822.07	-27.500
822.37	-4.651
822.67	-40.000
822.97	-13.514
823.27	-13.514
823.57	-32.000
823.88	10.811
824.18	-14.286
824.48	0.000
824.78	-176.923
825.08	-13.043
825.38	-37.500
825.69	-20.833
825.99	-20.000
826.29	0.000
826.59	-20.588
826.89	36.000
827.19	-14.286
827.49	42.105
827.79	0.000
828.09	-23.333
828.39	13.043
828.70	-20.690
829.00	-20.690
829.30	-8.333
829.60	15.625
829.90	27.778
830.20	-3.846
830.50	-38.095
830.80	-53.571
831.10	-2.564
831.40	-23.810
831.70	-2.941
832.00	0.000
832.30	15.789
832.60	-18.750
832.90	-200.000
833.20	-117.647
833.50	-106.667
833.80	-53.333
834.10	-80.000
834.40	4.167
834.70	0.000
835.00	15.385
835.30	-66.667
835.60	0.000
835.90	-61.111
836.20	63.636
836.50	-125.000
836.80	14.286
837.10	31.429
837.40	0.000
837.70	-72.727
838.00	-33.333
838.30	31.250
838.60	23.810
838.90	-10.000
839.19	-13.043
839.49	-43.478
839.79	-61.111
840.09	8.696
840.39	-45.455
840.69	-56.250
840.99	-63.158
841.29	-25.000
841.59	-85.714
841.88	-22.222
842.18	-29.167
842.48	-111.765
842.78	24.138
843.08	-21.429
843.38	15.385
843.68	-166.667
843.97	-30.769
844.27	-127.273
844.57	-320.000
844.87	20.000
845.17	-220.000
845.47	-92.857
845.76	-77.778
846.06	0.000
846.36	-450.000
846.66	-110.000
846.96	-26.316
847.25	-45.833
847.55	-41.667
847.85	-13.333
848.15	-40.000
848.44	19.231
848.74	-10.526
849.04	400.000
849.34	-144.444
849.63	-52.632
849.93	0.000
850.23	-85.000
850.53	-33.333
850.82	-44.000
851.12	-5.263
851.42	-950.000
851.71	-78.571
852.01	-91.667
852.31	11.765
852.61	-46.667
852.90	-52.381
853.20	-150.000
853.50	-33.333
853.79	-57.895
854.09	-80.000
854.39	-25.000
854.68	0.000
854.98	-241.667
855.28	-6.897
855.57	0.000
855.87	-85.000
856.17	-86.667
856.46	-27.586
856.76	-40.000
857.05	-52.941
857.35	-100.000
857.65	-63.636
857.94	7.407
858.24	-57.143
858.53	-92.857
858.83	-133.333
859.13	-166.667
859.42	0.000
859.72	-225.000
860.01	-566.667
860.31	-62.500
860.60	-460.000
860.90	-188.889
861.20	-175.000
861.49	-214.286
861.79	-17.647
862.08	-550.000
862.38	-141.667
862.67	-146.154
862.97	-23.529
863.26	25.000
863.56	-88.235
863.85	766.667
864.15	-140.000
864.44	-169.231
864.74	5.000
865.03	-187.500
865.33	-283.333
865.62	-58.824
865.92	-700.000
866.21	-71.429
866.51	-100.000
866.80	-700.000
867.10	-533.333
867.39	5.882
867.69	21.739
867.98	-214.286
868.27	-540.000
868.57	-100.000
868.86	-172.727
869.16	5.882
869.45	-350.000
869.75	-228.571
870.04	900.000
870.33	-33.333
870.63	-140.000
870.92	-100.000
871.22	-100.000
871.51	-109.091
871.80	-50.000
872.10	10.000
>>>>>End Processed Spectral Data<<<<<
