SpectraSuite Data File
++++++++++++++++++++++++++++++++++++
Date: Sat May 16 11:18:49 PDT 2015
User: schluterlab
Dark Spectrum Present: Yes
Reference Spectrum Present: Yes
Number of Sampled Component Spectra: 1
Spectrometers: USB2E3373
Integration Time (usec): 3000 (USB2E3373)
Spectra Averaged: 3 (USB2E3373)
Boxcar Smoothing: 0 (USB2E3373)
Correct for Electrical Dark: No (USB2E3373)
Strobe/Lamp Enabled: No (USB2E3373)
Correct for Detector Non-linearity: No (USB2E3373)
Correct for Stray Light: No (USB2E3373)
Number of Pixels in Processed Spectrum: 2048
>>>>>Begin Processed Spectral Data<<<<<
178.53	0.000
178.91	33.333
179.29	366.667
179.67	-1300.000
180.04	-38.462
180.42	-300.000
180.80	150.000
181.18	225.000
181.56	-12.500
181.94	1800.000
182.31	475.000
182.69	-30.769
183.07	-233.333
183.45	1250.000
183.83	400.000
184.20	-200.000
184.58	-50.000
184.96	-175.000
185.34	87.500
185.72	-500.000
186.09	100.000
186.47	-250.000
186.85	-87.500
187.23	112.500
187.61	-350.000
187.98	-225.000
188.36	-125.000
188.74	-75.000
189.12	900.000
189.49	442.857
189.87	0.000
190.25	400.000
190.63	-7.143
191.00	-133.333
191.38	300.000
191.76	0.000
192.14	400.000
192.51	-260.000
192.89	-166.667
193.27	0.000
193.65	-166.667
194.02	-157.143
194.40	700.000
194.78	-180.000
195.15	-1100.000
195.53	-72.727
195.91	-483.333
196.29	40.000
196.66	-866.667
197.04	2200.000
197.42	50.000
197.79	53.333
198.17	-333.333
198.55	-300.000
198.92	-1200.000
199.30	125.000
199.68	-500.000
200.05	-55.556
200.43	-144.444
200.81	-1100.000
201.18	-83.333
201.56	214.286
201.94	46.667
202.31	13.636
202.69	-10.000
203.07	-90.000
203.44	533.333
203.82	-200.000
204.19	-75.000
204.57	-250.000
204.95	-800.000
205.32	-50.000
205.70	300.000
206.08	-1400.000
206.45	-38.889
206.83	-900.000
207.20	150.000
207.58	-466.667
207.96	-366.667
208.33	-50.000
208.71	-66.667
209.08	100.000
209.46	-157.143
209.84	300.000
210.21	0.000
210.59	-25.000
210.96	600.000
211.34	-183.333
211.71	-33.333
212.09	175.000
212.46	1450.000
212.84	-2000.000
213.22	433.333
213.59	191.667
213.97	-55.556
214.34	110.000
214.72	-30.000
215.09	-600.000
215.47	-133.333
215.84	-40.000
216.22	30.000
216.59	-6.667
216.97	-275.000
217.34	900.000
217.72	-28.571
218.09	-166.667
218.47	-100.000
218.84	328.571
219.22	71.429
219.59	0.000
219.97	357.143
220.34	700.000
220.72	187.500
221.09	-84.615
221.47	0.000
221.84	166.667
222.22	-650.000
222.59	2300.000
222.97	-237.500
223.34	-650.000
223.72	-633.333
224.09	0.000
224.46	-300.000
224.84	-7.143
225.21	-100.000
225.59	-63.636
225.96	-175.000
226.34	-85.714
226.71	-122.222
227.08	5.000
227.46	1100.000
227.83	-128.571
228.21	-137.500
228.58	550.000
228.95	31.250
229.33	-1600.000
229.70	-60.000
230.08	-750.000
230.45	-58.333
230.82	-250.000
231.20	-2100.000
231.57	-100.000
231.95	400.000
232.32	-19.048
232.69	-55.556
233.07	-100.000
233.44	-1350.000
233.81	-66.667
234.19	-66.667
234.56	-43.750
234.93	18.750
235.31	-100.000
235.68	-171.429
236.05	-64.706
236.43	-27.273
236.80	-19.355
237.17	-8.333
237.55	9.524
237.92	-63.636
238.29	11.429
238.67	-11.765
239.04	-33.333
239.41	-41.935
239.79	-41.026
240.16	-30.952
240.53	-1.818
240.91	-7.692
241.28	-23.636
241.65	-3.077
242.02	-3.279
242.40	-6.557
242.77	-6.061
243.14	-3.390
243.51	-2.857
243.89	-5.063
244.26	11.236
244.63	12.632
245.00	1.053
245.38	-0.847
245.75	13.274
246.12	6.400
246.49	11.024
246.87	1.626
247.24	-7.627
247.61	1.695
247.98	-2.817
248.36	2.098
248.73	5.696
249.10	-1.274
249.47	10.526
249.84	11.364
250.22	2.381
250.59	12.429
250.96	-0.524
251.33	9.479
251.70	6.250
252.08	12.322
252.45	7.583
252.82	7.143
253.19	7.234
253.56	6.855
253.94	10.970
254.31	11.588
254.68	11.789
255.05	9.677
255.42	12.698
255.79	8.602
256.16	12.157
256.54	13.971
256.91	9.091
257.28	6.227
257.65	9.574
258.02	13.522
258.39	12.040
258.76	5.405
259.14	11.420
259.51	9.508
259.88	12.195
260.25	9.006
260.62	5.788
260.99	9.199
261.36	9.146
261.73	13.295
262.10	10.556
262.47	8.547
262.85	11.714
263.22	9.456
263.59	8.615
263.96	11.304
264.33	12.737
264.70	10.773
265.07	10.440
265.44	9.044
265.81	8.786
266.18	10.633
266.55	9.559
266.92	8.816
267.29	10.896
267.66	10.123
268.03	11.111
268.40	11.033
268.77	9.880
269.14	11.601
269.51	10.345
269.88	7.110
270.25	8.858
270.62	10.526
270.99	12.162
271.36	11.888
271.73	9.641
272.10	11.899
272.47	10.444
272.84	12.222
273.21	10.550
273.58	12.308
273.95	11.404
274.32	10.860
274.69	9.847
275.06	12.883
275.43	8.929
275.80	13.238
276.17	10.669
276.54	11.202
276.91	12.140
277.28	12.576
277.65	11.364
278.02	15.031
278.39	12.574
278.76	11.355
279.13	14.032
279.50	11.928
279.87	11.205
280.23	11.741
280.60	10.736
280.97	10.097
281.34	11.992
281.71	12.692
282.08	12.500
282.45	9.369
282.82	10.271
283.19	9.636
283.56	14.286
283.92	13.428
284.29	9.294
284.66	10.252
285.03	12.656
285.40	10.886
285.77	12.632
286.14	12.094
286.51	8.703
286.87	12.704
287.24	11.945
287.61	12.397
287.98	10.919
288.35	9.421
288.72	11.545
289.08	10.169
289.45	10.606
289.82	10.554
290.19	12.151
290.56	10.579
290.93	9.062
291.29	10.049
291.66	9.984
292.03	10.675
292.40	10.542
292.77	10.248
293.13	10.569
293.50	9.658
293.87	10.890
294.24	11.916
294.60	9.545
294.97	10.926
295.34	7.704
295.71	8.929
296.08	8.602
296.44	7.439
296.81	10.399
297.18	7.887
297.55	10.452
297.91	10.879
298.28	8.493
298.65	9.484
299.02	10.829
299.38	9.358
299.75	9.103
300.12	10.000
300.48	10.742
300.85	8.126
301.22	9.573
301.59	7.932
301.95	11.965
302.32	7.953
302.69	10.282
303.05	7.814
303.42	8.000
303.79	9.330
304.15	10.308
304.52	9.568
304.89	9.327
305.25	10.256
305.62	9.166
305.99	9.541
306.35	9.878
306.72	9.339
307.09	9.989
307.45	9.194
307.82	7.598
308.19	10.403
308.55	9.259
308.92	8.700
309.29	9.730
309.65	8.165
310.02	8.639
310.38	8.757
310.75	8.914
311.12	9.298
311.48	9.395
311.85	7.415
312.22	8.857
312.58	9.054
312.95	8.665
313.31	9.491
313.68	9.146
314.05	9.792
314.41	8.853
314.78	7.792
315.14	9.970
315.51	7.700
315.87	9.487
316.24	8.552
316.61	10.749
316.97	8.358
317.34	7.900
317.70	8.349
318.07	10.261
318.43	9.176
318.80	9.953
319.16	8.255
319.53	8.083
319.89	8.561
320.26	9.314
320.62	7.981
320.99	9.453
321.35	7.586
321.72	7.062
322.08	9.990
322.45	8.020
322.81	10.279
323.18	9.318
323.54	9.057
323.91	9.082
324.27	9.506
324.64	8.318
325.00	9.773
325.37	9.593
325.73	10.149
326.10	7.972
326.46	8.932
326.83	10.128
327.19	8.924
327.56	9.966
327.92	9.601
328.29	10.130
328.65	9.182
329.01	9.011
329.38	9.634
329.74	10.714
330.11	10.426
330.47	8.901
330.84	9.991
331.20	9.116
331.56	9.754
331.93	10.036
332.29	9.954
332.66	11.062
333.02	10.045
333.38	10.842
333.75	10.864
334.11	9.956
334.48	10.150
334.84	10.761
335.20	9.929
335.57	8.664
335.93	11.012
336.29	10.717
336.66	9.515
337.02	9.550
337.38	10.606
337.75	10.799
338.11	10.286
338.47	10.676
338.84	9.256
339.20	10.193
339.56	12.121
339.93	10.758
340.29	9.566
340.65	9.003
341.02	9.528
341.38	9.688
341.74	11.092
342.11	10.495
342.47	9.957
342.83	10.076
343.20	9.650
343.56	10.041
343.92	11.018
344.28	10.849
344.65	10.066
345.01	10.168
345.37	10.548
345.73	9.820
346.10	9.648
346.46	9.748
346.82	10.104
347.19	10.353
347.55	9.310
347.91	11.260
348.27	10.024
348.63	10.743
349.00	10.979
349.36	9.680
349.72	10.032
350.08	10.024
350.45	9.850
350.81	10.191
351.17	9.807
351.53	8.751
351.89	10.105
352.26	10.000
352.62	10.906
352.98	11.392
353.34	9.752
353.70	10.425
354.07	10.386
354.43	10.040
354.79	10.697
355.15	9.345
355.51	9.609
355.87	9.407
356.24	10.326
356.60	11.523
356.96	10.624
357.32	10.372
357.68	10.268
358.04	10.085
358.40	10.363
358.77	9.815
359.13	9.793
359.49	9.977
359.85	9.909
360.21	10.883
360.57	10.166
360.93	10.444
361.29	10.389
361.66	9.985
362.02	10.059
362.38	11.519
362.74	10.037
363.10	10.689
363.46	11.396
363.82	10.933
364.18	10.637
364.54	11.008
364.90	10.692
365.26	10.770
365.62	11.190
365.98	10.953
366.35	10.845
366.71	10.078
367.07	11.433
367.43	10.570
367.79	10.722
368.15	9.673
368.51	10.839
368.87	12.088
369.23	11.579
369.59	10.764
369.95	11.205
370.31	10.970
370.67	10.557
371.03	10.423
371.39	9.689
371.75	10.801
372.11	9.828
372.47	10.412
372.83	10.431
373.19	10.929
373.55	10.626
373.91	10.953
374.27	10.815
374.63	10.835
374.99	11.266
375.35	10.431
375.71	11.141
376.07	10.951
376.42	10.265
376.78	10.850
377.14	10.305
377.50	11.154
377.86	10.338
378.22	10.490
378.58	10.933
378.94	11.344
379.30	11.456
379.66	12.083
380.02	9.982
380.38	10.091
380.74	10.375
381.09	11.951
381.45	11.098
381.81	11.555
382.17	10.401
382.53	10.517
382.89	10.945
383.25	11.017
383.61	10.554
383.97	11.206
384.32	11.014
384.68	11.366
385.04	10.205
385.40	10.895
385.76	10.915
386.12	11.118
386.48	11.139
386.83	10.859
387.19	11.536
387.55	11.569
387.91	10.077
388.27	10.253
388.62	10.757
388.98	9.812
389.34	11.138
389.70	10.719
390.06	10.255
390.42	11.090
390.77	10.473
391.13	11.739
391.49	11.104
391.85	11.783
392.20	10.437
392.56	10.324
392.92	10.896
393.28	11.424
393.64	11.786
393.99	11.015
394.35	11.192
394.71	10.686
395.07	10.421
395.42	10.667
395.78	10.559
396.14	11.651
396.50	10.581
396.85	10.734
397.21	11.604
397.57	11.368
397.92	11.944
398.28	10.556
398.64	11.303
399.00	11.067
399.35	10.598
399.71	11.556
400.07	11.045
400.42	11.314
400.78	10.912
401.14	11.737
401.49	10.731
401.85	11.470
402.21	11.144
402.57	11.104
402.92	11.454
403.28	10.907
403.63	11.204
403.99	11.125
404.35	11.051
404.70	11.235
405.06	11.592
405.42	10.517
405.77	11.652
406.13	10.733
406.49	10.665
406.84	10.558
407.20	11.072
407.55	10.766
407.91	11.010
408.27	12.010
408.62	11.485
408.98	10.916
409.34	10.664
409.69	10.775
410.05	10.976
410.40	11.895
410.76	11.500
411.11	11.284
411.47	11.381
411.83	11.308
412.18	10.520
412.54	10.921
412.89	11.725
413.25	10.449
413.60	11.300
413.96	11.152
414.31	11.682
414.67	11.238
415.03	10.867
415.38	11.646
415.74	10.696
416.09	11.509
416.45	11.706
416.80	11.443
417.16	11.495
417.51	12.081
417.87	11.845
418.22	11.125
418.58	11.232
418.93	11.465
419.29	11.355
419.64	11.558
420.00	12.576
420.35	11.591
420.71	11.164
421.06	11.598
421.42	10.890
421.77	11.223
422.12	11.696
422.48	11.384
422.83	11.788
423.19	11.247
423.54	10.836
423.90	11.278
424.25	10.860
424.61	12.244
424.96	12.463
425.31	12.074
425.67	11.805
426.02	11.417
426.38	11.797
426.73	11.689
427.09	11.949
427.44	11.875
427.79	12.500
428.15	12.687
428.50	11.965
428.85	12.050
429.21	11.345
429.56	12.448
429.92	11.623
430.27	11.815
430.62	11.860
430.98	11.553
431.33	11.686
431.68	12.011
432.04	12.871
432.39	11.909
432.74	11.811
433.10	12.380
433.45	11.975
433.80	11.702
434.16	11.983
434.51	12.000
434.86	12.244
435.22	12.249
435.57	11.750
435.92	12.603
436.28	13.116
436.63	11.758
436.98	12.142
437.34	12.995
437.69	11.902
438.04	11.798
438.39	13.117
438.75	12.340
439.10	12.382
439.45	12.191
439.81	12.590
440.16	12.095
440.51	12.647
440.86	12.493
441.22	12.327
441.57	12.368
441.92	12.072
442.27	12.554
442.63	12.178
442.98	11.682
443.33	11.532
443.68	12.559
444.03	11.788
444.39	13.069
444.74	12.555
445.09	12.226
445.44	12.718
445.79	12.596
446.15	13.308
446.50	11.377
446.85	12.571
447.20	12.768
447.55	12.928
447.91	12.746
448.26	11.341
448.61	12.450
448.96	12.941
449.31	12.401
449.66	12.593
450.02	12.355
450.37	12.000
450.72	12.486
451.07	13.074
451.42	11.276
451.77	12.867
452.12	13.707
452.47	13.098
452.83	12.638
453.18	12.334
453.53	12.749
453.88	12.679
454.23	12.455
454.58	13.735
454.93	12.657
455.28	12.301
455.63	12.469
455.98	12.711
456.34	12.198
456.69	13.759
457.04	12.784
457.39	12.201
457.74	13.290
458.09	13.109
458.44	13.626
458.79	12.668
459.14	13.177
459.49	13.618
459.84	12.535
460.19	12.947
460.54	13.249
460.89	13.229
461.24	13.479
461.59	13.775
461.94	13.367
462.29	13.341
462.64	12.912
462.99	13.387
463.34	13.099
463.69	13.232
464.04	12.830
464.39	12.366
464.74	13.475
465.09	13.049
465.44	13.480
465.79	13.254
466.14	13.982
466.49	13.299
466.84	13.565
467.19	13.653
467.54	13.608
467.89	14.242
468.24	13.361
468.59	13.804
468.94	13.119
469.29	12.671
469.64	13.477
469.99	14.247
470.34	14.028
470.68	14.317
471.03	15.554
471.38	13.125
471.73	13.706
472.08	14.324
472.43	14.350
472.78	14.400
473.13	13.386
473.48	14.167
473.83	14.516
474.17	13.567
474.52	14.898
474.87	14.685
475.22	13.982
475.57	14.167
475.92	14.255
476.27	13.943
476.61	14.254
476.96	13.583
477.31	14.370
477.66	14.278
478.01	14.695
478.36	14.248
478.70	14.469
479.05	13.845
479.40	14.508
479.75	14.679
480.10	14.534
480.45	13.733
480.79	15.005
481.14	14.551
481.49	13.892
481.84	14.239
482.19	14.710
482.53	13.968
482.88	14.001
483.23	14.225
483.58	15.032
483.92	15.050
484.27	13.868
484.62	14.212
484.97	14.186
485.31	13.152
485.66	13.297
486.01	13.107
486.36	13.748
486.70	13.846
487.05	13.841
487.40	13.542
487.75	13.925
488.09	13.867
488.44	14.411
488.79	14.892
489.13	14.873
489.48	15.865
489.83	15.240
490.17	15.020
490.52	14.810
490.87	14.827
491.22	14.386
491.56	14.722
491.91	15.744
492.26	15.330
492.60	14.462
492.95	15.945
493.30	15.674
493.64	15.280
493.99	15.201
494.34	15.000
494.68	15.028
495.03	14.532
495.37	15.290
495.72	15.914
496.07	15.204
496.41	15.424
496.76	15.388
497.11	15.403
497.45	15.613
497.80	14.757
498.14	15.422
498.49	15.369
498.84	15.340
499.18	15.595
499.53	15.343
499.87	14.768
500.22	15.686
500.56	15.558
500.91	15.567
501.26	15.429
501.60	15.070
501.95	15.942
502.29	15.541
502.64	15.983
502.98	14.950
503.33	15.742
503.67	15.517
504.02	15.789
504.36	15.098
504.71	14.792
505.06	15.577
505.40	16.617
505.75	15.752
506.09	15.774
506.44	15.589
506.78	16.056
507.13	15.757
507.47	15.389
507.82	16.107
508.16	16.425
508.51	15.971
508.85	15.735
509.19	15.699
509.54	16.279
509.88	16.117
510.23	16.195
510.57	16.296
510.92	15.897
511.26	16.002
511.61	16.307
511.95	15.409
512.30	16.273
512.64	16.082
512.98	15.787
513.33	16.584
513.67	16.918
514.02	16.163
514.36	17.285
514.70	16.752
515.05	17.267
515.39	16.782
515.74	17.045
516.08	17.118
516.42	16.714
516.77	16.407
517.11	16.590
517.46	16.986
517.80	16.727
518.14	16.425
518.49	16.796
518.83	16.261
519.17	17.762
519.52	16.657
519.86	16.965
520.20	16.993
520.55	16.492
520.89	16.218
521.23	17.277
521.58	16.677
521.92	17.353
522.26	16.698
522.61	16.730
522.95	15.763
523.29	17.179
523.64	16.802
523.98	16.423
524.32	17.285
524.66	16.584
525.01	16.699
525.35	17.848
525.69	17.046
526.04	17.559
526.38	18.587
526.72	16.667
527.06	17.773
527.41	16.700
527.75	17.426
528.09	17.141
528.43	17.115
528.78	16.834
529.12	17.606
529.46	16.108
529.80	18.012
530.15	18.030
530.49	17.529
530.83	18.926
531.17	16.970
531.51	17.214
531.86	18.170
532.20	18.286
532.54	17.647
532.88	17.721
533.22	16.711
533.57	17.950
533.91	16.916
534.25	17.033
534.59	15.990
534.93	16.117
535.27	17.181
535.62	17.199
535.96	17.712
536.30	17.474
536.64	17.198
536.98	17.302
537.32	17.692
537.66	16.972
538.01	17.113
538.35	17.297
538.69	16.979
539.03	17.468
539.37	17.232
539.71	17.812
540.05	16.381
540.39	16.898
540.73	18.106
541.07	16.940
541.42	16.475
541.76	16.944
542.10	18.028
542.44	17.722
542.78	18.046
543.12	16.836
543.46	16.096
543.80	16.856
544.14	16.588
544.48	16.798
544.82	15.832
545.16	17.237
545.50	16.689
545.84	17.733
546.18	17.198
546.52	17.994
546.86	16.952
547.20	17.229
547.54	16.391
547.88	17.120
548.22	16.055
548.56	17.101
548.90	17.588
549.24	16.538
549.58	16.090
549.92	17.668
550.26	17.991
550.60	16.643
550.94	17.518
551.28	17.758
551.62	17.061
551.96	16.064
552.30	16.307
552.64	17.452
552.98	16.538
553.32	16.234
553.66	17.664
554.00	17.697
554.34	16.173
554.68	16.740
555.02	17.294
555.36	16.751
555.69	16.691
556.03	16.772
556.37	17.283
556.71	16.464
557.05	16.260
557.39	16.333
557.73	18.016
558.07	17.558
558.41	16.455
558.75	16.502
559.08	16.498
559.42	16.080
559.76	17.025
560.10	17.748
560.44	17.630
560.78	16.493
561.12	16.080
561.45	16.507
561.79	16.516
562.13	16.410
562.47	16.807
562.81	16.620
563.15	16.305
563.48	16.862
563.82	16.903
564.16	16.024
564.50	16.398
564.84	15.873
565.17	16.976
565.51	16.558
565.85	16.227
566.19	16.535
566.52	15.395
566.86	15.740
567.20	16.586
567.54	16.893
567.88	15.522
568.21	15.268
568.55	15.111
568.89	14.911
569.23	15.178
569.56	15.174
569.90	14.595
570.24	15.070
570.57	14.376
570.91	14.315
571.25	14.656
571.59	14.081
571.92	14.196
572.26	14.320
572.60	14.552
572.93	14.648
573.27	14.024
573.61	13.479
573.95	14.449
574.28	13.956
574.62	14.159
574.96	13.709
575.29	14.151
575.63	13.592
575.97	13.565
576.30	13.757
576.64	13.943
576.98	13.834
577.31	13.659
577.65	13.375
577.98	13.535
578.32	13.408
578.66	13.575
578.99	13.781
579.33	14.192
579.67	13.492
580.00	13.690
580.34	13.674
580.67	13.778
581.01	13.437
581.35	13.381
581.68	13.511
582.02	13.273
582.35	12.880
582.69	13.564
583.02	13.683
583.36	13.584
583.70	13.466
584.03	14.170
584.37	13.559
584.70	13.640
585.04	13.848
585.37	13.103
585.71	13.256
586.04	13.931
586.38	13.098
586.72	13.952
587.05	13.735
587.39	13.111
587.72	13.751
588.06	13.480
588.39	13.358
588.73	14.062
589.06	14.322
589.40	14.359
589.73	13.881
590.07	13.583
590.40	14.170
590.73	13.914
591.07	14.754
591.40	14.385
591.74	14.162
592.07	14.459
592.41	13.758
592.74	14.028
593.08	13.903
593.41	13.684
593.75	13.089
594.08	13.515
594.41	14.566
594.75	14.043
595.08	13.835
595.42	13.801
595.75	13.157
596.09	13.543
596.42	14.484
596.75	13.928
597.09	14.470
597.42	13.793
597.75	13.286
598.09	14.460
598.42	13.566
598.76	13.663
599.09	13.457
599.42	13.379
599.76	13.213
600.09	13.931
600.42	13.711
600.76	13.785
601.09	14.014
601.42	13.534
601.76	14.213
602.09	13.211
602.42	13.951
602.76	13.004
603.09	13.266
603.42	13.900
603.76	13.323
604.09	13.656
604.42	13.739
604.76	13.519
605.09	13.698
605.42	13.520
605.75	13.368
606.09	13.200
606.42	13.657
606.75	13.912
607.09	13.366
607.42	13.380
607.75	13.024
608.08	14.550
608.42	14.049
608.75	13.879
609.08	13.736
609.41	13.503
609.75	13.798
610.08	14.118
610.41	14.651
610.74	14.023
611.07	14.249
611.41	13.868
611.74	14.036
612.07	14.339
612.40	13.486
612.73	14.109
613.07	14.144
613.40	14.997
613.73	14.387
614.06	14.388
614.39	13.923
614.72	13.799
615.06	14.130
615.39	13.673
615.72	14.123
616.05	13.805
616.38	13.697
616.71	14.354
617.05	15.259
617.38	13.808
617.71	13.514
618.04	14.099
618.37	13.396
618.70	14.668
619.03	14.218
619.36	15.222
619.69	15.004
620.03	14.187
620.36	14.487
620.69	15.363
621.02	14.155
621.35	14.758
621.68	14.836
622.01	14.644
622.34	15.761
622.67	13.984
623.00	14.690
623.33	15.896
623.66	13.885
623.99	14.812
624.32	14.583
624.65	14.054
624.99	14.190
625.32	13.623
625.65	15.307
625.98	14.554
626.31	15.498
626.64	15.314
626.97	14.897
627.30	14.638
627.63	14.249
627.96	14.970
628.29	14.246
628.62	15.091
628.95	15.945
629.28	15.414
629.61	14.917
629.94	16.163
630.26	15.905
630.59	16.181
630.92	15.916
631.25	14.919
631.58	15.556
631.91	14.574
632.24	17.000
632.57	15.667
632.90	15.747
633.23	16.706
633.56	15.088
633.89	16.627
634.22	16.293
634.55	17.067
634.88	15.961
635.20	13.858
635.53	16.031
635.86	16.625
636.19	16.117
636.52	15.651
636.85	15.764
637.18	12.625
637.51	17.968
637.83	15.180
638.16	15.789
638.49	13.517
638.82	14.801
639.15	16.342
639.48	15.694
639.81	16.321
640.13	16.351
640.46	17.664
640.79	17.087
641.12	16.784
641.45	16.930
641.77	17.066
642.10	15.710
642.43	16.540
642.76	17.480
643.09	14.762
643.41	15.873
643.74	18.442
644.07	16.849
644.40	17.504
644.73	16.502
645.05	15.526
645.38	17.715
645.71	16.323
646.04	17.479
646.36	15.881
646.69	15.744
647.02	18.051
647.35	16.606
647.67	16.606
648.00	17.399
648.33	17.369
648.66	16.452
648.98	14.172
649.31	18.154
649.64	16.250
649.96	16.484
650.29	16.557
650.62	14.802
650.94	17.875
651.27	17.504
651.60	14.879
651.92	17.295
652.25	16.361
652.58	13.118
652.90	17.175
653.23	15.968
653.56	16.388
653.88	14.918
654.21	15.940
654.54	18.439
654.86	17.335
655.19	13.610
655.52	14.588
655.84	12.047
656.17	12.706
656.49	17.029
656.82	17.908
657.15	13.523
657.47	10.042
657.80	7.766
658.13	9.149
658.45	12.580
658.78	12.736
659.10	12.951
659.43	13.258
659.75	13.297
660.08	13.698
660.41	14.463
660.73	13.201
661.06	15.652
661.38	18.036
661.71	16.061
662.03	14.516
662.36	17.697
662.68	16.245
663.01	18.684
663.33	15.193
663.66	15.665
663.98	15.402
664.31	14.765
664.63	17.920
664.96	14.751
665.28	17.570
665.61	15.011
665.93	16.049
666.26	17.206
666.58	16.008
666.91	16.481
667.23	17.982
667.56	15.646
667.88	18.552
668.21	16.129
668.53	16.121
668.86	17.783
669.18	18.721
669.50	14.953
669.83	15.815
670.15	18.161
670.48	14.486
670.80	15.262
671.13	14.221
671.45	16.216
671.77	14.989
672.10	16.568
672.42	15.867
672.75	12.909
673.07	12.793
673.39	16.211
673.72	14.961
674.04	15.499
674.37	16.289
674.69	15.779
675.01	14.255
675.34	14.751
675.66	15.983
675.98	13.877
676.31	19.683
676.63	15.632
676.95	14.159
677.28	16.937
677.60	20.362
677.92	17.841
678.25	17.724
678.57	16.872
678.89	11.321
679.22	15.933
679.54	16.568
679.86	13.600
680.18	17.300
680.51	13.222
680.83	15.238
681.15	16.185
681.48	16.430
681.80	15.121
682.12	15.091
682.44	14.145
682.77	11.688
683.09	18.029
683.41	19.690
683.73	14.155
684.06	15.699
684.38	15.272
684.70	16.049
685.02	13.386
685.34	15.400
685.67	12.500
685.99	12.098
686.31	17.774
686.63	15.957
686.96	14.233
687.28	15.607
687.60	13.477
687.92	10.311
688.24	12.992
688.56	14.629
688.89	14.103
689.21	16.630
689.53	16.552
689.85	14.031
690.17	13.453
690.49	15.242
690.82	14.458
691.14	13.208
691.46	13.304
691.78	15.419
692.10	15.254
692.42	14.222
692.74	16.094
693.06	12.584
693.39	15.884
693.71	15.350
694.03	15.983
694.35	11.738
694.67	15.130
694.99	13.811
695.31	16.327
695.63	12.245
695.95	12.903
696.27	17.456
696.59	16.310
696.91	14.045
697.23	16.667
697.56	12.019
697.88	13.063
698.20	11.349
698.52	13.677
698.84	14.320
699.16	11.905
699.48	15.500
699.80	15.789
700.12	17.380
700.44	13.128
700.76	14.577
701.08	20.058
701.40	15.710
701.72	16.975
702.04	17.308
702.36	15.361
702.68	13.174
703.00	16.522
703.32	11.748
703.64	16.176
703.96	13.663
704.28	16.864
704.60	11.076
704.91	13.016
705.23	16.828
705.55	15.203
705.87	13.652
706.19	13.194
706.51	14.583
706.83	15.738
707.15	15.605
707.47	16.253
707.79	13.402
708.11	12.468
708.43	13.716
708.74	13.247
709.06	10.585
709.38	13.218
709.70	16.250
710.02	16.258
710.34	11.881
710.66	14.603
710.98	18.612
711.29	13.871
711.61	15.335
711.93	10.492
712.25	18.605
712.57	12.892
712.89	17.626
713.20	19.244
713.52	12.687
713.84	18.149
714.16	15.410
714.48	14.286
714.80	12.615
715.11	13.256
715.43	17.771
715.75	18.380
716.07	10.164
716.39	9.699
716.70	17.422
717.02	12.963
717.34	11.832
717.66	15.353
717.97	10.246
718.29	15.126
718.61	20.238
718.93	15.054
719.24	8.824
719.56	13.962
719.88	14.909
720.20	11.610
720.51	14.286
720.83	15.261
721.15	15.164
721.46	19.608
721.78	13.410
722.10	12.800
722.42	8.678
722.73	15.139
723.05	16.867
723.37	16.471
723.68	11.741
724.00	13.008
724.32	13.580
724.63	14.108
724.95	16.942
725.27	9.649
725.58	13.793
725.90	13.095
726.22	15.498
726.53	13.688
726.85	13.725
727.16	17.669
727.48	13.462
727.80	6.967
728.11	14.286
728.43	14.050
728.74	16.406
729.06	14.015
729.38	14.786
729.69	14.173
730.01	13.386
730.32	10.757
730.64	14.652
730.96	12.687
731.27	10.357
731.59	17.042
731.90	11.043
732.22	15.337
732.53	15.232
732.85	13.087
733.16	13.406
733.48	12.892
733.80	9.609
734.11	12.414
734.43	10.544
734.74	13.650
735.06	11.599
735.37	13.761
735.69	11.613
736.00	11.785
736.32	15.563
736.63	7.931
736.95	13.043
737.26	14.570
737.58	12.950
737.89	12.186
738.21	11.654
738.52	12.692
738.83	13.672
739.15	15.385
739.46	14.113
739.78	11.538
740.09	14.685
740.41	11.189
740.72	14.599
741.04	12.302
741.35	9.957
741.66	15.278
741.98	7.619
742.29	16.901
742.61	15.508
742.92	22.897
743.23	12.281
743.55	14.865
743.86	16.000
744.18	12.381
744.49	15.271
744.80	17.766
745.12	11.340
745.43	15.075
745.74	11.165
746.06	14.146
746.37	15.859
746.68	19.900
747.00	8.901
747.31	16.827
747.62	12.442
747.94	17.031
748.25	14.884
748.56	11.429
748.88	7.065
749.19	10.329
749.50	14.706
749.82	16.000
750.13	15.419
750.44	11.382
750.75	12.400
751.07	13.929
751.38	12.546
751.69	8.779
752.01	14.615
752.32	11.284
752.63	8.846
752.94	12.302
753.26	10.870
753.57	16.964
753.88	9.483
754.19	13.278
754.51	10.547
754.82	13.043
755.13	11.523
755.44	12.397
755.75	14.403
756.07	5.622
756.38	14.453
756.69	12.635
757.00	13.240
757.31	14.430
757.63	15.888
757.94	9.249
758.25	12.791
758.56	15.903
758.87	13.920
759.18	13.000
759.50	13.879
759.81	7.664
760.12	6.757
760.43	17.799
760.74	15.625
761.05	14.326
761.36	14.072
761.67	9.467
761.99	14.194
762.30	14.493
762.61	15.472
762.92	10.314
763.23	10.900
763.54	13.333
763.85	13.080
764.16	16.735
764.47	17.797
764.78	13.483
765.10	11.871
765.41	13.226
765.72	12.893
766.03	5.654
766.34	13.534
766.65	12.955
766.96	8.500
767.27	9.375
767.58	4.651
767.89	4.516
768.20	17.178
768.51	13.661
768.82	17.297
769.13	10.000
769.44	17.105
769.75	9.524
770.06	18.807
770.37	9.390
770.68	10.937
770.99	18.317
771.30	9.223
771.61	11.574
771.92	7.359
772.23	9.813
772.54	10.638
772.85	4.734
773.16	15.854
773.47	18.072
773.78	17.033
774.09	10.000
774.39	20.988
774.70	14.765
775.01	8.696
775.32	9.701
775.63	3.306
775.94	19.549
776.25	12.857
776.56	16.393
776.87	15.044
777.18	9.735
777.48	6.364
777.79	6.087
778.10	8.257
778.41	9.322
778.72	3.306
779.03	11.194
779.34	15.789
779.65	15.686
779.95	5.072
780.26	4.082
780.57	0.862
780.88	12.963
781.19	5.051
781.50	17.600
781.80	12.418
782.11	12.821
782.42	8.434
782.73	7.299
783.04	14.865
783.34	4.545
783.65	3.101
783.96	12.195
784.27	8.547
784.57	19.512
784.88	8.943
785.19	7.895
785.50	1.031
785.81	3.810
786.11	8.824
786.42	2.727
786.73	21.622
787.04	13.861
787.34	8.571
787.65	8.571
787.96	0.980
788.26	12.613
788.57	16.129
788.88	3.125
789.19	5.128
789.49	6.723
789.80	3.419
790.11	6.195
790.41	6.061
790.72	25.472
791.03	-2.778
791.33	1.316
791.64	17.204
791.95	9.333
792.25	-17.143
792.56	7.317
792.87	12.245
793.17	3.947
793.48	-16.216
793.79	-9.859
794.09	8.861
794.40	21.277
794.70	14.953
795.01	-8.772
795.32	1.818
795.62	6.250
795.93	4.124
796.23	6.593
796.54	11.579
796.85	2.740
797.15	-19.444
797.46	20.548
797.76	7.042
798.07	11.250
798.37	19.118
798.68	5.714
798.99	4.286
799.29	15.789
799.60	18.333
799.90	9.722
800.21	-17.188
800.51	0.000
800.82	8.197
801.12	1.754
801.43	-8.451
801.73	-3.390
802.04	31.148
802.34	-18.182
802.65	0.000
802.95	3.704
803.26	-30.000
803.56	1.923
803.87	5.263
804.17	-1.613
804.48	9.231
804.78	-7.692
805.09	18.605
805.39	-37.500
805.70	-1.887
806.00	31.579
806.30	16.216
806.61	14.706
806.91	0.000
807.22	-1.333
807.52	14.925
807.83	3.226
808.13	9.524
808.43	-23.636
808.74	10.606
809.04	7.547
809.35	-1.370
809.65	21.053
809.95	26.471
810.26	27.451
810.56	-18.000
810.86	-28.571
811.17	2.857
811.47	-9.615
811.77	-25.806
812.08	-31.579
812.38	0.000
812.69	-10.870
812.99	6.452
813.29	-4.762
813.59	-70.370
813.90	-4.255
814.20	-16.279
814.50	4.167
814.81	13.333
815.11	-48.780
815.41	-26.667
815.72	22.857
816.02	-22.222
816.32	10.256
816.62	-2.703
816.93	-29.412
817.23	10.870
817.53	0.000
817.84	0.000
818.14	-34.375
818.44	-24.138
818.74	-41.935
819.04	-11.111
819.35	-16.667
819.65	-40.000
819.95	3.333
820.25	-8.000
820.56	-26.316
820.86	-15.000
821.16	-4.255
821.46	3.448
821.76	-7.692
822.07	-15.000
822.37	11.628
822.67	-33.333
822.97	5.405
823.27	-21.622
823.57	-16.000
823.88	5.405
824.18	-28.571
824.48	7.692
824.78	-146.154
825.08	-17.391
825.38	0.000
825.69	16.667
825.99	-25.000
826.29	2.703
826.59	-26.471
826.89	16.000
827.19	-28.571
827.49	0.000
827.79	-28.125
828.09	-23.333
828.39	-17.391
828.70	-24.138
829.00	-41.379
829.30	0.000
829.60	12.500
829.90	-38.889
830.20	-11.538
830.50	-47.619
830.80	-14.286
831.10	-7.692
831.40	-19.048
831.70	-26.471
832.00	-25.000
832.30	-63.158
832.60	-81.250
832.90	-108.333
833.20	-64.706
833.50	-113.333
833.80	-113.333
834.10	-25.000
834.40	-70.833
834.70	-50.000
835.00	-42.308
835.30	-25.000
835.60	-13.793
835.90	0.000
836.20	-118.182
836.50	-125.000
836.80	34.286
837.10	28.571
837.40	-29.412
837.70	-90.909
838.00	-41.667
838.30	31.250
838.60	19.048
838.90	-10.000
839.19	-13.043
839.49	-26.087
839.79	-83.333
840.09	-26.087
840.39	-40.909
840.69	-93.750
840.99	-52.632
841.29	-56.250
841.59	-28.571
841.88	-111.111
842.18	-16.667
842.48	-70.588
842.78	17.241
843.08	-14.286
843.38	-30.769
843.68	-44.444
843.97	-46.154
844.27	-18.182
844.57	-360.000
844.87	16.000
845.17	-160.000
845.47	-28.571
845.76	-188.889
846.06	0.000
846.36	-325.000
846.66	-80.000
846.96	-31.579
847.25	20.833
847.55	-58.333
847.85	-33.333
848.15	-120.000
848.44	61.538
848.74	36.842
849.04	733.333
849.34	-44.444
849.63	-5.263
849.93	0.000
850.23	-50.000
850.53	14.286
850.82	0.000
851.12	-10.526
851.42	-700.000
851.71	7.143
852.01	-50.000
852.31	-58.824
852.61	-6.667
852.90	-9.524
853.20	-266.667
853.50	-27.778
853.79	-57.895
854.09	-53.333
854.39	3.571
854.68	-17.391
854.98	-158.333
855.28	-55.172
855.57	-25.000
855.87	-5.000
856.17	-126.667
856.46	-10.345
856.76	-53.333
857.05	-41.176
857.35	-138.462
857.65	-45.455
857.94	-14.815
858.24	-78.571
858.53	-42.857
858.83	-100.000
859.13	-211.111
859.42	-4.762
859.72	-62.500
860.01	-400.000
860.31	0.000
860.60	-400.000
860.90	-88.889
861.20	12.500
861.49	-71.429
861.79	23.529
862.08	-500.000
862.38	-75.000
862.67	-61.538
862.97	-11.765
863.26	50.000
863.56	-82.353
863.85	633.333
864.15	-150.000
864.44	-53.846
864.74	10.000
865.03	-200.000
865.33	-283.333
865.62	-76.471
865.92	-300.000
866.21	-142.857
866.51	-125.000
866.80	-1100.000
867.10	66.667
867.39	-100.000
867.69	-13.043
867.98	42.857
868.27	-420.000
868.57	-12.500
868.86	-72.727
869.16	17.647
869.45	-250.000
869.75	-128.571
870.04	100.000
870.33	-83.333
870.63	-80.000
870.92	-66.667
871.22	-8.333
871.51	-36.364
871.80	-25.000
872.10	20.000
>>>>>End Processed Spectral Data<<<<<
