SpectraSuite Data File
++++++++++++++++++++++++++++++++++++
Date: Sat May 16 11:25:35 PDT 2015
User: schluterlab
Dark Spectrum Present: Yes
Reference Spectrum Present: Yes
Number of Sampled Component Spectra: 1
Spectrometers: USB2E3373
Integration Time (usec): 3000 (USB2E3373)
Spectra Averaged: 3 (USB2E3373)
Boxcar Smoothing: 0 (USB2E3373)
Correct for Electrical Dark: No (USB2E3373)
Strobe/Lamp Enabled: No (USB2E3373)
Correct for Detector Non-linearity: No (USB2E3373)
Correct for Stray Light: No (USB2E3373)
Number of Pixels in Processed Spectrum: 2048
>>>>>Begin Processed Spectral Data<<<<<
178.53	0.000
178.91	126.667
179.29	433.333
179.67	-1000.000
180.04	-69.231
180.42	600.000
180.80	375.000
181.18	175.000
181.56	-75.000
181.94	500.000
182.31	550.000
182.69	30.769
183.07	-566.667
183.45	1350.000
183.83	466.667
184.20	-285.714
184.58	37.500
184.96	-250.000
185.34	137.500
185.72	-575.000
186.09	316.667
186.47	-275.000
186.85	-225.000
187.23	-87.500
187.61	-125.000
187.98	-250.000
188.36	-162.500
188.74	25.000
189.12	800.000
189.49	342.857
189.87	-41.667
190.25	550.000
190.63	-57.143
191.00	-300.000
191.38	440.000
191.76	-46.667
192.14	440.000
192.51	-380.000
192.89	-533.333
193.27	0.000
193.65	-66.667
194.02	-200.000
194.40	600.000
194.78	-140.000
195.15	-1800.000
195.53	-100.000
195.91	-316.667
196.29	120.000
196.66	-800.000
197.04	2800.000
197.42	-300.000
197.79	13.333
198.17	-533.333
198.55	-150.000
198.92	-1500.000
199.30	237.500
199.68	-600.000
200.05	-88.889
200.43	-222.222
200.81	-1200.000
201.18	-141.667
201.56	42.857
201.94	-66.667
202.31	31.818
202.69	-60.000
203.07	-20.000
203.44	566.667
203.82	-250.000
204.19	-300.000
204.57	-325.000
204.95	-2000.000
205.32	0.000
205.70	500.000
206.08	-1500.000
206.45	-38.889
206.83	-900.000
207.20	-250.000
207.58	-566.667
207.96	-33.333
208.33	-250.000
208.71	-133.333
209.08	260.000
209.46	-185.714
209.84	1350.000
210.21	0.000
210.59	40.000
210.96	600.000
211.34	-483.333
211.71	66.667
212.09	425.000
212.46	900.000
212.84	-2300.000
213.22	566.667
213.59	83.333
213.97	-33.333
214.34	200.000
214.72	-50.000
215.09	-366.667
215.47	-116.667
215.84	-160.000
216.22	-130.000
216.59	0.000
216.97	-550.000
217.34	1200.000
217.72	-200.000
218.09	-416.667
218.47	-200.000
218.84	71.429
219.22	57.143
219.59	0.000
219.97	328.571
220.34	625.000
220.72	225.000
221.09	-100.000
221.47	0.000
221.84	-33.333
222.22	-750.000
222.59	1100.000
222.97	-325.000
223.34	-950.000
223.72	-733.333
224.09	-28.571
224.46	-300.000
224.84	-100.000
225.21	-142.857
225.59	-127.273
225.96	-112.500
226.34	-71.429
226.71	-144.444
227.08	-5.000
227.46	2100.000
227.83	-214.286
228.21	-137.500
228.58	650.000
228.95	0.000
229.33	-2500.000
229.70	-260.000
230.08	-1250.000
230.45	-83.333
230.82	-83.333
231.20	-500.000
231.57	-500.000
231.95	1800.000
232.32	-33.333
232.69	-111.111
233.07	-271.429
233.44	-900.000
233.81	-26.667
234.19	-88.889
234.56	-37.500
234.93	21.875
235.31	-271.429
235.68	-100.000
236.05	-82.353
236.43	-68.182
236.80	-9.677
237.17	-12.500
237.55	-38.095
237.92	-54.545
238.29	-2.857
238.67	14.706
239.04	-30.556
239.41	32.258
239.79	-33.333
240.16	-14.286
240.53	-9.091
240.91	15.385
241.28	1.818
241.65	10.769
242.02	18.033
242.40	-3.279
242.77	33.333
243.14	1.695
243.51	-4.286
243.89	5.063
244.26	23.596
244.63	11.579
245.00	16.842
245.38	5.932
245.75	15.044
246.12	16.800
246.49	16.535
246.87	10.569
247.24	19.492
247.61	16.102
247.98	11.972
248.36	13.287
248.73	14.557
249.10	16.561
249.47	16.374
249.84	23.295
250.22	17.857
250.59	20.904
250.96	14.136
251.33	21.327
251.70	18.269
252.08	22.749
252.45	10.900
252.82	24.762
253.19	21.702
253.56	19.355
253.94	21.941
254.31	20.172
254.68	24.797
255.05	16.532
255.42	20.635
255.79	21.864
256.16	21.569
256.54	21.324
256.91	18.939
257.28	18.681
257.65	18.794
258.02	23.270
258.39	21.405
258.76	17.568
259.14	20.370
259.51	26.230
259.88	17.683
260.25	22.360
260.62	20.900
260.99	20.772
261.36	23.780
261.73	24.566
262.10	23.056
262.47	23.932
262.85	22.571
263.22	23.209
263.59	22.462
263.96	21.449
264.33	19.783
264.70	24.586
265.07	19.780
265.44	20.413
265.81	22.481
266.18	18.734
266.55	19.118
266.92	22.670
267.29	23.487
267.66	22.222
268.03	25.845
268.40	22.300
268.77	22.892
269.14	21.810
269.51	24.368
269.88	20.183
270.25	17.949
270.62	23.112
270.99	23.423
271.36	21.911
271.73	19.058
272.10	21.281
272.47	19.556
272.84	24.889
273.21	24.541
273.58	19.341
273.95	21.491
274.32	22.172
274.69	22.538
275.06	22.086
275.43	24.107
275.80	24.440
276.17	23.640
276.54	23.218
276.91	22.634
277.28	21.704
277.65	22.727
278.02	22.547
278.39	22.397
278.76	23.108
279.13	21.542
279.50	23.857
279.87	19.662
280.23	20.243
280.60	21.471
280.97	20.971
281.34	22.437
281.71	25.000
282.08	20.968
282.45	20.978
282.82	21.512
283.19	22.364
283.56	23.626
283.92	21.908
284.29	21.933
284.66	21.942
285.03	21.925
285.40	20.664
285.77	21.930
286.14	22.202
286.51	22.380
286.87	22.505
287.24	22.184
287.61	20.496
287.98	21.144
288.35	19.669
288.72	22.920
289.08	19.153
289.45	19.360
289.82	21.626
290.19	20.525
290.56	17.521
290.93	19.237
291.29	18.639
291.66	19.324
292.03	19.937
292.40	19.578
292.77	19.720
293.13	21.626
293.50	20.059
293.87	19.939
294.24	20.513
294.60	18.788
294.97	20.182
295.34	18.074
295.71	18.899
296.08	16.897
296.44	17.167
296.81	17.806
297.18	19.014
297.55	18.079
297.91	19.665
298.28	18.356
298.65	17.294
299.02	18.984
299.38	17.513
299.75	17.935
300.12	16.923
300.48	16.752
300.85	16.776
301.22	17.464
301.59	16.255
301.95	19.270
302.32	15.776
302.69	16.524
303.05	16.606
303.42	17.625
303.79	18.660
304.15	17.891
304.52	16.219
304.89	18.182
305.25	17.216
305.62	16.686
305.99	17.903
306.35	15.649
306.72	16.173
307.09	15.664
307.45	17.026
307.82	15.754
308.19	16.107
308.55	17.647
308.92	15.575
309.29	15.135
309.65	18.134
310.02	16.631
310.38	16.324
310.75	17.316
311.12	16.012
311.48	18.372
311.85	17.508
312.22	16.787
312.58	18.108
312.95	17.329
313.31	18.681
313.68	18.693
314.05	19.387
314.41	16.398
314.78	16.783
315.14	18.361
315.51	19.048
315.87	19.555
316.24	18.465
316.61	19.194
316.97	20.398
317.34	18.882
317.70	19.573
318.07	20.056
318.43	21.161
318.80	21.690
319.16	19.700
319.53	21.617
319.89	19.944
320.26	19.216
320.62	20.962
320.99	22.289
321.35	20.197
321.72	21.392
322.08	21.464
322.45	21.683
322.81	22.478
323.18	23.631
323.54	24.861
323.91	24.189
324.27	24.620
324.64	24.589
325.00	25.654
325.37	25.973
325.73	25.897
326.10	24.446
326.46	26.357
326.83	27.915
327.19	27.606
327.56	29.131
327.92	28.207
328.29	28.312
328.65	27.727
329.01	30.124
329.38	29.616
329.74	29.762
330.11	29.284
330.47	29.700
330.84	31.072
331.20	30.054
331.56	29.900
331.93	31.794
332.29	33.059
332.66	32.397
333.02	31.041
333.38	32.527
333.75	32.057
334.11	33.511
334.48	33.010
334.84	32.633
335.20	32.181
335.57	33.303
335.93	34.825
336.29	33.481
336.66	32.687
337.02	35.495
337.38	33.066
337.75	34.153
338.11	33.363
338.47	33.274
338.84	34.755
339.20	32.689
339.56	35.027
339.93	32.540
340.29	32.861
340.65	34.528
341.02	34.570
341.38	32.687
341.74	33.700
342.11	33.788
342.47	34.077
342.83	33.333
343.20	34.159
343.56	32.245
343.92	33.389
344.28	35.324
344.65	32.838
345.01	33.529
345.37	34.884
345.73	33.061
346.10	32.379
346.46	31.925
346.82	32.879
347.19	33.114
347.55	33.467
347.91	34.252
348.27	33.492
348.63	33.683
349.00	32.936
349.36	31.928
349.72	34.156
350.08	33.280
350.45	32.230
350.81	32.166
351.17	31.994
351.53	31.742
351.89	32.013
352.26	33.178
352.62	34.716
352.98	32.832
353.34	32.214
353.70	32.432
354.07	33.517
354.43	33.360
354.79	31.775
355.15	33.227
355.51	32.969
355.87	31.779
356.24	32.804
356.60	33.521
356.96	32.256
357.32	32.779
357.68	32.874
358.04	32.333
358.40	32.173
358.77	34.467
359.13	32.747
359.49	33.031
359.85	33.003
360.21	32.648
360.57	33.283
360.93	32.741
361.29	33.034
361.66	31.250
362.02	33.506
362.38	31.988
362.74	32.747
363.10	31.779
363.46	33.903
363.82	33.090
364.18	32.996
364.54	32.595
364.90	32.425
365.26	32.668
365.62	33.785
365.98	32.859
366.35	33.803
366.71	32.347
367.07	32.675
367.43	32.944
367.79	33.540
368.15	33.144
368.51	32.727
368.87	33.585
369.23	33.263
369.59	33.264
369.95	33.192
370.31	33.263
370.67	32.610
371.03	33.090
371.39	32.603
371.75	33.763
372.11	33.788
372.47	33.261
372.83	33.866
373.19	34.286
373.55	33.005
373.91	33.570
374.27	32.717
374.63	32.574
374.99	33.797
375.35	32.974
375.71	33.896
376.07	33.402
376.42	32.583
376.78	34.183
377.14	33.492
377.50	33.075
377.86	34.005
378.22	33.668
378.58	33.169
378.94	32.861
379.30	33.577
379.66	32.969
380.02	33.096
380.38	33.112
380.74	31.946
381.09	33.158
381.45	33.950
381.81	32.849
382.17	32.895
382.53	33.131
382.89	33.612
383.25	34.497
383.61	33.078
383.97	33.068
384.32	33.542
384.68	34.583
385.04	33.273
385.40	32.988
385.76	32.683
386.12	34.041
386.48	34.035
386.83	33.436
387.19	34.310
387.55	32.707
387.91	33.788
388.27	32.268
388.62	32.933
388.98	33.071
389.34	32.497
389.70	33.557
390.06	33.064
390.42	34.359
390.77	33.628
391.13	33.727
391.49	33.437
391.85	34.663
392.20	32.646
392.56	33.048
392.92	33.657
393.28	33.467
393.64	33.794
393.99	34.954
394.35	32.421
394.71	32.922
395.07	34.401
395.42	32.062
395.78	32.432
396.14	34.019
396.50	33.333
396.85	33.313
397.21	32.868
397.57	33.556
397.92	32.904
398.28	33.611
398.64	33.314
399.00	34.270
399.35	34.160
399.71	35.075
400.07	33.731
400.42	33.881
400.78	33.214
401.14	33.174
401.49	32.783
401.85	33.130
402.21	33.552
402.57	33.556
402.92	34.361
403.28	33.578
403.63	32.894
403.99	31.821
404.35	32.488
404.70	33.587
405.06	32.584
405.42	33.026
405.77	32.749
406.13	32.425
406.49	33.913
406.84	33.113
407.20	33.922
407.55	33.882
407.91	31.865
408.27	33.762
408.62	33.434
408.98	33.111
409.34	33.516
409.69	33.459
410.05	32.808
410.40	32.311
410.76	33.432
411.11	34.165
411.47	32.417
411.83	34.108
412.18	32.673
412.54	33.130
412.89	34.022
413.25	32.881
413.60	32.078
413.96	32.594
414.31	32.844
414.67	32.762
415.03	33.635
415.38	33.247
415.74	33.570
416.09	34.079
416.45	32.011
416.80	32.250
417.16	32.492
417.51	34.274
417.87	34.239
418.22	32.743
418.58	33.504
418.93	33.292
419.29	33.626
419.64	32.475
420.00	33.475
420.35	32.525
420.71	33.433
421.06	33.728
421.42	33.314
421.77	33.724
422.12	33.072
422.48	33.298
422.83	33.941
423.19	33.352
423.54	32.450
423.90	32.967
424.25	33.541
424.61	34.741
424.96	34.231
425.31	34.265
425.67	33.467
426.02	33.104
426.38	34.362
426.73	34.483
427.09	33.701
427.44	33.636
427.79	34.070
428.15	34.291
428.50	33.548
428.85	34.053
429.21	33.758
429.56	33.698
429.92	34.068
430.27	34.297
430.62	35.371
430.98	34.083
431.33	34.098
431.68	34.745
432.04	34.863
432.39	34.473
432.74	35.312
433.10	35.115
433.45	33.794
433.80	34.490
434.16	34.283
434.51	34.630
434.86	34.915
435.22	35.189
435.57	33.905
435.92	35.404
436.28	35.846
436.63	34.539
436.98	33.849
437.34	35.499
437.69	34.947
438.04	34.827
438.39	35.018
438.75	34.983
439.10	35.813
439.45	35.848
439.81	35.060
440.16	34.639
440.51	36.588
440.86	35.570
441.22	35.047
441.57	35.684
441.92	35.601
442.27	35.552
442.63	35.139
442.98	34.876
443.33	35.969
443.68	36.842
444.03	35.806
444.39	35.536
444.74	36.013
445.09	35.910
445.44	35.509
445.79	35.951
446.15	36.637
446.50	34.839
446.85	35.146
447.20	36.977
447.55	35.967
447.91	35.991
448.26	36.816
448.61	35.371
448.96	36.246
449.31	35.626
449.66	35.947
450.02	35.512
450.37	36.058
450.72	35.311
451.07	36.581
451.42	34.634
451.77	36.744
452.12	35.280
452.47	35.390
452.83	36.401
453.18	35.547
453.53	36.256
453.88	36.065
454.23	35.369
454.58	36.420
454.93	36.839
455.28	37.476
455.63	36.425
455.98	35.843
456.34	36.023
456.69	37.523
457.04	35.771
457.39	35.467
457.74	37.035
458.09	36.833
458.44	36.605
458.79	36.547
459.14	36.281
459.49	37.419
459.84	36.594
460.19	36.337
460.54	36.600
460.89	36.155
461.24	36.005
461.59	37.515
461.94	36.601
462.29	37.582
462.64	36.693
462.99	36.546
463.34	36.935
463.69	36.323
464.04	36.204
464.39	36.022
464.74	36.820
465.09	36.621
465.44	36.605
465.79	36.435
466.14	37.227
466.49	36.269
466.84	37.275
467.19	37.531
467.54	35.316
467.89	36.005
468.24	38.124
468.59	37.227
468.94	36.592
469.29	36.452
469.64	36.253
469.99	37.475
470.34	37.943
470.68	38.227
471.03	36.958
471.38	36.250
471.73	37.832
472.08	36.479
472.43	36.873
472.78	37.000
473.13	36.713
473.48	37.524
473.83	35.856
474.17	36.561
474.52	38.299
474.87	37.179
475.22	37.463
475.57	37.167
475.92	38.067
476.27	36.743
476.61	36.732
476.96	36.333
477.31	37.621
477.66	36.580
478.01	37.223
478.36	36.721
478.70	36.733
479.05	37.642
479.40	37.254
479.75	36.137
480.10	37.004
480.45	36.654
480.79	37.414
481.14	37.481
481.49	37.996
481.84	37.494
482.19	36.409
482.53	37.547
482.88	37.067
483.23	36.761
483.58	37.419
483.92	37.697
484.27	36.952
484.62	35.940
484.97	37.568
485.31	35.648
485.66	35.236
486.01	35.147
486.36	36.435
486.70	37.880
487.05	36.950
487.40	36.512
487.75	35.879
488.09	36.813
488.44	36.942
488.79	36.151
489.13	37.505
489.48	37.969
489.83	36.987
490.17	36.308
490.52	37.681
490.87	36.952
491.22	36.945
491.56	37.824
491.91	37.405
492.26	35.943
492.60	36.727
492.95	37.458
493.30	37.542
493.64	37.424
493.99	37.285
494.34	38.143
494.68	38.436
495.03	36.472
495.37	36.922
495.72	37.181
496.07	37.306
496.41	37.656
496.76	37.808
497.11	37.306
497.45	37.261
497.80	38.169
498.14	37.377
498.49	37.167
498.84	37.670
499.18	37.914
499.53	38.042
499.87	37.066
500.22	37.745
500.56	37.819
500.91	37.537
501.26	38.234
501.60	37.747
501.95	38.213
502.29	36.608
502.64	37.482
502.98	37.470
503.33	37.641
503.67	36.925
504.02	37.180
504.36	37.304
504.71	38.450
505.06	37.344
505.40	37.725
505.75	38.618
506.09	38.372
506.44	37.794
506.78	37.582
507.13	37.487
507.47	39.176
507.82	38.255
508.16	38.964
508.51	38.228
508.85	38.095
509.19	36.630
509.54	37.315
509.88	37.766
510.23	38.522
510.57	38.466
510.92	38.668
511.26	37.214
511.61	37.635
511.95	37.823
512.30	38.483
512.64	37.730
512.98	38.504
513.33	37.727
513.67	37.688
514.02	38.367
514.36	38.172
514.70	38.483
515.05	38.422
515.39	38.062
515.74	38.162
516.08	38.098
516.42	37.847
516.77	38.648
517.11	38.673
517.46	39.055
517.80	39.110
518.14	37.500
518.49	37.478
518.83	38.872
519.17	37.596
519.52	38.288
519.86	39.008
520.20	37.836
520.55	37.846
520.89	37.195
521.23	37.973
521.58	38.621
521.92	37.999
522.26	38.857
522.61	38.213
522.95	37.396
523.29	38.558
523.64	37.477
523.98	38.765
524.32	38.152
524.66	37.329
525.01	38.921
525.35	39.433
525.69	37.736
526.04	38.381
526.38	38.383
526.72	38.250
527.06	38.932
527.41	38.482
527.75	37.360
528.09	39.444
528.43	38.033
528.78	37.940
529.12	38.988
529.46	37.629
529.80	38.154
530.15	38.571
530.49	37.840
530.83	39.555
531.17	37.778
531.51	37.441
531.86	38.249
532.20	38.462
532.54	37.233
532.88	38.011
533.22	38.904
533.57	38.903
533.91	37.890
534.25	37.461
534.59	36.977
534.93	36.403
535.27	38.200
535.62	38.235
535.96	37.880
536.30	37.304
536.64	38.313
536.98	38.912
537.32	38.424
537.66	38.018
538.01	38.007
538.35	38.514
538.69	37.233
539.03	37.441
539.37	37.325
539.71	38.159
540.05	38.794
540.39	38.850
540.73	38.148
541.07	39.003
541.42	37.610
541.76	36.545
542.10	37.677
542.44	37.175
542.78	36.703
543.12	38.764
543.46	36.164
543.80	37.926
544.14	37.408
544.48	37.402
544.82	38.633
545.16	37.693
545.50	37.416
545.84	37.900
546.18	37.795
546.52	38.620
546.86	37.322
547.20	38.819
547.54	36.433
547.88	37.890
548.22	36.697
548.56	36.807
548.90	38.005
549.24	37.772
549.58	36.415
549.92	37.597
550.26	37.861
550.60	37.482
550.94	37.518
551.28	37.998
551.62	37.740
551.96	37.120
552.30	37.213
552.64	37.087
552.98	38.542
553.32	37.734
553.66	36.482
554.00	37.811
554.34	37.978
554.68	37.792
555.02	36.397
555.36	37.168
555.69	37.034
556.03	37.053
556.37	38.122
556.71	37.652
557.05	38.137
557.39	36.897
557.73	36.689
558.07	37.830
558.41	36.425
558.75	36.806
559.08	36.109
559.42	37.136
559.76	37.730
560.10	36.987
560.44	38.295
560.78	37.161
561.12	36.784
561.45	37.123
561.79	35.889
562.13	37.658
562.47	36.485
562.81	38.119
563.15	36.739
563.48	37.802
563.82	37.525
564.16	36.241
564.50	38.038
564.84	37.037
565.17	36.074
565.51	37.875
565.85	38.472
566.19	36.364
566.52	37.769
566.86	37.231
567.20	37.833
567.54	37.626
567.88	36.460
568.21	36.857
568.55	37.063
568.89	36.481
569.23	35.076
569.56	35.771
569.90	36.231
570.24	35.964
570.57	35.290
570.91	35.804
571.25	35.603
571.59	35.467
571.92	34.940
572.26	35.201
572.60	35.371
572.93	34.964
573.27	34.360
573.61	34.729
573.95	34.859
574.28	34.801
574.62	35.613
574.96	34.671
575.29	34.502
575.63	35.121
575.97	34.493
576.30	33.790
576.64	34.700
576.98	34.685
577.31	34.565
577.65	35.294
577.98	34.856
578.32	34.456
578.66	34.955
578.99	35.037
579.33	35.092
579.67	34.492
580.00	35.045
580.34	34.785
580.67	34.665
581.01	34.186
581.35	34.505
581.68	34.084
582.02	35.084
582.35	34.353
582.69	34.977
583.02	35.190
583.36	34.962
583.70	35.074
584.03	35.587
584.37	35.101
584.70	34.814
585.04	35.013
585.37	34.200
585.71	34.736
586.04	35.005
586.38	34.723
586.72	34.555
587.05	34.976
587.39	34.581
587.72	34.829
588.06	35.076
588.39	35.004
588.73	35.063
589.06	35.038
589.40	35.417
589.73	35.871
590.07	35.069
590.40	34.760
590.73	35.706
591.07	36.148
591.40	35.962
591.74	34.535
592.07	35.721
592.41	34.989
592.74	35.511
593.08	34.363
593.41	35.099
593.75	34.191
594.08	35.011
594.41	35.786
594.75	34.881
595.08	35.188
595.42	35.910
595.75	35.502
596.09	35.390
596.42	35.843
596.75	34.886
597.09	35.040
597.42	35.618
597.75	35.208
598.09	35.563
598.42	35.307
598.76	35.133
599.09	34.451
599.42	34.218
599.76	34.730
600.09	35.038
600.42	34.827
600.76	35.480
601.09	35.169
601.42	34.072
601.76	35.202
602.09	35.337
602.42	34.115
602.76	34.857
603.09	35.202
603.42	35.214
603.76	35.181
604.09	35.362
604.42	34.555
604.76	35.238
605.09	34.629
605.42	34.796
605.75	35.317
606.09	34.745
606.42	34.855
606.75	35.079
607.09	35.333
607.42	34.683
607.75	34.437
608.08	34.930
608.42	34.721
608.75	34.019
609.08	35.314
609.41	34.579
609.75	34.812
610.08	35.833
610.41	35.614
610.74	35.106
611.07	35.446
611.41	34.291
611.74	35.321
612.07	35.124
612.40	34.808
612.73	35.380
613.07	35.058
613.40	35.577
613.73	35.095
614.06	35.805
614.39	36.697
614.72	33.575
615.06	35.109
615.39	34.021
615.72	35.959
616.05	35.008
616.38	34.939
616.71	34.595
617.05	35.585
617.38	35.418
617.71	33.968
618.04	35.404
618.37	35.283
618.70	35.789
619.03	33.785
619.36	35.518
619.69	35.104
620.03	33.815
620.36	34.810
620.69	34.817
621.02	34.018
621.35	34.597
621.68	35.574
622.01	36.003
622.34	35.404
622.67	34.922
623.00	35.042
623.33	36.045
623.66	35.155
623.99	35.489
624.32	35.119
624.65	35.982
624.99	35.474
625.32	35.105
625.65	35.664
625.98	35.133
626.31	34.910
626.64	35.146
626.97	34.846
627.30	35.234
627.63	34.283
627.96	34.726
628.29	35.018
628.62	35.912
628.95	35.039
629.28	35.244
629.61	35.231
629.94	35.350
630.26	37.276
630.59	36.985
630.92	34.835
631.25	35.988
631.58	36.085
631.91	35.000
632.24	36.222
632.57	35.333
632.90	36.782
633.23	34.579
633.56	34.854
633.89	35.967
634.22	37.426
634.55	34.856
634.88	35.429
635.20	35.081
635.53	35.623
635.86	34.635
636.19	34.799
636.52	34.050
636.85	34.898
637.18	33.875
637.51	37.670
637.83	35.153
638.16	36.579
638.49	36.966
638.82	34.106
639.15	36.576
639.48	33.722
639.81	36.100
640.13	34.730
640.46	37.607
640.79	35.574
641.12	35.402
641.45	33.716
641.77	36.228
642.10	36.707
642.43	35.812
642.76	33.701
643.09	35.556
643.41	35.397
643.74	37.838
644.07	38.222
644.40	36.953
644.73	36.304
645.05	36.728
645.38	36.589
645.71	38.488
646.04	36.975
646.36	34.555
646.69	37.370
647.02	34.477
647.35	36.462
647.67	37.226
648.00	33.392
648.33	37.774
648.66	31.613
648.98	38.057
649.31	35.385
649.64	35.625
649.96	34.694
650.29	33.770
650.62	37.005
650.94	36.425
651.27	36.222
651.60	33.910
651.92	35.445
652.25	33.556
652.58	33.049
652.90	34.189
653.23	35.806
653.56	34.783
653.88	33.115
654.21	35.235
654.54	36.545
654.86	33.387
655.19	34.814
655.52	33.485
655.84	31.580
656.17	34.193
656.49	46.404
656.82	48.776
657.15	37.362
657.47	27.438
657.80	21.063
658.13	24.236
658.45	32.554
658.78	33.066
659.10	33.250
659.43	32.578
659.75	33.163
660.08	33.542
660.41	31.410
660.73	33.773
661.06	34.348
661.38	37.321
661.71	34.990
662.03	37.500
662.36	33.475
662.68	35.443
663.01	33.121
663.33	34.921
663.66	36.910
663.98	34.598
664.31	33.781
664.63	36.283
664.96	32.755
665.28	32.755
665.61	34.672
665.93	32.922
666.26	33.603
666.58	33.472
666.91	32.739
667.23	32.237
667.56	34.240
667.88	36.199
668.21	33.410
668.53	33.178
668.86	33.949
669.18	34.932
669.50	34.579
669.83	35.036
670.15	31.839
670.48	35.280
670.80	34.396
671.13	30.248
671.45	31.757
671.77	32.548
672.10	31.755
672.42	33.210
672.75	33.636
673.07	30.991
673.39	31.876
673.72	33.465
674.04	33.758
674.37	33.402
674.69	32.992
675.01	32.979
675.34	29.284
675.66	35.421
675.98	32.599
676.31	34.163
676.63	29.885
676.95	32.965
677.28	32.483
677.60	33.937
677.92	34.361
678.25	29.759
678.57	32.510
678.89	32.495
679.22	33.333
679.54	34.714
679.86	32.600
680.18	32.700
680.51	29.236
680.83	30.286
681.15	32.177
681.48	35.497
681.80	34.073
682.12	30.986
682.44	30.059
682.77	30.736
683.09	33.543
683.41	34.735
683.73	27.397
684.06	31.183
684.38	29.079
684.70	31.893
685.02	32.283
685.34	30.604
685.67	29.545
685.99	31.569
686.31	32.136
686.63	30.496
686.96	32.532
687.28	30.829
687.60	31.250
687.92	28.016
688.24	31.102
688.56	28.858
688.89	29.915
689.21	32.823
689.53	31.724
689.85	30.958
690.17	28.700
690.49	33.025
690.82	30.361
691.14	32.311
691.46	30.820
691.78	32.379
692.10	33.475
692.42	28.667
692.74	31.116
693.06	35.281
693.39	29.978
693.71	32.731
694.03	31.965
694.35	26.185
694.67	32.861
694.99	25.320
695.31	33.418
695.63	27.551
695.95	30.521
696.27	31.172
696.59	30.749
696.91	31.742
697.23	29.427
697.56	28.846
697.88	31.081
698.20	27.409
698.52	29.372
698.84	31.553
699.16	27.381
699.48	32.250
699.80	27.318
700.12	31.486
700.44	25.978
700.76	28.280
701.08	29.651
701.40	29.909
701.72	30.864
702.04	31.731
702.36	31.627
702.68	26.347
703.00	27.536
703.32	26.361
703.64	32.059
703.96	28.779
704.28	32.840
704.60	28.165
704.91	27.937
705.23	29.450
705.55	27.703
705.87	27.304
706.19	26.042
706.51	27.083
706.83	32.131
707.15	25.478
707.47	28.650
707.79	28.093
708.11	26.718
708.43	30.673
708.74	26.753
709.06	26.462
709.38	29.023
709.70	33.437
710.02	33.129
710.34	28.713
710.66	25.714
710.98	28.076
711.29	25.806
711.61	28.435
711.93	20.000
712.25	28.904
712.57	27.875
712.89	32.374
713.20	28.866
713.52	23.507
713.84	28.826
714.16	28.852
714.48	27.302
714.80	26.462
715.11	24.784
715.43	32.229
715.75	28.349
716.07	26.230
716.39	27.425
716.70	26.481
717.02	31.111
717.34	29.771
717.66	29.461
717.97	26.639
718.29	31.092
718.61	28.175
718.93	27.957
719.24	26.838
719.56	24.528
719.88	29.818
720.20	24.345
720.51	28.571
720.83	24.498
721.15	27.869
721.46	32.941
721.78	26.820
722.10	27.600
722.42	26.860
722.73	26.693
723.05	30.924
723.37	25.490
723.68	23.482
724.00	32.927
724.32	27.160
724.63	25.311
724.95	29.752
725.27	21.491
725.58	26.724
725.90	26.190
726.22	28.782
726.53	23.954
726.85	25.490
727.16	27.068
727.48	29.231
727.80	28.689
728.11	21.849
728.43	30.579
728.74	26.172
729.06	28.788
729.38	23.735
729.69	24.016
730.01	25.591
730.32	23.904
730.64	25.641
730.96	30.597
731.27	26.786
731.59	24.759
731.90	22.393
732.22	23.313
732.53	29.801
732.85	23.826
733.16	25.362
733.48	26.132
733.80	22.776
734.11	22.069
734.43	24.830
734.74	25.223
735.06	25.705
735.37	21.101
735.69	23.871
736.00	21.212
736.32	25.497
736.63	21.724
736.95	25.362
737.26	27.152
737.58	24.460
737.89	29.391
738.21	21.053
738.52	29.231
738.83	23.437
739.15	23.077
739.46	23.790
739.78	27.273
740.09	22.378
740.41	24.476
740.72	25.182
741.04	23.810
741.35	22.944
741.66	25.926
741.98	22.857
742.29	21.596
742.61	18.717
742.92	25.701
743.23	24.123
743.55	25.225
743.86	28.444
744.18	27.619
744.49	28.571
744.80	23.858
745.12	25.258
745.43	26.131
745.74	26.214
746.06	20.976
746.37	26.872
746.68	22.886
747.00	28.272
747.31	23.558
747.62	22.581
747.94	20.524
748.25	23.721
748.56	22.381
748.88	19.022
749.19	23.474
749.50	25.490
749.82	21.333
750.13	30.396
750.44	24.797
750.75	24.400
751.07	27.500
751.38	21.771
751.69	19.084
752.01	24.231
752.32	24.125
752.63	18.846
752.94	21.825
753.26	20.000
753.57	26.339
753.88	19.828
754.19	19.917
754.51	20.703
754.82	20.553
755.13	23.457
755.44	24.380
755.75	21.399
756.07	19.679
756.38	21.484
756.69	28.520
757.00	21.951
757.31	21.812
757.63	27.414
757.94	20.520
758.25	20.640
758.56	27.224
758.87	22.727
759.18	20.667
759.50	23.132
759.81	21.533
760.12	19.932
760.43	24.272
760.74	22.500
761.05	24.438
761.36	27.246
761.67	24.556
761.99	23.226
762.30	23.188
762.61	21.132
762.92	23.767
763.23	23.697
763.54	27.556
763.85	28.270
764.16	21.224
764.47	29.237
764.78	24.719
765.10	24.460
765.41	20.645
765.72	27.358
766.03	16.961
766.34	21.429
766.65	16.599
766.96	25.500
767.27	18.750
767.58	25.581
767.89	14.839
768.20	30.061
768.51	21.858
768.82	18.919
769.13	22.000
769.44	23.684
769.75	24.242
770.06	21.101
770.37	22.066
770.68	29.167
770.99	22.772
771.30	21.845
771.61	21.759
771.92	19.913
772.23	19.159
772.54	22.872
772.85	20.118
773.16	26.220
773.47	18.675
773.78	29.670
774.09	13.333
774.39	12.963
774.70	21.477
775.01	12.319
775.32	18.657
775.63	13.223
775.94	16.541
776.25	21.429
776.56	30.328
776.87	22.124
777.18	27.434
777.48	6.364
777.79	17.391
778.10	19.266
778.41	19.492
778.72	12.397
779.03	26.119
779.34	16.541
779.65	18.954
779.95	21.739
780.26	21.088
780.57	10.345
780.88	19.444
781.19	20.202
781.50	18.400
781.80	18.301
782.11	14.103
782.42	15.663
782.73	5.839
783.04	23.649
783.34	18.939
783.65	15.504
783.96	21.138
784.27	27.350
784.57	21.138
784.88	17.073
785.19	21.930
785.50	-4.124
785.81	20.952
786.11	2.941
786.42	10.000
786.73	25.225
787.04	15.842
787.34	19.048
787.65	13.333
787.96	6.863
788.26	18.018
788.57	18.548
788.88	11.719
789.19	18.803
789.49	18.487
789.80	11.966
790.11	30.088
790.41	14.141
790.72	33.019
791.03	12.500
791.33	11.842
791.64	12.903
791.95	17.333
792.25	2.857
792.56	0.000
792.87	10.204
793.17	14.474
793.48	0.000
793.79	-5.634
794.09	11.392
794.40	12.766
794.70	16.822
795.01	0.877
795.32	6.364
795.62	17.857
795.93	14.433
796.23	-2.198
796.54	32.632
796.85	6.849
797.15	-1.389
797.46	8.219
797.76	21.127
798.07	8.750
798.37	19.118
798.68	15.714
798.99	15.714
799.29	17.105
799.60	16.667
799.90	9.722
800.21	4.688
800.51	9.524
800.82	16.393
801.12	0.000
801.43	1.408
801.73	-6.780
802.04	-3.279
802.34	-1.818
802.65	-11.538
802.95	20.370
803.26	-17.500
803.56	7.692
803.87	-10.526
804.17	17.742
804.48	-7.692
804.78	-17.949
805.09	16.279
805.39	-46.875
805.70	-20.755
806.00	24.561
806.30	28.378
806.61	2.941
806.91	14.815
807.22	12.000
807.52	14.925
807.83	8.065
808.13	-4.762
808.43	-12.727
808.74	12.121
809.04	15.094
809.35	21.918
809.65	26.316
809.95	7.353
810.26	5.882
810.56	-20.000
810.86	-8.163
811.17	-11.429
811.47	-9.615
811.77	-19.355
812.08	-28.947
812.38	16.667
812.69	-8.696
812.99	-12.903
813.29	-30.952
813.59	-51.852
813.90	-2.128
814.20	-16.279
814.50	22.917
814.81	11.667
815.11	4.878
815.41	0.000
815.72	20.000
816.02	-8.333
816.32	-5.128
816.62	0.000
816.93	-61.765
817.23	-19.565
817.53	-44.118
817.84	-11.765
818.14	-25.000
818.44	-37.931
818.74	-3.226
819.04	-70.370
819.35	0.000
819.65	-52.000
819.95	-26.667
820.25	-44.000
820.56	-23.684
820.86	-5.000
821.16	10.638
821.46	13.793
821.76	-38.462
822.07	-37.500
822.37	4.651
822.67	-50.000
822.97	-21.622
823.27	-5.405
823.57	0.000
823.88	8.108
824.18	-47.619
824.48	-26.923
824.78	-115.385
825.08	-39.130
825.38	-20.833
825.69	-20.833
825.99	-70.000
826.29	-29.730
826.59	-32.353
826.89	-28.000
827.19	-5.714
827.49	5.263
827.79	-21.875
828.09	-40.000
828.39	-43.478
828.70	-31.034
829.00	-48.276
829.30	0.000
829.60	0.000
829.90	-16.667
830.20	-26.923
830.50	-19.048
830.80	-60.714
831.10	-7.692
831.40	-95.238
831.70	-41.176
832.00	-16.667
832.30	-73.684
832.60	-43.750
832.90	-108.333
833.20	-76.471
833.50	-53.333
833.80	-100.000
834.10	-60.000
834.40	-16.667
834.70	-33.333
835.00	23.077
835.30	-54.167
835.60	27.586
835.90	-88.889
836.20	-154.545
836.50	-158.333
836.80	-31.429
837.10	-11.429
837.40	-70.588
837.70	-136.364
838.00	12.500
838.30	-12.500
838.60	-23.810
838.90	20.000
839.19	-34.783
839.49	-30.435
839.79	-122.222
840.09	-52.174
840.39	-18.182
840.69	-50.000
840.99	-73.684
841.29	-31.250
841.59	-57.143
841.88	-27.778
842.18	-54.167
842.48	-100.000
842.78	0.000
843.08	-107.143
843.38	-84.615
843.68	-244.444
843.97	-92.308
844.27	-163.636
844.57	-160.000
844.87	-44.000
845.17	-160.000
845.47	-28.571
845.76	-155.556
846.06	0.000
846.36	-475.000
846.66	-180.000
846.96	-42.105
847.25	-20.833
847.55	-133.333
847.85	-60.000
848.15	-150.000
848.44	15.385
848.74	-31.579
849.04	833.333
849.34	-133.333
849.63	-26.316
849.93	0.000
850.23	-60.000
850.53	-19.048
850.82	-16.000
851.12	-10.526
851.42	-700.000
851.71	28.571
852.01	-116.667
852.31	-41.176
852.61	-80.000
852.90	-85.714
853.20	-266.667
853.50	-66.667
853.79	-5.263
854.09	-80.000
854.39	-7.143
854.68	-52.174
854.98	-200.000
855.28	-13.793
855.57	-81.250
855.87	-55.000
856.17	-100.000
856.46	-20.690
856.76	-26.667
857.05	-47.059
857.35	-153.846
857.65	-145.455
857.94	7.407
858.24	-107.143
858.53	-71.429
858.83	-41.667
859.13	-311.111
859.42	9.524
859.72	-137.500
860.01	-633.333
860.31	-125.000
860.60	-320.000
860.90	-211.111
861.20	-175.000
861.49	-271.429
861.79	-35.294
862.08	-900.000
862.38	-175.000
862.67	-61.538
862.97	-5.882
863.26	-35.000
863.56	-52.941
863.85	633.333
864.15	-130.000
864.44	-138.462
864.74	-25.000
865.03	-150.000
865.33	-150.000
865.62	-64.706
865.92	-625.000
866.21	-150.000
866.51	-191.667
866.80	-1400.000
867.10	-600.000
867.39	-29.412
867.69	-8.696
867.98	-100.000
868.27	-520.000
868.57	-81.250
868.86	-118.182
869.16	-5.882
869.45	-216.667
869.75	-214.286
870.04	1600.000
870.33	-8.333
870.63	-20.000
870.92	-188.889
871.22	-66.667
871.51	-100.000
871.80	8.333
872.10	0.000
>>>>>End Processed Spectral Data<<<<<
