SpectraSuite Data File
++++++++++++++++++++++++++++++++++++
Date: Sat May 16 11:34:41 PDT 2015
User: schluterlab
Dark Spectrum Present: Yes
Reference Spectrum Present: Yes
Number of Sampled Component Spectra: 1
Spectrometers: USB2E3373
Integration Time (usec): 3000 (USB2E3373)
Spectra Averaged: 3 (USB2E3373)
Boxcar Smoothing: 0 (USB2E3373)
Correct for Electrical Dark: No (USB2E3373)
Strobe/Lamp Enabled: No (USB2E3373)
Correct for Detector Non-linearity: No (USB2E3373)
Correct for Stray Light: No (USB2E3373)
Number of Pixels in Processed Spectrum: 2048
>>>>>Begin Processed Spectral Data<<<<<
178.53	0.000
178.91	146.667
179.29	533.333
179.67	-500.000
180.04	-30.769
180.42	1100.000
180.80	325.000
181.18	175.000
181.56	-37.500
181.94	1400.000
182.31	750.000
182.69	-53.846
183.07	-400.000
183.45	1200.000
183.83	700.000
184.20	-185.714
184.58	-350.000
184.96	-525.000
185.34	137.500
185.72	-825.000
186.09	200.000
186.47	-300.000
186.85	-212.500
187.23	-25.000
187.61	-275.000
187.98	-350.000
188.36	-162.500
188.74	-125.000
189.12	1700.000
189.49	314.286
189.87	-100.000
190.25	475.000
190.63	14.286
191.00	-266.667
191.38	180.000
191.76	13.333
192.14	600.000
192.51	-480.000
192.89	-366.667
193.27	0.000
193.65	-133.333
194.02	-242.857
194.40	633.333
194.78	-140.000
195.15	-1700.000
195.53	-118.182
195.91	-350.000
196.29	120.000
196.66	-600.000
197.04	2100.000
197.42	-325.000
197.79	-60.000
198.17	-300.000
198.55	-550.000
198.92	-1100.000
199.30	312.500
199.68	-1100.000
200.05	-66.667
200.43	-177.778
200.81	-1100.000
201.18	-108.333
201.56	242.857
201.94	-40.000
202.31	22.727
202.69	30.000
203.07	-50.000
203.44	633.333
203.82	-350.000
204.19	-400.000
204.57	-100.000
204.95	-1500.000
205.32	-62.500
205.70	1300.000
206.08	-1500.000
206.45	-22.222
206.83	-700.000
207.20	-400.000
207.58	-1200.000
207.96	-500.000
208.33	-175.000
208.71	-177.778
209.08	210.000
209.46	-214.286
209.84	650.000
210.21	0.000
210.59	-30.000
210.96	1600.000
211.34	-300.000
211.71	-500.000
212.09	275.000
212.46	950.000
212.84	-2200.000
213.22	633.333
213.59	108.333
213.97	-11.111
214.34	180.000
214.72	-80.000
215.09	-300.000
215.47	-183.333
215.84	-40.000
216.22	-80.000
216.59	-66.667
216.97	-300.000
217.34	950.000
217.72	-114.286
218.09	-350.000
218.47	-271.429
218.84	285.714
219.22	-85.714
219.59	0.000
219.97	214.286
220.34	375.000
220.72	225.000
221.09	-30.769
221.47	0.000
221.84	266.667
222.22	-500.000
222.59	700.000
222.97	-162.500
223.34	-1050.000
223.72	-466.667
224.09	-78.571
224.46	-125.000
224.84	-85.714
225.21	-85.714
225.59	-118.182
225.96	-200.000
226.34	-57.143
226.71	-111.111
227.08	45.000
227.46	2700.000
227.83	-185.714
228.21	-200.000
228.58	550.000
228.95	-75.000
229.33	-1800.000
229.70	-320.000
230.08	-750.000
230.45	16.667
230.82	-133.333
231.20	-1300.000
231.57	-700.000
231.95	2500.000
232.32	23.810
232.69	-111.111
233.07	-242.857
233.44	-1750.000
233.81	-73.333
234.19	-177.778
234.56	-56.250
234.93	-12.500
235.31	-271.429
235.68	-164.286
236.05	-88.235
236.43	-68.182
236.80	-22.581
237.17	-45.833
237.55	-38.095
237.92	-136.364
238.29	-14.286
238.67	-55.882
239.04	-33.333
239.41	-32.258
239.79	-51.282
240.16	-28.571
240.53	-20.000
240.91	-2.564
241.28	-16.364
241.65	6.154
242.02	4.918
242.40	-26.230
242.77	-9.091
243.14	-30.508
243.51	-24.286
243.89	-21.519
244.26	-12.360
244.63	-10.526
245.00	-8.421
245.38	-4.237
245.75	-8.850
246.12	-10.400
246.49	-1.575
246.87	-16.260
247.24	-11.017
247.61	-18.644
247.98	-7.746
248.36	-2.797
248.73	-6.329
249.10	-13.376
249.47	-2.924
249.84	-3.409
250.22	-16.667
250.59	-3.955
250.96	-4.712
251.33	1.896
251.70	-3.365
252.08	-6.161
252.45	-4.265
252.82	-6.190
253.19	0.426
253.56	-3.226
253.94	-2.110
254.31	-6.438
254.68	-3.252
255.05	-4.839
255.42	1.190
255.79	-4.301
256.16	0.000
256.54	0.368
256.91	-5.303
257.28	-4.762
257.65	-7.092
258.02	3.774
258.39	-4.348
258.76	-5.068
259.14	-0.926
259.51	-1.311
259.88	-0.915
260.25	0.932
260.62	-2.572
260.99	-3.561
261.36	2.439
261.73	0.289
262.10	0.556
262.47	-3.419
262.85	0.571
263.22	-0.860
263.59	-2.769
263.96	-1.739
264.33	3.252
264.70	0.276
265.07	-1.099
265.44	-1.034
265.81	-1.292
266.18	-3.038
266.55	-0.245
266.92	0.756
267.29	0.969
267.66	0.988
268.03	0.000
268.40	1.408
268.77	-1.446
269.14	0.232
269.51	0.690
269.88	-2.064
270.25	-3.497
270.62	-1.602
270.99	-1.126
271.36	0.466
271.73	-0.448
272.10	-1.373
272.47	-1.556
272.84	1.111
273.21	-1.835
273.58	-0.440
273.95	-2.851
274.32	-1.810
274.69	2.188
275.06	0.409
275.43	-2.455
275.80	1.222
276.17	0.418
276.54	0.204
276.91	-1.235
277.28	-1.826
277.65	0.413
278.02	-1.044
278.39	0.589
278.76	-1.195
279.13	0.198
279.50	0.994
279.87	-0.211
280.23	-0.202
280.60	0.398
280.97	-1.553
281.34	-1.354
281.71	1.346
282.08	-0.605
282.45	-3.259
282.82	-0.194
283.19	0.182
283.56	0.183
283.92	1.060
284.29	-0.372
284.66	0.719
285.03	0.000
285.40	1.107
285.77	-0.702
286.14	-0.542
286.51	1.066
286.87	0.363
287.24	-0.341
287.61	2.314
287.98	-1.040
288.35	-0.496
288.72	0.849
289.08	-1.186
289.45	1.010
289.82	-0.346
290.19	0.164
290.56	-0.331
290.93	0.477
291.29	0.324
291.66	0.322
292.03	2.669
292.40	2.711
292.77	0.776
293.13	0.325
293.50	1.337
293.87	0.000
294.24	1.961
294.60	0.909
294.97	2.124
295.34	1.037
295.71	0.298
296.08	0.768
296.44	1.431
296.81	0.997
297.18	0.986
297.55	0.706
297.91	1.674
298.28	-0.274
298.65	1.395
299.02	4.144
299.38	1.604
299.75	2.174
300.12	2.179
300.48	2.046
300.85	1.311
301.22	3.493
301.59	2.471
301.95	4.030
302.32	0.261
302.69	2.326
303.05	2.808
303.42	1.750
303.79	2.273
304.15	2.014
304.52	2.100
304.89	2.834
305.25	1.465
305.62	3.173
305.99	4.711
306.35	3.774
306.72	2.847
307.09	4.427
307.45	3.519
307.82	3.352
308.19	3.691
308.55	3.813
308.92	3.330
309.29	3.243
309.65	3.287
310.02	4.104
310.38	3.459
310.75	5.225
311.12	4.855
311.48	4.593
311.85	4.222
312.22	6.591
312.58	6.409
312.95	4.995
313.31	5.395
313.68	6.734
314.05	5.836
314.41	6.237
314.78	5.195
315.14	6.318
315.51	5.978
315.87	7.164
316.24	6.122
316.61	8.061
316.97	7.861
317.34	7.611
317.70	5.937
318.07	7.743
318.43	7.491
318.80	8.920
319.16	7.129
319.53	9.117
319.89	8.561
320.26	8.627
320.62	8.654
320.99	8.955
321.35	8.276
321.72	8.802
322.08	11.375
322.45	7.822
322.81	10.759
323.18	10.759
323.54	9.704
323.91	12.326
324.27	11.502
324.64	10.512
325.00	11.344
325.37	11.855
325.73	13.998
326.10	12.666
326.46	13.660
326.83	14.043
327.19	13.928
327.56	15.588
327.92	15.548
328.29	14.892
328.65	14.909
329.01	16.696
329.38	16.592
329.74	19.414
330.11	16.682
330.47	17.257
330.84	17.415
331.20	17.509
331.56	18.323
331.93	18.739
332.29	19.452
332.66	18.262
333.02	18.009
333.38	18.369
333.75	20.214
334.11	17.600
334.48	18.888
334.84	20.385
335.20	20.301
335.57	19.675
335.93	20.680
336.29	20.018
336.66	18.502
337.02	19.550
337.38	19.162
337.75	19.930
338.11	19.410
338.47	20.552
338.84	20.054
339.20	19.332
339.56	20.321
339.93	19.136
340.29	18.778
340.65	19.930
341.02	19.646
341.38	19.966
341.74	19.475
342.11	19.369
342.47	19.485
342.83	19.144
343.20	19.129
343.56	19.265
343.92	19.699
344.28	19.512
344.65	19.472
345.01	19.076
345.37	20.183
345.73	18.822
346.10	18.234
346.46	19.578
346.82	17.883
347.19	18.735
347.55	19.904
347.91	18.425
348.27	19.093
348.63	19.628
349.00	19.730
349.36	19.048
349.72	20.541
350.08	20.209
350.45	19.149
350.81	20.143
351.17	20.016
351.53	18.218
351.89	17.947
352.26	18.140
352.62	19.585
352.98	19.937
353.34	19.904
353.70	18.533
354.07	19.827
354.43	19.289
354.79	19.731
355.15	18.530
355.51	18.984
355.87	19.368
356.24	19.222
356.60	20.790
356.96	19.246
357.32	18.844
357.68	19.387
358.04	19.015
358.40	19.490
358.77	19.784
359.13	19.663
359.49	20.030
359.85	19.970
360.21	19.482
360.57	19.654
360.93	20.519
361.29	19.880
361.66	19.360
362.02	20.562
362.38	20.029
362.74	20.147
363.10	19.154
363.46	21.296
363.82	20.044
364.18	21.346
364.54	21.873
364.90	19.916
365.26	19.686
365.62	21.311
365.98	20.626
366.35	20.704
366.71	19.732
367.07	21.665
367.43	21.345
367.79	21.443
368.15	20.341
368.51	21.538
368.87	22.184
369.23	21.053
369.59	22.292
369.95	20.860
370.31	22.293
370.67	20.969
371.03	21.647
371.39	21.499
371.75	22.031
372.11	22.095
372.47	22.632
372.83	23.296
373.19	22.429
373.55	22.871
373.91	22.262
374.27	22.998
374.63	23.395
374.99	23.574
375.35	23.217
375.71	23.768
376.07	24.025
376.42	22.848
376.78	23.922
377.14	24.339
377.50	25.145
377.86	24.122
378.22	23.430
378.58	24.212
378.94	25.031
379.30	24.924
379.66	24.712
380.02	24.896
380.38	25.559
380.74	24.853
381.09	25.308
381.45	25.835
381.81	25.892
382.17	26.128
382.53	25.836
382.89	25.658
383.25	26.972
383.61	26.002
383.97	26.944
384.32	26.909
384.68	27.690
385.04	26.872
385.40	27.389
385.76	27.561
386.12	27.483
386.48	28.094
386.83	27.853
387.19	27.316
387.55	28.225
387.91	28.216
388.27	27.201
388.62	27.945
388.98	28.165
389.34	28.091
389.70	28.928
390.06	28.216
390.42	28.590
390.77	28.328
391.13	29.565
391.49	28.447
391.85	29.302
392.20	28.034
392.56	27.917
392.92	29.549
393.28	29.621
393.64	30.307
393.99	29.231
394.35	28.954
394.71	28.660
395.07	30.257
395.42	28.605
395.78	29.290
396.14	30.467
396.50	29.908
396.85	29.858
397.21	30.194
397.57	29.301
397.92	30.855
398.28	31.111
398.64	29.804
399.00	30.562
399.35	29.538
399.71	30.778
400.07	31.522
400.42	31.752
400.78	29.636
401.14	30.958
401.49	31.781
401.85	31.727
402.21	31.287
402.57	30.400
402.92	32.284
403.28	30.515
403.63	29.718
403.99	31.510
404.35	31.099
404.70	30.486
405.06	30.277
405.42	30.750
405.77	30.373
406.13	31.346
406.49	31.216
406.84	31.614
407.20	31.390
407.55	31.096
407.91	30.311
408.27	30.576
408.62	31.870
408.98	31.352
409.34	31.871
409.69	31.569
410.05	31.656
410.40	32.311
410.76	31.417
411.11	31.983
411.47	31.458
411.83	32.213
412.18	31.559
412.54	30.995
412.89	32.017
413.25	31.523
413.60	31.531
413.96	31.177
414.31	32.171
414.67	31.111
415.03	31.695
415.38	32.466
415.74	32.990
416.09	33.696
416.45	32.275
416.80	32.575
417.16	32.625
417.51	32.699
417.87	32.945
418.22	33.312
418.58	33.440
418.93	33.660
419.29	33.501
419.64	32.349
420.00	34.204
420.35	33.294
420.71	34.274
421.06	33.609
421.42	32.787
421.77	34.003
422.12	33.688
422.48	33.993
422.83	32.916
423.19	34.410
423.54	34.524
423.90	34.066
424.25	33.767
424.61	36.068
424.96	35.693
425.31	35.495
425.67	36.103
426.02	34.079
426.38	35.632
426.73	35.301
427.09	35.600
427.44	36.648
427.79	36.395
428.15	36.625
428.50	35.777
428.85	35.671
429.21	35.141
429.56	36.250
429.92	36.172
430.27	35.942
430.62	37.095
430.98	36.278
431.33	35.966
431.68	36.944
432.04	36.598
432.39	37.151
432.74	36.751
433.10	37.648
433.45	36.960
433.80	37.458
434.16	37.131
434.51	37.753
434.86	38.371
435.22	37.249
435.57	37.760
435.92	37.925
436.28	37.864
436.63	38.327
436.98	37.973
437.34	38.571
437.69	38.565
438.04	38.514
438.39	38.568
438.75	37.602
439.10	38.590
439.45	38.745
439.81	39.036
440.16	37.649
440.51	39.471
440.86	38.346
441.22	38.474
441.57	39.053
441.92	39.028
442.27	38.853
442.63	39.700
442.98	38.544
443.33	38.880
443.68	39.083
444.03	38.703
444.39	38.571
444.74	40.639
445.09	39.912
445.44	40.180
445.79	39.470
446.15	39.650
446.50	40.555
446.85	39.815
447.20	39.990
447.55	40.166
447.91	40.707
448.26	40.000
448.61	40.011
448.96	39.944
449.31	41.206
449.66	41.214
450.02	40.665
450.37	40.812
450.72	40.904
451.07	41.232
451.42	40.830
451.77	41.472
452.12	41.657
452.47	41.058
452.83	39.953
453.18	40.228
453.53	41.045
453.88	42.344
454.23	40.326
454.58	41.330
454.93	41.058
455.28	41.300
455.63	42.199
455.98	42.410
456.34	42.186
456.69	42.714
457.04	42.041
457.39	41.268
457.74	41.819
458.09	42.111
458.44	42.610
458.79	41.928
459.14	42.156
459.49	42.333
459.84	41.990
460.19	42.124
460.54	41.379
460.89	41.760
461.24	41.712
461.59	41.325
461.94	42.075
462.29	41.811
462.64	42.292
462.99	43.842
463.34	42.201
463.69	42.112
464.04	42.414
464.39	41.756
464.74	41.903
465.09	41.792
465.44	42.245
465.79	41.963
466.14	42.923
466.49	43.178
466.84	42.737
467.19	43.204
467.54	42.152
467.89	42.047
468.24	42.577
468.59	43.036
468.94	42.379
469.29	42.690
469.64	43.666
469.99	43.889
470.34	43.821
470.68	43.387
471.03	43.359
471.38	42.847
471.73	44.196
472.08	44.177
472.43	42.793
472.78	44.400
473.13	43.009
473.48	43.778
473.83	45.161
474.17	43.694
474.52	45.013
474.87	43.531
475.22	43.127
475.57	43.111
475.92	44.006
476.27	42.914
476.61	43.606
476.96	42.929
477.31	44.726
477.66	44.826
478.01	44.192
478.36	43.478
478.70	44.154
479.05	44.997
479.40	44.093
479.75	44.495
480.10	42.857
480.45	42.892
480.79	44.126
481.14	44.606
481.49	44.676
481.84	43.366
482.19	43.170
482.53	44.460
482.88	42.667
483.23	44.085
483.58	44.820
483.92	44.099
484.27	42.889
484.62	43.326
484.97	43.258
485.31	41.504
485.66	40.463
486.01	40.956
486.36	42.493
486.70	43.159
487.05	42.496
487.40	43.136
487.75	42.055
488.09	42.742
488.44	42.558
488.79	42.908
489.13	42.678
489.48	44.127
489.83	43.755
490.17	44.188
490.52	44.928
490.87	42.956
491.22	43.671
491.56	43.380
491.91	44.466
492.26	43.255
492.60	43.530
492.95	43.646
493.30	43.211
493.64	43.253
493.99	44.503
494.34	43.762
494.68	45.365
495.03	43.738
495.37	44.789
495.72	44.745
496.07	44.721
496.41	44.975
496.76	43.653
497.11	45.596
497.45	43.774
497.80	46.073
498.14	44.990
498.49	45.605
498.84	44.612
499.18	44.396
499.53	44.131
499.87	44.498
500.22	46.078
500.56	44.322
500.91	44.631
501.26	44.541
501.60	44.343
501.95	45.072
502.29	44.261
502.64	43.894
502.98	44.849
503.33	43.844
503.67	44.109
504.02	44.713
504.36	44.755
504.71	44.630
505.06	44.184
505.40	45.160
505.75	45.376
506.09	45.147
506.44	45.013
506.78	45.710
507.13	44.542
507.47	45.175
507.82	44.605
508.16	45.440
508.51	45.183
508.85	45.859
509.19	45.892
509.54	45.613
509.88	45.957
510.23	44.287
510.57	45.238
510.92	47.315
511.26	45.720
511.61	45.302
511.95	46.821
512.30	46.069
512.64	45.799
512.98	46.370
513.33	46.403
513.67	46.510
514.02	46.532
514.36	45.762
514.70	46.972
515.05	46.026
515.39	46.194
515.74	47.935
516.08	46.744
516.42	45.326
516.77	47.834
517.11	46.911
517.46	47.907
517.80	48.436
518.14	46.981
518.49	47.161
518.83	47.062
519.17	47.128
519.52	46.212
519.86	47.969
520.20	49.205
520.55	49.169
520.89	47.464
521.23	46.825
521.58	48.903
521.92	48.638
522.26	48.063
522.61	48.099
522.95	48.245
523.29	48.276
523.64	48.282
523.98	48.950
524.32	46.952
524.66	48.385
525.01	47.592
525.35	48.840
525.69	48.211
526.04	47.389
526.38	48.568
526.72	48.404
527.06	49.219
527.41	48.713
527.75	48.251
528.09	49.636
528.43	48.131
528.78	48.430
529.12	48.912
529.46	48.582
529.80	48.289
530.15	48.358
530.49	47.995
530.83	49.705
531.17	49.428
531.51	48.895
531.86	47.795
532.20	49.528
532.54	48.396
532.88	47.497
533.22	48.930
533.57	48.499
533.91	48.439
534.25	47.454
534.59	47.408
534.93	47.791
535.27	48.962
535.62	49.233
535.96	48.610
536.30	48.037
536.64	48.074
536.98	49.718
537.32	47.754
537.66	48.133
538.01	48.729
538.35	48.851
538.69	47.527
539.03	49.154
539.37	48.436
539.71	47.632
540.05	48.938
540.39	48.476
540.73	48.376
541.07	49.180
541.42	46.725
541.76	47.907
542.10	49.291
542.44	47.435
542.78	47.965
543.12	48.608
543.46	48.425
543.80	46.622
544.14	48.019
544.48	48.425
544.82	47.835
545.16	48.424
545.50	46.837
545.84	47.705
546.18	47.087
546.52	48.151
546.86	46.937
547.20	50.070
547.54	47.107
547.88	46.981
548.22	45.544
548.56	47.695
548.90	48.720
549.24	48.633
549.58	46.789
549.92	47.915
550.26	49.061
550.60	46.799
550.94	48.540
551.28	49.511
551.62	47.932
551.96	48.263
552.30	48.362
552.64	47.502
552.98	48.563
553.32	48.846
553.66	48.810
554.00	48.117
554.34	46.498
554.68	47.076
555.02	47.685
555.36	47.879
555.69	47.278
556.03	47.930
556.37	48.009
556.71	47.674
557.05	49.224
557.39	47.884
557.73	49.161
558.07	49.058
558.41	48.990
558.75	48.365
559.08	47.626
559.42	48.315
559.76	49.923
560.10	49.292
560.44	47.905
560.78	48.782
561.12	48.102
561.45	47.671
561.79	48.571
562.13	47.055
562.47	48.529
562.81	46.818
563.15	47.026
563.48	47.478
563.82	48.411
564.16	48.276
564.50	47.043
564.84	46.958
565.17	47.613
565.51	47.327
565.85	47.262
566.19	47.826
566.52	47.162
566.86	46.587
567.20	48.002
567.54	48.139
567.88	46.287
568.21	46.253
568.55	46.182
568.89	44.980
569.23	44.516
569.56	44.515
569.90	44.453
570.24	45.359
570.57	43.515
570.91	42.673
571.25	44.358
571.59	43.272
571.92	42.827
572.26	42.960
572.60	43.159
572.93	42.273
573.27	41.829
573.61	42.329
573.95	42.230
574.28	41.533
574.62	42.298
574.96	41.301
575.29	41.845
575.63	41.731
575.97	41.667
576.30	41.792
576.64	41.723
576.98	41.130
577.31	41.812
577.65	41.579
577.98	41.769
578.32	41.360
578.66	41.786
578.99	42.130
579.33	41.874
579.67	41.948
580.00	41.964
580.34	42.074
580.67	42.707
581.01	41.522
581.35	41.805
581.68	40.802
582.02	41.821
582.35	41.171
582.69	42.202
583.02	42.175
583.36	41.921
583.70	41.321
584.03	41.999
584.37	42.165
584.70	41.792
585.04	41.367
585.37	40.859
585.71	41.413
586.04	41.667
586.38	41.967
586.72	41.939
587.05	42.254
587.39	41.683
587.72	41.996
588.06	42.393
588.39	42.125
588.73	42.607
589.06	42.583
589.40	44.109
589.73	43.059
590.07	41.770
590.40	42.546
590.73	43.543
591.07	43.811
591.40	42.981
591.74	43.831
592.07	43.784
592.41	43.482
592.74	42.890
593.08	42.465
593.41	42.039
593.75	42.005
594.08	42.703
594.41	42.884
594.75	42.922
595.08	42.331
595.42	42.847
595.75	42.337
596.09	44.005
596.42	43.453
596.75	43.122
597.09	43.811
597.42	43.213
597.75	43.844
598.09	43.154
598.42	42.863
598.76	42.774
599.09	41.752
599.42	42.099
599.76	42.242
600.09	43.435
600.42	42.765
600.76	43.013
601.09	42.765
601.42	42.738
601.76	42.679
602.09	43.272
602.42	42.757
602.76	41.961
603.09	42.581
603.42	43.110
603.76	42.920
604.09	41.770
604.42	42.714
604.76	42.782
605.09	43.490
605.42	43.085
605.75	43.424
606.09	42.590
606.42	42.815
606.75	42.937
607.09	42.126
607.42	42.958
607.75	43.400
608.08	43.651
608.42	43.945
608.75	42.850
609.08	43.643
609.41	42.651
609.75	42.467
610.08	43.922
610.41	42.410
610.74	44.197
611.07	43.560
611.41	42.713
611.74	43.959
612.07	44.415
612.40	42.964
612.73	43.080
613.07	43.974
613.40	44.992
613.73	44.469
614.06	43.383
614.39	44.025
614.72	43.743
615.06	43.641
615.39	43.190
615.72	43.672
616.05	42.849
616.38	43.993
616.71	43.724
617.05	45.235
617.38	44.458
617.71	44.717
618.04	44.161
618.37	45.157
618.70	46.023
619.03	44.347
619.36	46.441
619.69	45.800
620.03	44.284
620.36	45.359
620.69	46.949
621.02	45.282
621.35	44.677
621.68	45.410
622.01	44.822
622.34	45.264
622.67	45.781
623.00	46.060
623.33	45.746
623.66	45.199
623.99	44.135
624.32	44.792
624.65	45.254
624.99	46.229
625.32	44.311
625.65	46.931
625.98	45.149
626.31	46.819
626.64	46.527
626.97	47.432
627.30	45.957
627.63	44.905
627.96	48.042
628.29	47.702
628.62	47.087
628.95	49.213
629.28	46.241
629.61	46.909
629.94	47.921
630.26	47.018
630.59	47.236
630.92	46.346
631.25	48.589
631.58	46.772
631.91	46.489
632.24	47.111
632.57	48.667
632.90	48.966
633.23	48.248
633.56	46.433
633.89	48.113
634.22	48.288
634.55	48.317
634.88	48.005
635.20	48.689
635.53	49.491
635.86	48.237
636.19	48.352
636.52	46.714
636.85	47.774
637.18	47.750
637.51	49.195
637.83	48.868
638.16	48.684
638.49	50.759
638.82	48.005
639.15	49.676
639.48	48.119
639.81	49.378
640.13	48.108
640.46	48.575
640.79	48.880
641.12	49.506
641.45	48.924
641.77	48.802
642.10	50.000
642.43	48.710
642.76	49.606
643.09	46.984
643.41	49.683
643.74	50.238
644.07	49.766
644.40	48.622
644.73	49.175
645.05	49.917
645.38	50.662
645.71	50.859
646.04	50.252
646.36	52.182
646.69	48.270
647.02	51.444
647.35	51.625
647.67	49.818
648.00	50.615
648.33	51.096
648.66	47.097
648.98	50.637
649.31	50.923
649.64	48.906
649.96	48.195
650.29	47.541
650.62	50.947
650.94	47.723
651.27	50.260
651.60	49.135
651.92	50.856
652.25	48.080
652.58	48.893
652.90	46.870
653.23	49.839
653.56	47.993
653.88	48.525
654.21	51.342
654.54	50.000
654.86	47.673
655.19	45.989
655.52	43.386
655.84	39.638
656.17	42.392
656.49	57.765
656.82	59.014
657.15	44.650
657.47	32.626
657.80	25.704
658.13	28.993
658.45	39.023
658.78	38.360
659.10	37.484
659.43	37.569
659.75	36.900
660.08	38.490
660.41	38.276
660.73	43.124
661.06	44.638
661.38	49.821
661.71	47.036
662.03	49.395
662.36	50.959
662.68	49.789
663.01	50.955
663.33	51.927
663.66	51.502
663.98	47.991
664.31	50.559
664.63	48.894
664.96	48.373
665.28	51.410
665.61	48.414
665.93	49.588
666.26	47.976
666.58	48.649
666.91	50.111
667.23	52.851
667.56	49.887
667.88	51.810
668.21	50.230
668.53	49.065
668.86	52.887
669.18	48.630
669.50	49.065
669.83	51.338
670.15	49.552
670.48	47.664
670.80	47.836
671.13	49.887
671.45	49.099
671.77	47.752
672.10	51.085
672.42	46.679
672.75	48.909
673.07	45.586
673.39	45.719
673.72	48.819
674.04	45.860
674.37	47.010
674.69	48.156
675.01	47.447
675.34	46.638
675.66	49.892
675.98	48.678
676.31	53.394
676.63	50.345
676.95	46.681
677.28	48.492
677.60	49.548
677.92	51.101
678.25	50.109
678.57	49.794
678.89	46.751
679.22	46.751
679.54	50.296
679.86	45.200
680.18	47.529
680.51	45.438
680.83	46.667
681.15	45.857
681.48	47.465
681.80	45.968
682.12	45.473
682.44	43.418
682.77	44.589
683.09	46.122
683.41	48.894
683.73	45.662
684.06	47.527
684.38	46.862
684.70	45.885
685.02	45.276
685.34	45.029
685.67	46.023
685.99	45.180
686.31	44.704
686.63	43.794
686.96	41.220
687.28	45.087
687.60	46.094
687.92	43.191
688.24	45.276
688.56	41.082
688.89	42.308
689.21	49.234
689.53	48.736
689.85	46.548
690.17	46.413
690.49	45.035
690.82	46.988
691.14	45.047
691.46	45.898
691.78	45.374
692.10	47.458
692.42	45.333
692.74	44.635
693.06	44.719
693.39	43.400
693.71	45.598
694.03	45.356
694.35	43.567
694.67	46.099
694.99	46.547
695.31	45.408
695.63	45.153
695.95	45.409
696.27	50.125
696.59	47.326
696.91	50.000
697.23	47.917
697.56	45.433
697.88	42.568
698.20	43.041
698.52	41.928
698.84	46.845
699.16	44.048
699.48	44.500
699.80	45.113
700.12	45.088
700.44	44.413
700.76	45.481
701.08	46.221
701.40	41.994
701.72	46.605
702.04	50.962
702.36	44.277
702.68	43.114
703.00	46.087
703.32	46.132
703.64	46.765
703.96	47.093
704.28	48.521
704.60	47.785
704.91	46.984
705.23	49.838
705.55	45.270
705.87	45.734
706.19	41.319
706.51	42.708
706.83	47.541
707.15	47.771
707.47	45.730
707.79	47.680
708.11	39.949
708.43	45.137
708.74	43.377
709.06	43.454
709.38	44.253
709.70	43.750
710.02	47.853
710.34	47.195
710.66	41.905
710.98	46.372
711.29	43.548
711.61	43.770
711.93	43.934
712.25	46.512
712.57	42.160
712.89	50.719
713.20	47.423
713.52	43.657
713.84	45.552
714.16	44.590
714.48	42.222
714.80	40.000
715.11	43.228
715.43	44.277
715.75	44.548
716.07	43.607
716.39	41.806
716.70	45.645
717.02	42.963
717.34	41.603
717.66	49.378
717.97	45.082
718.29	44.538
718.61	51.984
718.93	42.294
719.24	39.338
719.56	40.000
719.88	43.636
720.20	38.951
720.51	45.489
720.83	44.980
721.15	46.721
721.46	40.000
721.78	44.061
722.10	47.200
722.42	42.149
722.73	43.028
723.05	46.185
723.37	44.314
723.68	38.057
724.00	45.935
724.32	44.444
724.63	43.568
724.95	45.455
725.27	39.474
725.58	46.121
725.90	43.651
726.22	48.708
726.53	46.388
726.85	36.078
727.16	42.857
727.48	42.692
727.80	41.393
728.11	42.857
728.43	43.802
728.74	41.797
729.06	44.318
729.38	39.300
729.69	42.913
730.01	46.850
730.32	41.036
730.64	43.590
730.96	44.403
731.27	41.429
731.59	42.444
731.90	39.571
732.22	39.877
732.53	43.377
732.85	39.262
733.16	39.855
733.48	40.418
733.80	39.858
734.11	42.414
734.43	40.476
734.74	40.653
735.06	39.185
735.37	40.367
735.69	39.355
736.00	39.057
736.32	41.391
736.63	37.241
736.95	40.217
737.26	41.722
737.58	42.446
737.89	41.935
738.21	39.474
738.52	44.231
738.83	39.844
739.15	38.462
739.46	43.952
739.78	41.259
740.09	37.063
740.41	39.510
740.72	47.445
741.04	34.524
741.35	38.961
741.66	39.352
741.98	38.095
742.29	42.723
742.61	42.781
742.92	44.860
743.23	34.649
743.55	36.937
743.86	45.778
744.18	42.381
744.49	43.842
744.80	39.594
745.12	47.938
745.43	42.211
745.74	43.689
746.06	39.512
746.37	45.815
746.68	40.299
747.00	45.550
747.31	37.500
747.62	40.092
747.94	41.048
748.25	46.047
748.56	43.810
748.88	34.239
749.19	46.009
749.50	45.098
749.82	44.444
750.13	45.815
750.44	43.089
750.75	38.400
751.07	42.857
751.38	38.376
751.69	32.824
752.01	39.231
752.32	36.187
752.63	37.308
752.94	35.317
753.26	37.391
753.57	38.393
753.88	34.052
754.19	37.344
754.51	35.547
754.82	41.107
755.13	43.621
755.44	39.256
755.75	39.918
756.07	36.546
756.38	35.937
756.69	40.072
757.00	37.282
757.31	36.577
757.63	42.056
757.94	39.884
758.25	37.500
758.56	42.318
758.87	35.511
759.18	37.000
759.50	39.146
759.81	38.321
760.12	34.459
760.43	37.540
760.74	42.812
761.05	39.045
761.36	38.623
761.67	36.982
761.99	32.581
762.30	40.580
762.61	37.358
762.92	38.117
763.23	37.441
763.54	43.556
763.85	39.662
764.16	36.327
764.47	37.712
764.78	39.326
765.10	39.568
765.41	35.806
765.72	38.994
766.03	32.862
766.34	37.970
766.65	37.247
766.96	34.500
767.27	41.667
767.58	39.535
767.89	45.161
768.20	46.626
768.51	42.623
768.82	45.405
769.13	38.500
769.44	35.965
769.75	37.662
770.06	39.908
770.37	35.211
770.68	43.750
770.99	37.624
771.30	35.437
771.61	39.352
771.92	33.333
772.23	39.252
772.54	37.766
772.85	37.870
773.16	42.073
773.47	43.373
773.78	43.956
774.09	32.000
774.39	39.506
774.70	42.953
775.01	36.957
775.32	41.791
775.63	33.884
775.94	34.586
776.25	44.286
776.56	37.705
776.87	38.053
777.18	39.823
777.48	31.818
777.79	25.217
778.10	25.688
778.41	36.441
778.72	42.149
779.03	38.060
779.34	42.105
779.65	33.333
779.95	42.754
780.26	29.932
780.57	31.034
780.88	36.111
781.19	31.313
781.50	32.000
781.80	37.255
782.11	37.821
782.42	35.542
782.73	29.927
783.04	37.838
783.34	34.848
783.65	38.760
783.96	42.276
784.27	32.479
784.57	36.585
784.88	27.642
785.19	32.456
785.50	19.588
785.81	37.143
786.11	31.373
786.42	28.182
786.73	44.144
787.04	37.624
787.34	23.810
787.65	31.429
787.96	30.392
788.26	43.243
788.57	41.129
788.88	35.156
789.19	33.333
789.49	31.933
789.80	24.786
790.11	30.973
790.41	28.283
790.72	33.019
791.03	33.333
791.33	30.263
791.64	37.634
791.95	29.333
792.25	24.286
792.56	39.024
792.87	23.469
793.17	21.053
793.48	12.162
793.79	22.535
794.09	25.316
794.40	39.362
794.70	49.533
795.01	22.807
795.32	35.455
795.62	24.107
795.93	32.990
796.23	18.681
796.54	35.789
796.85	17.808
797.15	2.778
797.46	27.397
797.76	40.845
798.07	50.000
798.37	22.059
798.68	35.714
798.99	31.429
799.29	46.053
799.60	18.333
799.90	27.778
800.21	14.063
800.51	34.921
800.82	36.066
801.12	26.316
801.43	30.986
801.73	0.000
802.04	29.508
802.34	20.000
802.65	17.308
802.95	24.074
803.26	30.000
803.56	30.769
803.87	0.000
804.17	17.742
804.48	30.769
804.78	20.513
805.09	37.209
805.39	3.125
805.70	11.321
806.00	38.596
806.30	45.946
806.61	22.059
806.91	20.988
807.22	40.000
807.52	14.925
807.83	33.871
808.13	14.286
808.43	12.727
808.74	27.273
809.04	13.208
809.35	17.808
809.65	19.298
809.95	27.941
810.26	15.686
810.56	0.000
810.86	14.286
811.17	-5.714
811.47	21.154
811.77	35.484
812.08	-31.579
812.38	30.952
812.69	10.870
812.99	25.806
813.29	11.905
813.59	-7.407
813.90	36.170
814.20	11.628
814.50	14.583
814.81	8.333
815.11	0.000
815.41	20.000
815.72	14.286
816.02	8.333
816.32	38.462
816.62	18.919
816.93	-47.059
817.23	23.913
817.53	35.294
817.84	29.412
818.14	-15.625
818.44	-17.241
818.74	-3.226
819.04	33.333
819.35	10.000
819.65	-20.000
819.95	10.000
820.25	0.000
820.56	28.947
820.86	5.000
821.16	12.766
821.46	8.621
821.76	-23.077
822.07	-5.000
822.37	13.953
822.67	-30.000
822.97	-16.216
823.27	27.027
823.57	48.000
823.88	24.324
824.18	-4.762
824.48	3.846
824.78	-76.923
825.08	-8.696
825.38	20.833
825.69	8.333
825.99	-15.000
826.29	-18.919
826.59	0.000
826.89	24.000
827.19	11.429
827.49	18.421
827.79	-18.750
828.09	6.667
828.39	0.000
828.70	-37.931
829.00	13.793
829.30	5.556
829.60	21.875
829.90	-11.111
830.20	-30.769
830.50	-38.095
830.80	-14.286
831.10	17.949
831.40	-28.571
831.70	-11.765
832.00	4.167
832.30	-26.316
832.60	-6.250
832.90	-91.667
833.20	-70.588
833.50	-33.333
833.80	-93.333
834.10	-50.000
834.40	-25.000
834.70	-33.333
835.00	11.538
835.30	-16.667
835.60	10.345
835.90	-33.333
836.20	-145.455
836.50	-41.667
836.80	22.857
837.10	28.571
837.40	17.647
837.70	-54.545
838.00	0.000
838.30	-50.000
838.60	-28.571
838.90	25.000
839.19	-60.870
839.49	4.348
839.79	-72.222
840.09	-17.391
840.39	-4.545
840.69	-100.000
840.99	-26.316
841.29	-68.750
841.59	-100.000
841.88	-38.889
842.18	0.000
842.48	-70.588
842.78	-20.690
843.08	-14.286
843.38	-84.615
843.68	-144.444
843.97	-84.615
844.27	-109.091
844.57	-80.000
844.87	-8.000
845.17	-140.000
845.47	7.143
845.76	-100.000
846.06	0.000
846.36	-400.000
846.66	-50.000
846.96	-26.316
847.25	-29.167
847.55	-66.667
847.85	33.333
848.15	-80.000
848.44	30.769
848.74	-63.158
849.04	733.333
849.34	-122.222
849.63	15.789
849.93	0.000
850.23	-75.000
850.53	-14.286
850.82	-16.000
851.12	0.000
851.42	-500.000
851.71	-78.571
852.01	-50.000
852.31	-82.353
852.61	-66.667
852.90	-90.476
853.20	-150.000
853.50	-44.444
853.79	-42.105
854.09	-86.667
854.39	14.286
854.68	4.348
854.98	-158.333
855.28	0.000
855.57	-31.250
855.87	-35.000
856.17	-40.000
856.46	-13.793
856.76	-60.000
857.05	-17.647
857.35	-107.692
857.65	-100.000
857.94	-25.926
858.24	-28.571
858.53	-64.286
858.83	-41.667
859.13	-88.889
859.42	4.762
859.72	-100.000
860.01	-333.333
860.31	-62.500
860.60	-220.000
860.90	-111.111
861.20	-200.000
861.49	-300.000
861.79	-41.176
862.08	-500.000
862.38	-116.667
862.67	-46.154
862.97	-47.059
863.26	55.000
863.56	-64.706
863.85	333.333
864.15	-190.000
864.44	-92.308
864.74	-60.000
865.03	-150.000
865.33	-216.667
865.62	-100.000
865.92	-425.000
866.21	-128.571
866.51	-125.000
866.80	-400.000
867.10	-366.667
867.39	-52.941
867.69	17.391
867.98	-71.429
868.27	-500.000
868.57	-43.750
868.86	-136.364
869.16	-5.882
869.45	-33.333
869.75	-128.571
870.04	1100.000
870.33	-8.333
870.63	-220.000
870.92	-177.778
871.22	-75.000
871.51	-136.364
871.80	-25.000
872.10	-80.000
>>>>>End Processed Spectral Data<<<<<
