SpectraSuite Data File
++++++++++++++++++++++++++++++++++++
Date: Sat May 16 11:16:06 PDT 2015
User: schluterlab
Dark Spectrum Present: Yes
Reference Spectrum Present: Yes
Number of Sampled Component Spectra: 1
Spectrometers: USB2E3373
Integration Time (usec): 3000 (USB2E3373)
Spectra Averaged: 3 (USB2E3373)
Boxcar Smoothing: 0 (USB2E3373)
Correct for Electrical Dark: No (USB2E3373)
Strobe/Lamp Enabled: No (USB2E3373)
Correct for Detector Non-linearity: No (USB2E3373)
Correct for Stray Light: No (USB2E3373)
Number of Pixels in Processed Spectrum: 2048
>>>>>Begin Processed Spectral Data<<<<<
178.53	0.000
178.91	113.333
179.29	-33.333
179.67	200.000
180.04	-53.846
180.42	700.000
180.80	225.000
181.18	375.000
181.56	-50.000
181.94	500.000
182.31	75.000
182.69	-30.769
183.07	-533.333
183.45	1050.000
183.83	233.333
184.20	-200.000
184.58	-112.500
184.96	-275.000
185.34	75.000
185.72	-75.000
186.09	233.333
186.47	-175.000
186.85	-125.000
187.23	50.000
187.61	-125.000
187.98	-250.000
188.36	-62.500
188.74	-75.000
189.12	1300.000
189.49	242.857
189.87	-8.333
190.25	425.000
190.63	42.857
191.00	-55.556
191.38	180.000
191.76	60.000
192.14	400.000
192.51	-100.000
192.89	-266.667
193.27	0.000
193.65	-122.222
194.02	-28.571
194.40	233.333
194.78	50.000
195.15	-200.000
195.53	-63.636
195.91	-416.667
196.29	220.000
196.66	-33.333
197.04	1300.000
197.42	0.000
197.79	40.000
198.17	233.333
198.55	-300.000
198.92	-800.000
199.30	225.000
199.68	-500.000
200.05	-244.444
200.43	-66.667
200.81	-1300.000
201.18	-58.333
201.56	157.143
201.94	13.333
202.31	36.364
202.69	120.000
203.07	-50.000
203.44	533.333
203.82	-216.667
204.19	-225.000
204.57	50.000
204.95	-600.000
205.32	-18.750
205.70	200.000
206.08	-1100.000
206.45	22.222
206.83	-600.000
207.20	250.000
207.58	-433.333
207.96	-100.000
208.33	-75.000
208.71	22.222
209.08	150.000
209.46	-85.714
209.84	450.000
210.21	0.000
210.59	35.000
210.96	600.000
211.34	-150.000
211.71	-133.333
212.09	300.000
212.46	550.000
212.84	-1300.000
213.22	66.667
213.59	66.667
213.97	88.889
214.34	110.000
214.72	-10.000
215.09	-166.667
215.47	-50.000
215.84	-40.000
216.22	-80.000
216.59	6.667
216.97	-350.000
217.34	900.000
217.72	0.000
218.09	-183.333
218.47	-185.714
218.84	200.000
219.22	-28.571
219.59	0.000
219.97	14.286
220.34	100.000
220.72	137.500
221.09	-46.154
221.47	0.000
221.84	366.667
222.22	-200.000
222.59	800.000
222.97	-150.000
223.34	100.000
223.72	-233.333
224.09	35.714
224.46	-225.000
224.84	-50.000
225.21	-100.000
225.59	-54.545
225.96	-125.000
226.34	14.286
226.71	33.333
227.08	30.000
227.46	400.000
227.83	-71.429
228.21	-125.000
228.58	-150.000
228.95	-25.000
229.33	-900.000
229.70	100.000
230.08	-850.000
230.45	66.667
230.82	-66.667
231.20	-200.000
231.57	50.000
231.95	200.000
232.32	14.286
232.69	-11.111
233.07	-85.714
233.44	-550.000
233.81	-40.000
234.19	-44.444
234.56	25.000
234.93	21.875
235.31	-185.714
235.68	-78.571
236.05	-52.941
236.43	-4.545
236.80	38.710
237.17	4.167
237.55	42.857
237.92	-40.909
238.29	-8.571
238.67	35.294
239.04	19.444
239.41	-3.226
239.79	-12.821
240.16	0.000
240.53	-5.455
240.91	35.897
241.28	23.636
241.65	30.769
242.02	1.639
242.40	22.951
242.77	18.182
243.14	22.034
243.51	32.857
243.89	13.924
244.26	23.596
244.63	25.263
245.00	35.789
245.38	18.644
245.75	33.628
246.12	23.200
246.49	22.047
246.87	20.325
247.24	20.339
247.61	22.034
247.98	21.831
248.36	21.678
248.73	27.215
249.10	21.019
249.47	24.561
249.84	23.295
250.22	19.048
250.59	28.249
250.96	27.225
251.33	28.910
251.70	21.635
252.08	22.749
252.45	23.697
252.82	26.667
253.19	24.255
253.56	26.210
253.94	26.582
254.31	23.176
254.68	29.268
255.05	27.823
255.42	23.810
255.79	25.448
256.16	25.490
256.54	23.162
256.91	27.273
257.28	23.077
257.65	28.014
258.02	30.189
258.39	23.077
258.76	20.270
259.14	25.000
259.51	22.623
259.88	24.390
260.25	26.398
260.62	26.688
260.99	24.629
261.36	27.134
261.73	26.301
262.10	25.000
262.47	24.501
262.85	28.857
263.22	23.496
263.59	21.538
263.96	28.696
264.33	27.100
264.70	25.414
265.07	26.648
265.44	26.098
265.81	24.548
266.18	27.848
266.55	23.775
266.92	26.196
267.29	23.971
267.66	25.926
268.03	27.536
268.40	26.526
268.77	24.578
269.14	24.594
269.51	22.759
269.88	20.872
270.25	22.378
270.62	22.426
270.99	25.000
271.36	27.739
271.73	23.991
272.10	26.545
272.47	26.444
272.84	27.333
273.21	27.294
273.58	27.033
273.95	26.535
274.32	25.113
274.69	28.884
275.06	25.153
275.43	22.321
275.80	27.291
276.17	26.360
276.54	28.106
276.91	27.366
277.28	24.138
277.65	23.140
278.02	27.140
278.39	23.772
278.76	25.498
279.13	23.123
279.50	23.857
279.87	25.159
280.23	25.506
280.60	25.050
280.97	23.689
281.34	24.178
281.71	25.000
282.08	25.806
282.45	21.181
282.82	25.581
283.19	25.273
283.56	27.656
283.92	24.558
284.29	25.836
284.66	24.640
285.03	24.599
285.40	23.801
285.77	24.912
286.14	23.466
286.51	23.446
286.87	23.412
287.24	25.768
287.61	22.645
287.98	25.477
288.35	20.992
288.72	22.920
289.08	23.559
289.45	22.896
289.82	24.048
290.19	25.780
290.56	22.479
290.93	23.052
291.29	21.880
291.66	22.222
292.03	22.135
292.40	23.042
292.77	22.050
293.13	23.252
293.50	24.814
293.87	21.933
294.24	21.569
294.60	21.061
294.97	23.065
295.34	20.741
295.71	20.536
296.08	21.813
296.44	20.458
296.81	22.222
297.18	20.704
297.55	21.469
297.91	23.013
298.28	20.959
298.65	20.921
299.02	20.989
299.38	20.053
299.75	19.429
300.12	21.282
300.48	20.205
300.85	20.052
301.22	20.310
301.59	19.246
301.95	21.662
302.32	19.817
302.69	20.808
303.05	20.147
303.42	19.000
303.79	22.967
304.15	21.564
304.52	20.070
304.89	21.015
305.25	20.879
305.62	20.212
305.99	20.141
306.35	21.310
306.72	19.590
307.09	21.339
307.45	19.750
307.82	19.441
308.19	20.582
308.55	20.806
308.92	20.193
309.29	20.757
309.65	20.148
310.02	21.490
310.38	20.757
310.75	20.389
311.12	22.314
311.48	22.025
311.85	21.215
312.22	21.833
312.58	23.093
312.95	21.611
313.31	21.678
313.68	22.714
314.05	24.530
314.41	22.837
314.78	22.877
315.14	23.692
315.51	22.492
315.87	24.879
316.24	23.810
316.61	25.528
316.97	24.776
317.34	24.085
317.70	25.325
318.07	25.746
318.43	24.064
318.80	26.948
319.16	25.985
319.53	26.692
319.89	25.776
320.26	25.980
320.62	26.154
320.99	26.965
321.35	25.911
321.72	29.273
322.08	29.080
322.45	29.208
322.81	29.587
323.18	30.548
323.54	30.499
323.91	30.399
324.27	33.080
324.64	31.444
325.00	30.716
325.37	33.484
325.73	32.633
326.10	31.709
326.46	33.450
326.83	34.128
327.19	33.862
327.56	35.860
327.92	35.769
328.29	36.017
328.65	36.364
329.01	35.689
329.38	35.682
329.74	37.454
330.11	38.622
330.47	37.239
330.84	39.505
331.20	39.170
331.56	39.015
331.93	39.254
332.29	39.817
332.66	38.718
333.02	39.548
333.38	39.427
333.75	40.784
334.11	40.178
334.48	39.453
334.84	41.907
335.20	40.426
335.57	39.982
335.93	42.167
336.29	39.947
336.66	41.586
337.02	40.901
337.38	40.998
337.75	41.264
338.11	41.234
338.47	42.349
338.84	42.105
339.20	41.740
339.56	41.533
339.93	41.799
340.29	41.187
340.65	42.045
341.02	41.906
341.38	41.112
341.74	42.252
342.11	41.297
342.47	41.803
342.83	41.142
343.20	42.186
343.56	41.306
343.92	43.072
344.28	43.398
344.65	41.254
345.01	42.521
345.37	43.605
345.73	42.062
346.10	41.455
346.46	41.998
346.82	42.101
347.19	42.564
347.55	41.493
347.91	43.150
348.27	41.846
348.63	43.457
349.00	43.516
349.36	40.906
349.72	45.382
350.08	42.261
350.45	42.002
350.81	43.710
351.17	42.685
351.53	41.687
351.89	43.250
352.26	43.023
352.62	43.779
352.98	43.117
353.34	44.365
353.70	41.622
354.07	44.375
354.43	44.980
354.79	42.948
355.15	43.450
355.51	41.094
355.87	43.399
356.24	44.241
356.60	44.480
356.96	44.727
357.32	43.151
357.68	43.908
358.04	43.033
358.40	44.238
358.77	43.509
359.13	44.223
359.49	44.671
359.85	43.979
360.21	45.586
360.57	45.105
360.93	44.889
361.29	45.815
361.66	44.436
362.02	45.414
362.38	43.654
362.74	45.275
363.10	45.768
363.46	46.083
363.82	44.971
364.18	46.889
364.54	46.962
364.90	45.353
365.26	45.150
365.62	46.115
365.98	47.013
366.35	47.606
366.71	44.609
367.07	44.954
367.43	47.289
367.79	46.942
368.15	46.657
368.51	47.343
368.87	48.283
369.23	46.947
369.59	47.014
369.95	47.569
370.31	47.820
370.67	47.505
371.03	47.303
371.39	48.091
371.75	48.069
372.11	49.354
372.47	48.084
372.83	48.122
373.19	49.857
373.55	48.346
373.91	48.151
374.27	48.460
374.63	47.826
374.99	49.791
375.35	48.520
375.71	49.156
376.07	50.513
376.42	48.609
376.78	49.869
377.14	50.847
377.50	50.613
377.86	50.195
378.22	50.942
378.58	51.081
378.94	52.343
379.30	50.152
379.66	50.941
380.02	51.456
380.38	51.843
380.74	51.231
381.09	50.732
381.45	52.506
381.81	51.543
382.17	52.694
382.53	51.854
382.89	51.077
383.25	52.679
383.61	52.653
383.97	53.399
384.32	52.753
384.68	53.990
385.04	53.744
385.40	54.047
385.76	53.232
386.12	54.029
386.48	54.146
386.83	54.233
387.19	55.828
387.55	55.724
387.91	54.772
388.27	55.187
388.62	54.507
388.98	55.239
389.34	54.590
389.70	56.151
390.06	56.370
390.42	57.756
390.77	56.341
391.13	57.329
391.49	56.269
391.85	58.728
392.20	56.068
392.56	55.467
392.92	56.874
393.28	58.037
393.64	58.028
393.99	58.338
394.35	57.482
394.71	57.690
395.07	59.196
395.42	56.555
395.78	57.637
396.14	58.692
396.50	58.777
396.85	60.086
397.21	58.931
397.57	59.149
397.92	58.841
398.28	59.389
398.64	59.369
399.00	59.663
399.35	59.470
399.71	60.105
400.07	60.060
400.42	61.375
400.78	59.630
401.14	60.419
401.49	59.847
401.85	60.952
402.21	59.952
402.57	61.104
402.92	62.177
403.28	61.458
403.63	59.676
403.99	62.275
404.35	61.473
404.70	61.556
405.06	61.822
405.42	61.070
405.77	60.464
406.13	62.181
406.49	63.451
406.84	62.388
407.20	62.544
407.55	63.205
407.91	61.528
408.27	62.929
408.62	63.079
408.98	63.372
409.34	63.071
409.69	61.878
410.05	63.190
410.40	63.765
410.76	63.308
411.11	63.840
411.47	63.171
411.83	63.936
412.18	64.233
412.54	63.819
412.89	65.674
413.25	63.577
413.60	63.913
413.96	64.510
414.31	65.382
414.67	64.952
415.03	65.847
415.38	65.582
415.74	65.915
416.09	65.153
416.45	66.204
416.80	65.540
417.16	66.379
417.51	66.382
417.87	67.508
418.22	67.193
418.58	67.202
418.93	67.382
419.29	67.001
419.64	67.839
420.00	67.922
420.35	67.357
420.71	68.968
421.06	67.633
421.42	67.564
421.77	67.839
422.12	70.062
422.48	68.520
422.83	66.800
423.19	68.430
423.54	69.452
423.90	68.999
424.25	68.156
424.61	70.024
424.96	71.211
425.31	69.983
425.67	70.315
426.02	69.593
426.38	70.236
426.73	71.303
427.09	72.917
427.44	70.284
427.79	70.523
428.15	72.651
428.50	71.789
428.85	72.242
429.21	71.887
429.56	72.188
429.92	70.741
430.27	72.183
430.62	72.727
430.98	71.458
431.33	74.760
431.68	74.102
432.04	74.314
432.39	74.530
432.74	74.041
433.10	74.676
433.45	73.057
433.80	74.804
434.16	73.348
434.51	74.795
434.86	74.985
435.22	74.610
435.57	74.480
435.92	74.853
436.28	76.380
436.63	75.579
436.98	74.112
437.34	74.129
437.69	73.979
438.04	75.610
438.39	75.150
438.75	74.680
439.10	75.347
439.45	75.196
439.81	75.422
440.16	75.128
440.51	78.235
440.86	75.940
441.22	76.783
441.57	75.211
441.92	76.777
442.27	75.703
442.63	77.146
442.98	76.354
443.33	76.167
443.68	76.342
444.03	76.621
444.39	76.211
444.74	78.414
445.09	77.961
445.44	76.533
445.79	77.817
446.15	77.273
446.50	76.701
446.85	76.142
447.20	75.945
447.55	77.238
447.91	78.495
448.26	76.760
448.61	77.646
448.96	78.768
449.31	77.790
449.66	76.703
450.02	76.343
450.37	77.797
450.72	76.949
451.07	80.138
451.42	77.076
451.77	78.396
452.12	78.188
452.47	77.330
452.83	78.858
453.18	78.874
453.53	77.425
453.88	80.263
454.23	77.993
454.58	79.366
454.93	78.212
455.28	80.115
455.63	79.730
455.98	79.759
456.34	78.272
456.69	80.175
457.04	77.873
457.39	79.306
457.74	78.145
458.09	78.248
458.44	79.099
458.79	79.989
459.14	79.635
459.49	78.567
459.84	77.459
460.19	78.878
460.54	77.677
460.89	80.437
461.24	80.267
461.59	78.019
461.94	80.395
462.29	78.142
462.64	80.105
462.99	78.581
463.34	78.123
463.69	80.916
464.04	77.387
464.39	77.479
464.74	77.541
465.09	77.330
465.44	78.737
465.79	78.962
466.14	80.265
466.49	78.814
466.84	79.832
467.19	78.990
467.54	78.544
467.89	79.223
468.24	79.691
468.59	79.700
468.94	79.678
469.29	78.622
469.64	79.111
469.99	79.473
470.34	79.225
470.68	80.959
471.03	81.005
471.38	78.889
471.73	80.699
472.08	80.054
472.43	79.215
472.78	80.067
473.13	79.920
473.48	78.494
473.83	80.211
474.17	77.962
474.52	79.987
474.87	77.914
475.22	77.758
475.57	79.444
475.92	79.212
476.27	77.886
476.61	78.930
476.96	78.591
477.31	79.548
477.66	78.639
478.01	78.174
478.36	78.208
478.70	79.605
479.05	78.908
479.40	79.119
479.75	77.829
480.10	78.274
480.45	77.805
480.79	79.023
481.14	79.328
481.49	79.671
481.84	77.161
482.19	77.661
482.53	78.835
482.88	77.836
483.23	77.418
483.58	77.752
483.92	78.643
484.27	76.518
484.62	77.322
484.97	77.163
485.31	74.304
485.66	71.733
486.01	72.629
486.36	74.171
486.70	76.500
487.05	76.089
487.40	75.801
487.75	75.604
488.09	76.436
488.44	77.977
488.79	77.255
489.13	78.357
489.48	77.896
489.83	77.773
490.17	77.449
490.52	76.857
490.87	78.291
491.22	78.094
491.56	76.481
491.91	78.292
492.26	76.840
492.60	78.735
492.95	77.201
493.30	76.751
493.64	76.634
493.99	76.530
494.34	77.714
494.68	78.324
495.03	77.868
495.37	78.269
495.72	77.112
496.07	76.725
496.41	76.702
496.76	76.849
497.11	77.956
497.45	77.347
497.80	77.739
498.14	77.701
498.49	79.106
498.84	76.311
499.18	78.265
499.53	77.642
499.87	77.847
500.22	77.157
500.56	77.239
500.91	78.079
501.26	77.487
501.60	77.179
501.95	78.261
502.29	75.295
502.64	76.190
502.98	76.521
503.33	76.081
503.67	75.239
504.02	76.002
504.36	76.029
504.71	76.798
505.06	76.485
505.40	78.194
505.75	76.321
506.09	76.744
506.44	76.992
506.78	76.116
507.13	76.880
507.47	77.152
507.82	76.871
508.16	77.979
508.51	77.280
508.85	76.812
509.19	76.818
509.54	76.744
509.88	77.340
510.23	76.101
510.57	75.926
510.92	77.658
511.26	76.555
511.61	76.188
511.95	77.532
512.30	78.175
512.64	77.073
512.98	76.513
513.33	77.595
513.67	77.331
514.02	75.671
514.36	76.510
514.70	77.929
515.05	77.301
515.39	77.278
515.74	78.360
516.08	77.867
516.42	75.864
516.77	78.047
517.11	77.231
517.46	79.486
517.80	78.761
518.14	77.959
518.49	77.884
518.83	77.626
519.17	77.620
519.52	75.882
519.86	79.809
520.20	79.951
520.55	77.231
520.89	78.773
521.23	76.801
521.58	78.746
521.92	78.214
522.26	78.794
522.61	77.757
522.95	77.601
523.29	77.680
523.64	77.452
523.98	78.167
524.32	78.504
524.66	75.901
525.01	76.879
525.35	78.866
525.69	77.749
526.04	78.655
526.38	78.867
526.72	77.586
527.06	79.036
527.41	78.944
527.75	77.096
528.09	79.087
528.43	76.656
528.78	76.382
529.12	78.745
529.46	77.899
529.80	77.921
530.15	77.399
530.49	77.749
530.83	79.371
531.17	78.384
531.51	78.098
531.86	76.761
532.20	77.193
532.54	78.409
532.88	76.746
533.22	79.880
533.57	77.415
533.91	76.030
534.25	77.310
534.59	75.265
534.93	76.229
535.27	76.337
535.62	78.197
535.96	76.665
536.30	76.178
536.64	76.760
536.98	80.650
537.32	78.438
537.66	77.461
538.01	78.694
538.35	77.973
538.69	77.072
539.03	76.236
539.37	76.713
539.71	76.184
540.05	77.930
540.39	78.324
540.73	77.609
541.07	76.708
541.42	76.367
541.76	76.412
542.10	78.393
542.44	75.949
542.78	76.934
543.12	78.276
543.46	75.068
543.80	75.385
544.14	75.823
544.48	77.034
544.82	77.876
545.16	76.190
545.50	75.841
545.84	74.200
546.18	76.907
546.52	78.307
546.86	78.063
547.20	77.496
547.54	75.413
547.88	76.178
548.22	75.098
548.56	76.754
548.90	76.415
549.24	75.683
549.58	75.018
549.92	76.254
550.26	78.251
550.60	74.822
550.94	77.226
551.28	77.728
551.62	77.326
551.96	76.700
552.30	75.749
552.64	76.425
552.98	76.244
553.32	77.417
553.66	77.145
554.00	75.835
554.34	75.668
554.68	77.120
555.02	76.339
555.36	75.845
555.69	76.074
556.03	75.439
556.37	76.600
556.71	76.807
557.05	76.497
557.39	76.986
557.73	77.170
558.07	77.016
558.41	76.664
558.75	77.795
559.08	76.420
559.42	76.034
559.76	77.301
560.10	78.747
560.44	75.939
560.78	76.340
561.12	75.845
561.45	76.575
561.79	75.749
562.13	74.825
562.47	75.910
562.81	75.389
563.15	75.577
563.48	75.121
563.82	75.997
564.16	76.606
564.50	75.739
564.84	73.942
565.17	75.597
565.51	76.467
565.85	77.755
566.19	74.506
566.52	75.082
566.86	74.589
567.20	74.879
567.54	75.724
567.88	73.423
568.21	74.888
568.55	74.019
568.89	72.217
569.23	71.726
569.56	70.534
569.90	71.361
570.24	72.266
570.57	69.736
570.91	70.486
571.25	70.006
571.59	68.686
571.92	68.125
572.26	68.933
572.60	69.376
572.93	69.340
573.27	69.238
573.61	68.139
573.95	69.452
574.28	67.659
574.62	68.048
574.96	67.722
575.29	68.750
575.63	68.304
575.97	68.770
576.30	68.293
576.64	68.799
576.98	67.878
577.31	68.462
577.65	68.016
577.98	68.051
578.32	69.059
578.66	68.340
578.99	69.358
579.33	68.299
579.67	68.755
580.00	68.031
580.34	69.765
580.67	69.453
581.01	67.253
581.35	68.946
581.68	67.595
582.02	67.946
582.35	67.177
582.69	68.726
583.02	69.076
583.36	68.970
583.70	68.792
584.03	70.555
584.37	70.744
584.70	69.839
585.04	69.190
585.37	67.900
585.71	68.070
586.04	68.668
586.38	68.698
586.72	68.348
587.05	69.244
587.39	68.834
587.72	68.728
588.06	69.354
588.39	69.211
588.73	70.157
589.06	70.524
589.40	71.384
589.73	69.370
590.07	70.357
590.40	69.410
590.73	70.852
591.07	71.352
591.40	72.877
591.74	70.678
592.07	73.514
592.41	71.338
592.74	70.945
593.08	69.276
593.41	69.046
593.75	68.975
594.08	71.603
594.41	70.499
594.75	69.838
595.08	70.752
595.42	70.376
595.75	70.195
596.09	70.858
596.42	72.340
596.75	72.661
597.09	71.995
597.42	71.803
597.75	71.789
598.09	70.764
598.42	70.658
598.76	70.183
599.09	70.403
599.42	70.012
599.76	70.744
600.09	71.489
600.42	70.338
600.76	70.621
601.09	70.262
601.42	70.795
601.76	70.950
602.09	70.716
602.42	70.947
602.76	71.251
603.09	72.056
603.42	70.709
603.76	71.600
604.09	70.284
604.42	69.942
604.76	71.173
605.09	71.609
605.42	70.479
605.75	70.677
606.09	70.320
606.42	70.884
606.75	69.257
607.09	71.681
607.42	70.158
607.75	71.214
608.08	71.080
608.42	73.179
608.75	69.860
609.08	71.408
609.41	72.446
609.75	70.063
610.08	72.353
610.41	72.867
610.74	72.727
611.07	72.211
611.41	70.701
611.74	71.825
612.07	72.556
612.40	72.388
612.73	71.190
613.07	71.602
613.40	73.454
613.73	73.188
614.06	71.774
614.39	74.408
614.72	72.067
615.06	70.870
615.39	71.677
615.72	73.058
616.05	72.225
616.38	72.490
616.71	73.874
617.05	72.859
617.38	73.498
617.71	73.956
618.04	72.609
618.37	74.214
618.70	75.880
619.03	73.731
619.36	74.700
619.69	74.587
620.03	74.105
620.36	75.668
620.69	74.946
621.02	77.549
621.35	77.258
621.68	77.131
622.01	77.023
622.34	75.078
622.67	76.719
623.00	75.440
623.33	74.776
623.66	74.446
623.99	74.586
624.32	75.744
624.65	74.246
624.99	75.653
625.32	74.401
625.65	75.758
625.98	74.804
626.31	76.101
626.64	76.151
626.97	76.541
627.30	76.170
627.63	75.561
627.96	76.762
628.29	78.493
628.62	78.415
628.95	79.921
629.28	76.034
629.61	78.018
629.94	78.922
630.26	80.716
630.59	80.804
630.92	78.378
631.25	79.536
631.58	81.058
631.91	79.362
632.24	82.111
632.57	80.556
632.90	82.644
633.23	82.477
633.56	80.234
633.89	81.250
634.22	80.165
634.55	81.851
634.88	81.499
635.20	80.524
635.53	80.280
635.86	81.864
636.19	81.807
636.52	77.300
636.85	78.580
637.18	81.250
637.51	83.271
637.83	83.222
638.16	81.579
638.49	85.931
638.82	81.210
639.15	84.047
639.48	78.859
639.81	83.817
640.13	82.027
640.46	86.325
640.79	84.034
641.12	81.382
641.45	82.496
641.77	83.084
642.10	83.686
642.43	83.005
642.76	83.780
643.09	85.238
643.41	87.143
643.74	86.328
644.07	81.591
644.40	84.279
644.73	87.129
645.05	84.307
645.38	85.596
645.71	89.863
646.04	87.227
646.36	87.260
646.69	88.235
647.02	86.643
647.35	85.018
647.67	85.766
648.00	86.819
648.33	85.160
648.66	82.581
648.98	84.395
649.31	83.077
649.64	85.469
649.96	83.987
650.29	84.918
650.62	86.403
650.94	84.823
651.27	84.922
651.60	83.910
651.92	85.616
652.25	84.975
652.58	85.520
652.90	82.504
653.23	82.581
653.56	85.953
653.88	82.623
654.21	85.906
654.54	83.389
654.86	81.220
655.19	80.946
655.52	73.167
655.84	65.512
656.17	69.765
656.49	94.512
656.82	97.988
657.15	77.128
657.47	57.564
657.80	44.636
658.13	51.434
658.45	70.558
658.78	71.773
659.10	72.727
659.43	73.729
659.75	76.672
660.08	77.188
660.41	76.552
660.73	82.178
661.06	84.493
661.38	85.536
661.71	89.866
662.03	88.911
662.36	91.258
662.68	87.342
663.01	89.597
663.33	91.383
663.66	88.197
663.98	85.714
664.31	92.170
664.63	92.478
664.96	86.985
665.28	85.900
665.61	87.104
665.93	84.979
666.26	85.830
666.58	84.407
666.91	88.864
667.23	86.842
667.56	86.395
667.88	92.986
668.21	87.558
668.53	90.421
668.86	89.145
669.18	92.922
669.50	88.785
669.83	92.457
670.15	82.063
670.48	87.150
670.80	87.016
671.13	86.682
671.45	86.036
671.77	88.009
672.10	85.010
672.42	81.734
672.75	81.455
673.07	84.505
673.39	82.332
673.72	86.417
674.04	84.713
674.37	83.505
674.69	85.246
675.01	81.915
675.34	85.466
675.66	85.529
675.98	88.767
676.31	87.557
676.63	85.977
676.95	83.850
677.28	87.935
677.60	86.199
677.92	86.123
678.25	83.151
678.57	82.922
678.89	85.535
679.22	83.438
679.54	83.629
679.86	84.400
680.18	84.030
680.51	81.378
680.83	81.143
681.15	84.008
681.48	86.815
681.80	82.661
682.12	82.696
682.44	80.157
682.77	83.333
683.09	84.696
683.41	83.850
683.73	85.845
684.06	82.366
684.38	81.590
684.70	82.922
685.02	80.315
685.34	82.066
685.67	81.818
685.99	83.932
686.31	81.508
686.63	77.660
686.96	79.298
687.28	81.118
687.60	85.547
687.92	79.572
688.24	84.252
688.56	78.357
688.89	81.624
689.21	82.932
689.53	86.667
689.85	83.519
690.17	84.305
690.49	84.296
690.82	85.060
691.14	84.906
691.46	82.483
691.78	82.159
692.10	84.322
692.42	82.000
692.74	79.614
693.06	82.921
693.39	81.655
693.71	84.199
694.03	82.073
694.35	84.424
694.67	82.033
694.99	82.609
695.31	84.949
695.63	84.694
695.95	85.360
696.27	83.791
696.59	83.422
696.91	91.292
697.23	86.719
697.56	81.010
697.88	84.910
698.20	79.657
698.52	79.596
698.84	86.408
699.16	77.143
699.48	83.000
699.80	81.203
700.12	85.139
700.44	80.168
700.76	88.921
701.08	81.686
701.40	88.218
701.72	91.358
702.04	87.179
702.36	83.133
702.68	81.138
703.00	84.348
703.32	81.948
703.64	86.176
703.96	81.105
704.28	85.799
704.60	82.911
704.91	79.683
705.23	87.055
705.55	84.459
705.87	87.372
706.19	86.806
706.51	87.847
706.83	89.180
707.15	86.306
707.47	84.022
707.79	77.577
708.11	80.662
708.43	84.289
708.74	79.740
709.06	81.058
709.38	83.046
709.70	90.313
710.02	86.196
710.34	89.769
710.66	80.317
710.98	83.912
711.29	86.129
711.61	83.067
711.93	83.279
712.25	88.372
712.57	80.488
712.89	90.647
713.20	88.660
713.52	86.194
713.84	85.409
714.16	81.311
714.48	84.444
714.80	86.154
715.11	80.692
715.43	87.651
715.75	83.489
716.07	83.279
716.39	89.298
716.70	86.760
717.02	86.296
717.34	80.916
717.66	92.531
717.97	86.475
718.29	85.294
718.61	91.270
718.93	82.437
719.24	79.779
719.56	80.000
719.88	85.455
720.20	84.644
720.51	85.714
720.83	89.558
721.15	93.033
721.46	88.627
721.78	84.291
722.10	87.200
722.42	83.058
722.73	83.267
723.05	85.944
723.37	78.824
723.68	82.591
724.00	89.837
724.32	86.008
724.63	84.232
724.95	88.430
725.27	86.404
725.58	87.069
725.90	86.905
726.22	84.502
726.53	87.072
726.85	84.706
727.16	81.579
727.48	84.615
727.80	84.426
728.11	82.773
728.43	88.017
728.74	85.156
729.06	79.545
729.38	78.599
729.69	82.283
730.01	88.189
730.32	84.861
730.64	83.150
730.96	89.552
731.27	77.857
731.59	76.206
731.90	76.994
732.22	77.607
732.53	87.417
732.85	78.523
733.16	82.246
733.48	77.352
733.80	80.071
734.11	80.000
734.43	82.653
734.74	77.745
735.06	83.072
735.37	82.569
735.69	80.645
736.00	85.522
736.32	78.477
736.63	75.862
736.95	80.797
737.26	82.781
737.58	85.252
737.89	82.796
738.21	85.714
738.52	81.923
738.83	78.516
739.15	80.342
739.46	79.032
739.78	79.021
740.09	78.322
740.41	80.070
740.72	82.847
741.04	78.968
741.35	80.519
741.66	84.722
741.98	83.333
742.29	82.629
742.61	90.374
742.92	85.047
743.23	82.895
743.55	83.784
743.86	83.556
744.18	86.190
744.49	88.177
744.80	88.832
745.12	85.052
745.43	93.467
745.74	88.835
746.06	82.927
746.37	82.379
746.68	88.060
747.00	91.623
747.31	87.500
747.62	86.636
747.94	75.546
748.25	83.256
748.56	91.905
748.88	82.609
749.19	79.812
749.50	94.118
749.82	83.111
750.13	88.546
750.44	82.927
750.75	86.400
751.07	81.071
751.38	79.336
751.69	79.008
752.01	83.846
752.32	78.988
752.63	81.538
752.94	82.540
753.26	88.261
753.57	90.179
753.88	83.621
754.19	76.763
754.51	83.984
754.82	86.957
755.13	86.831
755.44	83.471
755.75	86.008
756.07	78.313
756.38	84.766
756.69	83.032
757.00	83.972
757.31	79.866
757.63	80.062
757.94	76.590
758.25	76.453
758.56	81.402
758.87	81.250
759.18	78.333
759.50	84.342
759.81	78.102
760.12	79.730
760.43	79.288
760.74	82.812
761.05	75.562
761.36	79.940
761.67	77.811
761.99	79.677
762.30	80.435
762.61	75.849
762.92	84.305
763.23	89.100
763.54	82.667
763.85	83.966
764.16	81.633
764.47	83.475
764.78	81.648
765.10	82.734
765.41	76.129
765.72	77.673
766.03	77.739
766.34	84.211
766.65	73.279
766.96	84.000
767.27	80.729
767.58	87.209
767.89	88.387
768.20	87.730
768.51	87.432
768.82	89.730
769.13	90.500
769.44	85.088
769.75	82.684
770.06	82.110
770.37	82.160
770.68	86.458
770.99	86.139
771.30	81.068
771.61	84.259
771.92	83.983
772.23	82.710
772.54	80.319
772.85	91.124
773.16	84.756
773.47	90.361
773.78	86.813
774.09	91.333
774.39	74.074
774.70	85.906
775.01	74.638
775.32	81.343
775.63	71.074
775.94	87.218
776.25	85.000
776.56	86.066
776.87	85.841
777.18	83.186
777.48	74.545
777.79	85.217
778.10	82.569
778.41	80.508
778.72	91.736
779.03	78.358
779.34	90.226
779.65	79.085
779.95	85.507
780.26	79.592
780.57	77.586
780.88	93.519
781.19	88.889
781.50	85.600
781.80	82.353
782.11	82.692
782.42	71.687
782.73	78.832
783.04	79.730
783.34	81.061
783.65	88.372
783.96	87.805
784.27	98.291
784.57	82.114
784.88	72.358
785.19	83.333
785.50	79.381
785.81	73.333
786.11	85.294
786.42	84.545
786.73	84.685
787.04	98.020
787.34	81.905
787.65	81.905
787.96	74.510
788.26	93.694
788.57	83.065
788.88	77.344
789.19	87.179
789.49	76.471
789.80	75.214
790.11	81.416
790.41	83.838
790.72	77.358
791.03	86.111
791.33	103.947
791.64	80.645
791.95	90.667
792.25	84.286
792.56	92.683
792.87	72.449
793.17	96.053
793.48	86.486
793.79	90.141
794.09	84.810
794.40	92.553
794.70	78.505
795.01	69.298
795.32	74.545
795.62	71.429
795.93	88.660
796.23	70.330
796.54	76.842
796.85	102.740
797.15	69.444
797.46	84.932
797.76	94.366
798.07	76.250
798.37	100.000
798.68	88.571
798.99	82.857
799.29	88.158
799.60	85.000
799.90	66.667
800.21	67.187
800.51	79.365
800.82	88.525
801.12	54.386
801.43	74.648
801.73	77.966
802.04	78.689
802.34	72.727
802.65	94.231
802.95	94.444
803.26	92.500
803.56	86.538
803.87	78.947
804.17	70.968
804.48	90.769
804.78	82.051
805.09	93.023
805.39	103.125
805.70	75.472
806.00	103.509
806.30	70.270
806.61	83.824
806.91	71.605
807.22	84.000
807.52	91.045
807.83	70.968
808.13	61.905
808.43	74.545
808.74	74.242
809.04	83.019
809.35	54.795
809.65	92.982
809.95	89.706
810.26	96.078
810.56	46.000
810.86	87.755
811.17	125.714
811.47	73.077
811.77	112.903
812.08	57.895
812.38	92.857
812.69	58.696
812.99	129.032
813.29	57.143
813.59	59.259
813.90	48.936
814.20	102.326
814.50	75.000
814.81	75.000
815.11	92.683
815.41	90.000
815.72	102.857
816.02	66.667
816.32	110.256
816.62	94.595
816.93	88.235
817.23	67.391
817.53	85.294
817.84	105.882
818.14	50.000
818.44	58.621
818.74	70.968
819.04	122.222
819.35	66.667
819.65	88.000
819.95	86.667
820.25	104.000
820.56	73.684
820.86	57.500
821.16	70.213
821.46	72.414
821.76	82.051
822.07	40.000
822.37	51.163
822.67	113.333
822.97	72.973
823.27	67.568
823.57	116.000
823.88	75.676
824.18	14.286
824.48	34.615
824.78	46.154
825.08	82.609
825.38	79.167
825.69	83.333
825.99	65.000
826.29	62.162
826.59	85.294
826.89	112.000
827.19	62.857
827.49	47.368
827.79	65.625
828.09	50.000
828.39	69.565
828.70	20.690
829.00	62.069
829.30	63.889
829.60	106.250
829.90	116.667
830.20	50.000
830.50	66.667
830.80	39.286
831.10	46.154
831.40	42.857
831.70	70.588
832.00	95.833
832.30	52.632
832.60	18.750
832.90	133.333
833.20	-29.412
833.50	53.333
833.80	13.333
834.10	115.000
834.40	54.167
834.70	94.444
835.00	96.154
835.30	62.500
835.60	44.828
835.90	127.778
836.20	-27.273
836.50	33.333
836.80	45.714
837.10	105.714
837.40	82.353
837.70	109.091
838.00	41.667
838.30	106.250
838.60	47.619
838.90	105.000
839.19	56.522
839.49	78.261
839.79	61.111
840.09	13.043
840.39	54.545
840.69	68.750
840.99	94.737
841.29	25.000
841.59	35.714
841.88	66.667
842.18	58.333
842.48	5.882
842.78	55.172
843.08	107.143
843.38	76.923
843.68	-44.444
843.97	38.462
844.27	109.091
844.57	20.000
844.87	84.000
845.17	0.000
845.47	57.143
845.76	111.111
846.06	0.000
846.36	125.000
846.66	-20.000
846.96	73.684
847.25	29.167
847.55	108.333
847.85	40.000
848.15	0.000
848.44	80.769
848.74	57.895
849.04	-100.000
849.34	100.000
849.63	10.526
849.93	0.000
850.23	75.000
850.53	52.381
850.82	32.000
851.12	63.158
851.42	300.000
851.71	78.571
852.01	25.000
852.31	17.647
852.61	33.333
852.90	14.286
853.20	250.000
853.50	44.444
853.79	-5.263
854.09	33.333
854.39	67.857
854.68	152.174
854.98	-58.333
855.28	48.276
855.57	43.750
855.87	60.000
856.17	26.667
856.46	44.828
856.76	73.333
857.05	29.412
857.35	-84.615
857.65	109.091
857.94	40.741
858.24	-7.143
858.53	7.143
858.83	33.333
859.13	-66.667
859.42	133.333
859.72	75.000
860.01	-33.333
860.31	50.000
860.60	-120.000
860.90	111.111
861.20	100.000
861.49	28.571
861.79	82.353
862.08	-200.000
862.38	50.000
862.67	61.538
862.97	41.176
863.26	30.000
863.56	29.412
863.85	-0.000
864.15	50.000
864.44	15.385
864.74	50.000
865.03	25.000
865.33	0.000
865.62	11.765
865.92	-250.000
866.21	-7.143
866.51	16.667
866.80	300.000
867.10	33.333
867.39	23.529
867.69	73.913
867.98	114.286
868.27	-20.000
868.57	-56.250
868.86	-9.091
869.16	70.588
869.45	100.000
869.75	71.429
870.04	1000.000
870.33	25.000
870.63	200.000
870.92	22.222
871.22	50.000
871.51	0.000
871.80	16.667
872.10	110.000
>>>>>End Processed Spectral Data<<<<<
