SpectraSuite Data File
++++++++++++++++++++++++++++++++++++
Date: Sat May 16 11:34:24 PDT 2015
User: schluterlab
Dark Spectrum Present: Yes
Reference Spectrum Present: Yes
Number of Sampled Component Spectra: 1
Spectrometers: USB2E3373
Integration Time (usec): 3000 (USB2E3373)
Spectra Averaged: 3 (USB2E3373)
Boxcar Smoothing: 0 (USB2E3373)
Correct for Electrical Dark: No (USB2E3373)
Strobe/Lamp Enabled: No (USB2E3373)
Correct for Detector Non-linearity: No (USB2E3373)
Correct for Stray Light: No (USB2E3373)
Number of Pixels in Processed Spectrum: 2048
>>>>>Begin Processed Spectral Data<<<<<
178.53	0.000
178.91	93.333
179.29	766.667
179.67	-800.000
180.04	-15.385
180.42	1500.000
180.80	250.000
181.18	425.000
181.56	-162.500
181.94	1100.000
182.31	525.000
182.69	15.385
183.07	-766.667
183.45	1050.000
183.83	300.000
184.20	-185.714
184.58	-250.000
184.96	-200.000
185.34	112.500
185.72	-525.000
186.09	266.667
186.47	-125.000
186.85	-187.500
187.23	-150.000
187.61	-275.000
187.98	-250.000
188.36	-212.500
188.74	-50.000
189.12	2900.000
189.49	371.429
189.87	-58.333
190.25	550.000
190.63	-21.429
191.00	-111.111
191.38	440.000
191.76	-66.667
192.14	680.000
192.51	-140.000
192.89	-733.333
193.27	0.000
193.65	-88.889
194.02	-185.714
194.40	533.333
194.78	-190.000
195.15	-900.000
195.53	-72.727
195.91	-350.000
196.29	500.000
196.66	-366.667
197.04	2500.000
197.42	-100.000
197.79	33.333
198.17	-366.667
198.55	-650.000
198.92	-1100.000
199.30	125.000
199.68	-950.000
200.05	-166.667
200.43	-155.556
200.81	-1500.000
201.18	-100.000
201.56	171.429
201.94	-46.667
202.31	-22.727
202.69	10.000
203.07	-130.000
203.44	833.333
203.82	-450.000
204.19	-500.000
204.57	-275.000
204.95	-100.000
205.32	-56.250
205.70	500.000
206.08	-1700.000
206.45	-16.667
206.83	-550.000
207.20	200.000
207.58	-366.667
207.96	-266.667
208.33	-225.000
208.71	-133.333
209.08	240.000
209.46	-214.286
209.84	500.000
210.21	0.000
210.59	40.000
210.96	1000.000
211.34	-316.667
211.71	-466.667
212.09	375.000
212.46	1450.000
212.84	-2600.000
213.22	500.000
213.59	141.667
213.97	-33.333
214.34	70.000
214.72	-110.000
215.09	-200.000
215.47	-233.333
215.84	-10.000
216.22	-140.000
216.59	-53.333
216.97	-125.000
217.34	1050.000
217.72	-114.286
218.09	-300.000
218.47	-214.286
218.84	257.143
219.22	-228.571
219.59	0.000
219.97	171.429
220.34	225.000
220.72	275.000
221.09	-76.923
221.47	0.000
221.84	366.667
222.22	-600.000
222.59	600.000
222.97	-175.000
223.34	-600.000
223.72	-366.667
224.09	-100.000
224.46	-325.000
224.84	-57.143
225.21	-285.714
225.59	-27.273
225.96	-100.000
226.34	-200.000
226.71	-155.556
227.08	-20.000
227.46	2000.000
227.83	-157.143
228.21	-237.500
228.58	400.000
228.95	12.500
229.33	-800.000
229.70	-380.000
230.08	-750.000
230.45	-83.333
230.82	-250.000
231.20	-900.000
231.57	-850.000
231.95	800.000
232.32	38.095
232.69	-55.556
233.07	-128.571
233.44	-1250.000
233.81	-106.667
234.19	-33.333
234.56	-37.500
234.93	12.500
235.31	-200.000
235.68	-150.000
236.05	-117.647
236.43	-54.545
236.80	-25.806
237.17	-20.833
237.55	-28.571
237.92	-40.909
238.29	-11.429
238.67	-5.882
239.04	-16.667
239.41	9.677
239.79	-46.154
240.16	0.000
240.53	-14.545
240.91	-10.256
241.28	-9.091
241.65	20.000
242.02	9.836
242.40	1.639
242.77	6.061
243.14	25.424
243.51	4.286
243.89	20.253
244.26	4.494
244.63	20.000
245.00	14.737
245.38	14.407
245.75	7.965
246.12	8.800
246.49	11.024
246.87	2.439
247.24	13.559
247.61	12.712
247.98	5.634
248.36	16.783
248.73	15.190
249.10	12.102
249.47	15.789
249.84	19.318
250.22	13.095
250.59	16.384
250.96	20.419
251.33	18.483
251.70	17.788
252.08	24.645
252.45	16.114
252.82	12.857
253.19	20.851
253.56	20.161
253.94	18.143
254.31	21.888
254.68	19.512
255.05	16.935
255.42	23.016
255.79	12.903
256.16	20.000
256.54	19.853
256.91	16.667
257.28	15.385
257.65	16.667
258.02	19.182
258.39	20.067
258.76	17.230
259.14	13.889
259.51	20.656
259.88	19.207
260.25	23.292
260.62	20.257
260.99	14.540
261.36	17.988
261.73	19.942
262.10	21.111
262.47	19.088
262.85	18.571
263.22	18.052
263.59	22.462
263.96	21.159
264.33	20.867
264.70	22.652
265.07	21.154
265.44	20.930
265.81	18.863
266.18	19.494
266.55	18.382
266.92	22.670
267.29	21.308
267.66	19.753
268.03	23.430
268.40	19.484
268.77	21.205
269.14	20.186
269.51	18.851
269.88	18.578
270.25	19.580
270.62	19.451
270.99	19.144
271.36	18.881
271.73	20.628
272.10	22.197
272.47	20.889
272.84	21.556
273.21	20.642
273.58	22.637
273.95	17.763
274.32	21.719
274.69	23.195
275.06	21.881
275.43	19.196
275.80	24.033
276.17	18.619
276.54	23.014
276.91	18.313
277.28	22.110
277.65	20.868
278.02	19.833
278.39	19.057
278.76	20.916
279.13	22.530
279.50	19.284
279.87	21.564
280.23	18.826
280.60	22.664
280.97	20.971
281.34	20.503
281.71	22.500
282.08	20.161
282.45	17.719
282.82	19.767
283.19	20.909
283.56	22.344
283.92	22.438
284.29	19.517
284.66	21.403
285.03	20.321
285.40	19.188
285.77	22.982
286.14	20.758
286.51	19.005
286.87	21.234
287.24	22.184
287.61	20.992
287.98	20.277
288.35	20.331
288.72	19.864
289.08	18.305
289.45	19.697
289.82	20.761
290.19	20.197
290.56	18.017
290.93	19.237
291.29	19.935
291.66	18.841
292.03	18.995
292.40	20.030
292.77	19.255
293.13	19.837
293.50	18.574
293.87	17.945
294.24	19.759
294.60	15.758
294.97	17.906
295.34	17.185
295.71	17.411
296.08	18.740
296.44	16.452
296.81	18.661
297.18	17.465
297.55	18.503
297.91	19.526
298.28	16.438
298.65	19.386
299.02	17.647
299.38	18.449
299.75	17.799
300.12	18.718
300.48	16.880
300.85	17.300
301.22	17.982
301.59	16.645
301.95	19.018
302.32	17.471
302.69	18.237
303.05	16.117
303.42	17.000
303.79	16.627
304.15	18.246
304.52	16.453
304.89	17.119
305.25	16.117
305.62	16.216
305.99	18.963
306.35	17.758
306.72	15.376
307.09	17.934
307.45	16.913
307.82	16.872
308.19	17.002
308.55	15.686
308.92	17.508
309.29	16.541
309.65	16.861
310.02	16.739
310.38	16.757
310.75	17.623
311.12	17.252
311.48	18.476
311.85	16.890
312.22	16.787
312.58	17.294
312.95	16.514
313.31	17.183
313.68	16.583
314.05	18.892
314.41	16.398
314.78	16.783
315.14	16.584
315.51	16.008
315.87	18.780
316.24	17.784
316.61	18.522
316.97	18.408
317.34	18.015
317.70	16.141
318.07	19.123
318.43	18.914
318.80	19.531
319.16	18.199
319.53	18.797
319.89	16.933
320.26	19.118
320.62	18.462
320.99	18.408
321.35	17.340
321.72	17.707
322.08	18.991
322.45	18.515
322.81	19.981
323.18	19.693
323.54	20.055
323.91	19.555
324.27	19.011
324.64	19.470
325.00	19.721
325.37	20.814
325.73	21.960
326.10	20.283
326.46	20.753
326.83	19.149
327.19	21.935
327.56	23.169
327.92	22.600
328.29	21.991
328.65	20.455
329.01	22.261
329.38	22.926
329.74	23.535
330.11	22.393
330.47	21.889
330.84	22.731
331.20	23.195
331.56	22.881
331.93	22.735
332.29	23.288
332.66	23.090
333.02	23.620
333.38	24.373
333.75	25.111
334.11	22.667
334.48	23.036
334.84	24.322
335.20	23.759
335.57	23.285
335.93	26.768
336.29	24.624
336.66	22.996
337.02	25.315
337.38	23.351
337.75	23.968
338.11	24.240
338.47	25.623
338.84	26.679
339.20	24.165
339.56	25.668
339.93	26.455
340.29	24.624
340.65	24.913
341.02	25.295
341.38	24.179
341.74	25.233
342.11	25.512
342.47	25.064
342.83	25.105
343.20	26.302
343.56	24.816
343.92	25.376
344.28	26.325
344.65	25.165
345.01	25.798
345.37	26.163
345.73	24.550
346.10	24.775
346.46	26.158
346.82	25.742
347.19	25.226
347.55	24.960
347.91	26.142
348.27	24.901
348.63	25.848
349.00	25.776
349.36	23.810
349.72	26.433
350.08	24.779
350.45	25.532
350.81	25.398
351.17	24.357
351.53	24.662
351.89	25.222
352.26	26.202
352.62	26.190
352.98	25.633
353.34	25.180
353.70	24.942
354.07	26.121
354.43	25.771
354.79	24.881
355.15	24.281
355.51	25.000
355.87	25.375
356.24	25.576
356.60	26.591
356.96	27.098
357.32	25.178
357.68	26.054
358.04	26.174
358.40	26.063
358.77	25.270
359.13	24.943
359.49	24.943
359.85	25.610
360.21	25.799
360.57	26.657
360.93	26.000
361.29	27.205
361.66	24.848
362.02	25.444
362.38	25.825
362.74	25.641
363.10	26.327
363.46	25.926
363.82	26.020
364.18	25.760
364.54	26.876
364.90	26.205
365.26	26.034
365.62	26.871
365.98	26.885
366.35	25.563
366.71	25.300
367.07	26.253
367.43	27.248
367.79	26.735
368.15	25.391
368.51	26.364
368.87	27.404
369.23	26.947
369.59	25.833
369.95	26.075
370.31	26.371
370.67	26.247
371.03	27.041
371.39	26.308
371.75	27.539
372.11	27.618
372.47	27.187
372.83	27.955
373.19	26.929
373.55	27.797
373.91	27.667
374.27	26.762
374.63	26.225
374.99	27.886
375.35	26.447
375.71	27.684
376.07	27.652
376.42	26.821
376.78	27.712
377.14	28.610
377.50	27.982
377.86	27.958
378.22	28.204
378.58	27.733
378.94	28.237
379.30	29.129
379.66	28.294
380.02	27.867
380.38	29.426
380.74	28.312
381.09	28.588
381.45	29.296
381.81	28.312
382.17	28.885
382.53	28.450
382.89	29.306
383.25	29.440
383.61	28.774
383.97	29.271
384.32	29.725
384.68	29.565
385.04	29.831
385.40	29.032
385.76	29.817
386.12	28.795
386.48	29.703
386.83	29.632
387.19	29.647
387.55	30.224
387.91	29.223
388.27	29.614
388.62	29.267
388.98	29.073
389.34	30.294
389.70	30.146
390.06	29.086
390.42	30.513
390.77	30.789
391.13	30.807
391.49	29.819
391.85	30.611
392.20	30.097
392.56	30.788
392.92	30.006
393.28	30.253
393.64	30.186
393.99	31.631
394.35	30.292
394.71	29.833
395.07	32.015
395.42	29.619
395.78	30.233
396.14	31.589
396.50	31.376
396.85	31.092
397.21	30.134
397.57	30.638
397.92	31.674
398.28	31.444
398.64	30.399
399.00	31.517
399.35	31.116
399.71	31.649
400.07	31.522
400.42	31.934
400.78	30.769
401.14	31.737
401.49	31.309
401.85	31.422
402.21	31.585
402.57	31.493
402.92	32.159
403.28	31.250
403.63	29.539
403.99	31.883
404.35	30.616
404.70	31.773
405.06	32.065
405.42	30.873
405.77	30.656
406.13	30.380
406.49	31.636
406.84	30.774
407.20	31.508
407.55	31.476
407.91	32.060
408.27	32.537
408.62	31.389
408.98	32.019
409.34	31.749
409.69	30.561
410.05	31.898
410.40	32.066
410.76	32.602
411.11	31.920
411.47	31.458
411.83	32.029
412.18	31.064
412.54	31.910
412.89	32.503
413.25	30.756
413.60	31.896
413.96	30.869
414.31	31.254
414.67	31.429
415.03	32.277
415.38	33.182
415.74	32.603
416.09	31.777
416.45	31.283
416.80	32.380
417.16	32.625
417.51	32.764
417.87	32.751
418.22	32.491
418.58	31.707
418.93	32.128
419.29	32.246
419.64	31.972
420.00	32.382
420.35	33.057
420.71	32.113
421.06	32.426
421.42	32.845
421.77	31.882
422.12	33.128
422.48	33.030
422.83	32.745
423.19	33.073
423.54	31.758
423.90	33.372
424.25	32.862
424.61	33.776
424.96	34.231
425.31	34.153
425.67	33.066
426.02	32.760
426.38	34.483
426.73	33.665
427.09	33.211
427.44	33.409
427.79	33.256
428.15	32.974
428.50	35.132
428.85	34.233
429.21	32.651
429.56	34.167
429.92	33.567
430.27	33.948
430.62	34.013
430.98	34.292
431.33	34.205
431.68	34.692
432.04	34.863
432.39	33.960
432.74	34.472
433.10	34.834
433.45	34.254
433.80	34.770
434.16	34.498
434.51	35.616
434.86	36.028
435.22	35.078
435.57	34.700
435.92	34.467
436.28	35.608
436.63	35.105
436.98	34.880
437.34	35.204
437.69	35.414
438.04	34.317
438.39	36.101
438.75	35.972
439.10	36.147
439.45	36.512
439.81	35.964
440.16	35.264
440.51	35.294
440.86	36.322
441.22	34.992
441.57	36.211
441.92	36.368
442.27	35.606
442.63	36.534
442.98	35.440
443.33	36.299
443.68	36.269
444.03	36.002
444.39	36.515
444.74	36.454
445.09	35.910
445.44	36.804
445.79	36.461
446.15	36.857
446.50	35.710
446.85	36.480
447.20	36.823
447.55	36.851
447.91	37.507
448.26	36.480
448.61	36.616
448.96	37.535
449.31	37.148
449.66	38.466
450.02	38.116
450.37	37.043
450.72	36.893
451.07	37.524
451.42	37.237
451.77	38.540
452.12	38.558
452.47	37.909
452.83	37.158
453.18	38.836
453.53	38.184
453.88	38.696
454.23	37.606
454.58	40.025
454.93	37.972
455.28	38.878
455.63	38.145
455.98	39.036
456.34	38.437
456.69	39.462
457.04	38.722
457.39	38.337
457.74	38.748
458.09	38.863
458.44	39.376
458.79	37.892
459.14	39.817
459.49	38.958
459.84	38.730
460.19	38.962
460.54	38.173
460.89	39.350
461.24	38.676
461.59	38.628
461.94	39.465
462.29	39.845
462.64	40.184
462.99	40.295
463.34	38.825
463.69	40.522
464.04	38.781
464.39	39.606
464.74	39.125
465.09	38.485
465.44	39.312
465.79	39.255
466.14	39.586
466.49	40.012
466.84	40.636
467.19	39.900
467.54	39.051
467.89	40.259
468.24	39.846
468.59	40.162
468.94	41.479
469.29	40.871
469.64	40.633
469.99	40.783
470.34	41.283
470.68	41.570
471.03	41.363
471.38	40.556
471.73	41.469
472.08	41.834
472.43	41.313
472.78	41.333
473.13	41.418
473.48	41.991
473.83	40.757
474.17	41.274
474.52	42.391
474.87	41.492
475.22	40.944
475.57	42.278
475.92	41.577
476.27	41.143
476.61	41.859
476.96	41.811
477.31	41.819
477.66	42.446
478.01	42.410
478.36	41.016
478.70	43.193
479.05	42.077
479.40	42.383
479.75	42.355
480.10	41.964
480.45	41.731
480.79	42.152
481.14	43.201
481.49	42.062
481.84	41.840
482.19	42.257
482.53	42.992
482.88	41.718
483.23	42.300
483.58	42.599
483.92	42.953
484.27	42.136
484.62	41.598
484.97	41.543
485.31	41.184
485.66	39.661
486.01	40.404
486.36	41.156
486.70	41.865
487.05	40.915
487.40	41.426
487.75	40.960
488.09	40.364
488.44	41.509
488.79	41.740
489.13	41.537
489.48	43.230
489.83	43.013
490.17	41.707
490.52	43.116
490.87	42.263
491.22	43.811
491.56	43.287
491.91	43.798
492.26	43.632
492.60	42.864
492.95	43.503
493.30	43.735
493.64	42.501
493.99	42.830
494.34	43.667
494.68	43.867
495.03	42.973
495.37	44.149
495.72	44.450
496.07	44.627
496.41	44.419
496.76	43.196
497.11	44.089
497.45	44.301
497.80	44.172
498.14	44.253
498.49	43.898
498.84	43.155
499.18	44.834
499.53	44.082
499.87	43.822
500.22	44.608
500.56	44.672
500.91	44.089
501.26	45.075
501.60	43.909
501.95	45.121
502.29	43.836
502.64	45.450
502.98	44.801
503.33	43.797
503.67	44.971
504.02	45.099
504.36	45.294
504.71	44.782
505.06	44.383
505.40	45.459
505.75	44.970
506.09	45.450
506.44	45.714
506.78	45.861
507.13	45.881
507.47	45.592
507.82	44.966
508.16	46.218
508.51	46.059
508.85	47.516
509.19	45.003
509.54	46.934
509.88	46.330
510.23	46.069
510.57	47.354
510.92	47.583
511.26	46.199
511.61	45.896
511.95	46.282
512.30	47.883
512.64	47.190
512.98	46.755
513.33	47.556
513.67	47.069
514.02	47.819
514.36	47.590
514.70	47.142
515.05	48.085
515.39	46.021
515.74	48.284
516.08	46.801
516.42	48.555
516.77	48.931
517.11	49.485
517.46	49.821
517.80	49.278
518.14	48.611
518.49	48.595
518.83	50.267
519.17	49.142
519.52	48.120
519.86	49.462
520.20	50.061
520.55	49.600
520.89	49.593
521.23	49.389
521.58	50.658
521.92	50.602
522.26	50.349
522.61	50.127
522.95	49.458
523.29	50.909
523.64	49.719
523.98	50.350
524.32	50.974
524.66	49.752
525.01	50.610
525.35	51.418
525.69	50.748
526.04	49.413
526.38	52.451
526.72	49.936
527.06	52.214
527.41	51.155
527.75	51.485
528.09	51.224
528.43	51.541
528.78	50.942
529.12	52.561
529.46	51.289
529.80	49.516
530.15	50.805
530.49	50.517
530.83	51.604
531.17	52.054
531.51	51.507
531.86	50.823
532.20	53.036
532.54	52.139
532.88	51.186
533.22	52.473
533.57	52.219
533.91	50.999
534.25	49.969
534.59	49.407
534.93	49.969
535.27	52.549
535.62	51.151
535.96	51.519
536.30	49.935
536.64	50.531
536.98	53.037
537.32	50.864
537.66	52.817
538.01	51.890
538.35	50.068
538.69	50.401
539.03	51.117
539.37	52.029
539.71	50.033
540.05	51.679
540.39	53.116
540.73	50.311
541.07	51.913
541.42	50.979
541.76	49.103
542.10	52.600
542.44	49.234
542.78	50.407
543.12	50.509
543.46	51.027
543.80	49.900
544.14	51.444
544.48	50.328
544.82	50.000
545.16	50.973
545.50	50.135
545.84	50.348
546.18	50.693
546.52	51.280
546.86	50.783
547.20	51.406
547.54	49.449
547.88	49.967
548.22	48.886
548.56	50.501
548.90	50.404
549.24	50.666
549.58	49.965
549.92	51.873
550.26	51.012
550.60	50.711
550.94	51.533
551.28	51.091
551.62	50.369
551.96	51.013
552.30	50.523
552.64	51.513
552.98	50.035
553.32	49.423
553.66	49.748
554.00	51.386
554.34	50.614
554.68	49.561
555.02	50.868
555.36	49.820
555.69	50.931
556.03	49.965
556.37	50.640
556.71	50.966
557.05	50.702
557.39	51.448
557.73	50.109
558.07	50.867
558.41	49.364
558.75	49.810
559.08	50.506
559.42	50.613
559.76	52.454
560.10	51.603
560.44	51.445
560.78	50.035
561.12	51.346
561.45	49.658
561.79	50.941
562.13	49.579
562.47	50.560
562.81	50.000
563.15	50.385
563.48	50.449
563.82	50.980
564.16	48.546
564.50	49.597
564.84	49.008
565.17	49.668
565.51	49.218
565.85	50.372
566.19	49.671
566.52	49.315
566.86	49.052
567.20	49.637
567.54	48.612
567.88	48.241
568.21	47.371
568.55	47.137
568.89	46.272
569.23	45.905
569.56	45.313
569.90	45.712
570.24	44.720
570.57	44.042
570.91	43.931
571.25	45.039
571.59	44.552
571.92	43.839
572.26	43.769
572.60	43.190
572.93	43.326
573.27	43.262
573.61	42.787
573.95	42.922
574.28	41.844
574.62	42.857
574.96	42.149
575.29	42.683
575.63	42.288
575.97	41.855
576.30	42.450
576.64	42.820
576.98	42.523
577.31	42.360
577.65	42.071
577.98	41.727
578.32	41.654
578.66	41.610
578.99	41.629
579.33	42.904
579.67	41.567
580.00	41.543
580.34	41.487
580.67	41.898
581.01	41.156
581.35	41.153
581.68	41.450
582.02	41.197
582.35	41.549
582.69	42.141
583.02	41.799
583.36	41.969
583.70	41.705
584.03	42.134
584.37	42.084
584.70	42.321
585.04	42.203
585.37	41.217
585.71	41.655
586.04	41.667
586.38	41.460
586.72	41.911
587.05	41.999
587.39	41.765
587.72	41.492
588.06	42.531
588.39	42.296
588.73	42.185
589.06	42.391
589.40	42.838
589.73	42.103
590.07	43.117
590.40	43.469
590.73	42.343
591.07	44.139
591.40	44.194
591.74	44.266
592.07	43.694
592.41	43.567
592.74	43.582
593.08	42.774
593.41	42.303
593.75	41.939
594.08	43.278
594.41	43.623
594.75	43.262
595.08	43.045
595.42	43.389
595.75	42.007
596.09	42.297
596.42	43.822
596.75	43.467
597.09	44.123
597.42	42.427
597.75	43.490
598.09	44.600
598.42	43.659
598.76	42.940
599.09	42.305
599.42	41.945
599.76	42.016
600.09	43.855
600.42	43.069
600.76	43.051
601.09	43.107
601.42	43.134
601.76	43.769
602.09	43.436
602.42	43.457
602.76	42.459
603.09	43.065
603.42	43.312
603.76	42.760
604.09	42.491
604.42	43.256
604.76	43.655
605.09	44.213
605.42	43.351
605.75	43.165
606.09	42.756
606.42	43.276
606.75	43.581
607.09	43.758
607.42	43.046
607.75	44.194
608.08	44.148
608.42	44.229
608.75	43.505
609.08	43.546
609.41	43.000
609.75	43.540
610.08	44.314
610.41	43.807
610.74	44.632
611.07	43.966
611.41	43.520
611.74	45.398
612.07	45.542
612.40	43.817
612.73	44.319
613.07	43.808
613.40	45.265
613.73	44.578
614.06	44.261
614.39	44.476
614.72	44.078
615.06	44.620
615.39	44.167
615.72	44.487
616.05	44.119
616.38	44.225
616.71	45.105
617.05	46.019
617.38	45.697
617.71	45.639
618.04	45.776
618.37	43.836
618.70	46.871
619.03	45.565
619.36	46.089
619.69	46.088
620.03	46.419
620.36	46.554
620.69	47.308
621.02	47.260
621.35	47.581
621.68	47.049
622.01	49.110
622.34	46.118
622.67	46.250
623.00	47.360
623.33	47.313
623.66	46.898
623.99	47.143
624.32	47.321
624.65	47.093
624.99	47.423
625.32	47.530
625.65	47.397
625.98	46.948
626.31	48.124
626.64	48.703
626.97	48.459
627.30	48.255
627.63	47.323
627.96	47.781
628.29	49.081
628.62	49.666
628.95	49.606
629.28	48.120
629.61	50.540
629.94	49.905
630.26	51.093
630.59	50.653
630.92	49.249
631.25	49.899
631.58	51.429
631.91	49.894
632.24	52.778
632.57	51.667
632.90	52.069
633.23	52.453
633.56	50.760
633.89	52.830
634.22	49.823
634.55	50.481
634.88	51.028
635.20	53.059
635.53	52.290
635.86	52.519
636.19	52.625
636.52	50.179
636.85	52.106
637.18	49.000
637.51	51.921
637.83	53.529
638.16	53.816
638.49	55.448
638.82	52.510
639.15	52.399
639.48	49.546
639.81	55.048
640.13	53.108
640.46	53.134
640.79	54.902
641.12	52.186
641.45	53.515
641.77	53.144
642.10	52.417
642.43	53.414
642.76	55.906
643.09	51.587
643.41	54.127
643.74	58.506
644.07	53.978
644.40	52.836
644.73	53.630
645.05	53.422
645.38	55.132
645.71	57.732
646.04	54.958
646.36	56.894
646.69	55.363
647.02	56.318
647.35	56.498
647.67	56.022
648.00	54.482
648.33	54.300
648.66	50.806
648.98	54.459
649.31	54.308
649.64	52.344
649.96	52.590
650.29	51.148
650.62	54.733
650.94	55.481
651.27	52.686
651.60	55.190
651.92	54.452
652.25	52.254
652.58	52.811
652.90	53.130
653.23	52.742
653.56	53.344
653.88	53.279
654.21	55.201
654.54	55.150
654.86	52.809
655.19	50.143
655.52	46.259
655.84	40.925
656.17	43.052
656.49	57.389
656.82	59.245
657.15	44.453
657.47	33.037
657.80	25.310
658.13	28.757
658.45	38.476
658.78	38.078
659.10	38.281
659.43	37.875
659.75	39.614
660.08	41.146
660.41	42.001
660.73	45.325
661.06	52.464
661.38	56.429
661.71	51.816
662.03	54.839
662.36	57.569
662.68	56.751
663.01	56.263
663.33	58.730
663.66	55.794
663.98	53.348
664.31	55.257
664.63	56.858
664.96	56.833
665.28	56.399
665.61	51.586
665.93	52.881
666.26	52.429
666.58	56.341
666.91	57.684
667.23	54.167
667.56	55.556
667.88	57.014
668.21	56.221
668.53	57.009
668.86	58.661
669.18	55.023
669.50	55.140
669.83	60.097
670.15	55.157
670.48	55.841
670.80	53.759
671.13	54.176
671.45	54.279
671.77	53.533
672.10	53.846
672.42	51.845
672.75	52.909
673.07	50.631
673.39	52.095
673.72	53.740
674.04	54.777
674.37	52.990
674.69	55.533
675.01	53.617
675.34	54.230
675.66	55.292
675.98	53.965
676.31	54.525
676.63	57.011
676.95	52.876
677.28	54.060
677.60	54.525
677.92	55.507
678.25	55.361
678.57	55.144
678.89	54.507
679.22	53.669
679.54	52.268
679.86	49.600
680.18	52.662
680.51	52.886
680.83	51.619
681.15	50.482
681.48	53.753
681.80	52.823
682.12	52.918
682.44	52.259
682.77	49.134
683.09	53.040
683.41	52.655
683.73	52.740
684.06	52.043
684.38	54.184
684.70	52.675
685.02	50.984
685.34	50.097
685.67	50.000
685.99	49.905
686.31	49.372
686.63	51.773
686.96	50.462
687.28	49.518
687.60	51.953
687.92	49.222
688.24	50.984
688.56	49.499
688.89	49.573
689.21	52.516
689.53	52.414
689.85	54.343
690.17	50.673
690.49	53.811
690.82	52.530
691.14	52.830
691.46	54.102
691.78	52.863
692.10	52.119
692.42	51.556
692.74	51.717
693.06	53.258
693.39	53.020
693.71	49.887
694.03	52.484
694.35	50.564
694.67	51.773
694.99	53.708
695.31	51.531
695.63	50.255
695.95	53.350
696.27	54.364
696.59	59.358
696.91	56.742
697.23	50.521
697.56	51.442
697.88	54.054
698.20	49.036
698.52	47.309
698.84	52.670
699.16	52.381
699.48	53.250
699.80	49.123
700.12	52.897
700.44	52.235
700.76	53.353
701.08	52.907
701.40	52.870
701.72	51.235
702.04	58.013
702.36	53.614
702.68	55.689
703.00	52.174
703.32	50.430
703.64	57.647
703.96	57.558
704.28	52.071
704.60	52.215
704.91	52.381
705.23	56.958
705.55	54.392
705.87	58.362
706.19	48.958
706.51	52.778
706.83	56.066
707.15	54.140
707.47	53.719
707.79	52.577
708.11	47.837
708.43	53.117
708.74	50.390
709.06	50.696
709.38	49.425
709.70	54.375
710.02	54.294
710.34	52.475
710.66	50.159
710.98	48.896
711.29	53.226
711.61	51.757
711.93	52.459
712.25	54.485
712.57	51.916
712.89	54.317
713.20	53.608
713.52	55.597
713.84	53.737
714.16	50.164
714.48	49.524
714.80	50.462
715.11	51.009
715.43	52.410
715.75	55.140
716.07	51.803
716.39	54.515
716.70	53.310
717.02	57.778
717.34	47.328
717.66	59.336
717.97	50.820
718.29	55.042
718.61	51.190
718.93	50.179
719.24	51.103
719.56	52.075
719.88	55.273
720.20	45.318
720.51	51.880
720.83	51.807
721.15	54.098
721.46	55.686
721.78	52.107
722.10	53.200
722.42	49.174
722.73	51.394
723.05	53.414
723.37	53.725
723.68	45.749
724.00	58.943
724.32	49.383
724.63	51.037
724.95	57.851
725.27	50.439
725.58	52.155
725.90	50.397
726.22	54.244
726.53	50.951
726.85	44.706
727.16	50.376
727.48	47.692
727.80	50.410
728.11	47.899
728.43	53.719
728.74	50.000
729.06	50.758
729.38	51.362
729.69	47.244
730.01	53.150
730.32	49.402
730.64	47.253
730.96	54.478
731.27	49.286
731.59	51.125
731.90	49.693
732.22	50.307
732.53	55.629
732.85	50.000
733.16	50.725
733.48	46.690
733.80	49.822
734.11	46.207
734.43	51.701
734.74	48.368
735.06	48.276
735.37	47.095
735.69	45.484
736.00	43.771
736.32	50.000
736.63	46.897
736.95	46.739
737.26	49.007
737.58	48.921
737.89	47.670
738.21	46.992
738.52	48.846
738.83	48.828
739.15	50.000
739.46	51.210
739.78	49.301
740.09	48.252
740.41	45.804
740.72	51.460
741.04	45.238
741.35	46.753
741.66	47.685
741.98	48.571
742.29	47.418
742.61	54.011
742.92	52.804
743.23	45.614
743.55	48.649
743.86	51.556
744.18	52.857
744.49	55.172
744.80	59.898
745.12	55.155
745.43	50.251
745.74	50.000
746.06	48.780
746.37	48.018
746.68	51.244
747.00	51.832
747.31	53.846
747.62	50.691
747.94	50.655
748.25	60.000
748.56	52.857
748.88	48.913
749.19	50.704
749.50	56.863
749.82	52.000
750.13	55.507
750.44	48.780
750.75	52.800
751.07	50.714
751.38	49.446
751.69	45.420
752.01	49.615
752.32	50.973
752.63	46.923
752.94	49.206
753.26	55.217
753.57	50.446
753.88	51.293
754.19	53.942
754.51	48.828
754.82	50.593
755.13	48.971
755.44	53.719
755.75	51.029
756.07	42.169
756.38	50.781
756.69	51.986
757.00	49.826
757.31	48.658
757.63	46.729
757.94	46.821
758.25	49.709
758.56	49.865
758.87	41.761
759.18	48.667
759.50	53.025
759.81	51.825
760.12	45.270
760.43	51.780
760.74	47.500
761.05	45.787
761.36	49.401
761.67	44.379
761.99	40.968
762.30	49.638
762.61	47.925
762.92	51.121
763.23	50.711
763.54	51.111
763.85	52.321
764.16	47.347
764.47	50.847
764.78	50.187
765.10	49.281
765.41	45.161
765.72	45.597
766.03	46.996
766.34	44.361
766.65	47.368
766.96	48.500
767.27	50.521
767.58	50.000
767.89	47.742
768.20	50.920
768.51	46.995
768.82	49.730
769.13	47.000
769.44	50.000
769.75	47.619
770.06	50.917
770.37	46.009
770.68	46.875
770.99	52.970
771.30	48.058
771.61	45.833
771.92	45.022
772.23	43.458
772.54	50.000
772.85	41.420
773.16	50.000
773.47	51.807
773.78	51.648
774.09	47.333
774.39	52.469
774.70	46.309
775.01	43.478
775.32	49.254
775.63	42.149
775.94	53.383
776.25	47.857
776.56	50.820
776.87	57.522
777.18	48.673
777.48	43.636
777.79	51.304
778.10	48.624
778.41	50.000
778.72	51.240
779.03	52.239
779.34	47.368
779.65	46.405
779.95	50.000
780.26	42.177
780.57	50.000
780.88	48.148
781.19	36.364
781.50	44.000
781.80	52.941
782.11	46.154
782.42	46.386
782.73	43.066
783.04	50.676
783.34	55.303
783.65	37.209
783.96	59.350
784.27	49.573
784.57	47.967
784.88	40.650
785.19	40.351
785.50	42.268
785.81	43.810
786.11	50.980
786.42	40.909
786.73	49.550
787.04	52.475
787.34	46.667
787.65	45.714
787.96	42.157
788.26	49.550
788.57	55.645
788.88	42.969
789.19	38.462
789.49	42.857
789.80	46.154
790.11	46.018
790.41	40.404
790.72	49.057
791.03	44.444
791.33	44.737
791.64	38.710
791.95	54.667
792.25	45.714
792.56	34.146
792.87	55.102
793.17	36.842
793.48	29.730
793.79	29.577
794.09	46.835
794.40	56.383
794.70	41.121
795.01	24.561
795.32	38.182
795.62	37.500
795.93	37.113
796.23	41.758
796.54	48.421
796.85	36.986
797.15	29.167
797.46	45.205
797.76	47.887
798.07	50.000
798.37	48.529
798.68	50.000
798.99	45.714
799.29	44.737
799.60	63.333
799.90	48.611
800.21	34.375
800.51	31.746
800.82	34.426
801.12	22.807
801.43	30.986
801.73	45.763
802.04	32.787
802.34	40.000
802.65	36.538
802.95	51.852
803.26	47.500
803.56	48.077
803.87	31.579
804.17	54.839
804.48	47.692
804.78	17.949
805.09	62.791
805.39	9.375
805.70	39.623
806.00	54.386
806.30	54.054
806.61	41.176
806.91	40.741
807.22	40.000
807.52	29.851
807.83	29.032
808.13	39.683
808.43	21.818
808.74	43.939
809.04	62.264
809.35	45.205
809.65	42.105
809.95	51.471
810.26	45.098
810.56	6.000
810.86	51.020
811.17	45.714
811.47	34.615
811.77	80.645
812.08	18.421
812.38	54.762
812.69	19.565
812.99	25.806
813.29	21.429
813.59	-7.407
813.90	36.170
814.20	37.209
814.50	39.583
814.81	20.000
815.11	29.268
815.41	6.667
815.72	48.571
816.02	25.000
816.32	25.641
816.62	21.622
816.93	-5.882
817.23	6.522
817.53	29.412
817.84	35.294
818.14	31.250
818.44	51.724
818.74	32.258
819.04	48.148
819.35	26.667
819.65	68.000
819.95	43.333
820.25	48.000
820.56	23.684
820.86	15.000
821.16	53.191
821.46	43.103
821.76	17.949
822.07	20.000
822.37	9.302
822.67	13.333
822.97	10.811
823.27	16.216
823.57	40.000
823.88	24.324
824.18	-14.286
824.48	0.000
824.78	30.769
825.08	65.217
825.38	20.833
825.69	16.667
825.99	10.000
826.29	-18.919
826.59	38.235
826.89	76.000
827.19	-22.857
827.49	31.579
827.79	15.625
828.09	13.333
828.39	34.783
828.70	13.793
829.00	-17.241
829.30	13.889
829.60	71.875
829.90	-5.556
830.20	-19.231
830.50	-23.810
830.80	21.429
831.10	25.641
831.40	47.619
831.70	20.588
832.00	33.333
832.30	21.053
832.60	0.000
832.90	-33.333
833.20	-52.941
833.50	-80.000
833.80	-20.000
834.10	15.000
834.40	33.333
834.70	16.667
835.00	53.846
835.30	-25.000
835.60	44.828
835.90	-27.778
836.20	-45.455
836.50	75.000
836.80	17.143
837.10	37.143
837.40	29.412
837.70	-100.000
838.00	-20.833
838.30	18.750
838.60	9.524
838.90	40.000
839.19	0.000
839.49	21.739
839.79	-27.778
840.09	34.783
840.39	-59.091
840.69	-50.000
840.99	26.316
841.29	-43.750
841.59	-64.286
841.88	-5.556
842.18	25.000
842.48	-23.529
842.78	24.138
843.08	0.000
843.38	-53.846
843.68	-44.444
843.97	0.000
844.27	-90.909
844.57	20.000
844.87	-12.000
845.17	-240.000
845.47	-14.286
845.76	-66.667
846.06	0.000
846.36	-200.000
846.66	-140.000
846.96	52.632
847.25	25.000
847.55	-33.333
847.85	-33.333
848.15	-60.000
848.44	42.308
848.74	42.105
849.04	366.667
849.34	-66.667
849.63	5.263
849.93	0.000
850.23	5.000
850.53	9.524
850.82	20.000
851.12	-10.526
851.42	-200.000
851.71	-21.429
852.01	8.333
852.31	23.529
852.61	20.000
852.90	0.000
853.20	-216.667
853.50	-33.333
853.79	-52.632
854.09	0.000
854.39	7.143
854.68	-26.087
854.98	-116.667
855.28	10.345
855.57	6.250
855.87	-30.000
856.17	-93.333
856.46	-13.793
856.76	-66.667
857.05	-11.765
857.35	-76.923
857.65	-36.364
857.94	11.111
858.24	-57.143
858.53	-21.429
858.83	-83.333
859.13	-155.556
859.42	47.619
859.72	-87.500
860.01	-433.333
860.31	-200.000
860.60	-320.000
860.90	-100.000
861.20	-162.500
861.49	-200.000
861.79	-11.765
862.08	0.000
862.38	-58.333
862.67	-30.769
862.97	-11.765
863.26	30.000
863.56	-88.235
863.85	566.667
864.15	-90.000
864.44	-23.077
864.74	20.000
865.03	-262.500
865.33	-266.667
865.62	-52.941
865.92	-275.000
866.21	-64.286
866.51	-108.333
866.80	-400.000
867.10	33.333
867.39	-82.353
867.69	-17.391
867.98	42.857
868.27	-140.000
868.57	-6.250
868.86	-145.455
869.16	-58.824
869.45	-100.000
869.75	-157.143
870.04	1600.000
870.33	-58.333
870.63	-240.000
870.92	0.000
871.22	-108.333
871.51	-81.818
871.80	-116.667
872.10	-80.000
>>>>>End Processed Spectral Data<<<<<
