SpectraSuite Data File
++++++++++++++++++++++++++++++++++++
Date: Sat May 16 11:46:19 PDT 2015
User: schluterlab
Dark Spectrum Present: Yes
Reference Spectrum Present: Yes
Number of Sampled Component Spectra: 1
Spectrometers: USB2E3373
Integration Time (usec): 3000 (USB2E3373)
Spectra Averaged: 3 (USB2E3373)
Boxcar Smoothing: 0 (USB2E3373)
Correct for Electrical Dark: No (USB2E3373)
Strobe/Lamp Enabled: No (USB2E3373)
Correct for Detector Non-linearity: No (USB2E3373)
Correct for Stray Light: No (USB2E3373)
Number of Pixels in Processed Spectrum: 2048
>>>>>Begin Processed Spectral Data<<<<<
178.53	0.000
178.91	140.000
179.29	633.333
179.67	-1300.000
180.04	-69.231
180.42	1900.000
180.80	350.000
181.18	400.000
181.56	-212.500
181.94	1700.000
182.31	600.000
182.69	-61.538
183.07	-600.000
183.45	1250.000
183.83	433.333
184.20	-314.286
184.58	-225.000
184.96	-425.000
185.34	112.500
185.72	-575.000
186.09	166.667
186.47	-250.000
186.85	-175.000
187.23	-12.500
187.61	-100.000
187.98	-350.000
188.36	-162.500
188.74	-125.000
189.12	1600.000
189.49	371.429
189.87	-133.333
190.25	625.000
190.63	-85.714
191.00	-111.111
191.38	240.000
191.76	-26.667
192.14	500.000
192.51	-200.000
192.89	-33.333
193.27	0.000
193.65	-177.778
194.02	-228.571
194.40	633.333
194.78	-80.000
195.15	-1300.000
195.53	-100.000
195.91	-333.333
196.29	180.000
196.66	-633.333
197.04	1900.000
197.42	-175.000
197.79	-53.333
198.17	-366.667
198.55	-450.000
198.92	-1600.000
199.30	212.500
199.68	-350.000
200.05	-155.556
200.43	-300.000
200.81	-2000.000
201.18	-150.000
201.56	157.143
201.94	-33.333
202.31	40.909
202.69	10.000
203.07	-50.000
203.44	733.333
203.82	-250.000
204.19	-525.000
204.57	-375.000
204.95	-400.000
205.32	-6.250
205.70	1500.000
206.08	-2400.000
206.45	-5.556
206.83	-700.000
207.20	-400.000
207.58	-1066.667
207.96	-400.000
208.33	-187.500
208.71	-222.222
209.08	240.000
209.46	-114.286
209.84	800.000
210.21	0.000
210.59	20.000
210.96	1300.000
211.34	-350.000
211.71	-300.000
212.09	550.000
212.46	650.000
212.84	-1700.000
213.22	466.667
213.59	141.667
213.97	-55.556
214.34	210.000
214.72	-90.000
215.09	-133.333
215.47	-250.000
215.84	-30.000
216.22	-20.000
216.59	33.333
216.97	-450.000
217.34	850.000
217.72	-42.857
218.09	-416.667
218.47	-271.429
218.84	342.857
219.22	-185.714
219.59	0.000
219.97	185.714
220.34	525.000
220.72	225.000
221.09	30.769
221.47	0.000
221.84	500.000
222.22	-500.000
222.59	2000.000
222.97	-225.000
223.34	-650.000
223.72	-700.000
224.09	-7.143
224.46	-575.000
224.84	-78.571
225.21	-185.714
225.59	-90.909
225.96	-112.500
226.34	-171.429
226.71	-155.556
227.08	-25.000
227.46	2100.000
227.83	-42.857
228.21	-187.500
228.58	50.000
228.95	-87.500
229.33	-2200.000
229.70	-380.000
230.08	-900.000
230.45	-50.000
230.82	-133.333
231.20	-800.000
231.57	200.000
231.95	1400.000
232.32	-4.762
232.69	-155.556
233.07	-328.571
233.44	-800.000
233.81	-53.333
234.19	66.667
234.56	-56.250
234.93	0.000
235.31	-157.143
235.68	-157.143
236.05	-123.529
236.43	-59.091
236.80	-9.677
237.17	-50.000
237.55	-90.476
237.92	-81.818
238.29	-62.857
238.67	-5.882
239.04	-38.889
239.41	-38.710
239.79	-69.231
240.16	-33.333
240.53	-18.182
240.91	-20.513
241.28	5.455
241.65	15.385
242.02	-8.197
242.40	-21.311
242.77	-7.576
243.14	-8.475
243.51	-15.714
243.89	-20.253
244.26	-7.865
244.63	-8.421
245.00	-12.632
245.38	-3.390
245.75	-6.195
246.12	-3.200
246.49	3.150
246.87	-4.878
247.24	-20.339
247.61	-4.237
247.98	-7.042
248.36	-9.790
248.73	-0.633
249.10	-5.732
249.47	-2.924
249.84	0.000
250.22	-16.071
250.59	-1.695
250.96	-5.236
251.33	-1.896
251.70	-9.615
252.08	0.000
252.45	0.000
252.82	-2.857
253.19	2.553
253.56	0.403
253.94	-1.266
254.31	-1.288
254.68	-2.033
255.05	-4.032
255.42	-0.794
255.79	-1.434
256.16	-1.569
256.54	2.206
256.91	-4.545
257.28	-2.564
257.65	-2.482
258.02	1.887
258.39	0.000
258.76	-1.689
259.14	0.309
259.51	1.311
259.88	1.220
260.25	-0.311
260.62	-3.859
260.99	-2.077
261.36	-0.915
261.73	3.179
262.10	2.500
262.47	-0.570
262.85	3.714
263.22	-1.146
263.59	-3.692
263.96	-1.159
264.33	2.710
264.70	3.039
265.07	-1.099
265.44	2.326
265.81	0.775
266.18	-2.278
266.55	0.490
266.92	-0.756
267.29	1.695
267.66	-1.481
268.03	3.140
268.40	4.460
268.77	0.964
269.14	1.856
269.51	2.069
269.88	-0.229
270.25	-3.030
270.62	-0.229
270.99	1.126
271.36	0.932
271.73	0.224
272.10	1.144
272.47	-0.444
272.84	3.333
273.21	1.606
273.58	-0.220
273.95	1.096
274.32	-0.452
274.69	-0.875
275.06	2.249
275.43	-1.562
275.80	4.277
276.17	0.628
276.54	3.055
276.91	0.617
277.28	1.217
277.65	1.860
278.02	0.626
278.39	1.768
278.76	0.996
279.13	1.976
279.50	1.392
279.87	0.211
280.23	1.619
280.60	1.789
280.97	-1.748
281.34	0.580
281.71	2.885
282.08	0.202
282.45	-2.444
282.82	0.194
283.19	1.818
283.56	1.465
283.92	1.767
284.29	-0.372
284.66	1.439
285.03	1.248
285.40	-0.185
285.77	1.053
286.14	-0.903
286.51	1.954
286.87	2.722
287.24	1.706
287.61	2.810
287.98	1.386
288.35	0.826
288.72	2.886
289.08	0.000
289.45	2.694
289.82	0.692
290.19	0.985
290.56	0.165
290.93	0.795
291.29	0.648
291.66	-0.805
292.03	1.884
292.40	1.054
292.77	0.311
293.13	1.138
293.50	0.000
293.87	-0.307
294.24	1.659
294.60	0.758
294.97	0.910
295.34	0.000
295.71	1.339
296.08	-1.229
296.44	0.715
296.81	0.712
297.18	0.000
297.55	0.847
297.91	3.208
298.28	-0.685
298.65	-0.976
299.02	2.273
299.38	2.941
299.75	0.815
300.12	2.179
300.48	2.174
300.85	0.393
301.22	0.647
301.59	1.170
301.95	2.393
302.32	0.000
302.69	0.979
303.05	2.198
303.42	0.750
303.79	0.957
304.15	1.777
304.52	1.517
304.89	1.181
305.25	0.366
305.62	1.293
305.99	2.356
306.35	2.775
306.72	1.025
307.09	2.838
307.45	1.816
307.82	0.782
308.19	1.454
308.55	1.743
308.92	0.000
309.29	1.622
309.65	2.015
310.02	2.052
310.38	0.541
310.75	2.459
311.12	2.789
311.48	3.340
311.85	2.369
312.22	1.236
312.58	3.154
312.95	3.160
313.31	2.298
313.68	3.116
314.05	4.055
314.41	3.219
314.78	2.897
315.14	3.653
315.51	3.850
315.87	4.356
316.24	4.568
316.61	4.894
316.97	4.279
317.34	4.624
317.70	4.917
318.07	5.037
318.43	5.337
318.80	6.103
319.16	4.221
319.53	6.015
319.89	6.303
320.26	7.157
320.62	6.442
320.99	7.463
321.35	5.911
321.72	7.472
322.08	9.792
322.45	7.525
322.81	7.877
323.18	9.318
323.54	9.889
323.91	9.268
324.27	8.935
324.64	9.506
325.00	11.431
325.37	12.217
325.73	12.861
326.10	11.160
326.46	11.384
326.83	13.106
327.19	12.927
327.56	14.821
327.92	13.849
328.29	15.498
328.65	13.182
329.01	16.784
329.38	15.165
329.74	16.667
330.11	16.410
330.47	15.895
330.84	18.698
331.20	17.599
331.56	17.685
331.93	17.229
332.29	18.539
332.66	17.296
333.02	17.828
333.38	20.072
333.75	19.679
334.11	18.489
334.48	19.064
334.84	20.997
335.20	18.706
335.57	18.412
335.93	21.307
336.29	20.992
336.66	18.238
337.02	20.360
337.38	19.786
337.75	20.193
338.11	20.215
338.47	19.039
338.84	20.236
339.20	19.596
339.56	21.212
339.93	19.841
340.29	19.486
340.65	19.406
341.02	19.899
341.38	19.966
341.74	20.999
342.11	20.648
342.47	21.631
342.83	20.487
343.20	20.837
343.56	20.000
343.92	21.369
344.28	20.858
344.65	20.627
345.01	20.840
345.37	21.096
345.73	20.049
346.10	19.624
346.46	19.984
346.82	20.850
347.19	20.789
347.55	20.626
347.91	20.945
348.27	21.321
348.63	21.648
349.00	21.241
349.36	19.828
349.72	22.293
350.08	20.369
350.45	21.040
350.81	21.975
351.17	21.061
351.53	21.241
351.89	21.989
352.26	21.085
352.62	22.811
352.98	21.598
353.34	21.823
353.70	20.077
354.07	22.581
354.43	22.688
354.79	21.949
355.15	22.364
355.51	21.875
355.87	22.213
356.24	21.287
356.60	22.562
356.96	21.093
357.32	21.853
357.68	20.766
358.04	22.171
358.40	23.125
358.77	22.179
359.13	21.806
359.49	22.978
359.85	22.332
360.21	23.668
360.57	23.117
360.93	22.815
361.29	23.393
361.66	22.332
362.02	22.707
362.38	23.331
362.74	23.077
363.10	22.453
363.46	25.356
363.82	24.125
364.18	24.096
364.54	24.446
364.90	22.572
365.26	24.108
365.62	25.873
365.98	24.040
366.35	23.873
366.71	23.961
367.07	24.982
367.43	26.150
367.79	24.674
368.15	24.111
368.51	25.804
368.87	26.305
369.23	24.561
369.59	25.556
369.95	25.722
370.31	25.527
370.67	24.946
371.03	25.219
371.39	25.460
371.75	27.325
372.11	25.466
372.47	25.886
372.83	27.538
373.19	26.643
373.55	27.375
373.91	26.031
374.27	25.736
374.63	26.087
374.99	27.399
375.35	26.380
375.71	28.022
376.07	27.173
376.42	27.086
376.78	28.366
377.14	28.542
377.50	28.304
377.86	27.503
378.22	28.832
378.58	27.918
378.94	28.607
379.30	28.946
379.66	28.294
380.02	29.471
380.38	29.366
380.74	29.250
381.09	29.701
381.45	30.609
381.81	30.248
382.17	30.764
382.53	28.936
382.89	30.203
383.25	30.885
383.61	30.307
383.97	31.721
384.32	31.539
384.68	31.378
385.04	31.341
385.40	31.102
385.76	32.866
386.12	31.418
386.48	31.869
386.83	32.883
387.19	31.680
387.55	33.131
387.91	32.247
388.27	31.846
388.62	32.512
388.98	33.192
389.34	32.619
389.70	32.765
390.06	34.307
390.42	33.846
390.77	34.069
391.13	34.099
391.49	34.435
391.85	33.541
392.20	34.527
392.56	34.209
392.92	34.683
393.28	34.673
393.64	34.095
393.99	35.323
394.35	34.246
394.71	35.083
395.07	36.472
395.42	34.267
395.78	34.695
396.14	36.573
396.50	34.985
396.85	35.225
397.21	35.176
397.57	36.170
397.92	35.187
398.28	35.722
398.64	35.039
399.00	36.348
399.35	35.626
399.71	35.830
400.07	36.358
400.42	37.287
400.78	35.063
401.14	36.228
401.49	36.203
401.85	36.730
402.21	36.174
402.57	36.226
402.92	37.571
403.28	36.029
403.63	36.729
403.99	37.352
404.35	36.896
404.70	36.747
405.06	36.621
405.42	36.777
405.77	36.652
406.13	36.513
406.49	37.747
406.84	37.133
407.20	36.985
407.55	36.605
407.91	37.306
408.27	37.439
408.62	36.801
408.98	37.113
409.34	36.746
409.69	36.862
410.05	37.053
410.40	37.278
410.76	37.107
411.11	37.656
411.47	37.276
411.83	39.303
412.18	37.809
412.54	38.499
412.89	39.247
413.25	37.839
413.60	37.060
413.96	37.153
414.31	38.593
414.67	37.524
415.03	39.004
415.38	38.907
415.74	38.982
416.09	37.852
416.45	37.169
416.80	38.557
417.16	38.206
417.51	39.856
417.87	38.123
418.22	38.748
418.58	39.024
418.93	39.117
419.29	38.018
419.64	39.196
420.00	39.429
420.35	40.213
420.71	39.856
421.06	40.237
421.42	39.696
421.77	40.089
422.12	40.571
422.48	39.551
422.83	39.749
423.19	39.477
423.54	38.790
423.90	38.057
424.25	38.631
424.61	41.134
424.96	40.784
425.31	40.805
425.67	40.344
426.02	40.103
426.38	41.077
426.73	41.438
427.09	40.074
427.44	41.307
427.79	40.233
428.15	40.694
428.50	41.466
428.85	41.187
429.21	40.730
429.56	41.458
429.92	40.481
430.27	40.080
430.62	41.432
430.98	41.035
431.33	41.089
431.68	41.823
432.04	41.578
432.39	41.026
432.74	41.307
433.10	41.699
433.45	41.278
433.80	41.713
434.16	41.913
434.51	43.671
434.86	42.121
435.22	42.038
435.57	43.268
435.92	41.852
436.28	41.484
436.63	42.171
436.98	42.440
437.34	42.351
437.69	43.174
438.04	42.825
438.39	43.321
438.75	42.317
439.10	42.587
439.45	42.969
439.81	42.229
440.16	44.066
440.51	42.882
440.86	42.857
441.22	42.012
441.57	42.421
441.92	42.916
442.27	43.344
442.63	43.509
442.98	44.187
443.33	43.657
443.68	43.877
444.03	42.878
444.39	44.004
444.74	43.337
445.09	43.311
445.44	44.232
445.79	44.671
446.15	43.921
446.50	43.985
446.85	42.483
447.20	44.076
447.55	44.641
447.91	44.582
448.26	43.855
448.61	43.803
448.96	45.042
449.31	43.912
449.66	45.163
450.02	42.438
450.37	43.942
450.72	43.446
451.07	45.192
451.42	44.176
451.77	44.883
452.12	44.756
452.47	44.710
452.83	43.914
453.18	44.529
453.53	44.154
453.88	45.694
454.23	44.921
454.58	47.110
454.93	45.340
455.28	45.252
455.63	45.086
455.98	45.843
456.34	45.489
456.69	45.716
457.04	44.253
457.39	45.574
457.74	45.127
458.09	45.360
458.44	45.670
458.79	45.179
459.14	45.978
459.49	45.293
459.84	45.419
460.19	43.795
460.54	45.493
460.89	45.684
461.24	45.962
461.59	45.252
461.94	45.958
462.29	45.325
462.64	46.509
462.99	46.386
463.34	44.835
463.69	45.738
464.04	44.815
464.39	44.863
464.74	45.035
465.09	45.460
465.44	46.306
465.79	44.501
466.14	47.008
466.49	45.826
466.84	45.618
467.19	46.633
467.54	44.494
467.89	46.178
468.24	45.309
468.59	46.096
468.94	47.395
469.29	47.303
469.64	46.024
469.99	47.333
470.34	46.961
470.68	47.238
471.03	46.593
471.38	46.458
471.73	47.692
472.08	46.319
472.43	46.654
472.78	47.000
473.13	46.388
473.48	46.713
473.83	46.960
474.17	46.115
474.52	48.977
474.87	46.329
475.22	46.962
475.57	46.944
475.92	47.084
476.27	45.886
476.61	47.099
476.96	46.898
477.31	47.740
477.66	46.763
478.01	47.812
478.36	45.940
478.70	48.051
479.05	48.026
479.40	47.461
479.75	47.197
480.10	47.222
480.45	46.422
480.79	48.322
481.14	47.868
481.49	47.096
481.84	46.325
482.19	47.328
482.53	47.633
482.88	47.461
483.23	46.526
483.58	47.872
483.92	48.543
484.27	46.478
484.62	46.393
484.97	46.220
485.31	45.216
485.66	44.429
486.01	45.202
486.36	46.034
486.70	47.186
487.05	46.461
487.40	46.314
487.75	46.743
488.09	46.078
488.44	46.549
488.79	45.808
489.13	46.482
489.48	47.308
489.83	47.817
490.17	47.540
490.52	47.826
490.87	48.268
491.22	47.548
491.56	46.944
491.91	47.901
492.26	48.019
492.60	47.146
492.95	48.025
493.30	46.737
493.64	47.156
493.99	48.231
494.34	49.286
494.68	48.455
495.03	48.375
495.37	47.689
495.72	47.986
496.07	48.616
496.41	48.495
496.76	47.397
497.11	48.234
497.45	48.420
497.80	48.224
498.14	47.692
498.49	47.865
498.84	47.621
499.18	48.733
499.53	47.784
499.87	47.442
500.22	48.578
500.56	48.924
500.91	48.079
501.26	48.811
501.60	48.532
501.95	49.130
502.29	47.709
502.64	49.599
502.98	48.970
503.33	47.838
503.67	48.611
504.02	49.300
504.36	48.873
504.71	48.024
505.06	48.877
505.40	48.154
505.75	49.441
506.09	49.646
506.44	50.326
506.78	50.025
507.13	49.382
507.47	50.078
507.82	48.116
508.16	49.482
508.51	49.408
508.85	50.104
509.19	50.288
509.54	49.894
509.88	50.479
510.23	49.528
510.57	50.423
510.92	51.289
511.26	49.920
511.61	48.812
511.95	50.377
512.30	51.787
512.64	50.362
512.98	50.880
513.33	49.973
513.67	50.865
514.02	51.063
514.36	50.360
514.70	51.047
515.05	50.943
515.39	50.519
515.74	51.367
516.08	51.354
516.42	50.538
516.77	51.589
517.11	51.373
517.46	53.349
517.80	52.407
518.14	51.993
518.49	51.704
518.83	53.056
519.17	51.451
519.52	50.954
519.86	52.569
520.20	53.240
520.55	53.723
520.89	53.037
521.23	52.076
521.58	53.668
521.92	53.262
522.26	53.270
522.61	54.499
522.95	52.904
523.29	52.853
523.64	52.592
523.98	55.315
524.32	53.488
524.66	52.609
525.01	52.665
525.35	53.286
525.69	53.806
526.04	53.525
526.38	54.488
526.72	54.023
527.06	55.013
527.41	53.267
527.75	54.587
528.09	53.938
528.43	53.508
528.78	52.764
529.12	53.841
529.46	54.381
529.80	54.745
530.15	54.411
530.49	53.364
530.83	54.420
531.17	54.141
531.51	54.454
531.86	53.456
532.20	54.116
532.54	54.679
532.88	54.545
533.22	54.211
533.57	54.700
533.91	52.434
534.25	52.294
534.59	51.843
534.93	53.516
535.27	53.996
535.62	53.133
535.96	53.911
536.30	54.123
536.64	53.320
536.98	55.720
537.32	54.527
537.66	52.885
538.01	54.502
538.35	55.811
538.69	54.612
539.03	54.909
539.37	54.291
539.71	54.970
540.05	55.449
540.39	54.363
540.73	53.421
541.07	55.806
541.42	53.612
541.76	52.757
542.10	55.773
542.44	53.031
542.78	54.613
543.12	53.700
543.46	53.288
543.80	53.110
544.14	54.533
544.48	53.346
544.82	55.074
545.16	54.259
545.50	53.163
545.84	54.451
546.18	55.062
546.52	54.410
546.86	53.348
547.20	56.118
547.54	52.755
547.88	53.749
548.22	53.735
548.56	54.309
548.90	54.717
549.24	55.431
549.58	53.987
549.92	54.700
550.26	54.986
550.60	53.485
550.94	53.285
551.28	55.004
551.62	54.136
551.96	53.763
552.30	53.798
552.64	54.821
552.98	54.940
553.32	54.690
553.66	54.867
554.00	54.940
554.34	55.090
554.68	53.509
555.02	53.473
555.36	54.206
555.69	54.656
556.03	54.386
556.37	53.983
556.71	55.548
557.05	54.693
557.39	55.902
557.73	54.778
558.07	56.142
558.41	54.525
558.75	54.677
559.08	54.008
559.42	54.977
559.76	54.985
560.10	55.183
560.44	54.841
560.78	54.071
561.12	55.141
561.45	54.521
561.79	54.355
562.13	55.049
562.47	53.992
562.81	53.536
563.15	54.444
563.48	53.697
563.82	53.955
564.16	53.617
564.50	54.234
564.84	53.902
565.17	52.851
565.51	53.911
565.85	55.578
566.19	54.611
566.52	54.534
566.86	52.971
567.20	53.753
567.54	54.460
567.88	52.931
568.21	53.076
568.55	52.598
568.89	51.640
569.23	51.689
569.56	50.988
569.90	52.636
570.24	50.958
570.57	49.420
570.91	50.051
571.25	50.519
571.59	51.233
571.92	49.226
572.26	50.030
572.60	49.798
572.93	48.932
573.27	49.848
573.61	47.835
573.95	48.829
574.28	49.301
574.62	49.441
574.96	48.953
575.29	49.314
575.63	49.111
575.97	49.622
576.30	48.452
576.64	49.243
576.98	48.694
577.31	49.154
577.65	49.698
577.98	49.035
578.32	49.337
578.66	48.795
578.99	48.722
579.33	48.706
579.67	49.556
580.00	48.834
580.34	48.973
580.67	49.154
581.01	48.035
581.35	48.138
581.68	48.244
582.02	49.073
582.35	48.555
582.69	49.306
583.02	49.757
583.36	48.951
583.70	48.771
584.03	49.919
584.37	48.958
584.70	48.692
585.04	48.633
585.37	48.329
585.71	48.670
586.04	49.443
586.38	48.356
586.72	49.070
587.05	49.419
587.39	48.976
587.72	49.005
588.06	49.629
588.39	48.761
588.73	50.060
589.06	50.224
589.40	49.811
589.73	48.938
590.07	49.891
590.40	49.557
590.73	51.100
591.07	49.139
591.40	51.040
591.74	50.174
592.07	50.766
592.41	51.210
592.74	50.154
593.08	49.296
593.41	50.099
593.75	48.731
594.08	51.474
594.41	50.684
594.75	50.887
595.08	50.639
595.42	50.072
595.75	50.239
596.09	51.688
596.42	50.614
596.75	49.202
597.09	51.291
597.42	49.673
597.75	50.177
598.09	50.972
598.42	50.906
598.76	49.709
599.09	50.237
599.42	49.058
599.76	48.547
600.09	50.267
600.42	49.601
600.76	50.320
601.09	49.829
601.42	49.664
601.76	49.572
602.09	49.571
602.42	49.959
602.76	49.730
603.09	49.315
603.42	50.483
603.76	50.140
604.09	50.220
604.42	49.917
604.76	50.022
605.09	50.769
605.42	50.576
605.75	50.539
606.09	50.394
606.42	50.189
606.75	49.506
607.09	50.684
607.42	49.824
607.75	49.669
608.08	51.378
608.42	51.088
608.75	49.439
609.08	50.073
609.41	50.972
609.75	50.171
610.08	51.225
610.41	51.229
610.74	51.451
611.07	51.978
611.41	49.924
611.74	50.848
612.07	51.880
612.40	50.320
612.73	51.481
613.07	50.798
613.40	52.162
613.73	51.117
614.06	50.577
614.39	52.931
614.72	52.235
615.06	50.543
615.39	50.570
615.72	51.765
616.05	50.525
616.38	52.234
616.71	52.853
617.05	52.533
617.38	51.889
617.71	50.860
618.04	52.547
618.37	52.516
618.70	54.172
619.03	51.320
619.36	52.854
619.69	52.764
620.03	51.446
620.36	52.954
620.69	52.692
621.02	52.968
621.35	54.355
621.68	53.115
622.01	53.964
622.34	53.727
622.67	52.266
623.00	53.711
623.33	52.687
623.66	51.182
623.99	53.008
624.32	53.274
624.65	52.980
624.99	53.323
625.32	51.871
625.65	54.701
625.98	52.739
626.31	54.568
626.64	54.142
626.97	54.281
627.30	54.979
627.63	54.491
627.96	54.134
628.29	52.941
628.62	56.351
628.95	54.921
629.28	53.947
629.61	56.428
629.94	54.348
630.26	57.157
630.59	56.181
630.92	54.454
631.25	55.948
631.58	55.661
631.91	53.511
632.24	55.667
632.57	56.778
632.90	58.161
633.23	57.827
633.56	55.906
633.89	57.429
634.22	56.671
634.55	57.332
634.88	56.590
635.20	54.931
635.53	57.125
635.86	55.668
636.19	56.532
636.52	56.511
636.85	56.318
637.18	56.125
637.51	58.116
637.83	57.923
638.16	56.711
638.49	58.897
638.82	56.242
639.15	56.031
639.48	54.345
639.81	59.336
640.13	56.622
640.46	60.684
640.79	57.563
641.12	55.994
641.45	58.393
641.77	60.928
642.10	59.063
642.43	57.360
642.76	57.638
643.09	58.730
643.41	59.206
643.74	57.552
644.07	59.594
644.40	58.671
644.73	60.396
645.05	57.763
645.38	59.768
645.71	62.715
646.04	59.832
646.36	57.592
646.69	58.131
647.02	61.372
647.35	58.664
647.67	60.949
648.00	59.402
648.33	59.528
648.66	57.097
648.98	57.166
649.31	56.462
649.64	58.594
649.96	55.573
650.29	55.574
650.62	59.036
650.94	55.818
651.27	59.619
651.60	55.536
651.92	58.733
652.25	58.097
652.58	57.581
652.90	56.340
653.23	55.806
653.56	57.358
653.88	54.918
654.21	57.383
654.54	59.468
654.86	54.414
655.19	55.301
655.52	51.172
655.84	47.505
656.17	51.259
656.49	68.938
656.82	71.572
657.15	54.255
657.47	40.159
657.80	30.919
658.13	35.793
658.45	47.359
658.78	46.691
659.10	46.899
659.43	46.693
659.75	47.325
660.08	48.125
660.41	47.188
660.73	51.265
661.06	54.348
661.38	58.750
661.71	56.405
662.03	60.685
662.36	59.915
662.68	58.650
663.01	60.510
663.33	63.265
663.66	60.086
663.98	58.259
664.31	60.850
664.63	60.619
664.96	59.436
665.28	60.954
665.61	60.677
665.93	60.082
666.26	57.085
666.58	59.875
666.91	63.697
667.23	60.307
667.56	54.875
667.88	60.181
668.21	62.903
668.53	62.150
668.86	61.201
669.18	59.361
669.50	60.514
669.83	62.774
670.15	57.623
670.48	60.514
670.80	57.631
671.13	60.722
671.45	59.009
671.77	58.030
672.10	55.621
672.42	54.982
672.75	56.000
673.07	54.054
673.39	53.552
673.72	57.874
674.04	57.113
674.37	54.639
674.69	57.992
675.01	57.660
675.34	59.653
675.66	60.259
675.98	57.269
676.31	58.597
676.63	61.149
676.95	58.186
677.28	57.077
677.60	61.538
677.92	57.489
678.25	61.050
678.57	59.259
678.89	56.604
679.22	58.491
679.54	56.016
679.86	55.000
680.18	54.943
680.51	53.445
680.83	54.286
681.15	54.143
681.48	56.592
681.80	57.460
682.12	55.936
682.44	55.010
682.77	54.978
683.09	55.765
683.41	55.531
683.73	54.566
684.06	56.989
684.38	56.276
684.70	55.350
685.02	54.134
685.34	56.530
685.67	53.788
685.99	54.064
686.31	55.835
686.63	55.142
686.96	53.050
687.28	53.757
687.60	57.227
687.92	51.556
688.24	55.118
688.56	54.108
688.89	51.282
689.21	55.361
689.53	60.000
689.85	57.016
690.17	55.381
690.49	54.734
690.82	57.590
691.14	57.547
691.46	55.432
691.78	56.608
692.10	55.297
692.42	54.889
692.74	53.219
693.06	54.831
693.39	55.928
693.71	53.950
694.03	52.700
694.35	55.079
694.67	50.591
694.99	51.918
695.31	57.653
695.63	56.378
695.95	56.079
696.27	55.362
696.59	58.556
696.91	55.899
697.23	54.948
697.56	50.962
697.88	54.279
698.20	53.961
698.52	52.915
698.84	53.398
699.16	54.524
699.48	57.250
699.80	55.138
700.12	55.668
700.44	55.307
700.76	53.936
701.08	52.907
701.40	54.985
701.72	55.247
702.04	58.974
702.36	59.036
702.68	55.689
703.00	54.493
703.32	50.716
703.64	57.059
703.96	56.686
704.28	51.479
704.60	57.911
704.91	53.016
705.23	57.605
705.55	55.405
705.87	59.386
706.19	53.472
706.51	48.958
706.83	55.082
707.15	57.962
707.47	54.270
707.79	51.804
708.11	50.636
708.43	52.369
708.74	50.909
709.06	50.418
709.38	53.448
709.70	53.125
710.02	56.135
710.34	52.145
710.66	50.794
710.98	55.205
711.29	51.290
711.61	51.757
711.93	51.803
712.25	57.807
712.57	54.355
712.89	54.676
713.20	58.419
713.52	54.104
713.84	56.228
714.16	52.787
714.48	50.794
714.80	52.923
715.11	54.179
715.43	54.217
715.75	51.090
716.07	52.459
716.39	52.174
716.70	54.007
717.02	52.593
717.34	53.053
717.66	61.411
717.97	52.459
718.29	55.882
718.61	57.540
718.93	45.520
719.24	47.426
719.56	41.509
719.88	54.182
720.20	52.809
720.51	54.887
720.83	48.594
721.15	58.607
721.46	59.216
721.78	59.770
722.10	52.400
722.42	54.132
722.73	59.363
723.05	56.627
723.37	50.588
723.68	51.012
724.00	57.724
724.32	55.967
724.63	47.718
724.95	57.438
725.27	52.193
725.58	47.845
725.90	52.778
726.22	59.410
726.53	52.471
726.85	52.941
727.16	53.383
727.48	52.692
727.80	49.180
728.11	52.521
728.43	52.479
728.74	53.906
729.06	51.136
729.38	52.918
729.69	52.362
730.01	57.087
730.32	51.793
730.64	57.509
730.96	54.478
731.27	53.214
731.59	51.447
731.90	50.307
732.22	49.693
732.53	54.305
732.85	50.336
733.16	48.188
733.48	47.038
733.80	50.890
734.11	48.621
734.43	50.340
734.74	49.852
735.06	44.201
735.37	48.012
735.69	49.355
736.00	51.515
736.32	44.702
736.63	48.966
736.95	50.362
737.26	50.000
737.58	51.439
737.89	49.462
738.21	51.128
738.52	49.615
738.83	51.172
739.15	47.009
739.46	52.823
739.78	49.301
740.09	47.902
740.41	47.552
740.72	48.905
741.04	55.556
741.35	49.351
741.66	53.241
741.98	50.952
742.29	50.235
742.61	52.941
742.92	55.607
743.23	53.947
743.55	56.757
743.86	54.667
744.18	50.000
744.49	55.665
744.80	50.761
745.12	54.639
745.43	50.754
745.74	48.058
746.06	51.220
746.37	48.458
746.68	52.239
747.00	49.738
747.31	52.404
747.62	51.613
747.94	45.415
748.25	54.419
748.56	52.381
748.88	44.565
749.19	46.948
749.50	53.431
749.82	50.667
750.13	55.947
750.44	52.439
750.75	50.000
751.07	49.286
751.38	45.387
751.69	42.748
752.01	50.000
752.32	49.416
752.63	46.154
752.94	46.032
753.26	48.261
753.57	54.464
753.88	56.034
754.19	48.548
754.51	48.828
754.82	50.198
755.13	54.321
755.44	50.000
755.75	51.852
756.07	44.980
756.38	48.437
756.69	47.292
757.00	47.387
757.31	49.664
757.63	50.467
757.94	45.665
758.25	45.930
758.56	46.092
758.87	44.602
759.18	42.667
759.50	49.110
759.81	43.431
760.12	42.905
760.43	44.660
760.74	49.687
761.05	49.438
761.36	49.401
761.67	43.787
761.99	43.871
762.30	51.449
762.61	46.415
762.92	49.327
763.23	48.815
763.54	46.667
763.85	48.101
764.16	48.571
764.47	49.576
764.78	45.318
765.10	52.518
765.41	43.548
765.72	42.138
766.03	42.756
766.34	47.368
766.65	51.822
766.96	47.500
767.27	43.229
767.58	53.488
767.89	44.516
768.20	52.147
768.51	42.077
768.82	47.568
769.13	47.000
769.44	44.737
769.75	43.290
770.06	43.119
770.37	45.070
770.68	41.667
770.99	46.535
771.30	46.602
771.61	42.130
771.92	40.260
772.23	44.393
772.54	43.617
772.85	37.870
773.16	57.317
773.47	48.795
773.78	50.549
774.09	47.333
774.39	46.296
774.70	36.913
775.01	44.928
775.32	49.254
775.63	43.802
775.94	39.850
776.25	42.857
776.56	51.639
776.87	50.442
777.18	49.558
777.48	43.636
777.79	39.130
778.10	42.202
778.41	44.068
778.72	44.628
779.03	46.269
779.34	44.361
779.65	42.484
779.95	49.275
780.26	44.218
780.57	30.172
780.88	46.296
781.19	37.374
781.50	40.800
781.80	43.791
782.11	40.385
782.42	44.578
782.73	40.146
783.04	43.243
783.34	43.939
783.65	39.535
783.96	53.659
784.27	56.410
784.57	38.211
784.88	35.772
785.19	42.105
785.50	31.959
785.81	50.476
786.11	41.176
786.42	44.545
786.73	50.450
787.04	41.584
787.34	41.905
787.65	32.381
787.96	35.294
788.26	48.649
788.57	41.935
788.88	35.937
789.19	46.154
789.49	35.294
789.80	41.880
790.11	40.708
790.41	39.394
790.72	41.509
791.03	30.556
791.33	42.105
791.64	46.237
791.95	46.667
792.25	25.714
792.56	36.585
792.87	36.735
793.17	19.737
793.48	31.081
793.79	40.845
794.09	35.443
794.40	36.170
794.70	43.925
795.01	36.842
795.32	33.636
795.62	40.179
795.93	37.113
796.23	31.868
796.54	41.053
796.85	26.027
797.15	31.944
797.46	46.575
797.76	53.521
798.07	38.750
798.37	50.000
798.68	47.143
798.99	30.000
799.29	36.842
799.60	33.333
799.90	31.944
800.21	42.188
800.51	15.873
800.82	42.623
801.12	15.789
801.43	39.437
801.73	35.593
802.04	32.787
802.34	40.000
802.65	19.231
802.95	40.741
803.26	42.500
803.56	48.077
803.87	28.947
804.17	35.484
804.48	30.769
804.78	74.359
805.09	32.558
805.39	0.000
805.70	5.660
806.00	42.105
806.30	45.946
806.61	47.059
806.91	37.037
807.22	32.000
807.52	31.343
807.83	9.677
808.13	47.619
808.43	32.727
808.74	22.727
809.04	37.736
809.35	30.137
809.65	61.404
809.95	51.471
810.26	47.059
810.56	20.000
810.86	12.245
811.17	62.857
811.47	9.615
811.77	45.161
812.08	2.632
812.38	21.429
812.69	6.522
812.99	51.613
813.29	11.905
813.59	-25.926
813.90	12.766
814.20	13.953
814.50	22.917
814.81	35.000
815.11	14.634
815.41	53.333
815.72	40.000
816.02	22.222
816.32	15.385
816.62	40.541
816.93	-11.765
817.23	23.913
817.53	29.412
817.84	2.941
818.14	-6.250
818.44	13.793
818.74	3.226
819.04	25.926
819.35	-3.333
819.65	16.000
819.95	40.000
820.25	-48.000
820.56	21.053
820.86	17.500
821.16	31.915
821.46	25.862
821.76	-5.128
822.07	-20.000
822.37	6.977
822.67	-13.333
822.97	-21.622
823.27	21.622
823.57	52.000
823.88	21.622
824.18	-57.143
824.48	0.000
824.78	-161.538
825.08	8.696
825.38	25.000
825.69	-4.167
825.99	-15.000
826.29	-10.811
826.59	-5.882
826.89	24.000
827.19	8.571
827.49	15.789
827.79	-6.250
828.09	33.333
828.39	21.739
828.70	-10.345
829.00	6.897
829.30	8.333
829.60	59.375
829.90	27.778
830.20	-38.462
830.50	-38.095
830.80	-42.857
831.10	0.000
831.40	-9.524
831.70	14.706
832.00	25.000
832.30	-36.842
832.60	0.000
832.90	-58.333
833.20	-105.882
833.50	-100.000
833.80	13.333
834.10	-20.000
834.40	29.167
834.70	50.000
835.00	23.077
835.30	37.500
835.60	0.000
835.90	-44.444
836.20	-72.727
836.50	-100.000
836.80	5.714
837.10	14.286
837.40	-17.647
837.70	-18.182
838.00	20.833
838.30	-87.500
838.60	9.524
838.90	5.000
839.19	-47.826
839.49	-4.348
839.79	-38.889
840.09	-65.217
840.39	0.000
840.69	-62.500
840.99	5.263
841.29	-31.250
841.59	-21.429
841.88	-61.111
842.18	-16.667
842.48	-58.824
842.78	-27.586
843.08	-14.286
843.38	30.769
843.68	-133.333
843.97	-38.462
844.27	-54.545
844.57	-80.000
844.87	64.000
845.17	20.000
845.47	-64.286
845.76	-133.333
846.06	0.000
846.36	-225.000
846.66	-50.000
846.96	-36.842
847.25	8.333
847.55	-83.333
847.85	20.000
848.15	50.000
848.44	30.769
848.74	31.579
849.04	433.333
849.34	-88.889
849.63	-78.947
849.93	0.000
850.23	-45.000
850.53	19.048
850.82	-12.000
851.12	26.316
851.42	-850.000
851.71	50.000
852.01	-108.333
852.31	-64.706
852.61	0.000
852.90	-9.524
853.20	-283.333
853.50	-27.778
853.79	-78.947
854.09	26.667
854.39	7.143
854.68	-21.739
854.98	-158.333
855.28	10.345
855.57	-37.500
855.87	-60.000
856.17	-80.000
856.46	20.690
856.76	-46.667
857.05	-11.765
857.35	-123.077
857.65	-36.364
857.94	14.815
858.24	-78.571
858.53	-71.429
858.83	-100.000
859.13	-66.667
859.42	47.619
859.72	-150.000
860.01	-366.667
860.31	-75.000
860.60	-340.000
860.90	-88.889
861.20	-225.000
861.49	-85.714
861.79	35.294
862.08	-800.000
862.38	-91.667
862.67	0.000
862.97	-47.059
863.26	-20.000
863.56	-52.941
863.85	400.000
864.15	-70.000
864.44	-115.385
864.74	15.000
865.03	-187.500
865.33	-83.333
865.62	-41.176
865.92	-400.000
866.21	-128.571
866.51	-125.000
866.80	-1700.000
867.10	-300.000
867.39	11.765
867.69	4.348
867.98	-28.571
868.27	-280.000
868.57	-31.250
868.86	-136.364
869.16	-17.647
869.45	-66.667
869.75	-100.000
870.04	2700.000
870.33	-58.333
870.63	-100.000
870.92	-166.667
871.22	-100.000
871.51	-45.455
871.80	-33.333
872.10	50.000
>>>>>End Processed Spectral Data<<<<<
