SpectraSuite Data File
++++++++++++++++++++++++++++++++++++
Date: Sat May 16 11:44:55 PDT 2015
User: schluterlab
Dark Spectrum Present: Yes
Reference Spectrum Present: Yes
Number of Sampled Component Spectra: 1
Spectrometers: USB2E3373
Integration Time (usec): 3000 (USB2E3373)
Spectra Averaged: 3 (USB2E3373)
Boxcar Smoothing: 0 (USB2E3373)
Correct for Electrical Dark: No (USB2E3373)
Strobe/Lamp Enabled: No (USB2E3373)
Correct for Detector Non-linearity: No (USB2E3373)
Correct for Stray Light: No (USB2E3373)
Number of Pixels in Processed Spectrum: 2048
>>>>>Begin Processed Spectral Data<<<<<
178.53	0.000
178.91	100.000
179.29	600.000
179.67	-400.000
180.04	-38.462
180.42	700.000
180.80	375.000
181.18	325.000
181.56	-112.500
181.94	1100.000
182.31	500.000
182.69	-38.462
183.07	-533.333
183.45	1500.000
183.83	500.000
184.20	-185.714
184.58	-187.500
184.96	-375.000
185.34	143.750
185.72	-625.000
186.09	366.667
186.47	-200.000
186.85	-187.500
187.23	-37.500
187.61	-450.000
187.98	-162.500
188.36	-175.000
188.74	-162.500
189.12	1300.000
189.49	328.571
189.87	-141.667
190.25	500.000
190.63	-57.143
191.00	-166.667
191.38	360.000
191.76	26.667
192.14	500.000
192.51	-180.000
192.89	-500.000
193.27	0.000
193.65	-144.444
194.02	-128.571
194.40	500.000
194.78	-100.000
195.15	-1400.000
195.53	-127.273
195.91	-533.333
196.29	40.000
196.66	-533.333
197.04	2800.000
197.42	-150.000
197.79	-33.333
198.17	-300.000
198.55	-900.000
198.92	-700.000
199.30	225.000
199.68	-500.000
200.05	-133.333
200.43	-144.444
200.81	-1700.000
201.18	-91.667
201.56	200.000
201.94	-46.667
202.31	-4.545
202.69	0.000
203.07	-80.000
203.44	700.000
203.82	-300.000
204.19	-125.000
204.57	-275.000
204.95	-2300.000
205.32	-50.000
205.70	1500.000
206.08	-1500.000
206.45	-11.111
206.83	-1350.000
207.20	100.000
207.58	-666.667
207.96	0.000
208.33	-137.500
208.71	-177.778
209.08	180.000
209.46	-200.000
209.84	500.000
210.21	0.000
210.59	-20.000
210.96	1400.000
211.34	-133.333
211.71	-566.667
212.09	475.000
212.46	750.000
212.84	-2600.000
213.22	366.667
213.59	208.333
213.97	-66.667
214.34	150.000
214.72	-40.000
215.09	-266.667
215.47	-233.333
215.84	-90.000
216.22	-30.000
216.59	-33.333
216.97	-225.000
217.34	650.000
217.72	-14.286
218.09	-383.333
218.47	-271.429
218.84	257.143
219.22	-100.000
219.59	0.000
219.97	200.000
220.34	475.000
220.72	275.000
221.09	-61.538
221.47	0.000
221.84	466.667
222.22	-250.000
222.59	800.000
222.97	-175.000
223.34	-750.000
223.72	-666.667
224.09	-107.143
224.46	-450.000
224.84	-42.857
225.21	-228.571
225.59	-136.364
225.96	-200.000
226.34	-85.714
226.71	-122.222
227.08	5.000
227.46	1900.000
227.83	-214.286
228.21	-325.000
228.58	950.000
228.95	-56.250
229.33	-1200.000
229.70	-220.000
230.08	-1200.000
230.45	-91.667
230.82	-250.000
231.20	-1300.000
231.57	-450.000
231.95	1600.000
232.32	-14.286
232.69	-155.556
233.07	-228.571
233.44	-950.000
233.81	-80.000
234.19	-11.111
234.56	-18.750
234.93	-15.625
235.31	-200.000
235.68	-78.571
236.05	-111.765
236.43	-31.818
236.80	-3.226
237.17	-29.167
237.55	-52.381
237.92	-81.818
238.29	-42.857
238.67	-17.647
239.04	0.000
239.41	-19.355
239.79	-56.410
240.16	-30.952
240.53	-29.091
240.91	-17.949
241.28	0.000
241.65	7.692
242.02	13.115
242.40	-11.475
242.77	-7.576
243.14	-18.644
243.51	-15.714
243.89	-7.595
244.26	4.494
244.63	11.579
245.00	4.211
245.38	3.390
245.75	-6.195
246.12	0.800
246.49	3.937
246.87	1.626
247.24	-12.712
247.61	-4.237
247.98	-5.634
248.36	2.797
248.73	5.696
249.10	-0.637
249.47	1.754
249.84	9.091
250.22	-2.976
250.59	0.565
250.96	0.524
251.33	3.791
251.70	4.327
252.08	5.687
252.45	4.265
252.82	0.476
253.19	-0.426
253.56	7.258
253.94	4.641
254.31	3.004
254.68	7.724
255.05	3.629
255.42	5.952
255.79	2.509
256.16	4.314
256.54	8.456
256.91	4.167
257.28	3.663
257.65	7.447
258.02	9.434
258.39	7.358
258.76	3.378
259.14	7.099
259.51	10.164
259.88	8.537
260.25	6.522
260.62	3.215
260.99	5.045
261.36	7.317
261.73	8.960
262.10	7.500
262.47	7.692
262.85	8.857
263.22	7.736
263.59	0.923
263.96	5.797
264.33	3.523
264.70	6.906
265.07	6.319
265.44	8.269
265.81	4.651
266.18	4.810
266.55	8.088
266.92	8.060
267.29	6.295
267.66	5.185
268.03	9.420
268.40	8.685
268.77	7.952
269.14	6.729
269.51	6.437
269.88	4.587
270.25	5.128
270.62	6.178
270.99	6.081
271.36	6.993
271.73	7.623
272.10	7.323
272.47	6.222
272.84	10.222
273.21	7.110
273.58	7.692
273.95	4.605
274.32	9.955
274.69	8.096
275.06	10.634
275.43	6.027
275.80	8.758
276.17	7.531
276.54	7.332
276.91	8.230
277.28	8.519
277.65	7.645
278.02	6.054
278.39	8.841
278.76	6.175
279.13	7.510
279.50	6.561
279.87	6.765
280.23	9.312
280.60	10.736
280.97	5.049
281.34	7.157
281.71	8.654
282.08	7.460
282.45	4.277
282.82	6.977
283.19	5.636
283.56	9.890
283.92	7.244
284.29	6.134
284.66	8.453
285.03	6.239
285.40	8.303
285.77	9.825
286.14	5.776
286.51	7.282
286.87	8.167
287.24	7.850
287.61	8.099
287.98	6.412
288.35	8.595
288.72	6.961
289.08	5.932
289.45	7.912
289.82	5.882
290.19	8.539
290.56	5.620
290.93	7.154
291.29	5.673
291.66	7.568
292.03	7.064
292.40	7.831
292.77	7.919
293.13	7.642
293.50	8.767
293.87	7.515
294.24	6.184
294.60	6.212
294.97	8.194
295.34	5.333
295.71	7.440
296.08	5.684
296.44	7.582
296.81	6.553
297.18	7.183
297.55	7.062
297.91	7.531
298.28	7.808
298.65	7.252
299.02	8.957
299.38	7.086
299.75	7.337
300.12	7.692
300.48	8.824
300.85	6.815
301.22	8.021
301.59	6.632
301.95	8.942
302.32	6.128
302.69	8.078
303.05	6.716
303.42	7.500
303.79	7.775
304.15	7.583
304.52	7.701
304.89	7.556
305.25	5.983
305.62	6.933
305.99	9.187
306.35	7.991
306.72	7.175
307.09	9.194
307.45	6.583
307.82	7.374
308.19	8.837
308.55	6.536
308.92	7.197
309.29	7.027
309.65	7.317
310.02	7.883
310.38	6.162
310.75	8.504
311.12	8.884
311.48	7.307
311.85	7.209
312.22	7.930
312.58	8.647
312.95	7.339
313.31	8.791
313.68	9.045
314.05	8.408
314.41	6.942
314.78	7.592
315.14	9.477
315.51	8.004
315.87	9.487
316.24	9.038
316.61	8.445
316.97	8.756
317.34	7.996
317.70	8.905
318.07	9.049
318.43	9.363
318.80	10.610
319.16	8.818
319.53	9.398
319.89	9.125
320.26	9.902
320.62	7.981
320.99	10.050
321.35	8.473
321.72	9.110
322.08	8.902
322.45	10.000
322.81	9.702
323.18	10.567
323.54	10.259
323.91	11.492
324.27	9.506
324.64	10.695
325.00	10.471
325.37	11.403
325.73	12.511
326.10	10.806
326.46	11.821
326.83	12.000
327.19	12.761
327.56	13.118
327.92	13.084
328.29	14.113
328.65	12.273
329.01	13.781
329.38	14.808
329.74	14.835
330.11	14.506
330.47	13.624
330.84	15.582
331.20	12.906
331.56	13.947
331.93	13.233
332.29	14.703
332.66	15.628
333.02	15.837
333.38	15.233
333.75	14.604
334.11	15.111
334.48	15.799
334.84	16.360
335.20	15.780
335.57	15.343
335.93	16.115
336.29	15.058
336.66	14.273
337.02	15.946
337.38	14.706
337.75	15.540
338.11	15.027
338.47	16.014
338.84	15.699
339.20	16.257
339.56	16.488
339.93	15.961
340.29	15.323
340.65	16.259
341.02	14.840
341.38	16.765
341.74	16.681
342.11	14.932
342.47	15.536
342.83	15.029
343.20	15.542
343.56	13.959
343.92	15.943
344.28	15.812
344.65	15.264
345.01	15.630
345.37	16.611
345.73	15.221
346.10	14.554
346.46	15.678
346.82	15.317
347.19	14.051
347.55	15.329
347.91	15.512
348.27	15.831
348.63	15.994
349.00	15.593
349.36	15.066
349.72	16.720
350.08	15.477
350.45	15.445
350.81	15.605
351.17	17.122
351.53	15.115
351.89	15.764
352.26	16.434
352.62	16.206
352.98	16.060
353.34	16.627
353.70	15.521
354.07	16.680
354.43	16.126
354.79	15.689
355.15	16.534
355.51	15.078
355.87	15.257
356.24	14.932
356.60	17.325
356.96	17.321
357.32	17.181
357.68	16.015
358.04	16.166
358.40	16.319
358.77	16.151
359.13	16.373
359.49	16.553
359.85	16.768
360.21	16.667
360.57	17.319
360.93	17.333
361.29	17.115
361.66	16.387
362.02	15.533
362.38	17.315
362.74	17.070
363.10	15.925
363.46	18.091
363.82	16.764
364.18	17.221
364.54	17.941
364.90	16.702
365.26	17.261
365.62	17.605
365.98	17.568
366.35	16.338
366.71	16.702
367.07	18.066
367.43	16.953
367.79	17.388
368.15	17.212
368.51	18.811
368.87	18.201
369.23	18.456
369.59	18.056
369.95	17.477
370.31	18.073
370.67	17.426
371.03	16.691
371.39	18.105
371.75	18.383
372.11	18.508
372.47	19.017
372.83	19.054
373.19	18.143
373.55	19.071
373.91	18.848
374.27	19.302
374.63	17.736
374.99	18.985
375.35	18.641
375.71	19.514
376.07	19.165
376.42	19.139
376.78	19.869
377.14	20.271
377.50	19.923
377.86	19.896
378.22	19.661
378.58	20.877
378.94	19.297
379.30	19.744
379.66	20.401
380.02	19.905
380.38	20.242
380.74	21.336
381.09	21.441
381.45	21.241
381.81	20.690
382.17	20.426
382.53	20.547
382.89	21.411
383.25	21.734
383.61	21.639
383.97	21.923
384.32	20.964
384.68	22.249
385.04	21.860
385.40	21.911
385.76	22.256
386.12	22.111
386.48	23.391
386.83	22.515
387.19	22.773
387.55	22.532
387.91	23.355
388.27	21.592
388.62	22.236
388.98	23.016
389.34	22.338
389.70	22.960
390.06	23.306
390.42	24.423
390.77	22.713
391.13	22.919
391.49	23.082
391.85	24.564
392.20	24.211
392.56	23.580
392.92	23.046
393.28	24.110
393.64	24.534
393.99	24.308
394.35	24.453
394.71	23.533
395.07	23.415
395.42	23.302
395.78	23.507
396.14	23.988
396.50	23.731
396.85	24.244
397.21	23.937
397.57	24.802
397.92	24.063
398.28	24.333
398.64	23.795
399.00	24.157
399.35	23.168
399.71	24.274
400.07	24.657
400.42	24.757
400.78	23.494
401.14	25.269
401.49	24.057
401.85	25.259
402.21	24.493
402.57	24.515
402.92	25.551
403.28	23.100
403.63	23.907
403.99	24.363
404.35	24.094
404.70	24.751
405.06	23.933
405.42	23.678
405.77	23.247
406.13	24.361
406.49	24.146
406.84	23.875
407.20	24.676
407.55	25.522
407.91	23.381
408.27	24.755
408.62	23.271
408.98	23.408
409.34	24.010
409.69	24.134
410.05	24.075
410.40	24.586
410.76	24.956
411.11	24.564
411.47	24.872
411.83	25.061
412.18	23.577
412.54	23.673
412.89	25.091
413.25	24.321
413.60	23.755
413.96	23.660
414.31	24.098
414.67	24.571
415.03	23.868
415.38	24.073
415.74	23.905
416.09	24.041
416.45	23.743
416.80	25.033
417.16	24.385
417.51	25.739
417.87	24.466
418.22	24.716
418.58	25.160
418.93	25.506
419.29	25.596
419.64	24.121
420.00	25.456
420.35	25.133
420.71	25.210
421.06	25.562
421.42	24.005
421.77	25.405
422.12	25.518
422.48	25.922
422.83	24.601
423.19	25.111
423.54	25.418
423.90	24.523
424.25	25.113
424.61	25.995
424.96	25.922
425.31	25.154
425.67	25.043
426.02	24.326
426.38	25.287
426.73	25.073
427.09	25.306
427.44	26.080
427.79	25.407
428.15	25.673
428.50	25.689
428.85	25.240
429.21	25.125
429.56	25.625
429.92	26.403
430.27	25.573
430.62	25.862
430.98	25.666
431.33	26.361
431.68	26.113
432.04	25.797
432.39	26.781
432.74	26.259
433.10	25.886
433.45	25.331
433.80	26.708
434.16	25.685
434.51	26.192
434.86	27.182
435.22	26.670
435.57	25.765
435.92	26.553
436.28	26.588
436.63	25.890
436.98	25.601
437.34	26.285
437.69	26.079
438.04	26.375
438.39	26.594
438.75	25.553
439.10	27.429
439.45	26.132
439.81	26.867
440.16	27.030
440.51	27.588
440.86	27.126
441.22	26.479
441.57	27.000
441.92	26.803
442.27	26.894
442.63	27.843
442.98	26.749
443.33	26.194
443.68	26.576
444.03	26.719
444.39	26.285
444.74	27.423
445.09	26.700
445.44	27.743
445.79	26.670
446.15	28.039
446.50	26.837
446.85	26.834
447.20	26.251
447.55	27.348
447.91	28.299
448.26	27.095
448.61	27.448
448.96	27.339
449.31	27.508
449.66	27.590
450.02	27.701
450.37	27.362
450.72	27.288
451.07	27.656
451.42	26.394
451.77	27.768
452.12	27.950
452.47	27.141
452.83	27.315
453.18	28.020
453.53	27.239
453.88	28.110
454.23	26.058
454.58	28.341
454.93	27.960
455.28	28.043
455.63	28.194
455.98	27.410
456.34	27.065
456.69	28.080
457.04	28.703
457.39	27.632
457.74	27.348
458.09	27.436
458.44	28.233
458.79	27.298
459.14	27.210
459.49	27.768
459.84	28.162
460.19	26.969
460.54	27.344
460.89	27.578
461.24	27.262
461.59	27.433
461.94	27.944
462.29	27.338
462.64	28.195
462.99	28.581
463.34	27.616
463.69	27.608
464.04	26.772
464.39	27.419
464.74	28.191
465.09	26.879
465.44	28.144
465.79	28.032
466.14	28.654
466.49	28.210
466.84	28.331
467.19	29.177
467.54	27.848
467.89	28.360
468.24	28.919
468.59	28.232
468.94	28.746
469.29	28.005
469.64	27.898
469.99	28.494
470.34	28.858
470.68	29.215
471.03	29.732
471.38	27.500
471.73	28.531
472.08	28.514
472.43	29.279
472.78	28.467
473.13	28.231
473.48	29.547
473.83	28.970
474.17	28.153
474.52	29.731
474.87	29.312
475.22	27.847
475.57	28.556
475.92	29.428
476.27	28.800
476.61	28.394
476.96	28.619
477.31	29.602
477.66	29.109
478.01	29.065
478.36	29.544
478.70	29.365
479.05	29.962
479.40	29.585
479.75	28.848
480.10	29.514
480.45	28.337
480.79	29.467
481.14	29.252
481.49	28.703
481.84	29.589
482.19	28.826
482.53	29.545
482.88	29.616
483.23	30.094
483.58	30.574
483.92	29.384
484.27	28.844
484.62	28.467
484.97	28.761
485.31	28.064
485.66	27.304
486.01	27.721
486.36	28.606
486.70	29.396
487.05	28.849
487.40	29.193
487.75	28.916
488.09	28.691
488.44	28.620
488.79	29.006
489.13	28.908
489.48	29.812
489.83	30.131
490.17	29.604
490.52	29.801
490.87	29.469
491.22	29.939
491.56	29.861
491.91	29.819
492.26	29.953
492.60	29.543
492.95	30.033
493.30	30.205
493.64	29.901
493.99	29.828
494.34	30.476
494.68	30.197
495.03	30.354
495.37	30.285
495.72	29.470
496.07	30.080
496.41	29.968
496.76	30.137
497.11	30.617
497.45	30.699
497.80	30.515
498.14	30.452
498.49	30.688
498.84	29.612
499.18	30.068
499.53	30.054
499.87	29.826
500.22	30.588
500.56	30.765
500.91	29.852
501.26	30.374
501.60	30.188
501.95	30.097
502.29	29.948
502.64	30.599
502.98	30.618
503.33	30.545
503.67	29.550
504.02	30.034
504.36	29.902
504.71	30.750
505.06	30.704
505.40	30.788
505.75	30.132
506.09	31.345
506.44	31.830
506.78	30.657
507.13	31.256
507.47	31.873
507.82	31.285
508.16	31.710
508.51	31.066
508.85	31.522
509.19	32.339
509.54	31.871
509.88	32.500
510.23	31.604
510.57	32.593
510.92	31.633
511.26	31.419
511.61	31.156
511.95	31.950
512.30	32.710
512.64	32.499
512.98	32.068
513.33	32.015
513.67	33.222
514.02	32.103
514.36	33.463
514.70	33.333
515.05	33.219
515.39	33.852
515.74	32.810
516.08	33.084
516.42	32.805
516.77	32.640
517.11	33.181
517.46	34.031
517.80	34.055
518.14	33.998
518.49	33.951
518.83	33.769
519.17	33.452
519.52	32.967
519.86	33.751
520.20	32.885
520.55	33.292
520.89	33.312
521.23	34.554
521.58	33.793
521.92	34.452
522.26	35.111
522.61	33.714
522.95	33.631
523.29	35.110
523.64	32.979
523.98	34.691
524.32	34.444
524.66	33.354
525.01	34.489
525.35	34.665
525.69	35.068
526.04	35.444
526.38	35.837
526.72	33.972
527.06	35.547
527.41	34.455
527.75	34.257
528.09	34.547
528.43	35.016
528.78	34.548
529.12	35.531
529.46	35.180
529.80	34.926
530.15	35.351
530.49	33.635
530.83	35.691
531.17	35.623
531.51	35.298
531.86	34.496
532.20	33.063
532.54	35.094
532.88	34.387
533.22	33.890
533.57	35.705
533.91	33.833
534.25	34.192
534.59	34.166
534.93	33.479
535.27	35.683
535.62	35.038
535.96	34.971
536.30	34.555
536.64	35.060
536.98	35.805
537.32	35.729
537.66	36.117
538.01	34.639
538.35	35.135
538.69	34.091
539.03	35.342
539.37	34.331
539.71	35.157
540.05	35.435
540.39	36.080
540.73	35.798
541.07	35.656
541.42	34.369
541.76	34.086
542.10	35.989
542.44	35.243
542.78	35.210
543.12	35.438
543.46	34.863
543.80	34.783
544.14	34.385
544.48	35.302
544.82	35.047
545.16	36.016
545.50	34.186
545.84	35.466
546.18	35.714
546.52	35.206
546.86	35.328
547.20	36.146
547.54	33.884
547.88	34.970
548.22	35.714
548.56	34.603
548.90	34.636
549.24	35.879
549.58	34.721
549.92	35.548
550.26	35.621
550.60	34.424
550.94	35.766
551.28	35.666
551.62	35.377
551.96	35.311
552.30	35.261
552.64	34.835
552.98	35.179
553.32	35.570
553.66	34.968
554.00	35.821
554.34	35.668
554.68	35.015
555.02	36.324
555.36	35.011
555.69	34.456
556.03	35.860
556.37	35.349
556.71	34.860
557.05	35.551
557.39	36.154
557.73	36.907
558.07	35.418
558.41	35.752
558.75	36.122
559.08	34.475
559.42	35.681
559.76	36.120
560.10	36.167
560.44	37.283
560.78	36.186
561.12	34.783
561.45	36.233
561.79	36.516
562.13	35.554
562.47	35.924
562.81	35.007
563.15	35.969
563.48	35.314
563.82	34.550
564.16	35.024
564.50	34.677
564.84	34.722
565.17	34.881
565.51	35.593
565.85	36.444
566.19	35.705
566.52	34.377
566.86	35.651
567.20	36.683
567.54	35.854
567.88	33.780
568.21	34.340
568.55	35.101
568.89	33.449
569.23	32.948
569.56	32.451
569.90	33.596
570.24	33.333
570.57	32.865
570.91	32.812
571.25	32.944
571.59	32.501
571.92	32.440
572.26	32.594
572.60	32.640
572.93	32.115
573.27	31.738
573.61	31.431
573.95	32.517
574.28	31.901
574.62	32.054
574.96	31.705
575.29	32.190
575.63	31.218
575.97	31.526
576.30	30.967
576.64	32.010
576.98	31.998
577.31	31.776
577.65	32.051
577.98	31.742
578.32	31.404
578.66	31.705
578.99	31.622
579.33	31.751
579.67	31.245
580.00	31.448
580.34	31.654
580.67	31.429
581.01	31.056
581.35	31.538
581.68	31.050
582.02	31.485
582.35	31.010
582.69	32.361
583.02	31.919
583.36	31.721
583.70	32.002
584.03	32.166
584.37	31.204
584.70	31.906
585.04	31.570
585.37	31.265
585.71	31.205
586.04	31.484
586.38	31.676
586.72	32.159
587.05	31.832
587.39	31.740
587.72	32.174
588.06	32.242
588.39	31.871
588.73	32.197
589.06	32.896
589.40	32.566
589.73	32.401
590.07	32.302
590.40	32.989
590.73	32.147
591.07	33.115
591.40	34.055
591.74	33.406
592.07	33.198
592.41	33.163
592.74	33.205
593.08	32.956
593.41	31.776
593.75	31.949
594.08	32.962
594.41	33.013
594.75	32.616
595.08	32.556
595.42	32.334
595.75	32.378
596.09	32.945
596.42	32.938
596.75	32.945
597.09	33.793
597.42	32.955
597.75	32.684
598.09	32.942
598.42	32.965
598.76	32.517
599.09	32.044
599.42	32.795
599.76	32.465
600.09	33.588
600.42	33.232
600.76	33.107
601.09	32.510
601.42	32.806
601.76	32.866
602.09	33.170
602.42	32.798
602.76	32.322
603.09	32.944
603.42	32.877
603.76	32.828
604.09	32.399
604.42	32.889
604.76	32.577
605.09	33.996
605.42	33.378
605.75	32.557
606.09	32.503
606.42	31.713
606.75	33.061
607.09	33.348
607.42	32.702
607.75	32.539
608.08	33.755
608.42	32.829
608.75	32.477
609.08	32.830
609.41	33.234
609.75	32.716
610.08	33.039
610.41	32.241
610.74	33.462
611.07	33.164
611.41	32.930
611.74	33.728
612.07	33.835
612.40	33.902
612.73	33.172
613.07	33.902
613.40	34.209
613.73	33.460
614.06	33.333
614.39	33.540
614.72	33.184
615.06	32.554
615.39	32.773
615.72	33.732
616.05	34.180
616.38	34.243
616.71	34.535
617.05	34.379
617.38	34.365
617.71	34.152
618.04	34.845
618.37	34.591
618.70	35.007
619.03	33.378
619.36	35.307
619.69	36.324
620.03	32.576
620.36	34.529
620.69	35.032
621.02	35.845
621.35	35.081
621.68	33.115
622.01	34.951
622.34	34.938
622.67	34.531
623.00	34.813
623.33	36.045
623.66	34.047
623.99	33.759
624.32	34.226
624.65	34.952
624.99	35.101
625.32	34.356
625.65	35.509
625.98	33.959
626.31	33.524
626.64	34.644
626.97	34.503
627.30	34.979
627.63	33.938
627.96	35.683
628.29	35.754
628.62	36.581
628.95	35.039
629.28	35.150
629.61	34.642
629.94	35.917
630.26	36.978
630.59	36.181
630.92	35.135
631.25	36.391
631.58	37.143
631.91	35.426
632.24	36.000
632.57	37.889
632.90	36.437
633.23	35.280
633.56	36.257
633.89	36.792
634.22	37.780
634.55	37.740
634.88	35.308
635.20	36.704
635.53	37.532
635.86	36.020
636.19	36.874
636.52	36.559
636.85	36.342
637.18	35.750
637.51	38.414
637.83	37.284
638.16	36.579
638.49	37.379
638.82	35.907
639.15	37.224
639.48	36.187
639.81	37.759
640.13	37.027
640.46	37.749
640.79	38.936
641.12	37.377
641.45	37.877
641.77	38.473
642.10	37.160
642.43	38.392
642.76	35.118
643.09	38.571
643.41	38.730
643.74	37.520
644.07	37.129
644.40	37.277
644.73	38.614
645.05	36.227
645.38	38.576
645.71	40.206
646.04	37.647
646.36	36.998
646.69	40.657
647.02	38.448
647.35	37.726
647.67	37.956
648.00	39.367
648.33	39.966
648.66	36.290
648.98	35.350
649.31	35.385
649.64	37.969
649.96	37.363
650.29	36.230
650.62	38.210
650.94	38.111
651.27	36.742
651.60	36.505
651.92	37.671
652.25	34.057
652.58	36.457
652.90	34.992
653.23	35.484
653.56	35.953
653.88	37.541
654.21	37.584
654.54	37.375
654.86	34.992
655.19	35.387
655.52	33.711
655.84	30.579
656.17	33.465
656.49	45.171
656.82	46.713
657.15	35.754
657.47	26.282
657.80	20.319
658.13	23.067
658.45	31.630
658.78	30.809
659.10	30.834
659.43	30.955
659.75	31.275
660.08	31.927
660.41	30.898
660.73	33.773
661.06	35.072
661.38	39.107
661.71	37.667
662.03	38.911
662.36	40.299
662.68	37.764
663.01	38.004
663.33	40.590
663.66	40.129
663.98	37.500
664.31	36.913
664.63	41.150
664.96	36.443
665.28	38.612
665.61	34.884
665.93	36.420
666.26	38.664
666.58	38.254
666.91	38.976
667.23	40.132
667.56	38.549
667.88	39.593
668.21	35.945
668.53	36.449
668.86	40.416
669.18	35.845
669.50	35.047
669.83	35.523
670.15	37.220
670.48	39.019
670.80	36.674
671.13	32.731
671.45	38.288
671.77	36.617
672.10	39.053
672.42	36.531
672.75	34.000
673.07	35.315
673.39	35.337
673.72	38.189
674.04	36.518
674.37	36.082
674.69	36.885
675.01	34.894
675.34	39.046
675.66	37.365
675.98	33.700
676.31	40.271
676.63	37.241
676.95	36.726
677.28	35.035
677.60	35.747
677.92	37.885
678.25	39.387
678.57	36.008
678.89	35.639
679.22	37.736
679.54	38.067
679.86	34.400
680.18	38.213
680.51	35.196
680.83	34.857
681.15	34.104
681.48	35.903
681.80	33.871
682.12	34.406
682.44	35.560
682.77	34.848
683.09	36.059
683.41	36.062
683.73	36.986
684.06	36.989
684.38	37.866
684.70	34.362
685.02	35.236
685.34	36.062
685.67	35.606
685.99	34.216
686.31	33.752
686.63	36.348
686.96	35.490
687.28	36.224
687.60	34.570
687.92	33.268
688.24	37.008
688.56	33.667
688.89	32.051
689.21	36.324
689.53	37.011
689.85	34.521
690.17	35.650
690.49	34.180
690.82	37.349
691.14	35.142
691.46	35.255
691.78	37.665
692.10	37.924
692.42	34.000
692.74	36.266
693.06	36.854
693.39	36.018
693.71	34.763
694.03	35.637
694.35	33.860
694.67	32.624
694.99	34.271
695.31	36.480
695.63	33.163
695.95	33.747
696.27	36.409
696.59	37.968
696.91	37.360
697.23	35.677
697.56	34.135
697.88	33.559
698.20	33.833
698.52	34.081
698.84	36.408
699.16	36.190
699.48	32.500
699.80	36.090
700.12	34.509
700.44	35.196
700.76	34.694
701.08	36.337
701.40	31.118
701.72	35.494
702.04	36.218
702.36	39.157
702.68	34.431
703.00	34.783
703.32	30.946
703.64	38.529
703.96	38.372
704.28	37.870
704.60	35.127
704.91	36.508
705.23	36.893
705.55	31.757
705.87	39.932
706.19	33.333
706.51	32.639
706.83	37.377
707.15	32.803
707.47	37.466
707.79	35.052
708.11	33.588
708.43	36.908
708.74	34.545
709.06	32.869
709.38	32.759
709.70	33.750
710.02	35.890
710.34	32.013
710.66	35.556
710.98	34.385
711.29	35.806
711.61	37.061
711.93	32.459
712.25	33.555
712.57	34.146
712.89	37.410
713.20	34.021
713.52	29.478
713.84	29.893
714.16	35.410
714.48	33.016
714.80	33.846
715.11	33.141
715.43	36.747
715.75	34.579
716.07	33.443
716.39	36.455
716.70	32.056
717.02	35.556
717.34	33.588
717.66	36.515
717.97	34.426
718.29	32.773
718.61	38.889
718.93	35.842
719.24	32.353
719.56	31.321
719.88	38.545
720.20	31.835
720.51	31.579
720.83	36.948
721.15	35.656
721.46	37.647
721.78	36.782
722.10	35.200
722.42	30.992
722.73	32.669
723.05	40.964
723.37	27.843
723.68	32.794
724.00	36.585
724.32	38.683
724.63	34.440
724.95	35.537
725.27	33.772
725.58	26.293
725.90	32.540
726.22	35.055
726.53	36.882
726.85	30.980
727.16	34.586
727.48	34.615
727.80	33.607
728.11	31.513
728.43	33.884
728.74	32.812
729.06	32.197
729.38	32.685
729.69	33.071
730.01	42.126
730.32	28.287
730.64	30.403
730.96	35.448
731.27	30.714
731.59	32.476
731.90	27.914
732.22	33.436
732.53	32.119
732.85	31.544
733.16	31.159
733.48	31.707
733.80	31.317
734.11	30.000
734.43	35.374
734.74	34.125
735.06	28.840
735.37	29.052
735.69	31.935
736.00	31.650
736.32	27.815
736.63	30.000
736.95	31.522
737.26	30.464
737.58	34.173
737.89	30.466
738.21	31.955
738.52	35.000
738.83	33.203
739.15	26.923
739.46	35.081
739.78	29.371
740.09	26.224
740.41	33.566
740.72	35.401
741.04	34.524
741.35	32.035
741.66	29.630
741.98	29.524
742.29	35.211
742.61	35.294
742.92	38.318
743.23	34.649
743.55	32.883
743.86	37.778
744.18	26.190
744.49	36.946
744.80	34.518
745.12	38.660
745.43	28.643
745.74	30.583
746.06	28.293
746.37	30.396
746.68	35.821
747.00	38.220
747.31	29.808
747.62	37.327
747.94	30.131
748.25	33.023
748.56	32.857
748.88	30.435
749.19	32.394
749.50	34.314
749.82	33.333
750.13	37.004
750.44	35.772
750.75	33.600
751.07	35.357
751.38	31.734
751.69	27.099
752.01	35.000
752.32	28.405
752.63	28.846
752.94	29.762
753.26	33.478
753.57	40.179
753.88	33.621
754.19	30.290
754.51	29.297
754.82	33.202
755.13	34.568
755.44	28.926
755.75	34.568
756.07	26.506
756.38	30.469
756.69	30.325
757.00	32.404
757.31	32.550
757.63	35.514
757.94	29.191
758.25	32.267
758.56	34.232
758.87	30.966
759.18	27.000
759.50	30.961
759.81	24.818
760.12	29.054
760.43	33.657
760.74	30.625
761.05	30.618
761.36	29.940
761.67	29.882
761.99	31.290
762.30	32.971
762.61	33.962
762.92	30.942
763.23	35.071
763.54	34.222
763.85	39.662
764.16	33.469
764.47	35.593
764.78	28.839
765.10	37.050
765.41	26.452
765.72	32.704
766.03	24.735
766.34	31.579
766.65	29.150
766.96	24.500
767.27	35.417
767.58	30.814
767.89	32.903
768.20	34.356
768.51	27.869
768.82	21.622
769.13	28.000
769.44	25.439
769.75	27.273
770.06	30.275
770.37	30.047
770.68	38.542
770.99	30.693
771.30	32.039
771.61	25.926
771.92	22.511
772.23	32.710
772.54	32.447
772.85	29.586
773.16	29.268
773.47	39.759
773.78	33.516
774.09	28.667
774.39	29.630
774.70	26.846
775.01	23.188
775.32	32.090
775.63	19.008
775.94	31.579
776.25	30.000
776.56	31.148
776.87	26.549
777.18	40.708
777.48	20.909
777.79	26.087
778.10	12.844
778.41	22.881
778.72	26.446
779.03	29.104
779.34	30.827
779.65	28.758
779.95	28.986
780.26	21.088
780.57	24.138
780.88	26.852
781.19	19.192
781.50	19.200
781.80	23.529
782.11	25.000
782.42	27.108
782.73	25.547
783.04	29.054
783.34	31.818
783.65	24.031
783.96	29.268
784.27	25.641
784.57	21.138
784.88	21.138
785.19	32.456
785.50	14.433
785.81	37.143
786.11	24.510
786.42	12.727
786.73	34.234
787.04	35.644
787.34	31.429
787.65	21.905
787.96	27.451
788.26	23.423
788.57	27.419
788.88	25.000
789.19	28.205
789.49	25.210
789.80	22.222
790.11	23.009
790.41	16.162
790.72	33.019
791.03	13.889
791.33	14.474
791.64	34.409
791.95	16.000
792.25	30.000
792.56	12.195
792.87	28.571
793.17	22.368
793.48	14.865
793.79	14.085
794.09	21.519
794.40	18.085
794.70	15.888
795.01	12.281
795.32	20.000
795.62	17.857
795.93	22.680
796.23	16.484
796.54	29.474
796.85	12.329
797.15	9.722
797.46	19.178
797.76	30.986
798.07	28.750
798.37	5.882
798.68	31.429
798.99	21.429
799.29	28.947
799.60	16.667
799.90	6.944
800.21	-17.188
800.51	17.460
800.82	24.590
801.12	17.544
801.43	21.127
801.73	11.864
802.04	24.590
802.34	18.182
802.65	3.846
802.95	7.407
803.26	-20.000
803.56	21.154
803.87	21.053
804.17	22.581
804.48	10.769
804.78	-5.128
805.09	0.000
805.39	-28.125
805.70	1.887
806.00	28.070
806.30	32.432
806.61	16.176
806.91	13.580
807.22	4.000
807.52	14.925
807.83	8.065
808.13	14.286
808.43	-9.091
808.74	31.818
809.04	0.000
809.35	9.589
809.65	28.070
809.95	19.118
810.26	29.412
810.56	-26.000
810.86	2.041
811.17	-11.429
811.47	7.692
811.77	25.806
812.08	-23.684
812.38	21.429
812.69	4.348
812.99	12.903
813.29	-11.905
813.59	-59.259
813.90	8.511
814.20	-9.302
814.50	0.000
814.81	3.333
815.11	2.439
815.41	16.667
815.72	22.857
816.02	-27.778
816.32	20.513
816.62	24.324
816.93	-11.765
817.23	8.696
817.53	26.471
817.84	-5.882
818.14	3.125
818.44	0.000
818.74	6.452
819.04	-40.741
819.35	33.333
819.65	-40.000
819.95	3.333
820.25	-4.000
820.56	-10.526
820.86	-12.500
821.16	19.149
821.46	20.690
821.76	-7.692
822.07	-5.000
822.37	25.581
822.67	6.667
822.97	5.405
823.27	35.135
823.57	-12.000
823.88	2.703
824.18	-61.905
824.48	-15.385
824.78	-76.923
825.08	-56.522
825.38	-37.500
825.69	-20.833
825.99	-75.000
826.29	-21.622
826.59	-17.647
826.89	40.000
827.19	-17.143
827.49	13.158
827.79	-31.250
828.09	-36.667
828.39	-30.435
828.70	-3.448
829.00	-20.690
829.30	27.778
829.60	28.125
829.90	-44.444
830.20	-26.923
830.50	-28.571
830.80	-28.571
831.10	-2.564
831.40	-28.571
831.70	0.000
832.00	-12.500
832.30	52.632
832.60	-56.250
832.90	-41.667
833.20	-82.353
833.50	-86.667
833.80	-33.333
834.10	-20.000
834.40	-37.500
834.70	22.222
835.00	42.308
835.30	-16.667
835.60	-17.241
835.90	-83.333
836.20	-54.545
836.50	-150.000
836.80	-5.714
837.10	28.571
837.40	-17.647
837.70	-18.182
838.00	-41.667
838.30	-100.000
838.60	-42.857
838.90	-60.000
839.19	-60.870
839.49	0.000
839.79	-44.444
840.09	-73.913
840.39	-54.545
840.69	-81.250
840.99	-73.684
841.29	-6.250
841.59	-57.143
841.88	-94.444
842.18	-50.000
842.48	-88.235
842.78	-27.586
843.08	-35.714
843.38	-46.154
843.68	-77.778
843.97	-92.308
844.27	-145.455
844.57	0.000
844.87	16.000
845.17	-240.000
845.47	-92.857
845.76	-188.889
846.06	0.000
846.36	-525.000
846.66	-120.000
846.96	-15.789
847.25	4.167
847.55	-50.000
847.85	-93.333
848.15	-190.000
848.44	73.077
848.74	5.263
849.04	366.667
849.34	55.556
849.63	-94.737
849.93	0.000
850.23	-65.000
850.53	-38.095
850.82	16.000
851.12	-52.632
851.42	-550.000
851.71	-71.429
852.01	-16.667
852.31	-23.529
852.61	-6.667
852.90	-14.286
853.20	-233.333
853.50	-94.444
853.79	-63.158
854.09	-60.000
854.39	10.714
854.68	17.391
854.98	-133.333
855.28	-17.241
855.57	-31.250
855.87	-45.000
856.17	-60.000
856.46	-27.586
856.76	-46.667
857.05	-117.647
857.35	-153.846
857.65	-27.273
857.94	-11.111
858.24	-121.429
858.53	-78.571
858.83	-75.000
859.13	-155.556
859.42	28.571
859.72	-37.500
860.01	-666.667
860.31	-125.000
860.60	-560.000
860.90	-211.111
861.20	-187.500
861.49	-314.286
861.79	-52.941
862.08	-750.000
862.38	-116.667
862.67	-23.077
862.97	-88.235
863.26	-20.000
863.56	-94.118
863.85	466.667
864.15	-90.000
864.44	-123.077
864.74	20.000
865.03	-250.000
865.33	-200.000
865.62	-47.059
865.92	-625.000
866.21	-107.143
866.51	-150.000
866.80	-900.000
867.10	-300.000
867.39	-52.941
867.69	17.391
867.98	-185.714
868.27	-240.000
868.57	-75.000
868.86	-163.636
869.16	-23.529
869.45	-166.667
869.75	-257.143
870.04	2000.000
870.33	-108.333
870.63	-200.000
870.92	-111.111
871.22	-100.000
871.51	-100.000
871.80	-66.667
872.10	30.000
>>>>>End Processed Spectral Data<<<<<
