SpectraSuite Data File
++++++++++++++++++++++++++++++++++++
Date: Sat May 16 11:27:07 PDT 2015
User: schluterlab
Dark Spectrum Present: Yes
Reference Spectrum Present: Yes
Number of Sampled Component Spectra: 1
Spectrometers: USB2E3373
Integration Time (usec): 3000 (USB2E3373)
Spectra Averaged: 3 (USB2E3373)
Boxcar Smoothing: 0 (USB2E3373)
Correct for Electrical Dark: No (USB2E3373)
Strobe/Lamp Enabled: No (USB2E3373)
Correct for Detector Non-linearity: No (USB2E3373)
Correct for Stray Light: No (USB2E3373)
Number of Pixels in Processed Spectrum: 2048
>>>>>Begin Processed Spectral Data<<<<<
178.53	0.000
178.91	113.333
179.29	500.000
179.67	-900.000
180.04	-107.692
180.42	400.000
180.80	525.000
181.18	300.000
181.56	-100.000
181.94	600.000
182.31	400.000
182.69	-53.846
183.07	-400.000
183.45	1350.000
183.83	66.667
184.20	-114.286
184.58	-162.500
184.96	-575.000
185.34	112.500
185.72	-325.000
186.09	216.667
186.47	-250.000
186.85	-137.500
187.23	87.500
187.61	-175.000
187.98	-337.500
188.36	-112.500
188.74	-12.500
189.12	2400.000
189.49	271.429
189.87	-41.667
190.25	425.000
190.63	-7.143
191.00	-155.556
191.38	600.000
191.76	93.333
192.14	520.000
192.51	-180.000
192.89	33.333
193.27	0.000
193.65	-122.222
194.02	-228.571
194.40	300.000
194.78	-80.000
195.15	-800.000
195.53	-109.091
195.91	-333.333
196.29	300.000
196.66	-566.667
197.04	2200.000
197.42	-350.000
197.79	-140.000
198.17	-266.667
198.55	-600.000
198.92	-1400.000
199.30	237.500
199.68	-400.000
200.05	-66.667
200.43	-88.889
200.81	-1700.000
201.18	-125.000
201.56	171.429
201.94	-46.667
202.31	0.000
202.69	80.000
203.07	-80.000
203.44	433.333
203.82	-183.333
204.19	-150.000
204.57	-325.000
204.95	-1500.000
205.32	-6.250
205.70	200.000
206.08	-1100.000
206.45	-27.778
206.83	-700.000
207.20	-550.000
207.58	-766.667
207.96	-533.333
208.33	-87.500
208.71	-144.444
209.08	240.000
209.46	-128.571
209.84	800.000
210.21	0.000
210.59	30.000
210.96	2300.000
211.34	-300.000
211.71	-266.667
212.09	400.000
212.46	700.000
212.84	-2300.000
213.22	733.333
213.59	141.667
213.97	-33.333
214.34	100.000
214.72	-40.000
215.09	-233.333
215.47	-100.000
215.84	-120.000
216.22	-70.000
216.59	20.000
216.97	-350.000
217.34	250.000
217.72	0.000
218.09	-166.667
218.47	-128.571
218.84	157.143
219.22	28.571
219.59	0.000
219.97	285.714
220.34	500.000
220.72	125.000
221.09	-130.769
221.47	0.000
221.84	200.000
222.22	-50.000
222.59	1200.000
222.97	-137.500
223.34	-600.000
223.72	-466.667
224.09	-135.714
224.46	-775.000
224.84	-50.000
225.21	-114.286
225.59	-109.091
225.96	-87.500
226.34	-228.571
226.71	-122.222
227.08	25.000
227.46	1800.000
227.83	-185.714
228.21	-187.500
228.58	400.000
228.95	-43.750
229.33	-1200.000
229.70	-160.000
230.08	-600.000
230.45	-8.333
230.82	-116.667
231.20	-1000.000
231.57	-600.000
231.95	1400.000
232.32	57.143
232.69	-44.444
233.07	-200.000
233.44	-1000.000
233.81	-66.667
234.19	-100.000
234.56	-75.000
234.93	37.500
235.31	-214.286
235.68	-121.429
236.05	-35.294
236.43	-9.091
236.80	32.258
237.17	-4.167
237.55	-14.286
237.92	-59.091
238.29	11.429
238.67	11.765
239.04	-11.111
239.41	-6.452
239.79	-17.949
240.16	9.524
240.53	-9.091
240.91	25.641
241.28	16.364
241.65	33.846
242.02	18.033
242.40	39.344
242.77	33.333
243.14	30.508
243.51	15.714
243.89	22.785
244.26	28.090
244.63	34.737
245.00	30.526
245.38	29.661
245.75	29.204
246.12	34.400
246.49	34.646
246.87	30.081
247.24	29.661
247.61	38.136
247.98	28.169
248.36	30.070
248.73	43.038
249.10	39.490
249.47	42.105
249.84	36.932
250.22	31.548
250.59	39.548
250.96	39.267
251.33	40.758
251.70	38.462
252.08	38.389
252.45	37.441
252.82	39.524
253.19	37.447
253.56	39.516
253.94	37.975
254.31	39.485
254.68	42.276
255.05	36.694
255.42	39.683
255.79	31.541
256.16	38.824
256.54	35.662
256.91	38.636
257.28	34.066
257.65	39.716
258.02	38.050
258.39	38.796
258.76	37.162
259.14	35.802
259.51	42.295
259.88	38.720
260.25	37.888
260.62	37.942
260.99	38.279
261.36	38.415
261.73	41.908
262.10	41.944
262.47	40.741
262.85	41.143
263.22	38.395
263.59	36.000
263.96	39.710
264.33	39.566
264.70	39.227
265.07	38.187
265.44	38.243
265.81	39.535
266.18	35.443
266.55	39.216
266.92	40.050
267.29	38.257
267.66	39.012
268.03	39.855
268.40	35.681
268.77	38.313
269.14	37.819
269.51	38.621
269.88	37.385
270.25	36.131
270.62	39.359
270.99	36.486
271.36	36.597
271.73	38.789
272.10	37.300
272.47	36.000
272.84	38.222
273.21	38.761
273.58	38.462
273.95	38.596
274.32	40.724
274.69	39.387
275.06	38.650
275.43	37.500
275.80	39.715
276.17	38.494
276.54	36.049
276.91	38.272
277.28	37.323
277.65	36.983
278.02	38.205
278.39	36.739
278.76	38.247
279.13	37.945
279.50	36.779
279.87	38.901
280.23	39.879
280.60	35.785
280.97	36.311
281.34	36.944
281.71	35.192
282.08	37.702
282.45	39.511
282.82	38.953
283.19	37.091
283.56	37.729
283.92	39.223
284.29	36.431
284.66	35.612
285.03	34.046
285.40	37.454
285.77	39.474
286.14	37.726
286.51	35.702
286.87	38.294
287.24	37.372
287.61	37.025
287.98	36.915
288.35	34.711
288.72	35.144
289.08	33.559
289.45	36.027
289.82	34.083
290.19	33.990
290.56	33.719
290.93	33.545
291.29	34.198
291.66	33.333
292.03	35.793
292.40	33.434
292.77	34.161
293.13	35.122
293.50	32.838
293.87	32.822
294.24	34.842
294.60	33.485
294.97	34.294
295.34	32.000
295.71	31.399
296.08	31.029
296.44	30.758
296.81	33.903
297.18	31.408
297.55	30.932
297.91	32.218
298.28	30.685
298.65	30.823
299.02	32.487
299.38	30.481
299.75	30.842
300.12	31.923
300.48	30.563
300.85	32.372
301.22	31.177
301.59	32.380
301.95	31.486
302.32	29.596
302.69	31.212
303.05	30.281
303.42	30.000
303.79	30.622
304.15	30.569
304.52	31.155
304.89	31.877
305.25	30.647
305.62	30.317
305.99	32.273
306.35	30.633
306.72	29.385
307.09	31.669
307.45	30.420
307.82	30.615
308.19	31.544
308.55	30.937
308.92	29.860
309.29	30.162
309.65	30.223
310.02	30.562
310.38	30.270
310.75	30.225
311.12	32.025
311.48	31.942
311.85	33.265
312.22	31.514
312.58	33.469
312.95	31.600
313.31	32.468
313.68	33.668
314.05	34.421
314.41	32.897
314.78	33.966
315.14	34.156
315.51	35.258
315.87	35.044
316.24	34.985
316.61	36.756
316.97	35.821
317.34	34.971
317.70	35.714
318.07	37.034
318.43	34.082
318.80	37.840
319.16	35.553
319.53	36.184
319.89	34.901
320.26	36.667
320.62	36.154
320.99	37.612
321.35	36.059
321.72	37.155
322.08	40.257
322.45	38.911
322.81	39.385
323.18	40.058
323.54	41.405
323.91	40.037
324.27	42.015
324.64	43.327
325.00	41.710
325.37	45.520
325.73	46.807
326.10	43.401
326.46	46.848
326.83	46.553
327.19	47.373
327.56	50.596
327.92	50.382
328.29	49.004
328.65	50.909
329.01	50.883
329.38	52.453
329.74	53.388
330.11	51.949
330.47	53.951
330.84	53.804
331.20	54.964
331.56	54.421
331.93	54.796
332.29	57.352
332.66	54.083
333.02	57.285
333.38	56.272
333.75	56.812
334.11	56.356
334.48	56.399
334.84	56.518
335.20	57.713
335.57	59.116
335.93	59.355
336.29	57.927
336.66	58.150
337.02	59.640
337.38	58.467
337.75	58.999
338.11	59.302
338.47	60.498
338.84	59.619
339.20	58.348
339.56	60.250
339.93	60.141
340.29	57.042
340.65	59.878
341.02	58.600
341.38	60.067
341.74	58.002
342.11	59.898
342.47	60.172
342.83	59.698
343.20	60.120
343.56	57.633
343.92	61.018
344.28	62.658
344.65	60.149
345.01	60.924
345.37	61.130
345.73	60.147
346.10	59.035
346.46	58.164
346.82	58.540
347.19	59.737
347.55	58.427
347.91	60.236
348.27	59.666
348.63	61.470
349.00	60.382
349.36	58.626
349.72	61.783
350.08	61.347
350.45	59.259
350.81	61.146
351.17	61.334
351.53	59.029
351.89	60.469
352.26	60.465
352.62	59.140
352.98	60.206
353.34	59.233
353.70	59.305
354.07	60.425
354.43	60.632
354.79	61.014
355.15	61.981
355.51	60.547
355.87	60.711
356.24	60.604
356.60	63.658
356.96	60.893
357.32	59.541
357.68	60.383
358.04	60.123
358.40	61.640
358.77	60.974
359.13	60.750
359.49	60.393
359.85	60.137
360.21	61.339
360.57	60.392
360.93	62.296
361.29	60.837
361.66	60.976
362.02	60.355
362.38	60.602
362.74	64.908
363.10	60.904
363.46	63.248
363.82	63.411
364.18	62.229
364.54	61.758
364.90	61.845
365.26	61.198
365.62	63.364
365.98	63.940
366.35	61.690
366.71	62.438
367.07	62.385
367.43	63.143
367.79	62.268
368.15	63.585
368.51	63.566
368.87	62.637
369.23	61.614
369.59	62.778
369.95	63.989
370.31	63.643
370.67	63.051
371.03	64.431
371.39	62.447
371.75	65.665
372.11	64.419
372.47	64.714
372.83	65.090
373.19	64.500
373.55	63.758
373.91	65.505
374.27	65.298
374.63	63.906
374.99	65.647
375.35	63.257
375.71	66.104
376.07	64.545
376.42	63.444
376.78	64.967
377.14	66.915
377.50	65.957
377.86	66.060
378.22	67.525
378.58	65.411
378.94	66.708
379.30	64.046
379.66	65.574
380.02	64.884
380.38	67.432
380.74	66.354
381.09	65.729
381.45	66.766
381.81	67.332
382.17	66.667
382.53	66.201
382.89	65.969
383.25	67.610
383.61	65.743
383.97	67.606
384.32	68.398
384.68	67.533
385.04	67.512
385.40	67.559
385.76	69.085
386.12	67.958
386.48	68.874
386.83	68.773
387.19	68.799
387.55	68.383
387.91	69.354
388.27	68.396
388.62	68.389
388.98	67.535
389.34	67.809
389.70	67.479
390.06	68.676
390.42	70.833
390.77	68.896
391.13	69.752
391.49	69.931
391.85	69.327
392.20	69.357
392.56	68.845
392.92	68.625
393.28	69.805
393.64	69.814
393.99	70.400
394.35	69.526
394.71	68.931
395.07	71.563
395.42	69.666
395.78	69.327
396.14	70.592
396.50	70.765
396.85	70.635
397.21	70.292
397.57	69.483
397.92	69.204
398.28	70.278
398.64	70.137
399.00	70.618
399.35	70.011
399.71	71.080
400.07	70.388
400.42	70.073
400.78	70.543
401.14	71.317
401.49	70.283
401.85	72.117
402.21	71.454
402.57	72.087
402.92	72.813
403.28	72.488
403.63	69.742
403.99	71.659
404.35	71.800
404.70	70.041
405.06	71.338
405.42	70.664
405.77	71.041
406.13	71.323
406.49	73.038
406.84	71.266
407.20	72.733
407.55	73.211
407.91	70.142
408.27	71.569
408.62	71.437
408.98	70.224
409.34	70.323
409.69	72.527
410.05	71.680
410.40	72.655
410.76	72.258
411.11	73.254
411.47	70.716
411.83	72.433
412.18	71.906
412.54	71.202
412.89	71.628
413.25	71.547
413.60	72.114
413.96	70.610
414.31	73.517
414.67	72.825
415.03	72.186
415.38	72.674
415.74	72.745
416.09	74.169
416.45	71.495
416.80	71.521
417.16	73.156
417.51	72.751
417.87	71.327
418.22	71.745
418.58	72.080
418.93	72.777
419.29	72.083
419.64	72.864
420.00	73.269
420.35	72.797
420.71	72.929
421.06	73.550
421.42	72.482
421.77	72.083
422.12	73.251
422.48	72.742
422.83	73.918
423.19	72.773
423.54	73.372
423.90	73.106
424.25	74.095
424.61	75.211
424.96	75.424
425.31	73.672
425.67	74.613
426.02	71.945
426.38	75.318
426.73	74.810
427.09	74.571
427.44	74.716
427.79	75.814
428.15	76.361
428.50	75.601
428.85	75.180
429.21	75.706
429.56	75.521
429.92	73.948
430.27	75.075
430.62	76.646
430.98	75.379
431.33	77.588
431.68	76.354
432.04	76.945
432.39	76.695
432.74	76.978
433.10	76.477
433.45	75.475
433.80	76.372
434.16	74.798
434.51	78.521
434.86	77.680
435.22	76.782
435.57	76.377
435.92	76.377
436.28	79.585
436.63	76.993
436.98	76.690
437.34	76.964
437.69	76.954
438.04	78.162
438.39	78.099
438.75	76.077
439.10	77.068
439.45	78.576
439.81	77.771
440.16	76.547
440.51	78.941
440.86	77.617
441.22	77.059
441.57	77.737
441.92	77.033
442.27	78.301
442.63	78.648
442.98	77.596
443.33	78.089
443.68	77.853
444.03	78.929
444.39	78.023
444.74	79.295
445.09	77.961
445.44	80.079
445.79	79.041
446.15	78.861
446.50	77.354
446.85	77.424
447.20	77.681
447.55	78.840
447.91	79.899
448.26	78.492
448.61	78.664
448.96	80.336
449.31	77.227
449.66	79.679
450.02	78.006
450.37	79.768
450.72	79.096
451.07	81.584
451.42	78.439
451.77	80.072
452.12	80.036
452.47	79.156
452.83	79.557
453.18	80.392
453.53	80.348
453.88	80.263
454.23	79.746
454.58	81.666
454.93	81.045
455.28	81.134
455.63	79.484
455.98	81.386
456.34	79.987
456.69	80.050
457.04	80.332
457.39	80.742
457.74	80.449
458.09	80.046
458.44	81.120
458.79	80.549
459.14	78.323
459.49	81.764
459.84	81.169
460.19	79.594
460.54	81.125
460.89	80.886
461.24	78.324
461.59	79.719
461.94	80.713
462.29	80.822
462.64	82.543
462.99	82.597
463.34	80.351
463.69	81.679
464.04	80.141
464.39	80.466
464.74	80.024
465.09	79.314
465.44	82.403
465.79	80.654
466.14	82.163
466.49	82.441
466.84	80.732
467.19	82.731
467.54	82.342
467.89	81.751
468.24	81.354
468.59	81.387
468.94	83.280
469.29	81.027
469.64	81.671
469.99	80.689
470.34	82.164
470.68	83.212
471.03	82.037
471.38	82.708
471.73	83.147
472.08	81.727
472.43	80.759
472.78	83.067
473.13	82.107
473.48	81.174
473.83	83.499
474.17	83.885
474.52	85.166
474.87	81.643
475.22	82.714
475.57	82.722
475.92	82.397
476.27	81.600
476.61	82.873
476.96	82.448
477.31	82.616
477.66	82.955
478.01	82.982
478.36	80.880
478.70	83.235
479.05	83.829
479.40	82.435
479.75	81.549
480.10	81.895
480.45	81.673
480.79	83.909
481.14	83.392
481.49	83.688
481.84	82.571
482.19	82.138
482.53	83.523
482.88	83.389
483.23	82.582
483.58	82.747
483.92	83.278
484.27	81.834
484.62	80.950
484.97	81.528
485.31	79.456
485.66	77.808
486.01	78.290
486.36	80.142
486.70	82.231
487.05	80.491
487.40	81.651
487.75	80.797
488.09	81.501
488.44	82.510
488.79	81.571
489.13	83.226
489.48	83.361
489.83	84.760
490.17	83.631
490.52	85.371
490.87	82.448
491.22	83.839
491.56	83.426
491.91	83.302
492.26	84.104
492.60	84.158
492.95	84.626
493.30	83.135
493.64	84.344
493.99	84.608
494.34	85.381
494.68	85.627
495.03	82.600
495.37	86.234
495.72	84.578
496.07	84.702
496.41	85.225
496.76	84.703
497.11	85.210
497.45	84.339
497.80	84.942
498.14	83.743
498.49	86.891
498.84	84.272
499.18	84.698
499.53	84.900
499.87	85.039
500.22	85.686
500.56	85.793
500.91	85.911
501.26	84.862
501.60	84.401
501.95	87.005
502.29	83.798
502.64	85.290
502.98	84.763
503.33	83.835
503.67	84.722
504.02	84.162
504.36	84.314
504.71	86.778
505.06	84.274
505.40	86.178
505.75	86.687
506.09	85.490
506.44	85.313
506.78	85.449
507.13	86.663
507.47	84.559
507.82	84.719
508.16	85.959
508.51	85.368
508.85	86.077
509.19	86.081
509.54	86.839
509.88	86.968
510.23	86.635
510.57	87.672
510.92	87.164
511.26	86.762
511.61	86.447
511.95	85.776
512.30	87.411
512.64	87.535
512.98	87.019
513.33	86.766
513.67	85.874
514.02	87.864
514.36	86.371
514.70	88.342
515.05	88.222
515.39	87.716
515.74	88.191
516.08	87.435
516.42	86.232
516.77	88.330
517.11	88.272
517.46	90.132
517.80	90.012
518.14	89.553
518.49	89.480
518.83	89.199
519.17	87.507
519.52	88.317
519.86	89.904
520.20	88.875
520.55	89.292
520.89	89.981
521.23	88.156
521.58	90.658
521.92	89.297
522.26	88.063
522.61	88.720
522.95	89.407
523.29	88.150
523.64	89.507
523.98	91.025
524.32	89.943
524.66	88.012
525.01	90.238
525.35	90.335
525.69	89.460
526.04	90.796
526.38	91.025
526.72	88.506
527.06	90.755
527.41	91.551
527.75	89.175
528.09	90.867
528.43	89.443
528.78	88.505
529.12	91.549
529.46	89.497
529.80	90.123
530.15	89.762
530.49	89.715
530.83	89.653
531.17	90.370
531.51	90.824
531.86	88.874
532.20	89.136
532.54	89.505
532.88	90.580
533.22	90.842
533.57	89.948
533.91	86.642
534.25	88.058
534.59	87.695
534.93	88.177
535.27	90.245
535.62	89.578
535.96	89.334
536.30	88.809
536.64	88.579
536.98	90.466
537.32	91.085
537.66	89.952
538.01	90.378
538.35	90.676
538.69	89.439
539.03	88.422
539.37	90.020
539.71	87.458
540.05	90.336
540.39	90.028
540.73	91.707
541.07	90.574
541.42	90.479
541.76	88.505
542.10	90.209
542.44	88.408
542.78	89.824
543.12	89.409
543.46	88.219
543.80	87.692
544.14	88.852
544.48	90.420
544.82	89.175
545.16	88.799
545.50	87.147
545.84	87.900
546.18	88.835
546.52	90.327
546.86	90.171
547.20	90.366
547.54	86.570
547.88	88.122
548.22	87.746
548.56	90.047
548.90	89.286
549.24	89.699
549.58	88.073
549.92	88.057
550.26	90.679
550.60	88.336
550.94	88.540
551.28	90.068
551.62	90.325
551.96	88.350
552.30	88.362
552.64	88.318
552.98	89.559
553.32	90.548
553.66	88.753
554.00	89.623
554.34	88.664
554.68	89.327
555.02	89.291
555.36	89.288
555.69	89.327
556.03	89.263
556.37	90.398
556.71	90.336
557.05	90.983
557.39	88.864
557.73	91.320
558.07	91.108
558.41	89.155
558.75	91.635
559.08	90.506
559.42	90.735
559.76	91.871
560.10	90.007
560.44	90.101
560.78	88.239
561.12	88.958
561.45	88.699
561.79	89.547
562.13	90.463
562.47	88.936
562.81	88.614
563.15	88.174
563.48	89.772
563.82	89.452
564.16	89.317
564.50	87.769
564.84	88.955
565.17	87.533
565.51	87.810
565.85	90.467
566.19	88.933
566.52	89.172
566.86	87.105
567.20	87.349
567.54	87.655
567.88	85.036
568.21	88.367
568.55	86.055
568.89	83.549
569.23	84.313
569.56	83.607
569.90	83.399
570.24	83.916
570.57	81.828
570.91	81.809
571.25	81.842
571.59	81.673
571.92	80.744
572.26	80.917
572.60	80.918
572.93	80.427
573.27	80.305
573.61	79.151
573.95	78.978
574.28	79.777
574.62	80.452
574.96	79.212
575.29	79.040
575.63	79.798
575.97	79.558
576.30	79.556
576.64	79.791
576.98	78.925
577.31	79.619
577.65	79.602
577.98	78.908
578.32	79.057
578.66	79.284
578.99	79.747
579.33	79.251
579.67	79.533
580.00	79.390
580.34	79.697
580.67	79.603
581.01	77.902
581.35	79.550
581.68	78.168
582.02	78.704
582.35	78.451
582.69	79.292
583.02	80.084
583.36	79.123
583.70	78.776
584.03	80.603
584.37	79.946
584.70	79.937
585.04	78.861
585.37	78.067
585.71	78.229
586.04	79.939
586.38	79.337
586.72	79.453
587.05	80.544
587.39	79.131
587.72	78.604
588.06	80.000
588.39	79.977
588.73	80.326
589.06	80.563
589.40	81.690
589.73	81.728
590.07	80.954
590.40	80.074
590.73	81.767
591.07	82.336
591.40	83.839
591.74	81.625
592.07	82.838
592.41	82.208
592.74	81.015
593.08	80.707
593.41	80.921
593.75	79.163
594.08	81.740
594.41	81.590
594.75	80.861
595.08	82.068
595.42	81.756
595.75	81.367
596.09	82.421
596.42	82.856
596.75	82.018
597.09	82.636
597.42	80.707
597.75	82.595
598.09	82.512
598.42	81.706
598.76	81.271
599.09	80.860
599.42	81.546
599.76	79.917
600.09	81.527
600.42	80.820
600.76	81.469
601.09	79.415
601.42	81.322
601.76	80.413
602.09	81.840
602.42	81.605
602.76	81.221
603.09	81.613
603.42	81.305
603.76	81.532
604.09	81.097
604.42	80.933
604.76	82.338
605.09	82.369
605.42	82.225
605.75	81.846
606.09	80.573
606.42	81.357
606.75	80.550
607.09	81.959
607.42	81.646
607.75	80.706
608.08	82.648
608.42	82.971
608.75	80.888
609.08	82.124
609.41	81.216
609.75	81.326
610.08	83.676
610.41	82.458
610.74	83.366
611.07	83.063
611.41	81.291
611.74	83.496
612.07	85.661
612.40	81.823
612.73	82.229
613.07	83.379
613.40	84.127
613.73	82.289
614.06	81.878
614.39	83.653
614.72	83.240
615.06	83.098
615.39	80.575
615.72	81.912
616.05	81.723
616.38	83.807
616.71	83.303
617.05	82.992
617.38	84.582
617.71	81.757
618.04	85.404
618.37	85.912
618.70	87.484
619.03	83.142
619.36	86.258
619.69	85.140
620.03	83.196
620.36	85.162
620.69	86.648
621.02	86.073
621.35	85.726
621.68	87.705
622.01	88.350
622.34	86.491
622.67	86.328
623.00	86.381
623.33	86.791
623.66	85.746
623.99	85.489
624.32	84.375
624.65	87.123
624.99	85.213
625.32	86.302
625.65	85.936
625.98	86.698
626.31	87.357
626.64	87.950
626.97	88.099
627.30	89.787
627.63	86.615
627.96	87.990
628.29	87.040
628.62	89.780
628.95	89.469
629.28	90.508
629.61	90.088
629.94	89.319
630.26	90.656
630.59	92.161
630.92	90.591
631.25	88.710
631.58	90.688
631.91	91.383
632.24	95.111
632.57	92.778
632.90	92.414
633.23	92.874
633.56	91.228
633.89	91.745
634.22	92.798
634.55	93.389
634.88	92.382
635.20	92.759
635.53	94.148
635.86	93.955
636.19	93.040
636.52	90.084
636.85	90.734
637.18	91.250
637.51	92.813
637.83	94.274
638.16	93.947
638.49	95.586
638.82	90.605
639.15	91.569
639.48	89.364
639.81	92.946
640.13	93.649
640.46	98.575
640.79	94.398
641.12	94.358
641.45	93.257
641.77	95.808
642.10	94.411
642.43	93.930
642.76	95.276
643.09	94.921
643.41	96.190
643.74	96.025
644.07	93.292
644.40	94.814
644.73	96.535
645.05	93.823
645.38	96.523
645.71	97.251
646.04	97.647
646.36	97.382
646.69	96.194
647.02	98.556
647.35	101.986
647.67	99.635
648.00	94.025
648.33	95.278
648.66	94.355
648.98	95.223
649.31	92.462
649.64	95.000
649.96	91.680
650.29	93.115
650.62	96.213
650.94	93.761
651.27	94.281
651.60	94.983
651.92	97.432
652.25	91.653
652.58	96.082
652.90	93.098
653.23	90.161
653.56	92.140
653.88	89.672
654.21	96.644
654.54	95.515
654.86	92.937
655.19	89.828
655.52	84.958
655.84	76.542
656.17	79.798
656.49	100.000
656.82	100.000
657.15	94.517
657.47	62.674
657.80	48.532
658.13	55.637
658.45	75.556
658.78	76.047
659.10	76.339
659.43	76.577
659.75	77.537
660.08	78.490
660.41	77.794
660.73	84.818
661.06	90.290
661.38	96.786
661.71	97.514
662.03	96.371
662.36	97.441
662.68	95.148
663.01	97.240
663.33	101.134
663.66	94.206
663.98	97.991
664.31	97.539
664.63	100.442
664.96	99.783
665.28	98.915
665.61	90.486
665.93	93.827
666.26	92.105
666.58	96.466
666.91	100.891
667.23	96.272
667.56	97.279
667.88	94.344
668.21	94.931
668.53	101.402
668.86	99.307
669.18	97.489
669.50	99.065
669.83	102.433
670.15	94.395
670.48	98.598
670.80	96.583
671.13	96.163
671.45	94.820
671.77	96.146
672.10	91.913
672.42	92.620
672.75	90.727
673.07	90.811
673.39	93.260
673.72	93.110
674.04	93.631
674.37	92.577
674.69	93.852
675.01	92.340
675.34	91.974
675.66	94.816
675.98	94.053
676.31	98.416
676.63	99.540
676.95	95.796
677.28	95.592
677.60	92.986
677.92	94.934
678.25	94.748
678.57	92.387
678.89	96.226
679.22	96.855
679.54	92.505
679.86	90.600
680.18	91.445
680.51	89.944
680.83	89.333
681.15	90.366
681.48	92.292
681.80	92.540
682.12	91.147
682.44	88.802
682.77	88.745
683.09	91.405
683.41	90.708
683.73	94.292
684.06	90.968
684.38	92.469
684.70	90.947
685.02	92.520
685.34	88.109
685.67	88.826
685.99	88.091
686.31	86.715
686.63	87.057
686.96	85.582
687.28	89.403
687.60	93.164
687.92	86.187
688.24	88.583
688.56	88.176
688.89	87.607
689.21	91.685
689.53	96.552
689.85	89.978
690.17	90.583
690.49	90.993
690.82	93.494
691.14	92.689
691.46	93.792
691.78	92.291
692.10	88.347
692.42	93.111
692.74	87.339
693.06	91.461
693.39	89.933
693.71	90.971
694.03	87.473
694.35	92.325
694.67	85.343
694.99	92.839
695.31	94.898
695.63	91.837
695.95	90.571
696.27	89.277
696.59	94.385
696.91	92.135
697.23	93.750
697.56	87.981
697.88	88.514
698.20	85.225
698.52	86.996
698.84	89.806
699.16	89.762
699.48	91.250
699.80	92.982
700.12	92.443
700.44	94.413
700.76	93.003
701.08	90.116
701.40	92.447
701.72	93.519
702.04	95.833
702.36	94.578
702.68	86.826
703.00	92.464
703.32	86.819
703.64	97.059
703.96	91.860
704.28	89.053
704.60	90.190
704.91	86.032
705.23	93.851
705.55	94.932
705.87	93.515
706.19	92.708
706.51	91.319
706.83	91.803
707.15	91.083
707.47	88.154
707.79	86.598
708.11	82.697
708.43	87.032
708.74	87.532
709.06	89.694
709.38	90.805
709.70	90.625
710.02	91.104
710.34	94.059
710.66	86.984
710.98	88.644
711.29	89.032
711.61	88.179
711.93	86.557
712.25	95.349
712.57	85.714
712.89	89.928
713.20	90.378
713.52	93.284
713.84	86.833
714.16	86.885
714.48	90.476
714.80	88.615
715.11	83.862
715.43	86.145
715.75	84.112
716.07	88.525
716.39	88.629
716.70	87.456
717.02	93.333
717.34	92.748
717.66	97.095
717.97	90.574
718.29	91.597
718.61	94.841
718.93	87.455
719.24	88.603
719.56	86.415
719.88	86.182
720.20	84.270
720.51	91.729
720.83	96.386
721.15	92.213
721.46	89.412
721.78	88.123
722.10	97.200
722.42	93.388
722.73	86.853
723.05	91.566
723.37	87.451
723.68	77.328
724.00	86.179
724.32	88.889
724.63	86.722
724.95	88.017
725.27	85.088
725.58	89.224
725.90	91.667
726.22	86.716
726.53	88.213
726.85	85.882
727.16	86.466
727.48	85.000
727.80	82.787
728.11	93.697
728.43	86.777
728.74	92.578
729.06	87.500
729.38	90.272
729.69	89.370
730.01	87.402
730.32	82.869
730.64	83.883
730.96	86.567
731.27	85.714
731.59	81.994
731.90	81.595
732.22	79.141
732.53	85.762
732.85	81.879
733.16	88.043
733.48	81.882
733.80	77.580
734.11	82.069
734.43	90.136
734.74	79.228
735.06	80.564
735.37	81.346
735.69	79.355
736.00	86.869
736.32	80.132
736.63	76.552
736.95	84.058
737.26	80.132
737.58	89.568
737.89	83.513
738.21	83.835
738.52	84.615
738.83	82.812
739.15	85.897
739.46	84.677
739.78	85.315
740.09	77.273
740.41	81.469
740.72	82.847
741.04	76.587
741.35	80.952
741.66	84.722
741.98	77.143
742.29	84.507
742.61	90.374
742.92	90.187
743.23	81.579
743.55	80.631
743.86	89.333
744.18	80.000
744.49	90.148
744.80	81.726
745.12	90.206
745.43	87.940
745.74	89.320
746.06	84.878
746.37	82.379
746.68	89.552
747.00	86.911
747.31	71.154
747.62	81.567
747.94	79.476
748.25	93.953
748.56	85.714
748.88	85.870
749.19	79.812
749.50	92.647
749.82	83.111
750.13	88.987
750.44	85.366
750.75	83.600
751.07	87.143
751.38	78.598
751.69	79.389
752.01	86.923
752.32	76.654
752.63	78.077
752.94	76.984
753.26	84.348
753.57	91.071
753.88	78.879
754.19	79.253
754.51	77.344
754.82	80.237
755.13	83.539
755.44	84.298
755.75	83.951
756.07	77.108
756.38	77.734
756.69	78.339
757.00	78.049
757.31	74.832
757.63	76.324
757.94	75.723
758.25	78.779
758.56	79.784
758.87	73.864
759.18	77.000
759.50	75.801
759.81	81.387
760.12	77.703
760.43	78.964
760.74	79.375
761.05	73.876
761.36	77.246
761.67	74.852
761.99	72.258
762.30	77.174
762.61	70.943
762.92	79.372
763.23	84.360
763.54	75.556
763.85	78.903
764.16	80.816
764.47	86.864
764.78	77.903
765.10	79.856
765.41	73.548
765.72	72.642
766.03	73.852
766.34	75.940
766.65	76.518
766.96	76.500
767.27	74.479
767.58	84.884
767.89	85.806
768.20	86.503
768.51	77.049
768.82	83.243
769.13	83.500
769.44	76.316
769.75	75.325
770.06	76.606
770.37	70.423
770.68	72.917
770.99	78.713
771.30	79.612
771.61	81.944
771.92	74.026
772.23	80.841
772.54	74.468
772.85	76.923
773.16	78.049
773.47	84.337
773.78	78.022
774.09	80.000
774.39	74.691
774.70	76.510
775.01	88.406
775.32	80.597
775.63	67.769
775.94	81.203
776.25	80.000
776.56	77.869
776.87	77.876
777.18	88.496
777.48	80.000
777.79	70.435
778.10	81.651
778.41	72.034
778.72	82.645
779.03	79.104
779.34	75.940
779.65	69.281
779.95	82.609
780.26	74.830
780.57	82.759
780.88	86.111
781.19	80.808
781.50	71.200
781.80	71.895
782.11	78.846
782.42	62.048
782.73	72.263
783.04	68.243
783.34	68.939
783.65	75.969
783.96	78.049
784.27	82.906
784.57	76.423
784.88	71.545
785.19	70.175
785.50	58.763
785.81	73.333
786.11	65.686
786.42	70.909
786.73	73.874
787.04	78.218
787.34	70.476
787.65	64.762
787.96	79.412
788.26	82.883
788.57	78.226
788.88	69.531
789.19	74.359
789.49	72.269
789.80	72.650
790.11	67.257
790.41	75.758
790.72	68.868
791.03	77.778
791.33	81.579
791.64	70.968
791.95	80.000
792.25	75.714
792.56	68.293
792.87	68.367
793.17	69.737
793.48	58.108
793.79	61.972
794.09	75.949
794.40	73.404
794.70	70.093
795.01	58.772
795.32	74.545
795.62	75.000
795.93	73.196
796.23	61.538
796.54	78.947
796.85	82.192
797.15	62.500
797.46	71.233
797.76	74.648
798.07	76.250
798.37	73.529
798.68	84.286
798.99	55.714
799.29	61.842
799.60	76.667
799.90	50.000
800.21	59.375
800.51	74.603
800.82	70.492
801.12	56.140
801.43	57.746
801.73	67.797
802.04	54.098
802.34	67.273
802.65	50.000
802.95	70.370
803.26	65.000
803.56	78.846
803.87	65.789
804.17	64.516
804.48	63.077
804.78	58.974
805.09	76.744
805.39	53.125
805.70	54.717
806.00	80.702
806.30	72.973
806.61	82.353
806.91	69.136
807.22	77.333
807.52	64.179
807.83	87.097
808.13	57.143
808.43	63.636
808.74	57.576
809.04	69.811
809.35	63.014
809.65	89.474
809.95	73.529
810.26	88.235
810.56	42.000
810.86	69.388
811.17	77.143
811.47	44.231
811.77	93.548
812.08	13.158
812.38	59.524
812.69	56.522
812.99	38.710
813.29	50.000
813.59	48.148
813.90	51.064
814.20	32.558
814.50	79.167
814.81	56.667
815.11	63.415
815.41	56.667
815.72	82.857
816.02	75.000
816.32	56.410
816.62	75.676
816.93	38.235
817.23	28.261
817.53	29.412
817.84	64.706
818.14	18.750
818.44	48.276
818.74	45.161
819.04	62.963
819.35	63.333
819.65	28.000
819.95	33.333
820.25	104.000
820.56	18.421
820.86	27.500
821.16	61.702
821.46	56.897
821.76	58.974
822.07	42.500
822.37	23.256
822.67	13.333
822.97	18.919
823.27	72.973
823.57	92.000
823.88	48.649
824.18	71.429
824.48	30.769
824.78	53.846
825.08	56.522
825.38	33.333
825.69	87.500
825.99	25.000
826.29	32.432
826.59	8.824
826.89	52.000
827.19	54.286
827.49	68.421
827.79	18.750
828.09	16.667
828.39	73.913
828.70	37.931
829.00	34.483
829.30	41.667
829.60	90.625
829.90	83.333
830.20	15.385
830.50	14.286
830.80	32.143
831.10	12.821
831.40	47.619
831.70	26.471
832.00	41.667
832.30	-52.632
832.60	12.500
832.90	-8.333
833.20	-11.765
833.50	-33.333
833.80	6.667
834.10	-10.000
834.40	25.000
834.70	94.444
835.00	19.231
835.30	8.333
835.60	44.828
835.90	0.000
836.20	45.455
836.50	-16.667
836.80	28.571
837.10	77.143
837.40	41.176
837.70	-18.182
838.00	83.333
838.30	-43.750
838.60	19.048
838.90	70.000
839.19	39.130
839.49	30.435
839.79	27.778
840.09	17.391
840.39	0.000
840.69	0.000
840.99	-15.789
841.29	43.750
841.59	-42.857
841.88	0.000
842.18	33.333
842.48	0.000
842.78	58.621
843.08	7.143
843.38	92.308
843.68	-22.222
843.97	-23.077
844.27	-27.273
844.57	-240.000
844.87	88.000
845.17	-60.000
845.47	-14.286
845.76	0.000
846.06	0.000
846.36	-75.000
846.66	30.000
846.96	15.789
847.25	16.667
847.55	25.000
847.85	33.333
848.15	-110.000
848.44	88.462
848.74	84.211
849.04	-66.667
849.34	-44.444
849.63	-21.053
849.93	0.000
850.23	-65.000
850.53	-4.762
850.82	36.000
851.12	10.526
851.42	0.000
851.71	78.571
852.01	33.333
852.31	11.765
852.61	-40.000
852.90	-28.571
853.20	0.000
853.50	-22.222
853.79	-47.368
854.09	53.333
854.39	3.571
854.68	-4.348
854.98	-66.667
855.28	27.586
855.57	-12.500
855.87	30.000
856.17	20.000
856.46	-3.448
856.76	13.333
857.05	-88.235
857.35	-61.538
857.65	18.182
857.94	37.037
858.24	-71.429
858.53	-28.571
858.83	-50.000
859.13	-111.111
859.42	19.048
859.72	-100.000
860.01	-66.667
860.31	37.500
860.60	-180.000
860.90	-77.778
861.20	-50.000
861.49	-57.143
861.79	29.412
862.08	-500.000
862.38	-25.000
862.67	-30.769
862.97	17.647
863.26	25.000
863.56	0.000
863.85	366.667
864.15	-50.000
864.44	-115.385
864.74	20.000
865.03	-150.000
865.33	66.667
865.62	-29.412
865.92	-450.000
866.21	-114.286
866.51	-108.333
866.80	-700.000
867.10	33.333
867.39	-5.882
867.69	21.739
867.98	28.571
868.27	-220.000
868.57	-56.250
868.86	-100.000
869.16	11.765
869.45	-66.667
869.75	-28.571
870.04	1000.000
870.33	8.333
870.63	-240.000
870.92	-77.778
871.22	-91.667
871.51	-90.909
871.80	83.333
872.10	-50.000
>>>>>End Processed Spectral Data<<<<<
