SpectraSuite Data File
++++++++++++++++++++++++++++++++++++
Date: Sat May 16 11:16:22 PDT 2015
User: schluterlab
Dark Spectrum Present: Yes
Reference Spectrum Present: Yes
Number of Sampled Component Spectra: 1
Spectrometers: USB2E3373
Integration Time (usec): 3000 (USB2E3373)
Spectra Averaged: 3 (USB2E3373)
Boxcar Smoothing: 0 (USB2E3373)
Correct for Electrical Dark: No (USB2E3373)
Strobe/Lamp Enabled: No (USB2E3373)
Correct for Detector Non-linearity: No (USB2E3373)
Correct for Stray Light: No (USB2E3373)
Number of Pixels in Processed Spectrum: 2048
>>>>>Begin Processed Spectral Data<<<<<
178.53	0.000
178.91	33.333
179.29	766.667
179.67	-200.000
180.04	-38.462
180.42	1400.000
180.80	225.000
181.18	225.000
181.56	-100.000
181.94	600.000
182.31	475.000
182.69	61.538
183.07	-266.667
183.45	950.000
183.83	300.000
184.20	28.571
184.58	-87.500
184.96	-325.000
185.34	137.500
185.72	-500.000
186.09	166.667
186.47	-150.000
186.85	-175.000
187.23	87.500
187.61	-125.000
187.98	-125.000
188.36	0.000
188.74	-175.000
189.12	1800.000
189.49	357.143
189.87	-91.667
190.25	325.000
190.63	-35.714
191.00	-66.667
191.38	280.000
191.76	66.667
192.14	400.000
192.51	-120.000
192.89	-400.000
193.27	0.000
193.65	-11.111
194.02	-228.571
194.40	266.667
194.78	-100.000
195.15	-800.000
195.53	-36.364
195.91	-233.333
196.29	-40.000
196.66	-600.000
197.04	900.000
197.42	-125.000
197.79	113.333
198.17	100.000
198.55	50.000
198.92	-1100.000
199.30	200.000
199.68	-750.000
200.05	-77.778
200.43	-77.778
200.81	-900.000
201.18	-133.333
201.56	157.143
201.94	-53.333
202.31	27.273
202.69	100.000
203.07	-40.000
203.44	300.000
203.82	-233.333
204.19	-275.000
204.57	150.000
204.95	-1100.000
205.32	62.500
205.70	900.000
206.08	-700.000
206.45	-27.778
206.83	-650.000
207.20	200.000
207.58	-500.000
207.96	-200.000
208.33	-150.000
208.71	-155.556
209.08	190.000
209.46	-142.857
209.84	100.000
210.21	0.000
210.59	65.000
210.96	100.000
211.34	-83.333
211.71	-166.667
212.09	175.000
212.46	900.000
212.84	-1700.000
213.22	500.000
213.59	200.000
213.97	-33.333
214.34	90.000
214.72	-90.000
215.09	-433.333
215.47	-16.667
215.84	60.000
216.22	-30.000
216.59	66.667
216.97	-300.000
217.34	950.000
217.72	-71.429
218.09	-216.667
218.47	-57.143
218.84	271.429
219.22	200.000
219.59	0.000
219.97	57.143
220.34	375.000
220.72	150.000
221.09	-7.692
221.47	0.000
221.84	500.000
222.22	-450.000
222.59	400.000
222.97	-125.000
223.34	-550.000
223.72	-466.667
224.09	-71.429
224.46	-325.000
224.84	14.286
225.21	-57.143
225.59	18.182
225.96	12.500
226.34	-42.857
226.71	-55.556
227.08	0.000
227.46	1000.000
227.83	-85.714
228.21	-175.000
228.58	400.000
228.95	0.000
229.33	-800.000
229.70	20.000
230.08	-300.000
230.45	-16.667
230.82	-150.000
231.20	-900.000
231.57	0.000
231.95	500.000
232.32	14.286
232.69	-133.333
233.07	-285.714
233.44	-1200.000
233.81	-66.667
234.19	-66.667
234.56	-6.250
234.93	18.750
235.31	-242.857
235.68	-150.000
236.05	-70.588
236.43	-45.455
236.80	-41.935
237.17	29.167
237.55	-76.190
237.92	-31.818
238.29	-28.571
238.67	14.706
239.04	-8.333
239.41	-22.581
239.79	-20.513
240.16	-19.048
240.53	-10.909
240.91	-23.077
241.28	0.000
241.65	-9.231
242.02	-18.033
242.40	-22.951
242.77	-15.152
243.14	-22.034
243.51	-25.714
243.89	2.532
244.26	-11.236
244.63	-5.263
245.00	-7.368
245.38	0.847
245.75	2.655
246.12	-1.600
246.49	0.000
246.87	-11.382
247.24	-7.627
247.61	-8.475
247.98	-10.563
248.36	-2.098
248.73	-4.430
249.10	-4.459
249.47	0.000
249.84	-2.273
250.22	-10.714
250.59	-2.825
250.96	-0.524
251.33	8.531
251.70	-0.962
252.08	-0.948
252.45	-2.370
252.82	-5.238
253.19	-1.277
253.56	-4.435
253.94	-5.063
254.31	0.000
254.68	0.000
255.05	-4.032
255.42	-0.397
255.79	-3.226
256.16	1.961
256.54	0.000
256.91	-1.136
257.28	-5.128
257.65	-4.610
258.02	3.774
258.39	1.672
258.76	-2.027
259.14	-1.852
259.51	-1.311
259.88	-1.220
260.25	0.932
260.62	-4.180
260.99	-3.858
261.36	-1.524
261.73	0.289
262.10	0.833
262.47	-1.425
262.85	-1.429
263.22	-0.573
263.59	-2.462
263.96	-2.899
264.33	1.084
264.70	2.210
265.07	-0.824
265.44	-1.034
265.81	-1.034
266.18	-3.797
266.55	-1.471
266.92	0.504
267.29	-2.179
267.66	-2.963
268.03	1.208
268.40	1.643
268.77	0.000
269.14	-4.640
269.51	0.920
269.88	-0.459
270.25	-0.699
270.62	-0.229
270.99	-1.802
271.36	-3.263
271.73	-1.121
272.10	-2.746
272.47	-2.000
272.84	1.111
273.21	1.376
273.58	-1.538
273.95	-0.658
274.32	-1.131
274.69	-0.219
275.06	1.636
275.43	-1.786
275.80	0.407
276.17	-1.674
276.54	1.222
276.91	-1.440
277.28	-1.623
277.65	-2.273
278.02	1.253
278.39	-1.179
278.76	-2.191
279.13	-0.593
279.50	-0.596
279.87	-2.114
280.23	-0.405
280.60	-0.398
280.97	-2.913
281.34	-3.288
281.71	-0.577
282.08	-1.008
282.45	-2.240
282.82	-2.519
283.19	-0.364
283.56	-0.916
283.92	0.530
284.29	-2.416
284.66	-1.799
285.03	1.070
285.40	-2.583
285.77	0.351
286.14	1.444
286.51	0.533
286.87	-0.363
287.24	0.341
287.61	-1.157
287.98	-0.693
288.35	-0.331
288.72	-2.037
289.08	-2.203
289.45	-0.168
289.82	-1.903
290.19	0.000
290.56	-1.983
290.93	-2.067
291.29	-3.566
291.66	-1.932
292.03	0.000
292.40	0.904
292.77	-0.621
293.13	-0.163
293.50	1.040
293.87	-0.767
294.24	1.207
294.60	-1.818
294.97	0.303
295.34	-1.630
295.71	-0.744
296.08	-2.611
296.44	-1.144
296.81	0.142
297.18	-0.423
297.55	0.847
297.91	-0.418
298.28	-1.507
298.65	-0.279
299.02	0.535
299.38	-0.134
299.75	-0.951
300.12	-0.769
300.48	-0.128
300.85	-1.835
301.22	0.776
301.59	-0.520
301.95	-0.126
302.32	-1.043
302.69	0.000
303.05	-0.611
303.42	-1.500
303.79	-1.196
304.15	-0.355
304.52	-1.167
304.89	0.354
305.25	-0.366
305.62	-0.823
305.99	1.178
306.35	0.888
306.72	-0.911
307.09	1.476
307.45	-0.454
307.82	-0.447
308.19	0.224
308.55	0.871
308.92	-0.537
309.29	-0.541
309.65	0.000
310.02	0.000
310.38	-0.432
310.75	0.512
311.12	-0.207
311.48	1.044
311.85	0.515
312.22	1.236
312.58	0.712
312.95	0.408
313.31	1.499
313.68	1.508
314.05	3.165
314.41	0.101
314.78	0.699
315.14	0.987
315.51	1.114
315.87	1.646
316.24	1.361
316.61	2.399
316.97	1.095
317.34	1.349
317.70	1.391
318.07	2.052
318.43	1.498
318.80	2.817
319.16	1.032
319.53	1.598
319.89	1.129
320.26	1.569
320.62	2.404
320.99	3.781
321.35	0.985
321.72	1.331
322.08	2.473
322.45	1.485
322.81	3.074
323.18	3.362
323.54	2.495
323.91	3.800
324.27	3.327
324.64	3.291
325.00	4.625
325.37	2.805
325.73	5.074
326.10	3.543
326.46	5.429
326.83	5.617
327.19	5.338
327.56	5.792
327.92	5.692
328.29	5.714
328.65	4.273
329.01	6.095
329.38	6.244
329.74	7.051
330.11	6.800
330.47	4.995
330.84	7.241
331.20	6.588
331.56	7.019
331.93	6.039
332.29	6.941
332.66	7.199
333.02	7.964
333.38	7.258
333.75	6.857
334.11	7.200
334.48	6.178
334.84	8.399
335.20	7.624
335.57	7.130
335.93	9.221
336.29	7.174
336.66	6.872
337.02	7.568
337.38	6.595
337.75	7.989
338.11	7.245
338.47	6.851
338.84	7.623
339.20	7.821
339.56	9.269
339.93	7.231
340.29	7.086
340.65	8.217
341.02	8.179
341.38	7.666
341.74	7.621
342.11	7.509
342.47	6.438
342.83	7.305
343.20	7.857
343.56	6.204
343.92	8.013
344.28	7.990
344.65	7.013
345.01	7.479
345.37	8.638
345.73	6.956
346.10	6.296
346.46	6.661
346.82	7.298
347.19	7.149
347.55	6.421
347.91	8.031
348.27	5.887
348.63	8.239
349.00	7.717
349.36	5.855
349.72	8.280
350.08	7.458
350.45	6.856
350.81	7.564
351.17	6.672
351.53	6.683
351.89	8.327
352.26	7.907
352.62	8.141
352.98	7.674
353.34	7.434
353.70	6.873
354.07	7.081
354.43	7.984
354.79	7.052
355.15	7.827
355.51	7.266
355.87	7.036
356.24	6.831
356.60	8.058
356.96	8.314
357.32	6.334
357.68	7.126
358.04	8.314
358.40	7.193
358.77	7.419
359.13	7.192
359.49	8.012
359.85	7.698
360.21	7.306
360.57	7.982
360.93	8.519
361.29	8.371
361.66	6.631
362.02	6.953
362.38	7.777
362.74	8.278
363.10	7.317
363.46	8.974
363.82	8.017
364.18	7.742
364.54	8.363
364.90	7.617
365.26	7.846
365.62	8.696
365.98	8.321
366.35	9.014
366.71	8.104
367.07	8.539
367.43	8.648
367.79	7.835
368.15	8.108
368.51	8.531
368.87	8.516
369.23	8.632
369.59	7.847
369.95	8.739
370.31	9.916
370.67	7.303
371.03	8.163
371.39	8.699
371.75	8.870
372.11	8.250
372.47	8.749
372.83	8.345
373.19	9.000
373.55	9.008
373.91	8.962
374.27	8.487
374.63	8.420
374.99	9.736
375.35	8.748
375.71	9.723
376.07	8.077
376.42	8.146
376.78	10.588
377.14	9.220
377.50	9.155
377.86	8.843
378.22	9.548
378.58	9.821
378.94	8.693
379.30	9.872
379.66	9.957
380.02	10.042
380.38	9.486
380.74	9.965
381.09	9.315
381.45	9.845
381.81	9.558
382.17	9.211
382.53	9.058
382.89	9.988
383.25	10.897
383.61	10.436
383.97	10.594
384.32	10.013
384.68	11.245
385.04	10.024
385.40	10.103
385.76	11.159
386.12	10.618
386.48	10.767
386.83	10.552
387.19	10.759
387.55	10.176
387.91	10.611
388.27	10.555
388.62	10.877
388.98	10.478
389.34	10.588
389.70	10.536
390.06	10.938
390.42	11.218
390.77	11.420
391.13	11.304
391.49	11.291
391.85	11.222
392.20	11.286
392.56	10.935
392.92	11.010
393.28	11.653
393.64	11.185
393.99	11.754
394.35	11.861
394.71	11.489
395.07	12.241
395.42	10.787
395.78	11.062
396.14	11.464
396.50	10.887
396.85	11.228
397.21	11.604
397.57	12.705
397.92	11.768
398.28	11.944
398.64	11.481
399.00	11.966
399.35	11.105
399.71	11.963
400.07	12.119
400.42	12.165
400.78	11.747
401.14	11.856
401.49	12.500
401.85	12.325
402.21	12.455
402.57	11.529
402.92	12.524
403.28	12.194
403.63	11.744
403.99	11.746
404.35	11.171
404.70	11.469
405.06	12.168
405.42	11.808
405.77	11.652
406.13	12.266
406.49	11.803
406.84	11.518
407.20	12.603
407.55	12.160
407.91	11.528
408.27	12.561
408.62	13.049
408.98	12.250
409.34	12.188
409.69	12.791
410.05	12.250
410.40	11.097
410.76	12.033
411.11	11.409
411.47	12.084
411.83	12.469
412.18	11.881
412.54	11.775
412.89	12.758
413.25	11.983
413.60	12.272
413.96	11.830
414.31	12.232
414.67	11.873
415.03	12.549
415.38	13.077
415.74	11.662
416.09	12.276
416.45	11.640
416.80	13.329
417.16	11.362
417.51	12.344
417.87	11.845
418.22	12.642
418.58	11.938
418.93	13.059
419.29	12.359
419.64	12.060
420.00	12.697
420.35	11.768
420.71	11.465
421.06	12.959
421.42	12.939
421.77	12.451
422.12	12.703
422.48	12.186
422.83	13.041
423.19	12.918
423.54	12.853
423.90	12.319
424.25	12.613
424.61	13.510
424.96	12.873
425.31	12.241
425.67	12.321
426.02	12.392
426.38	12.886
426.73	12.858
427.09	12.561
427.44	12.670
427.79	12.791
428.15	13.764
428.50	13.255
428.85	11.631
429.21	12.507
429.56	12.708
429.92	12.024
430.27	12.363
430.62	13.845
430.98	12.703
431.33	12.273
431.68	13.405
432.04	12.703
432.39	13.219
432.74	13.789
433.10	13.225
433.45	13.011
433.80	12.878
434.16	13.326
434.51	12.986
434.86	13.591
435.22	12.806
435.57	12.301
435.92	13.599
436.28	13.531
436.63	12.776
436.98	12.887
437.34	13.644
437.69	12.252
438.04	13.159
438.39	14.200
438.75	12.864
439.10	13.548
439.45	12.070
439.81	13.253
440.16	13.685
440.51	13.353
440.86	12.724
441.22	12.272
441.57	13.211
441.92	12.992
442.27	13.366
442.63	13.305
442.98	12.698
443.33	13.015
443.68	12.715
444.03	13.114
444.39	13.265
444.74	13.161
445.09	13.322
445.44	13.450
445.79	12.494
446.15	13.746
446.50	13.010
446.85	13.289
447.20	13.330
447.55	13.149
447.91	13.532
448.26	12.626
448.61	12.281
448.96	13.165
449.31	13.472
449.66	13.108
450.02	12.576
450.37	13.507
450.72	12.599
451.07	13.576
451.42	13.383
451.77	12.986
452.12	13.290
452.47	12.972
452.83	13.337
453.18	13.662
453.53	13.619
453.88	13.995
454.23	12.031
454.58	14.046
454.93	14.295
455.28	13.257
455.63	13.452
455.98	14.578
456.34	13.278
456.69	13.258
457.04	14.075
457.39	12.261
457.74	13.644
458.09	14.385
458.44	13.799
458.79	13.117
459.14	13.634
459.49	13.854
459.84	13.828
460.19	13.604
460.54	13.370
460.89	13.565
461.24	13.358
461.59	13.716
461.94	14.322
462.29	13.877
462.64	13.966
462.99	13.387
463.34	13.639
463.69	12.913
464.04	13.298
464.39	13.978
464.74	13.830
465.09	12.748
465.44	13.311
465.79	13.649
466.14	13.694
466.49	14.277
466.84	14.226
467.19	13.529
467.54	13.418
467.89	14.118
468.24	13.777
468.59	13.741
468.94	13.698
469.29	12.930
469.64	13.949
469.99	14.720
470.34	13.026
470.68	13.735
471.03	13.627
471.38	13.611
471.73	13.497
472.08	14.257
472.43	13.385
472.78	13.333
473.13	12.922
473.48	13.976
473.83	13.586
474.17	14.650
474.52	14.194
474.87	14.103
475.22	13.569
475.57	13.333
475.92	13.391
476.27	12.914
476.61	13.521
476.96	13.807
477.31	13.671
477.66	14.112
478.01	13.830
478.36	13.515
478.70	13.508
479.05	13.899
479.40	14.041
479.75	13.609
480.10	14.137
480.45	12.863
480.79	13.475
481.14	14.701
481.49	13.214
481.84	13.638
482.19	14.116
482.53	13.778
482.88	13.384
483.23	13.991
483.58	14.477
483.92	14.238
484.27	13.381
484.62	13.477
484.97	13.406
485.31	13.344
485.66	14.168
486.01	13.879
486.36	14.286
486.70	14.708
487.05	13.403
487.40	13.782
487.75	13.953
488.09	13.589
488.44	13.633
488.79	13.796
489.13	13.427
489.48	14.111
489.83	13.886
490.17	14.018
490.52	14.266
490.87	13.303
491.22	13.732
491.56	13.796
491.91	14.838
492.26	13.585
492.60	13.559
492.95	13.851
493.30	13.816
493.64	13.258
493.99	14.149
494.34	14.286
494.68	14.466
495.03	12.954
495.37	13.963
495.72	13.851
496.07	13.562
496.41	14.590
496.76	13.836
497.11	13.895
497.45	13.889
497.80	13.807
498.14	14.047
498.49	13.410
498.84	13.398
499.18	14.035
499.53	13.590
499.87	13.900
500.22	14.118
500.56	13.807
500.91	13.793
501.26	14.022
501.60	13.722
501.95	14.010
502.29	14.360
502.64	14.710
502.98	13.704
503.33	13.534
503.67	13.745
504.02	14.099
504.36	13.529
504.71	13.678
505.06	13.180
505.40	14.870
505.75	14.126
506.09	14.105
506.44	14.637
506.78	13.999
507.13	14.006
507.47	13.772
507.82	14.455
508.16	14.456
508.51	13.910
508.85	13.975
509.19	14.129
509.54	14.112
509.88	14.362
510.23	14.308
510.57	14.339
510.92	15.145
511.26	13.397
511.61	14.147
511.95	14.763
512.30	14.129
512.64	13.578
512.98	14.081
513.33	14.607
513.67	14.182
514.02	14.206
514.36	14.515
514.70	13.978
515.05	14.122
515.39	14.475
515.74	15.474
516.08	14.870
516.42	14.618
516.77	13.865
517.11	14.874
517.46	14.713
517.80	14.922
518.14	14.312
518.49	14.226
518.83	13.887
519.17	14.861
519.52	14.054
519.86	14.636
520.20	15.281
520.55	14.523
520.89	14.652
521.23	14.835
521.58	14.483
521.92	15.136
522.26	14.603
522.61	14.829
522.95	13.593
523.29	15.737
523.64	14.678
523.98	14.449
524.32	15.085
524.66	14.596
525.01	13.616
525.35	14.755
525.69	14.509
526.04	15.731
526.38	15.213
526.72	14.687
527.06	15.299
527.41	14.983
527.75	14.191
528.09	14.891
528.43	15.016
528.78	14.950
529.12	15.365
529.46	14.369
529.80	14.848
530.15	15.325
530.49	15.071
530.83	15.848
531.17	15.286
531.51	13.932
531.86	14.154
532.20	15.655
532.54	16.511
532.88	15.086
533.22	15.709
533.57	15.731
533.91	15.481
534.25	14.331
534.59	14.678
534.93	15.370
535.27	15.670
535.62	15.793
535.96	15.449
536.30	15.838
536.64	15.073
536.98	14.901
537.32	14.720
537.66	16.022
538.01	15.258
538.35	15.878
538.69	14.840
539.03	15.708
539.37	15.569
539.71	15.677
540.05	14.736
540.39	15.235
540.73	15.342
541.07	14.754
541.42	14.787
541.76	14.485
542.10	15.463
542.44	15.723
542.78	15.197
543.12	15.343
543.46	14.041
543.80	15.050
544.14	14.775
544.48	15.289
544.82	15.900
545.16	15.895
545.50	14.468
545.84	15.229
546.18	16.227
546.52	15.505
546.86	14.316
547.20	15.541
547.54	14.463
547.88	15.727
548.22	14.286
548.56	14.162
548.90	14.690
549.24	14.506
549.58	14.749
549.92	15.901
550.26	15.607
550.60	14.865
550.94	14.964
551.28	15.199
551.62	14.771
551.96	14.978
552.30	14.913
552.64	13.934
552.98	16.258
553.32	15.440
553.66	16.078
554.00	15.494
554.34	14.007
554.68	14.035
555.02	15.051
555.36	14.378
555.69	14.542
556.03	15.158
556.37	15.718
556.71	15.390
557.05	14.708
557.39	14.699
557.73	15.463
558.07	14.996
558.41	14.884
558.75	15.057
559.08	13.619
559.42	14.625
559.76	15.414
560.10	15.063
560.44	15.968
560.78	15.518
561.12	14.217
561.45	15.479
561.79	15.331
562.13	15.217
562.47	14.566
562.81	15.134
563.15	13.926
563.48	15.688
563.82	15.416
564.16	13.590
564.50	15.188
564.84	15.278
565.17	15.053
565.51	14.928
565.85	14.537
566.19	14.954
566.52	15.329
566.86	15.360
567.20	15.315
567.54	16.598
567.88	15.075
568.21	15.548
568.55	15.164
568.89	15.606
569.23	14.438
569.56	15.216
569.90	15.106
570.24	15.784
570.57	15.220
570.91	15.097
571.25	15.759
571.59	15.673
571.92	15.119
572.26	15.339
572.60	15.048
572.93	14.772
573.27	14.817
573.61	14.798
573.95	15.460
574.28	15.510
574.62	15.480
574.96	15.130
575.29	15.244
575.63	15.503
575.97	14.860
576.30	14.744
576.64	15.457
576.98	15.078
577.31	15.137
577.65	15.120
577.98	15.300
578.32	14.839
578.66	14.835
578.99	14.736
579.33	14.695
579.67	15.242
580.00	14.980
580.34	15.191
580.67	15.004
581.01	14.717
581.35	15.211
581.68	14.695
582.02	15.458
582.35	15.222
582.69	15.073
583.02	15.208
583.36	14.990
583.70	15.079
584.03	14.925
584.37	14.750
584.70	14.935
585.04	15.063
585.37	14.463
585.71	15.022
586.04	14.970
586.38	14.675
586.72	14.994
587.05	14.982
587.39	15.105
587.72	14.521
588.06	15.076
588.39	14.925
588.73	14.997
589.06	15.409
589.40	15.459
589.73	15.297
590.07	14.822
590.40	14.834
590.73	14.514
591.07	15.902
591.40	15.208
591.74	14.335
592.07	14.865
592.41	14.480
592.74	15.450
593.08	15.311
593.41	15.099
593.75	14.606
594.08	14.738
594.41	15.268
594.75	15.138
595.08	15.226
595.42	15.210
595.75	14.627
596.09	14.707
596.42	15.098
596.75	14.532
597.09	15.494
597.42	14.579
597.75	14.836
598.09	14.822
598.42	15.024
598.76	14.452
599.09	14.601
599.42	14.494
599.76	14.874
600.09	15.267
600.42	15.154
600.76	14.765
601.09	14.926
601.42	14.958
601.76	15.693
602.09	14.560
602.42	15.103
602.76	14.707
603.09	14.637
603.42	14.786
603.76	15.158
604.09	14.978
604.42	14.821
604.76	15.438
605.09	14.331
605.42	15.027
605.75	15.222
606.09	14.653
606.42	14.411
606.75	15.286
607.09	15.130
607.42	14.833
607.75	14.614
608.08	15.454
608.42	15.043
608.75	15.093
609.08	14.515
609.41	14.599
609.75	15.261
610.08	15.294
610.41	15.229
610.74	14.749
611.07	14.249
611.41	14.523
611.74	15.527
612.07	15.145
612.40	14.712
612.73	15.132
613.07	14.309
613.40	15.435
613.73	15.531
614.06	14.772
614.39	15.558
614.72	14.581
615.06	15.109
615.39	14.596
615.72	15.100
616.05	14.522
616.38	15.322
616.71	14.595
617.05	15.440
617.38	15.480
617.71	14.066
618.04	14.783
618.37	15.283
618.70	16.232
619.03	14.421
619.36	15.081
619.69	15.937
620.03	15.083
620.36	14.276
620.69	15.291
621.02	13.851
621.35	14.274
621.68	14.754
622.01	14.806
622.34	14.907
622.67	14.922
623.00	14.920
623.33	16.045
623.66	14.919
623.99	14.511
624.32	14.211
624.65	14.717
624.99	14.264
625.32	14.746
625.65	15.152
625.98	13.928
626.31	14.682
626.64	14.895
626.97	14.127
627.30	15.489
627.63	13.472
627.96	14.273
628.29	14.338
628.62	14.040
628.95	14.075
629.28	14.944
629.61	15.309
629.94	15.217
630.26	14.811
630.59	15.075
630.92	14.314
631.25	15.625
631.58	15.132
631.91	13.191
632.24	14.778
632.57	14.000
632.90	14.598
633.23	14.252
633.56	13.801
633.89	14.387
634.22	15.230
634.55	16.106
634.88	15.478
635.20	14.732
635.53	13.104
635.86	14.736
636.19	15.018
636.52	15.771
636.85	14.200
637.18	12.875
637.51	15.737
637.83	14.913
638.16	13.947
638.49	12.552
638.82	14.028
639.15	15.175
639.48	13.748
639.81	16.183
640.13	15.541
640.46	13.675
640.79	15.406
641.12	15.092
641.45	15.495
641.77	14.820
642.10	14.199
642.43	13.961
642.76	16.063
643.09	14.762
643.41	17.778
643.74	16.693
644.07	14.353
644.40	14.263
644.73	15.182
645.05	13.189
645.38	14.073
645.71	17.010
646.04	18.487
646.36	13.438
646.69	14.360
647.02	16.787
647.35	14.260
647.67	12.774
648.00	15.290
648.33	16.695
648.66	13.387
648.98	13.535
649.31	14.615
649.64	14.531
649.96	14.286
650.29	14.426
650.62	14.286
650.94	15.683
651.27	13.865
651.60	12.803
651.92	15.925
652.25	12.855
652.58	14.310
652.90	14.286
653.23	15.484
653.56	15.050
653.88	11.148
654.21	16.779
654.54	16.279
654.86	14.928
655.19	14.613
655.52	16.024
655.84	15.528
656.17	17.324
656.49	23.630
656.82	24.011
657.15	17.834
657.47	13.090
657.80	9.967
658.13	11.356
658.45	15.032
658.78	14.407
659.10	14.645
659.43	14.299
659.75	14.123
660.08	13.490
660.41	13.514
660.73	12.541
661.06	14.348
661.38	15.893
661.71	13.576
662.03	14.113
662.36	15.991
662.68	11.181
663.01	15.499
663.33	12.245
663.66	14.807
663.98	15.179
664.31	11.409
664.63	14.159
664.96	12.148
665.28	11.714
665.61	15.222
665.93	15.021
666.26	16.194
666.58	15.800
666.91	14.254
667.23	14.035
667.56	12.018
667.88	16.290
668.21	14.286
668.53	16.121
668.86	14.319
669.18	15.525
669.50	16.355
669.83	13.625
670.15	13.901
670.48	14.252
670.80	14.806
671.13	12.415
671.45	11.036
671.77	14.775
672.10	17.357
672.42	14.760
672.75	13.091
673.07	12.252
673.39	15.301
673.72	14.961
674.04	12.102
674.37	12.371
674.69	15.574
675.01	14.043
675.34	13.232
675.66	18.359
675.98	14.317
676.31	15.385
676.63	14.023
676.95	15.044
677.28	15.545
677.60	16.516
677.92	16.740
678.25	14.223
678.57	14.815
678.89	14.256
679.22	13.627
679.54	16.371
679.86	12.400
680.18	15.589
680.51	13.780
680.83	17.143
681.15	16.378
681.48	16.430
681.80	13.508
682.12	13.883
682.44	14.538
682.77	11.688
683.09	16.352
683.41	17.478
683.73	13.470
684.06	15.699
684.38	12.971
684.70	16.667
685.02	13.583
685.34	12.865
685.67	14.773
685.99	14.178
686.31	14.542
686.63	14.007
686.96	13.678
687.28	15.414
687.60	15.430
687.92	11.673
688.24	14.764
688.56	13.026
688.89	12.179
689.21	15.755
689.53	13.793
689.85	15.813
690.17	14.126
690.49	14.319
690.82	15.422
691.14	13.208
691.46	16.186
691.78	13.877
692.10	16.314
692.42	11.333
692.74	15.451
693.06	15.955
693.39	13.870
693.71	14.447
694.03	15.983
694.35	14.221
694.67	14.657
694.99	11.765
695.31	15.051
695.63	14.796
695.95	15.881
696.27	15.711
696.59	15.775
696.91	14.607
697.23	15.885
697.56	12.260
697.88	15.315
698.20	14.775
698.52	13.901
698.84	14.320
699.16	12.619
699.48	13.750
699.80	15.038
700.12	17.632
700.44	11.453
700.76	16.035
701.08	12.500
701.40	12.689
701.72	14.506
702.04	16.987
702.36	17.470
702.68	14.072
703.00	15.942
703.32	14.040
703.64	17.647
703.96	14.535
704.28	16.864
704.60	8.544
704.91	13.333
705.23	16.828
705.55	14.865
705.87	15.017
706.19	17.361
706.51	15.625
706.83	16.721
707.15	12.739
707.47	16.804
707.79	12.887
708.11	13.486
708.43	15.212
708.74	15.065
709.06	14.206
709.38	13.506
709.70	14.687
710.02	15.951
710.34	12.211
710.66	10.476
710.98	15.457
711.29	10.645
711.61	13.419
711.93	12.787
712.25	13.621
712.57	13.589
712.89	14.748
713.20	14.433
713.52	7.090
713.84	16.014
714.16	8.852
714.48	15.238
714.80	13.231
715.11	12.104
715.43	15.964
715.75	18.069
716.07	12.787
716.39	15.050
716.70	13.240
717.02	16.296
717.34	12.977
717.66	19.502
717.97	12.705
718.29	13.866
718.61	18.651
718.93	17.204
719.24	11.397
719.56	8.679
719.88	14.182
720.20	16.105
720.51	18.045
720.83	14.458
721.15	10.246
721.46	12.549
721.78	12.261
722.10	17.200
722.42	11.983
722.73	18.327
723.05	14.859
723.37	19.608
723.68	13.360
724.00	17.073
724.32	14.815
724.63	12.448
724.95	19.835
725.27	12.719
725.58	18.103
725.90	8.730
726.22	13.284
726.53	17.110
726.85	9.020
727.16	13.158
727.48	9.231
727.80	10.246
728.11	11.765
728.43	16.942
728.74	12.500
729.06	14.015
729.38	15.175
729.69	11.024
730.01	14.173
730.32	13.147
730.64	13.187
730.96	13.060
731.27	12.500
731.59	14.469
731.90	16.564
732.22	15.031
732.53	17.550
732.85	13.087
733.16	15.217
733.48	11.498
733.80	12.100
734.11	13.103
734.43	14.966
734.74	15.430
735.06	14.420
735.37	12.844
735.69	15.161
736.00	12.121
736.32	16.556
736.63	11.724
736.95	13.043
737.26	17.881
737.58	17.626
737.89	15.412
738.21	13.158
738.52	15.769
738.83	17.187
739.15	16.667
739.46	17.339
739.78	14.685
740.09	16.434
740.41	15.035
740.72	19.343
741.04	16.667
741.35	11.255
741.66	17.593
741.98	12.857
742.29	16.432
742.61	14.973
742.92	20.561
743.23	16.667
743.55	12.613
743.86	18.222
744.18	6.667
744.49	20.197
744.80	15.736
745.12	20.103
745.43	17.588
745.74	16.990
746.06	12.683
746.37	15.859
746.68	16.915
747.00	16.230
747.31	12.019
747.62	11.982
747.94	17.467
748.25	19.535
748.56	15.238
748.88	5.978
749.19	21.127
749.50	20.588
749.82	18.222
750.13	18.062
750.44	15.041
750.75	15.200
751.07	16.429
751.38	15.129
751.69	12.977
752.01	13.846
752.32	13.230
752.63	13.846
752.94	10.714
753.26	13.478
753.57	12.946
753.88	10.776
754.19	10.788
754.51	15.234
754.82	12.253
755.13	16.049
755.44	15.702
755.75	15.226
756.07	8.032
756.38	12.500
756.69	18.051
757.00	15.679
757.31	18.456
757.63	17.445
757.94	15.607
758.25	16.570
758.56	20.216
758.87	15.057
759.18	15.667
759.50	16.370
759.81	12.774
760.12	12.162
760.43	17.152
760.74	20.000
761.05	19.101
761.36	17.066
761.67	15.976
761.99	12.258
762.30	14.130
762.61	12.830
762.92	15.247
763.23	12.322
763.54	12.889
763.85	17.722
764.16	8.980
764.47	17.373
764.78	17.603
765.10	11.871
765.41	13.871
765.72	16.981
766.03	12.367
766.34	11.654
766.65	14.980
766.96	16.500
767.27	13.021
767.58	19.186
767.89	16.774
768.20	12.270
768.51	12.022
768.82	15.135
769.13	13.500
769.44	12.281
769.75	18.615
770.06	19.725
770.37	11.737
770.68	16.667
770.99	12.376
771.30	15.049
771.61	12.963
771.92	14.286
772.23	14.486
772.54	13.830
772.85	8.284
773.16	14.024
773.47	13.855
773.78	23.077
774.09	18.000
774.39	16.667
774.70	2.013
775.01	5.072
775.32	16.418
775.63	2.479
775.94	11.278
776.25	22.143
776.56	20.492
776.87	23.009
777.18	2.655
777.48	-1.818
777.79	15.652
778.10	1.835
778.41	15.254
778.72	9.917
779.03	21.642
779.34	20.301
779.65	18.301
779.95	18.841
780.26	14.966
780.57	-1.724
780.88	15.741
781.19	-8.081
781.50	10.400
781.80	3.922
782.11	20.513
782.42	17.470
782.73	4.380
783.04	14.865
783.34	11.364
783.65	17.054
783.96	13.821
784.27	16.239
784.57	11.382
784.88	7.317
785.19	6.140
785.50	-3.093
785.81	3.810
786.11	1.961
786.42	5.455
786.73	15.315
787.04	17.822
787.34	10.476
787.65	12.381
787.96	8.824
788.26	13.514
788.57	18.548
788.88	5.469
789.19	22.222
789.49	7.563
789.80	13.675
790.11	6.195
790.41	21.212
790.72	19.811
791.03	-5.556
791.33	10.526
791.64	8.602
791.95	17.333
792.25	-2.857
792.56	12.195
792.87	19.388
793.17	3.947
793.48	-10.811
793.79	-1.408
794.09	7.595
794.40	20.213
794.70	17.757
795.01	3.509
795.32	10.000
795.62	10.714
795.93	15.464
796.23	8.791
796.54	20.000
796.85	10.959
797.15	1.389
797.46	21.918
797.76	8.451
798.07	12.500
798.37	0.000
798.68	5.714
798.99	24.286
799.29	17.105
799.60	3.333
799.90	-8.333
800.21	7.812
800.51	17.460
800.82	24.590
801.12	-10.526
801.43	8.451
801.73	-1.695
802.04	3.279
802.34	-1.818
802.65	0.000
802.95	16.667
803.26	-20.000
803.56	0.000
803.87	5.263
804.17	11.290
804.48	24.615
804.78	-23.077
805.09	9.302
805.39	-15.625
805.70	-5.660
806.00	15.789
806.30	22.973
806.61	4.412
806.91	19.753
807.22	4.000
807.52	10.448
807.83	1.613
808.13	-1.587
808.43	-7.273
808.74	16.667
809.04	7.547
809.35	15.068
809.65	15.789
809.95	11.765
810.26	-9.804
810.56	-2.000
810.86	6.122
811.17	-14.286
811.47	3.846
811.77	22.581
812.08	-47.368
812.38	-28.571
812.69	-4.348
812.99	16.129
813.29	-19.048
813.59	-22.222
813.90	-6.383
814.20	0.000
814.50	-8.333
814.81	-1.667
815.11	7.317
815.41	-33.333
815.72	-8.571
816.02	-36.111
816.32	-7.692
816.62	0.000
816.93	-29.412
817.23	4.348
817.53	14.706
817.84	8.824
818.14	-18.750
818.44	-17.241
818.74	19.355
819.04	-11.111
819.35	-6.667
819.65	-84.000
819.95	3.333
820.25	-4.000
820.56	-10.526
820.86	-5.000
821.16	6.383
821.46	10.345
821.76	-20.513
822.07	-17.500
822.37	6.977
822.67	-30.000
822.97	-8.108
823.27	-5.405
823.57	8.000
823.88	-18.919
824.18	-76.190
824.48	-3.846
824.78	-92.308
825.08	-13.043
825.38	-41.667
825.69	8.333
825.99	-25.000
826.29	8.108
826.59	-20.588
826.89	-4.000
827.19	-11.429
827.49	5.263
827.79	-25.000
828.09	-20.000
828.39	-43.478
828.70	-51.724
829.00	17.241
829.30	11.111
829.60	25.000
829.90	-27.778
830.20	-23.077
830.50	-47.619
830.80	-53.571
831.10	41.026
831.40	-38.095
831.70	-20.588
832.00	29.167
832.30	-47.368
832.60	-12.500
832.90	-83.333
833.20	-82.353
833.50	-66.667
833.80	20.000
834.10	-40.000
834.40	-29.167
834.70	44.444
835.00	-7.692
835.30	-33.333
835.60	-24.138
835.90	-16.667
836.20	-172.727
836.50	-166.667
836.80	17.143
837.10	37.143
837.40	-41.176
837.70	-145.455
838.00	12.500
838.30	12.500
838.60	-28.571
838.90	15.000
839.19	-17.391
839.49	0.000
839.79	-83.333
840.09	-43.478
840.39	9.091
840.69	-31.250
840.99	0.000
841.29	-100.000
841.59	-21.429
841.88	-83.333
842.18	-4.167
842.48	-70.588
842.78	17.241
843.08	-21.429
843.38	-61.538
843.68	-122.222
843.97	-84.615
844.27	-27.273
844.57	-40.000
844.87	20.000
845.17	-260.000
845.47	-28.571
845.76	11.111
846.06	0.000
846.36	-200.000
846.66	-90.000
846.96	0.000
847.25	4.167
847.55	-158.333
847.85	60.000
848.15	-70.000
848.44	53.846
848.74	31.579
849.04	300.000
849.34	-33.333
849.63	-63.158
849.93	0.000
850.23	-10.000
850.53	19.048
850.82	-4.000
851.12	15.789
851.42	-750.000
851.71	57.143
852.01	-150.000
852.31	-23.529
852.61	20.000
852.90	-42.857
853.20	-83.333
853.50	-38.889
853.79	-15.789
854.09	-73.333
854.39	21.429
854.68	-8.696
854.98	-183.333
855.28	-20.690
855.57	-56.250
855.87	5.000
856.17	-66.667
856.46	10.345
856.76	53.333
857.05	-70.588
857.35	-69.231
857.65	-63.636
857.94	-3.704
858.24	-50.000
858.53	-128.571
858.83	-66.667
859.13	-88.889
859.42	0.000
859.72	-125.000
860.01	-266.667
860.31	-137.500
860.60	-340.000
860.90	-77.778
861.20	-75.000
861.49	-100.000
861.79	-29.412
862.08	-400.000
862.38	-166.667
862.67	23.077
862.97	41.176
863.26	10.000
863.56	-17.647
863.85	366.667
864.15	-110.000
864.44	-107.692
864.74	10.000
865.03	-150.000
865.33	-183.333
865.62	-52.941
865.92	-450.000
866.21	-71.429
866.51	-141.667
866.80	800.000
867.10	-333.333
867.39	5.882
867.69	39.130
867.98	0.000
868.27	-200.000
868.57	-18.750
868.86	-36.364
869.16	-17.647
869.45	-66.667
869.75	-271.429
870.04	1200.000
870.33	-41.667
870.63	80.000
870.92	-55.556
871.22	-66.667
871.51	-81.818
871.80	0.000
872.10	90.000
>>>>>End Processed Spectral Data<<<<<
