SpectraSuite Data File
++++++++++++++++++++++++++++++++++++
Date: Sat May 16 11:09:57 PDT 2015
User: schluterlab
Dark Spectrum Present: Yes
Reference Spectrum Present: Yes
Number of Sampled Component Spectra: 1
Spectrometers: USB2E3373
Integration Time (usec): 3000 (USB2E3373)
Spectra Averaged: 3 (USB2E3373)
Boxcar Smoothing: 0 (USB2E3373)
Correct for Electrical Dark: No (USB2E3373)
Strobe/Lamp Enabled: No (USB2E3373)
Correct for Detector Non-linearity: No (USB2E3373)
Correct for Stray Light: No (USB2E3373)
Number of Pixels in Processed Spectrum: 2048
>>>>>Begin Processed Spectral Data<<<<<
178.53	0.000
178.91	66.667
179.29	200.000
179.67	0.000
180.04	46.154
180.42	-0.000
180.80	-25.000
181.18	275.000
181.56	12.500
181.94	100.000
182.31	225.000
182.69	0.000
183.07	-233.333
183.45	850.000
183.83	66.667
184.20	71.429
184.58	-12.500
184.96	-75.000
185.34	-25.000
185.72	-225.000
186.09	-33.333
186.47	-37.500
186.85	-50.000
187.23	0.000
187.61	50.000
187.98	-12.500
188.36	-100.000
188.74	37.500
189.12	900.000
189.49	185.714
189.87	33.333
190.25	200.000
190.63	-7.143
191.00	-100.000
191.38	300.000
191.76	66.667
192.14	340.000
192.51	160.000
192.89	-133.333
193.27	0.000
193.65	-33.333
194.02	-228.571
194.40	33.333
194.78	-80.000
195.15	0.000
195.53	-109.091
195.91	-66.667
196.29	100.000
196.66	-266.667
197.04	2100.000
197.42	50.000
197.79	100.000
198.17	0.000
198.55	50.000
198.92	0.000
199.30	-0.000
199.68	150.000
200.05	-44.444
200.43	-55.556
200.81	300.000
201.18	-33.333
201.56	14.286
201.94	0.000
202.31	59.091
202.69	140.000
203.07	30.000
203.44	200.000
203.82	0.000
204.19	-125.000
204.57	0.000
204.95	-200.000
205.32	37.500
205.70	200.000
206.08	-1600.000
206.45	66.667
206.83	-900.000
207.20	400.000
207.58	-300.000
207.96	-366.667
208.33	50.000
208.71	-44.444
209.08	120.000
209.46	-14.286
209.84	700.000
210.21	0.000
210.59	110.000
210.96	-100.000
211.34	-33.333
211.71	-100.000
212.09	-0.000
212.46	350.000
212.84	-1500.000
213.22	100.000
213.59	25.000
213.97	66.667
214.34	10.000
214.72	40.000
215.09	-66.667
215.47	83.333
215.84	0.000
216.22	-10.000
216.59	93.333
216.97	-250.000
217.34	250.000
217.72	0.000
218.09	-133.333
218.47	-85.714
218.84	85.714
219.22	100.000
219.59	0.000
219.97	28.571
220.34	75.000
220.72	187.500
221.09	61.538
221.47	0.000
221.84	300.000
222.22	550.000
222.59	-500.000
222.97	-37.500
223.34	-500.000
223.72	233.333
224.09	35.714
224.46	-400.000
224.84	28.571
225.21	-28.571
225.59	0.000
225.96	-137.500
226.34	114.286
226.71	-55.556
227.08	35.000
227.46	1300.000
227.83	-28.571
228.21	-187.500
228.58	350.000
228.95	25.000
229.33	-700.000
229.70	160.000
230.08	-300.000
230.45	8.333
230.82	16.667
231.20	600.000
231.57	-50.000
231.95	200.000
232.32	71.429
232.69	-33.333
233.07	-100.000
233.44	-400.000
233.81	-33.333
234.19	0.000
234.56	0.000
234.93	31.250
235.31	-14.286
235.68	0.000
236.05	29.412
236.43	-27.273
236.80	32.258
237.17	75.000
237.55	0.000
237.92	4.545
238.29	28.571
238.67	35.294
239.04	38.889
239.41	16.129
239.79	-12.821
240.16	9.524
240.53	16.364
240.91	48.718
241.28	38.182
241.65	33.846
242.02	37.705
242.40	26.230
242.77	36.364
243.14	32.203
243.51	11.429
243.89	34.177
244.26	20.225
244.63	43.158
245.00	22.105
245.38	26.271
245.75	24.779
246.12	34.400
246.49	35.433
246.87	21.951
247.24	27.119
247.61	24.576
247.98	26.056
248.36	23.776
248.73	25.949
249.10	30.573
249.47	26.901
249.84	30.114
250.22	25.000
250.59	23.729
250.96	31.937
251.33	31.754
251.70	31.250
252.08	29.858
252.45	26.066
252.82	25.238
253.19	29.787
253.56	26.210
253.94	29.536
254.31	27.468
254.68	27.642
255.05	25.403
255.42	30.159
255.79	26.523
256.16	29.804
256.54	29.044
256.91	28.788
257.28	25.275
257.65	26.596
258.02	30.189
258.39	27.425
258.76	24.324
259.14	23.765
259.51	25.574
259.88	25.305
260.25	31.677
260.62	26.045
260.99	24.036
261.36	30.183
261.73	28.035
262.10	31.944
262.47	26.781
262.85	30.286
263.22	25.501
263.59	26.462
263.96	28.696
264.33	28.184
264.70	27.348
265.07	30.220
265.44	27.390
265.81	26.873
266.18	27.342
266.55	23.284
266.92	27.960
267.29	25.908
267.66	27.654
268.03	26.570
268.40	27.465
268.77	27.711
269.14	28.306
269.51	28.506
269.88	26.835
270.25	27.040
270.62	26.087
270.99	25.450
271.36	26.107
271.73	26.457
272.10	27.689
272.47	28.444
272.84	28.667
273.21	26.835
273.58	26.154
273.95	24.123
274.32	26.471
274.69	29.540
275.06	31.902
275.43	27.455
275.80	29.124
276.17	27.406
276.54	30.143
276.91	23.868
277.28	25.761
277.65	27.686
278.02	29.019
278.39	27.701
278.76	27.291
279.13	28.854
279.50	26.044
279.87	24.736
280.23	29.150
280.60	26.044
280.97	26.019
281.34	26.112
281.71	26.923
282.08	28.427
282.45	26.273
282.82	24.806
283.19	27.636
283.56	29.487
283.92	27.208
284.29	24.907
284.66	25.719
285.03	27.986
285.40	27.122
285.77	26.316
286.14	26.534
286.51	25.400
286.87	27.223
287.24	26.792
287.61	23.967
287.98	25.303
288.35	24.132
288.72	25.467
289.08	22.373
289.45	22.222
289.82	25.260
290.19	26.765
290.56	21.488
290.93	24.006
291.29	23.339
291.66	23.510
292.03	24.647
292.40	23.494
292.77	23.292
293.13	24.065
293.50	24.071
293.87	22.853
294.24	23.529
294.60	21.364
294.97	23.672
295.34	22.370
295.71	23.661
296.08	21.045
296.44	21.173
296.81	22.792
297.18	22.394
297.55	22.881
297.91	24.686
298.28	21.781
298.65	22.315
299.02	23.128
299.38	20.321
299.75	19.973
300.12	20.769
300.48	21.867
300.85	20.577
301.22	21.604
301.59	19.896
301.95	22.166
302.32	20.339
302.69	21.909
303.05	19.292
303.42	20.125
303.79	20.335
304.15	21.682
304.52	20.770
304.89	20.307
305.25	21.612
305.62	20.917
305.99	21.673
306.35	20.533
306.72	20.729
307.09	21.453
307.45	21.453
307.82	20.335
308.19	20.582
308.55	20.370
308.92	20.730
309.29	21.622
309.65	21.739
310.02	21.166
310.38	21.189
310.75	21.721
311.12	22.727
311.48	21.816
311.85	22.554
312.22	22.245
312.58	22.482
312.95	21.611
313.31	23.377
313.68	23.518
314.05	24.233
314.41	21.630
314.78	22.577
315.14	23.198
315.51	22.898
315.87	23.717
316.24	23.712
316.61	25.528
316.97	26.368
317.34	23.603
317.70	24.119
318.07	25.466
318.43	25.375
318.80	27.230
319.16	25.516
319.53	25.940
319.89	25.870
320.26	25.294
320.62	25.673
320.99	25.871
321.35	26.305
321.72	26.612
322.08	28.783
322.45	27.030
322.81	29.011
323.18	28.626
323.54	28.373
323.91	27.433
324.27	27.471
324.64	27.697
325.00	28.447
325.37	29.774
325.73	29.484
326.10	29.229
326.46	28.196
326.83	27.745
327.19	29.608
327.56	29.387
327.92	29.482
328.29	29.177
328.65	29.091
329.01	28.445
329.38	29.438
329.74	30.037
330.11	30.190
330.47	29.519
330.84	31.439
331.20	30.144
331.56	29.809
331.93	31.083
332.29	31.781
332.66	30.553
333.02	29.593
333.38	31.810
333.75	31.790
334.11	31.200
334.48	29.656
334.84	32.021
335.20	31.826
335.57	32.762
335.93	31.423
336.29	30.647
336.66	31.189
337.02	32.703
337.38	30.214
337.75	32.046
338.11	31.843
338.47	31.940
338.84	30.581
339.20	30.931
339.56	31.729
339.93	31.570
340.29	31.975
340.65	30.332
341.02	31.113
341.38	30.160
341.74	31.160
342.11	30.973
342.47	30.815
342.83	30.814
343.20	32.024
343.56	29.878
343.92	32.387
344.28	32.969
344.65	29.868
345.01	31.008
345.37	30.482
345.73	30.278
346.10	29.599
346.46	30.626
346.82	30.072
347.19	30.731
347.55	29.936
347.91	30.866
348.27	29.992
348.63	31.099
349.00	31.424
349.36	29.274
349.72	31.608
350.08	30.714
350.45	30.418
350.81	29.936
351.17	29.743
351.53	29.594
351.89	29.184
352.26	29.302
352.62	30.031
352.98	31.487
353.34	30.855
353.70	29.730
354.07	30.921
354.43	30.672
354.79	30.111
355.15	30.911
355.51	30.469
355.87	30.909
356.24	31.295
356.60	31.426
356.96	29.253
357.32	30.721
357.68	30.192
358.04	31.024
358.40	30.085
358.77	29.675
359.13	31.293
359.49	31.595
359.85	30.488
360.21	29.909
360.57	31.928
360.93	29.852
361.29	31.091
361.66	30.183
362.02	30.399
362.38	30.888
362.74	31.502
363.10	30.344
363.46	31.553
363.82	30.612
364.18	31.693
364.54	32.595
364.90	31.307
365.26	31.027
365.62	32.359
365.98	31.935
366.35	30.704
366.71	30.937
367.07	30.910
367.43	32.052
367.79	30.859
368.15	31.223
368.51	30.629
368.87	32.074
369.23	31.509
369.59	32.431
369.95	31.853
370.31	31.997
370.67	31.164
371.03	32.362
371.39	32.037
371.75	32.976
372.11	31.851
372.47	31.670
372.83	31.989
373.19	32.143
373.55	32.301
373.91	31.792
374.27	31.280
374.63	32.091
374.99	32.267
375.35	31.763
375.71	34.504
376.07	33.607
376.42	31.656
376.78	33.007
377.14	33.559
377.50	32.237
377.86	33.550
378.22	33.040
378.58	31.686
378.94	32.984
379.30	33.455
379.66	32.969
380.02	33.333
380.38	33.656
380.74	33.177
381.09	33.158
381.45	35.143
381.81	32.486
382.17	34.649
382.53	33.252
382.89	33.553
383.25	34.076
383.61	33.432
383.97	34.170
384.32	34.043
384.68	34.885
385.04	34.783
385.40	34.693
385.76	34.573
386.12	34.416
386.48	36.634
386.83	34.417
387.19	35.565
387.55	34.525
387.91	35.270
388.27	33.052
388.62	34.856
388.98	34.040
389.34	35.312
389.70	34.409
390.06	34.804
390.42	35.705
390.77	34.953
391.13	36.398
391.49	35.870
391.85	35.973
392.20	35.619
392.56	35.492
392.92	35.539
393.28	36.682
393.64	36.200
393.99	35.385
394.35	35.097
394.71	35.516
395.07	36.033
395.42	36.591
395.78	35.575
396.14	36.075
396.50	36.820
396.85	35.719
397.21	36.938
397.57	36.474
397.92	36.534
398.28	36.722
398.64	36.526
399.00	37.079
399.35	35.795
399.71	36.934
400.07	36.657
400.42	37.165
400.78	37.269
401.14	36.168
401.49	36.792
401.85	37.279
402.21	38.141
402.57	36.711
402.92	36.941
403.28	36.458
403.63	35.470
403.99	36.607
404.35	37.319
404.70	37.624
405.06	37.774
405.42	36.654
405.77	37.161
406.13	37.535
406.49	37.867
406.84	37.672
407.20	37.750
407.55	36.922
407.91	37.241
408.27	37.929
408.62	37.342
408.98	37.659
409.34	38.452
409.69	37.051
410.05	37.417
410.40	37.155
410.76	37.582
411.11	38.840
411.47	37.276
411.83	38.814
412.18	38.057
412.54	36.852
412.89	38.335
413.25	36.836
413.60	37.424
413.96	36.784
414.31	38.043
414.67	38.413
415.03	38.034
415.38	39.232
415.74	38.789
416.09	39.130
416.45	37.698
416.80	38.687
417.16	38.671
417.51	39.856
417.87	39.029
418.22	40.076
418.58	39.024
418.93	38.565
419.29	38.896
419.64	38.128
420.00	39.854
420.35	39.208
420.71	39.016
421.06	40.178
421.42	39.169
421.77	39.475
422.12	40.459
422.48	39.123
422.83	39.863
423.19	40.145
423.54	40.115
423.90	38.866
424.25	39.536
424.61	39.928
424.96	39.672
425.31	40.190
425.67	40.516
426.02	40.046
426.38	41.137
426.73	40.736
427.09	40.809
427.44	41.477
427.79	41.163
428.15	41.532
428.50	41.408
428.85	41.547
429.21	40.897
429.56	41.042
429.92	40.832
430.27	40.828
430.62	41.902
430.98	40.878
431.33	41.462
431.68	41.072
432.04	41.466
432.39	41.368
432.74	42.566
433.10	40.968
433.45	42.142
433.80	41.825
434.16	41.161
434.51	41.863
434.86	43.234
435.22	41.592
435.57	41.860
435.92	42.145
436.28	41.780
436.63	41.323
436.98	41.294
437.34	41.878
437.69	42.649
438.04	42.484
438.39	42.359
438.75	41.909
439.10	42.921
439.45	42.185
439.81	42.470
440.16	41.624
440.51	44.000
440.86	42.741
441.22	40.962
441.57	42.737
441.92	42.148
442.27	42.424
442.63	44.206
442.98	42.551
443.33	42.889
443.68	42.418
444.03	42.485
444.39	42.584
444.74	43.172
445.09	41.667
445.44	44.288
445.79	42.478
446.15	42.442
446.50	43.059
446.85	43.304
447.20	42.135
447.55	43.425
447.91	42.673
448.26	42.849
448.61	41.822
448.96	43.417
449.31	42.728
449.66	44.419
450.02	42.548
450.37	43.072
450.72	42.768
451.07	43.809
451.42	42.565
451.77	43.387
452.12	42.849
452.47	43.514
452.83	43.856
453.18	43.454
453.53	43.284
453.88	42.883
454.23	43.470
454.58	44.313
454.93	43.073
455.28	44.041
455.63	43.980
455.98	43.193
456.34	42.821
456.69	43.089
457.04	44.376
457.39	43.481
457.74	43.119
458.09	44.026
458.44	43.707
458.79	42.993
459.14	43.982
459.49	44.523
459.84	42.945
460.19	43.616
460.54	42.529
460.89	43.274
461.24	43.777
461.59	43.318
461.94	43.857
462.29	44.014
462.64	43.544
462.99	44.645
463.34	43.417
463.69	43.448
464.04	43.820
464.39	43.070
464.74	43.026
465.09	42.453
465.44	43.204
465.79	42.752
466.14	44.534
466.49	42.948
466.84	43.277
467.19	43.516
467.54	42.532
467.89	43.527
468.24	43.587
468.59	44.035
468.94	44.309
469.29	43.340
469.64	44.609
469.99	43.957
470.34	43.821
470.68	43.169
471.03	43.290
471.38	42.639
471.73	43.147
472.08	42.102
472.43	42.149
472.78	42.600
473.13	43.207
473.48	43.267
473.83	42.680
474.17	42.930
474.52	44.437
474.87	41.667
475.22	43.363
475.57	42.889
475.92	44.006
476.27	41.714
476.61	43.606
476.96	43.656
477.31	42.357
477.66	43.498
478.01	42.518
478.36	42.378
478.70	44.207
479.05	42.347
479.40	43.316
479.75	41.896
480.10	41.964
480.45	41.441
480.79	42.794
481.14	43.452
481.49	43.078
481.84	41.748
482.19	42.851
482.53	42.614
482.88	42.430
483.23	41.878
483.58	42.923
483.92	42.140
484.27	42.268
484.62	42.117
484.97	42.011
485.31	41.504
485.66	40.990
486.01	40.643
486.36	41.382
486.70	41.865
487.05	41.401
487.40	41.907
487.75	41.044
488.09	41.631
488.44	42.016
488.79	41.563
489.13	42.754
489.48	42.455
489.83	43.100
490.17	42.751
490.52	42.663
490.87	41.801
491.22	42.457
491.56	42.037
491.91	43.130
492.26	41.887
492.60	41.675
492.95	41.980
493.30	41.496
493.64	42.689
493.99	42.639
494.34	42.905
494.68	42.556
495.03	41.922
495.37	42.576
495.72	42.436
496.07	42.844
496.41	42.798
496.76	42.466
497.11	42.675
497.45	42.241
497.80	42.221
498.14	42.240
498.49	42.341
498.84	42.039
499.18	42.788
499.53	43.595
499.87	41.409
500.22	42.941
500.56	41.771
500.91	42.266
501.26	42.407
501.60	41.502
501.95	42.899
502.29	41.663
502.64	41.631
502.98	41.830
503.33	42.340
503.67	41.379
504.02	41.912
504.36	41.716
504.71	41.185
505.06	42.237
505.40	42.116
505.75	42.530
506.09	41.860
506.44	43.158
506.78	42.449
507.13	41.298
507.47	42.671
507.82	41.817
508.16	42.539
508.51	41.834
508.85	40.942
509.19	41.026
509.54	41.279
509.88	42.128
510.23	41.929
510.57	41.429
510.92	43.287
511.26	42.584
511.61	41.145
511.95	42.565
512.30	42.276
512.64	40.846
512.98	42.574
513.33	42.010
513.67	42.211
514.02	42.002
514.36	41.607
514.70	41.709
515.05	42.253
515.39	41.407
515.74	43.339
516.08	43.401
516.42	41.303
516.77	43.328
517.11	41.819
517.46	42.524
517.80	42.900
518.14	41.848
518.49	41.841
518.83	41.543
519.17	42.392
519.52	40.659
519.86	42.533
520.20	43.215
520.55	42.523
520.89	41.954
521.23	41.514
521.58	41.693
521.92	42.305
522.26	42.984
522.61	42.649
522.95	41.225
523.29	41.693
523.64	41.911
523.98	41.630
524.32	42.300
524.66	40.807
525.01	42.325
525.35	42.848
525.69	42.420
526.04	42.624
526.38	43.857
526.72	40.549
527.06	43.555
527.41	41.518
527.75	42.244
528.09	42.091
528.43	42.164
528.78	41.394
529.12	43.086
529.46	41.881
529.80	42.027
530.15	41.533
530.49	42.367
530.83	42.240
531.17	41.616
531.51	40.589
531.86	41.475
532.20	41.633
532.54	41.578
532.88	41.041
533.22	42.045
533.57	41.384
533.91	41.074
534.25	40.792
534.59	41.474
534.93	41.008
535.27	40.969
535.62	40.985
535.96	41.564
536.30	41.623
536.64	41.700
536.98	42.585
537.32	41.742
537.66	41.005
538.01	42.749
538.35	42.230
538.69	41.043
539.03	41.909
539.37	41.384
539.71	41.694
540.05	41.535
540.39	42.452
540.73	42.087
541.07	42.555
541.42	40.648
541.76	40.731
542.10	41.391
542.44	42.172
542.78	41.452
543.12	41.208
543.46	40.342
543.80	40.067
544.14	40.900
544.48	42.520
544.82	40.392
545.16	41.180
545.50	40.310
545.84	41.864
546.18	41.748
546.52	41.394
546.86	41.382
547.20	43.460
547.54	40.152
547.88	41.009
548.22	40.695
548.56	40.615
548.90	40.768
549.24	40.645
549.58	41.284
549.92	40.919
550.26	41.618
550.60	41.394
550.94	41.387
551.28	40.331
551.62	40.177
551.96	40.883
552.30	40.557
552.64	41.027
552.98	41.345
553.32	39.683
553.66	43.115
554.00	41.649
554.34	40.578
554.68	40.278
555.02	42.330
555.36	41.050
555.69	41.404
556.03	40.211
556.37	41.252
556.71	41.947
557.05	40.798
557.39	40.089
557.73	41.503
558.07	41.447
558.41	41.361
558.75	41.065
559.08	39.767
559.42	41.348
559.76	42.101
560.10	41.462
560.44	40.968
560.78	41.406
561.12	41.132
561.45	40.753
561.79	40.976
562.13	40.323
562.47	41.246
562.81	40.523
563.15	39.818
563.48	40.774
563.82	40.095
564.16	40.568
564.50	39.516
564.84	41.071
565.17	39.920
565.51	40.352
565.85	41.650
566.19	40.250
566.52	40.574
566.86	40.139
567.20	41.102
567.54	40.520
567.88	39.866
568.21	40.324
568.55	39.820
568.89	38.917
569.23	39.102
569.56	38.546
569.90	39.024
570.24	39.421
570.57	37.750
570.91	37.912
571.25	38.619
571.59	37.996
571.92	37.232
572.26	37.358
572.60	37.357
572.93	37.690
573.27	37.317
573.61	36.794
573.95	36.961
574.28	37.002
574.62	38.002
574.96	37.213
575.29	36.280
575.63	37.218
575.97	36.839
576.30	37.353
576.64	37.128
576.98	37.273
577.31	36.830
577.65	37.598
577.98	36.766
578.32	37.466
578.66	37.453
578.99	37.473
579.33	36.599
579.67	37.205
580.00	37.153
580.34	36.840
580.67	37.411
581.01	36.220
581.35	37.345
581.68	36.679
582.02	37.103
582.35	36.563
582.69	37.090
583.02	37.334
583.36	36.868
583.70	37.404
584.03	37.177
584.37	37.808
584.70	37.351
585.04	37.671
585.37	36.850
585.71	37.300
586.04	37.563
586.38	36.327
586.72	37.120
587.05	37.723
587.39	36.793
587.72	37.112
588.06	36.644
588.39	37.368
588.73	37.689
589.06	38.107
589.40	38.647
589.73	37.465
590.07	38.055
590.40	37.897
590.73	37.585
591.07	38.074
591.40	38.995
591.74	38.619
592.07	38.288
592.41	37.962
592.74	37.356
593.08	37.624
593.41	37.171
593.75	36.795
594.08	38.066
594.41	37.597
594.75	37.826
595.08	37.820
595.42	37.970
595.75	37.927
596.09	38.572
596.42	38.134
596.75	37.344
597.09	38.201
597.42	38.411
597.75	37.998
598.09	38.048
598.42	38.312
598.76	37.417
599.09	36.780
599.42	37.293
599.76	37.826
600.09	38.321
600.42	37.752
600.76	37.589
601.09	36.308
601.42	37.475
601.76	38.318
602.09	37.996
602.42	37.119
602.76	37.806
603.09	38.024
603.42	38.034
603.76	37.415
604.09	37.485
604.42	37.094
604.76	37.331
605.09	38.246
605.42	37.810
605.75	38.249
606.09	37.277
606.42	37.914
606.75	37.656
607.09	38.068
607.42	37.412
607.75	37.528
608.08	38.500
608.42	38.884
608.75	37.570
609.08	37.750
609.41	37.967
609.75	37.786
610.08	38.627
610.41	38.410
610.74	38.830
611.07	37.931
611.41	37.115
611.74	38.406
612.07	38.829
612.40	38.380
612.73	37.372
613.07	38.305
613.40	40.504
613.73	39.074
614.06	37.672
614.39	38.726
614.72	37.207
615.06	38.207
615.39	37.168
615.72	39.218
616.05	37.990
616.38	39.118
616.71	37.177
617.05	39.505
617.38	38.638
617.71	38.943
618.04	38.385
618.37	38.931
618.70	40.026
619.03	38.727
619.36	40.451
619.69	39.986
620.03	38.499
620.36	38.889
620.69	39.340
621.02	39.422
621.35	39.194
621.68	40.410
622.01	39.968
622.34	39.441
622.67	38.438
623.00	39.327
623.33	39.925
623.66	38.183
623.99	38.571
624.32	39.137
624.65	38.926
624.99	39.283
625.32	38.623
625.65	40.715
625.98	38.341
626.31	39.560
626.64	40.000
626.97	39.726
627.30	40.085
627.63	39.206
627.96	38.990
628.29	39.430
628.62	39.064
628.95	40.256
629.28	38.816
629.61	39.352
629.94	39.698
630.26	41.153
630.59	41.508
630.92	39.640
631.25	39.819
631.58	40.847
631.91	38.723
632.24	39.667
632.57	42.000
632.90	41.149
633.23	40.537
633.56	40.000
633.89	41.509
634.22	40.850
634.55	41.226
634.88	40.629
635.20	40.824
635.53	41.985
635.86	40.176
636.19	41.758
636.52	41.099
636.85	39.591
637.18	39.250
637.51	39.901
637.83	41.278
638.16	39.737
638.49	42.207
638.82	39.511
639.15	41.894
639.48	39.818
639.81	40.664
640.13	40.811
640.46	40.741
640.79	41.317
641.12	41.890
641.45	43.902
641.77	41.317
642.10	41.994
642.43	43.247
642.76	41.102
643.09	42.540
643.41	39.683
643.74	42.130
644.07	41.810
644.40	42.139
644.73	42.079
645.05	42.738
645.38	42.881
645.71	45.189
646.04	42.353
646.36	39.965
646.69	42.215
647.02	42.238
647.35	42.058
647.67	41.606
648.00	44.288
648.33	44.013
648.66	40.806
648.98	41.720
649.31	41.692
649.64	40.312
649.96	40.973
650.29	39.016
650.62	40.792
650.94	41.147
651.27	41.075
651.60	40.138
651.92	42.466
652.25	41.736
652.58	40.886
652.90	42.215
653.23	40.000
653.56	41.137
653.88	40.984
654.21	42.785
654.54	42.691
654.86	40.770
655.19	38.539
655.52	38.322
655.84	35.553
656.17	38.665
656.49	52.175
656.82	53.878
657.15	40.749
657.47	30.434
657.80	23.521
658.13	27.104
658.45	36.929
658.78	36.255
659.10	36.488
659.43	36.283
659.75	37.136
660.08	37.292
660.41	36.961
660.73	42.574
661.06	42.464
661.38	42.857
661.71	43.212
662.03	45.565
662.36	44.136
662.68	42.616
663.01	43.100
663.33	45.125
663.66	42.060
663.98	41.964
664.31	40.940
664.63	45.133
664.96	41.866
665.28	40.347
665.61	37.844
665.93	41.564
666.26	40.688
666.58	41.580
666.91	42.984
667.23	44.079
667.56	41.723
667.88	41.403
668.21	41.935
668.53	41.822
668.86	42.956
669.18	44.749
669.50	41.121
669.83	44.282
670.15	41.704
670.48	38.785
670.80	41.230
671.13	41.986
671.45	42.342
671.77	40.685
672.10	41.815
672.42	40.590
672.75	41.273
673.07	40.901
673.39	39.526
673.72	40.354
674.04	45.435
674.37	38.351
674.69	45.287
675.01	42.128
675.34	41.215
675.66	42.333
675.98	44.053
676.31	41.403
676.63	41.149
676.95	41.814
677.28	42.227
677.60	43.213
677.92	41.410
678.25	42.232
678.57	42.593
678.89	39.413
679.22	41.719
679.54	41.617
679.86	39.200
680.18	40.684
680.51	40.782
680.83	40.762
681.15	40.270
681.48	46.247
681.80	41.532
682.12	40.845
682.44	40.864
682.77	37.446
683.09	43.816
683.41	45.575
683.73	38.128
684.06	37.849
684.38	40.377
684.70	39.095
685.02	42.913
685.34	39.961
685.67	38.826
685.99	40.832
686.31	39.856
686.63	42.021
686.96	40.850
687.28	36.224
687.60	40.625
687.92	37.160
688.24	42.126
688.56	38.878
688.89	41.026
689.21	42.451
689.53	42.989
689.85	40.757
690.17	41.928
690.49	40.647
690.82	43.373
691.14	41.745
691.46	40.576
691.78	40.749
692.10	40.254
692.42	38.889
692.74	41.845
693.06	40.000
693.39	38.479
693.71	43.567
694.03	40.821
694.35	41.535
694.67	42.317
694.99	39.130
695.31	45.408
695.63	41.327
695.95	39.950
696.27	41.397
696.59	44.118
696.91	40.169
697.23	40.625
697.56	39.663
697.88	39.189
698.20	40.257
698.52	38.565
698.84	39.806
699.16	41.429
699.48	40.250
699.80	41.855
700.12	44.081
700.44	37.989
700.76	37.026
701.08	41.860
701.40	43.505
701.72	43.519
702.04	46.474
702.36	40.361
702.68	35.629
703.00	41.739
703.32	39.828
703.64	42.353
703.96	42.151
704.28	41.420
704.60	39.873
704.91	36.190
705.23	42.071
705.55	41.554
705.87	42.662
706.19	37.153
706.51	41.667
706.83	45.902
707.15	41.720
707.47	44.077
707.79	40.979
708.11	37.913
708.43	39.900
708.74	38.701
709.06	37.604
709.38	35.345
709.70	42.812
710.02	39.877
710.34	41.254
710.66	39.683
710.98	42.902
711.29	39.032
711.61	40.895
711.93	40.656
712.25	39.535
712.57	40.070
712.89	45.683
713.20	45.704
713.52	38.806
713.84	40.214
714.16	42.951
714.48	43.492
714.80	41.846
715.11	37.176
715.43	45.783
715.75	36.760
716.07	37.705
716.39	41.137
716.70	44.599
717.02	44.074
717.34	41.603
717.66	48.133
717.97	40.164
718.29	40.756
718.61	41.667
718.93	36.201
719.24	40.809
719.56	37.358
719.88	40.727
720.20	42.322
720.51	37.594
720.83	40.562
721.15	43.033
721.46	42.353
721.78	42.146
722.10	47.200
722.42	42.975
722.73	39.442
723.05	43.373
723.37	36.471
723.68	39.271
724.00	43.496
724.32	40.741
724.63	41.494
724.95	39.669
725.27	39.035
725.58	39.224
725.90	40.079
726.22	41.328
726.53	39.163
726.85	32.157
727.16	41.729
727.48	40.769
727.80	33.607
728.11	39.076
728.43	43.802
728.74	43.750
729.06	43.561
729.38	38.521
729.69	39.370
730.01	39.370
730.32	38.645
730.64	39.560
730.96	42.537
731.27	41.429
731.59	42.765
731.90	36.503
732.22	38.650
732.53	46.026
732.85	38.926
733.16	41.667
733.48	43.206
733.80	41.637
734.11	36.552
734.43	40.816
734.74	37.685
735.06	38.558
735.37	40.673
735.69	37.419
736.00	35.017
736.32	39.735
736.63	37.241
736.95	40.942
737.26	34.768
737.58	41.367
737.89	37.993
738.21	36.466
738.52	44.615
738.83	39.844
739.15	40.598
739.46	44.355
739.78	39.161
740.09	37.413
740.41	39.860
740.72	39.416
741.04	40.873
741.35	35.498
741.66	41.204
741.98	39.524
742.29	41.784
742.61	47.059
742.92	44.860
743.23	35.526
743.55	44.144
743.86	40.889
744.18	41.905
744.49	44.828
744.80	42.132
745.12	44.330
745.43	43.216
745.74	41.262
746.06	34.634
746.37	41.410
746.68	42.289
747.00	43.979
747.31	37.500
747.62	41.475
747.94	38.428
748.25	39.535
748.56	40.476
748.88	42.935
749.19	39.437
749.50	50.000
749.82	45.778
750.13	44.493
750.44	40.244
750.75	42.400
751.07	42.143
751.38	38.007
751.69	34.351
752.01	44.231
752.32	35.019
752.63	33.462
752.94	41.667
753.26	39.565
753.57	43.750
753.88	41.810
754.19	40.664
754.51	37.109
754.82	43.083
755.13	42.387
755.44	38.430
755.75	38.272
756.07	32.129
756.38	40.625
756.69	38.989
757.00	37.631
757.31	37.919
757.63	39.875
757.94	34.971
758.25	38.953
758.56	39.353
758.87	40.341
759.18	34.333
759.50	40.569
759.81	37.226
760.12	37.838
760.43	40.777
760.74	41.875
761.05	38.202
761.36	40.719
761.67	35.799
761.99	36.774
762.30	36.594
762.61	40.377
762.92	46.637
763.23	41.232
763.54	37.333
763.85	44.304
764.16	36.735
764.47	44.492
764.78	37.079
765.10	40.647
765.41	36.129
765.72	40.881
766.03	35.689
766.34	38.346
766.65	36.842
766.96	36.500
767.27	38.542
767.58	41.279
767.89	41.290
768.20	41.104
768.51	32.240
768.82	37.297
769.13	45.000
769.44	37.719
769.75	39.394
770.06	43.119
770.37	35.681
770.68	43.229
770.99	35.149
771.30	38.350
771.61	40.278
771.92	37.229
772.23	40.654
772.54	42.021
772.85	37.870
773.16	37.195
773.47	42.771
773.78	39.560
774.09	41.333
774.39	38.272
774.70	33.557
775.01	39.855
775.32	39.552
775.63	35.537
775.94	46.617
776.25	39.286
776.56	48.361
776.87	28.319
777.18	46.018
777.48	37.273
777.79	34.783
778.10	30.275
778.41	45.763
778.72	42.975
779.03	39.552
779.34	44.361
779.65	38.562
779.95	39.130
780.26	35.374
780.57	37.931
780.88	42.593
781.19	39.394
781.50	32.800
781.80	33.333
782.11	44.231
782.42	37.952
782.73	36.496
783.04	41.216
783.34	37.121
783.65	38.760
783.96	43.902
784.27	46.154
784.57	34.146
784.88	34.146
785.19	40.351
785.50	26.804
785.81	32.381
786.11	33.333
786.42	46.364
786.73	43.243
787.04	48.515
787.34	36.190
787.65	36.190
787.96	32.353
788.26	41.441
788.57	47.581
788.88	39.062
789.19	30.769
789.49	28.571
789.80	41.880
790.11	33.628
790.41	31.313
790.72	41.509
791.03	33.333
791.33	47.368
791.64	50.538
791.95	44.000
792.25	27.143
792.56	31.707
792.87	45.918
793.17	36.842
793.48	28.378
793.79	22.535
794.09	44.304
794.40	43.617
794.70	39.252
795.01	28.070
795.32	47.273
795.62	34.821
795.93	37.113
796.23	31.868
796.54	45.263
796.85	38.356
797.15	20.833
797.46	28.767
797.76	38.028
798.07	46.250
798.37	35.294
798.68	44.286
798.99	38.571
799.29	44.737
799.60	61.667
799.90	36.111
800.21	32.813
800.51	38.095
800.82	32.787
801.12	33.333
801.43	25.352
801.73	23.729
802.04	32.787
802.34	27.273
802.65	36.538
802.95	33.333
803.26	25.000
803.56	36.538
803.87	52.632
804.17	48.387
804.48	33.846
804.78	10.256
805.09	53.488
805.39	34.375
805.70	49.057
806.00	50.877
806.30	56.757
806.61	41.176
806.91	41.975
807.22	44.000
807.52	32.836
807.83	35.484
808.13	34.921
808.43	20.000
808.74	27.273
809.04	32.075
809.35	35.616
809.65	45.614
809.95	27.941
810.26	50.980
810.56	26.000
810.86	48.980
811.17	34.286
811.47	44.231
811.77	35.484
812.08	0.000
812.38	57.143
812.69	19.565
812.99	29.032
813.29	42.857
813.59	0.000
813.90	25.532
814.20	4.651
814.50	22.917
814.81	33.333
815.11	46.341
815.41	33.333
815.72	91.429
816.02	11.111
816.32	48.718
816.62	16.216
816.93	23.529
817.23	43.478
817.53	44.118
817.84	29.412
818.14	-6.250
818.44	65.517
818.74	41.935
819.04	40.741
819.35	23.333
819.65	8.000
819.95	46.667
820.25	24.000
820.56	34.211
820.86	22.500
821.16	38.298
821.46	36.207
821.76	30.769
822.07	10.000
822.37	18.605
822.67	0.000
822.97	45.946
823.27	27.027
823.57	52.000
823.88	16.216
824.18	38.095
824.48	34.615
824.78	-15.385
825.08	4.348
825.38	66.667
825.69	29.167
825.99	25.000
826.29	29.730
826.59	41.176
826.89	32.000
827.19	25.714
827.49	78.947
827.79	34.375
828.09	16.667
828.39	52.174
828.70	3.448
829.00	41.379
829.30	25.000
829.60	46.875
829.90	33.333
830.20	57.692
830.50	19.048
830.80	-21.429
831.10	30.769
831.40	33.333
831.70	8.824
832.00	66.667
832.30	0.000
832.60	87.500
832.90	50.000
833.20	-47.059
833.50	0.000
833.80	53.333
834.10	75.000
834.40	33.333
834.70	38.889
835.00	46.154
835.30	25.000
835.60	13.793
835.90	16.667
836.20	9.091
836.50	33.333
836.80	20.000
837.10	40.000
837.40	29.412
837.70	0.000
838.00	83.333
838.30	62.500
838.60	4.762
838.90	90.000
839.19	30.435
839.49	34.783
839.79	5.556
840.09	0.000
840.39	40.909
840.69	43.750
840.99	21.053
841.29	25.000
841.59	57.143
841.88	27.778
842.18	33.333
842.48	29.412
842.78	6.897
843.08	7.143
843.38	100.000
843.68	-55.556
843.97	-61.538
844.27	54.545
844.57	-60.000
844.87	68.000
845.17	140.000
845.47	7.143
845.76	55.556
846.06	0.000
846.36	-175.000
846.66	-10.000
846.96	-15.789
847.25	37.500
847.55	-133.333
847.85	33.333
848.15	20.000
848.44	73.077
848.74	31.579
849.04	166.667
849.34	122.222
849.63	10.526
849.93	0.000
850.23	20.000
850.53	0.000
850.82	52.000
851.12	52.632
851.42	-300.000
851.71	35.714
852.01	25.000
852.31	52.941
852.61	60.000
852.90	38.095
853.20	66.667
853.50	22.222
853.79	21.053
854.09	73.333
854.39	39.286
854.68	21.739
854.98	-8.333
855.28	58.621
855.57	-37.500
855.87	25.000
856.17	26.667
856.46	41.379
856.76	-26.667
857.05	23.529
857.35	-38.462
857.65	18.182
857.94	40.741
858.24	50.000
858.53	7.143
858.83	58.333
859.13	-100.000
859.42	42.857
859.72	-12.500
860.01	-300.000
860.31	50.000
860.60	-180.000
860.90	11.111
861.20	-25.000
861.49	-85.714
861.79	5.882
862.08	50.000
862.38	-75.000
862.67	46.154
862.97	29.412
863.26	65.000
863.56	29.412
863.85	66.667
864.15	-50.000
864.44	46.154
864.74	15.000
865.03	0.000
865.33	-166.667
865.62	11.765
865.92	-25.000
866.21	28.571
866.51	58.333
866.80	400.000
867.10	266.667
867.39	0.000
867.69	39.130
867.98	228.571
868.27	-120.000
868.57	-50.000
868.86	45.455
869.16	5.882
869.45	-33.333
869.75	14.286
870.04	-300.000
870.33	41.667
870.63	20.000
870.92	-11.111
871.22	91.667
871.51	63.636
871.80	50.000
872.10	120.000
>>>>>End Processed Spectral Data<<<<<
