SpectraSuite Data File
++++++++++++++++++++++++++++++++++++
Date: Sat May 16 11:20:31 PDT 2015
User: schluterlab
Dark Spectrum Present: Yes
Reference Spectrum Present: Yes
Number of Sampled Component Spectra: 1
Spectrometers: USB2E3373
Integration Time (usec): 3000 (USB2E3373)
Spectra Averaged: 3 (USB2E3373)
Boxcar Smoothing: 0 (USB2E3373)
Correct for Electrical Dark: No (USB2E3373)
Strobe/Lamp Enabled: No (USB2E3373)
Correct for Detector Non-linearity: No (USB2E3373)
Correct for Stray Light: No (USB2E3373)
Number of Pixels in Processed Spectrum: 2048
>>>>>Begin Processed Spectral Data<<<<<
178.53	0.000
178.91	126.667
179.29	666.667
179.67	-1200.000
180.04	-107.692
180.42	1200.000
180.80	275.000
181.18	300.000
181.56	-37.500
181.94	600.000
182.31	525.000
182.69	-38.462
183.07	-100.000
183.45	800.000
183.83	733.333
184.20	-157.143
184.58	-162.500
184.96	-300.000
185.34	193.750
185.72	-325.000
186.09	66.667
186.47	-75.000
186.85	-187.500
187.23	-75.000
187.61	25.000
187.98	-200.000
188.36	-150.000
188.74	-87.500
189.12	1100.000
189.49	314.286
189.87	-116.667
190.25	350.000
190.63	-28.571
191.00	-66.667
191.38	240.000
191.76	13.333
192.14	440.000
192.51	-300.000
192.89	-333.333
193.27	0.000
193.65	-111.111
194.02	-85.714
194.40	233.333
194.78	-170.000
195.15	-1100.000
195.53	-100.000
195.91	-266.667
196.29	100.000
196.66	-300.000
197.04	1900.000
197.42	-75.000
197.79	-40.000
198.17	-533.333
198.55	-750.000
198.92	-300.000
199.30	150.000
199.68	-100.000
200.05	-77.778
200.43	-200.000
200.81	-1200.000
201.18	-50.000
201.56	400.000
201.94	-33.333
202.31	31.818
202.69	70.000
203.07	-90.000
203.44	500.000
203.82	-50.000
204.19	-450.000
204.57	-175.000
204.95	-1100.000
205.32	12.500
205.70	900.000
206.08	-1500.000
206.45	-33.333
206.83	-550.000
207.20	200.000
207.58	-533.333
207.96	-566.667
208.33	-25.000
208.71	-88.889
209.08	140.000
209.46	-57.143
209.84	600.000
210.21	0.000
210.59	5.000
210.96	700.000
211.34	-166.667
211.71	-300.000
212.09	350.000
212.46	1150.000
212.84	-1900.000
213.22	233.333
213.59	75.000
213.97	33.333
214.34	230.000
214.72	-70.000
215.09	-200.000
215.47	-266.667
215.84	-120.000
216.22	-30.000
216.59	-13.333
216.97	-325.000
217.34	800.000
217.72	-242.857
218.09	-400.000
218.47	-157.143
218.84	157.143
219.22	-128.571
219.59	0.000
219.97	271.429
220.34	400.000
220.72	262.500
221.09	-130.769
221.47	0.000
221.84	166.667
222.22	-550.000
222.59	700.000
222.97	-212.500
223.34	-650.000
223.72	-633.333
224.09	-78.571
224.46	-450.000
224.84	-92.857
225.21	-142.857
225.59	-72.727
225.96	-150.000
226.34	-85.714
226.71	-144.444
227.08	-25.000
227.46	1900.000
227.83	-185.714
228.21	-137.500
228.58	350.000
228.95	-68.750
229.33	-1600.000
229.70	-100.000
230.08	-500.000
230.45	-66.667
230.82	0.000
231.20	-2500.000
231.57	-700.000
231.95	400.000
232.32	14.286
232.69	-88.889
233.07	-285.714
233.44	-400.000
233.81	-93.333
234.19	-55.556
234.56	-25.000
234.93	25.000
235.31	-185.714
235.68	-142.857
236.05	-29.412
236.43	-63.636
236.80	-9.677
237.17	4.167
237.55	-52.381
237.92	-59.091
238.29	-14.286
238.67	-52.941
239.04	11.111
239.41	-32.258
239.79	7.692
240.16	-16.667
240.53	-20.000
240.91	23.077
241.28	-7.273
241.65	13.846
242.02	-18.033
242.40	-14.754
242.77	-15.152
243.14	-16.949
243.51	-2.857
243.89	-8.861
244.26	-14.607
244.63	-2.105
245.00	4.211
245.38	-5.932
245.75	-3.540
246.12	4.000
246.49	7.874
246.87	-11.382
247.24	-4.237
247.61	-5.932
247.98	-9.859
248.36	-2.797
248.73	7.595
249.10	-2.548
249.47	-2.339
249.84	6.250
250.22	-11.310
250.59	-1.130
250.96	1.571
251.33	4.739
251.70	5.769
252.08	6.161
252.45	2.370
252.82	-2.381
253.19	5.957
253.56	2.016
253.94	0.844
254.31	7.725
254.68	2.033
255.05	3.226
255.42	6.746
255.79	0.717
256.16	1.176
256.54	2.574
256.91	2.273
257.28	1.832
257.65	2.482
258.02	5.975
258.39	0.669
258.76	3.378
259.14	1.543
259.51	5.246
259.88	0.915
260.25	4.348
260.62	1.608
260.99	1.484
261.36	6.098
261.73	5.202
262.10	5.556
262.47	3.704
262.85	6.286
263.22	3.438
263.59	-1.231
263.96	4.058
264.33	5.149
264.70	3.315
265.07	4.121
265.44	4.393
265.81	2.584
266.18	0.506
266.55	0.980
266.92	2.015
267.29	2.179
267.66	0.988
268.03	3.140
268.40	3.991
268.77	4.819
269.14	2.784
269.51	4.828
269.88	2.064
270.25	1.166
270.62	4.348
270.99	1.351
271.36	3.497
271.73	3.363
272.10	2.975
272.47	3.111
272.84	4.889
273.21	3.440
273.58	3.297
273.95	4.605
274.32	3.394
274.69	7.002
275.06	5.317
275.43	2.679
275.80	6.517
276.17	1.464
276.54	6.925
276.91	1.235
277.28	3.854
277.65	4.339
278.02	3.132
278.39	3.733
278.76	3.984
279.13	4.941
279.50	2.783
279.87	2.748
280.23	2.429
280.60	3.777
280.97	0.583
281.34	4.062
281.71	3.462
282.08	2.621
282.45	0.407
282.82	2.326
283.19	5.273
283.56	6.593
283.92	4.064
284.29	2.788
284.66	2.158
285.03	5.348
285.40	3.690
285.77	4.737
286.14	4.693
286.51	3.730
286.87	3.811
287.24	5.119
287.61	3.802
287.98	3.986
288.35	3.967
288.72	2.377
289.08	2.712
289.45	3.535
289.82	3.460
290.19	4.269
290.56	2.479
290.93	3.816
291.29	2.593
291.66	3.221
292.03	4.396
292.40	4.819
292.77	4.814
293.13	4.065
293.50	3.863
293.87	5.061
294.24	4.977
294.60	3.030
294.97	4.704
295.34	3.407
295.71	4.018
296.08	3.533
296.44	4.006
296.81	3.134
297.18	3.662
297.55	4.379
297.91	5.718
298.28	3.699
298.65	4.603
299.02	7.487
299.38	3.877
299.75	4.212
300.12	4.615
300.48	4.604
300.85	3.277
301.22	5.045
301.59	4.031
301.95	6.423
302.32	4.302
302.69	5.998
303.05	5.250
303.42	4.625
303.79	3.708
304.15	7.227
304.52	5.134
304.89	5.903
305.25	4.762
305.62	5.170
305.99	6.949
306.35	5.660
306.72	3.645
307.09	5.902
307.45	5.108
307.82	4.916
308.19	5.257
308.55	6.100
308.92	4.082
309.29	5.297
309.65	5.408
310.02	6.479
310.38	6.270
310.75	6.967
311.12	7.541
311.48	6.681
311.85	8.033
312.22	6.900
312.58	8.138
312.95	7.645
313.31	8.891
313.68	8.844
314.05	9.792
314.41	7.445
314.78	7.093
315.14	8.983
315.51	8.409
315.87	9.681
316.24	8.552
316.61	9.981
316.97	9.453
317.34	10.308
317.70	9.833
318.07	10.075
318.43	9.925
318.80	11.643
319.16	10.882
319.53	10.996
319.89	11.101
320.26	11.275
320.62	10.385
320.99	10.846
321.35	11.823
321.72	12.282
322.08	12.265
322.45	12.673
322.81	13.737
323.18	13.064
323.54	14.048
323.91	13.438
324.27	15.399
324.64	14.260
325.00	14.136
325.37	15.475
325.73	17.148
326.10	15.678
326.46	16.112
326.83	16.596
327.19	18.015
327.56	17.717
327.92	18.862
328.29	17.835
328.65	18.091
329.01	20.141
329.38	19.358
329.74	20.421
330.11	19.402
330.47	20.345
330.84	21.815
331.20	21.209
331.56	21.696
331.93	20.959
332.29	22.374
332.66	22.739
333.02	22.262
333.38	22.760
333.75	24.043
334.11	22.133
334.48	21.977
334.84	23.797
335.20	23.316
335.57	23.466
335.93	23.903
336.29	22.498
336.66	22.907
337.02	24.505
337.38	23.084
337.75	24.671
338.11	24.597
338.47	23.577
338.84	23.866
339.20	23.989
339.56	24.064
339.93	23.721
340.29	23.915
340.65	23.077
341.02	24.199
341.38	23.336
341.74	24.725
342.11	23.891
342.47	24.721
342.83	23.594
343.20	23.057
343.56	23.265
343.92	24.958
344.28	25.736
344.65	23.185
345.01	23.613
345.37	25.083
345.73	23.486
346.10	22.731
346.46	23.639
346.82	23.095
347.19	24.076
347.55	23.756
347.91	23.307
348.27	23.389
348.63	23.910
349.00	24.105
349.36	22.170
349.72	23.328
350.08	25.341
350.45	23.719
350.81	25.080
351.17	23.794
351.53	23.309
351.89	24.576
352.26	24.341
352.62	25.269
352.98	23.655
353.34	23.581
353.70	23.707
354.07	25.098
354.43	24.664
354.79	23.772
355.15	23.962
355.51	24.141
355.87	25.455
356.24	24.543
356.60	26.591
356.96	24.711
357.32	23.911
357.68	24.215
358.04	25.327
358.40	24.517
358.77	24.266
359.13	24.790
359.49	24.868
359.85	25.229
360.21	25.342
360.57	25.226
360.93	26.222
361.29	25.635
361.66	24.924
362.02	25.296
362.38	25.459
362.74	25.421
363.10	25.610
363.46	26.709
363.82	26.676
364.18	26.194
364.54	27.162
364.90	25.227
365.26	25.535
365.62	26.158
365.98	26.956
366.35	26.549
366.71	26.075
367.07	26.323
367.43	26.561
367.79	26.873
368.15	25.818
368.51	26.224
368.87	26.717
369.23	26.596
369.59	26.458
369.95	26.357
370.31	27.496
370.67	27.187
371.03	27.551
371.39	26.450
371.75	27.969
372.11	28.336
372.47	27.260
372.83	28.512
373.19	28.143
373.55	28.642
373.91	28.307
374.27	27.721
374.63	29.124
374.99	29.138
375.35	28.937
375.71	28.697
376.07	28.611
376.42	28.013
376.78	29.804
377.14	28.475
377.50	28.885
377.86	29.974
378.22	28.957
378.58	29.154
378.94	27.990
379.30	29.860
379.66	30.298
380.02	29.174
380.38	29.970
380.74	28.898
381.09	29.643
381.45	29.117
381.81	30.067
382.17	29.135
382.53	29.422
382.89	29.426
383.25	30.283
383.61	30.071
383.97	30.312
384.32	30.976
384.68	30.774
385.04	30.374
385.40	29.945
385.76	30.427
386.12	30.668
386.48	31.188
386.83	31.350
387.19	30.962
387.55	31.859
387.91	31.298
388.27	30.217
388.62	30.769
388.98	31.435
389.34	31.089
389.70	31.060
390.06	31.386
390.42	32.500
390.77	31.293
391.13	31.429
391.49	31.753
391.85	32.107
392.20	31.675
392.56	31.277
392.92	32.059
393.28	32.893
393.64	32.411
393.99	32.985
394.35	31.630
394.71	31.069
395.07	31.952
395.42	31.108
395.78	30.295
396.14	31.776
396.50	32.416
396.85	31.524
397.21	31.896
397.57	30.821
397.92	31.499
398.28	32.722
398.64	32.838
399.00	31.910
399.35	32.300
399.71	33.217
400.07	31.522
400.42	32.299
400.78	31.067
401.14	31.377
401.49	31.722
401.85	31.727
402.21	32.479
402.57	30.765
402.92	31.781
403.28	30.760
403.63	31.276
403.99	31.635
404.35	31.522
404.70	31.129
405.06	31.373
405.42	32.103
405.77	31.109
406.13	31.005
406.49	32.235
406.84	32.034
407.20	32.038
407.55	31.602
407.91	31.736
408.27	31.985
408.62	32.952
408.98	30.200
409.34	30.774
409.69	31.695
410.05	30.685
410.40	31.576
410.76	31.061
411.11	30.860
411.47	31.394
411.83	32.457
412.18	30.941
412.54	31.300
412.89	32.078
413.25	30.579
413.60	30.802
413.96	31.793
414.31	32.294
414.67	31.048
415.03	31.759
415.38	32.531
415.74	31.314
416.09	31.650
416.45	31.019
416.80	32.250
417.16	31.229
417.51	31.911
417.87	31.715
418.22	32.111
418.58	30.809
418.93	32.434
419.29	32.936
419.64	30.967
420.00	32.989
420.35	32.643
420.71	32.773
421.06	32.959
421.42	32.787
421.77	32.496
422.12	32.904
422.48	33.511
422.83	33.656
423.19	32.906
423.54	33.487
423.90	33.372
424.25	33.710
424.61	34.318
424.96	34.699
425.31	32.756
425.67	33.467
426.02	34.251
426.38	34.906
426.73	35.652
427.09	33.701
427.44	34.830
427.79	34.012
428.15	34.710
428.50	35.543
428.85	34.712
429.21	35.307
429.56	36.042
429.92	35.922
430.27	34.995
430.62	35.423
430.98	35.651
431.33	35.912
431.68	36.676
432.04	37.213
432.39	36.467
432.74	36.811
433.10	37.648
433.45	36.960
433.80	37.682
434.16	36.593
434.51	38.247
434.86	37.727
435.22	37.305
435.57	37.393
435.92	37.573
436.28	37.507
436.63	37.196
436.98	36.712
437.34	38.512
437.69	37.981
438.04	38.514
438.39	38.989
438.75	38.475
439.10	38.145
439.45	37.658
439.81	38.976
440.16	38.558
440.51	39.588
440.86	38.809
441.22	38.087
441.57	39.158
441.92	39.540
442.27	39.394
442.63	39.217
442.98	38.995
443.33	39.649
443.68	39.448
444.03	39.587
444.39	39.794
444.74	40.639
445.09	39.748
445.44	39.955
445.79	41.560
446.15	40.416
446.50	39.956
446.85	40.995
447.20	39.888
447.55	39.282
447.91	41.381
448.26	40.615
448.61	40.125
448.96	42.017
449.31	40.586
449.66	41.671
450.02	40.388
450.37	40.580
450.72	40.791
451.07	41.798
451.42	40.335
451.77	41.113
452.12	41.776
452.47	41.247
452.83	41.351
453.18	41.240
453.53	41.542
453.88	41.388
454.23	40.145
454.58	42.387
454.93	41.688
455.28	41.045
455.63	42.506
455.98	42.470
456.34	40.851
456.69	41.964
457.04	41.610
457.39	41.208
457.74	41.937
458.09	42.981
458.44	41.859
458.79	42.040
459.14	42.099
459.49	43.043
459.84	42.159
460.19	42.542
460.54	42.952
460.89	41.368
461.24	42.016
461.59	41.852
461.94	43.412
462.29	41.453
462.64	41.963
462.99	42.503
463.34	43.011
463.69	40.649
464.04	40.773
464.39	42.294
464.74	42.139
465.09	41.191
465.44	42.922
465.79	42.696
466.14	43.383
466.49	42.948
466.84	41.116
467.19	42.456
467.54	42.025
467.89	41.430
468.24	42.162
468.59	42.099
468.94	42.958
469.29	43.210
469.64	43.261
469.99	43.687
470.34	43.153
470.68	43.605
471.03	43.152
471.38	43.194
471.73	43.357
472.08	41.834
472.43	42.921
472.78	42.800
473.13	42.942
473.48	42.693
473.83	43.300
474.17	43.121
474.52	43.159
474.87	42.483
475.22	42.773
475.57	42.889
475.92	43.575
476.27	42.629
476.61	43.944
476.96	42.761
477.31	43.111
477.66	43.442
478.01	43.760
478.36	42.378
478.70	43.246
479.05	42.455
479.40	43.161
479.75	42.508
480.10	43.452
480.45	42.602
480.79	43.731
481.14	43.402
481.49	43.078
481.84	42.996
482.19	42.988
482.53	42.992
482.88	42.383
483.23	42.629
483.58	43.478
483.92	43.956
484.27	41.693
484.62	42.462
484.97	41.738
485.31	40.544
485.66	39.729
486.01	40.368
486.36	41.330
486.70	42.276
487.05	41.693
487.40	42.174
487.75	42.364
488.09	41.754
488.44	42.963
488.79	43.014
489.13	42.564
489.48	43.801
489.83	42.489
490.17	43.056
490.52	42.799
490.87	42.356
491.22	42.690
491.56	43.287
491.91	42.128
492.26	43.491
492.60	43.435
492.95	43.360
493.30	42.687
493.64	41.890
493.99	43.642
494.34	42.333
494.68	44.335
495.03	43.547
495.37	42.478
495.72	43.762
496.07	43.641
496.41	43.261
496.76	42.603
497.11	43.618
497.45	43.534
497.80	43.222
498.14	42.682
498.49	43.245
498.84	42.621
499.18	43.665
499.53	44.033
499.87	42.809
500.22	42.892
500.56	43.422
500.91	43.596
501.26	43.037
501.60	43.476
501.95	44.251
502.29	42.041
502.64	43.564
502.98	42.789
503.33	42.434
503.67	42.289
504.02	43.023
504.36	42.990
504.71	43.161
505.06	42.986
505.40	43.862
505.75	43.242
506.09	44.237
506.44	43.409
506.78	43.703
507.13	42.894
507.47	43.714
507.82	43.314
508.16	43.834
508.51	42.658
508.85	43.012
509.19	43.747
509.54	43.446
509.88	44.628
510.23	44.864
510.57	44.339
510.92	44.146
511.26	43.222
511.61	42.765
511.95	42.672
512.30	44.035
512.64	42.682
512.98	44.609
513.33	43.218
513.67	43.160
514.02	43.680
514.36	43.712
514.70	43.407
515.05	44.483
515.39	43.772
515.74	45.666
516.08	43.112
516.42	43.626
516.77	44.021
517.11	43.764
517.46	45.156
517.80	45.668
518.14	44.143
518.49	45.009
518.83	45.579
519.17	44.405
519.52	43.667
519.86	45.281
520.20	45.905
520.55	44.800
520.89	45.398
521.23	43.651
521.58	44.828
521.92	45.345
522.26	44.508
522.61	44.804
522.95	44.416
523.29	44.639
523.64	43.098
523.98	45.767
524.32	44.752
524.66	44.099
525.01	44.894
525.35	45.619
525.69	44.502
526.04	46.410
526.38	45.321
526.72	44.572
527.06	44.206
527.41	43.564
527.75	43.960
528.09	45.136
528.43	44.787
528.78	44.284
529.12	43.918
529.46	44.137
529.80	43.577
530.15	43.915
530.49	43.855
530.83	45.252
531.17	45.387
531.51	44.340
531.86	42.989
532.20	43.927
532.54	43.783
532.88	45.059
533.22	44.318
533.57	43.538
533.91	42.509
534.25	42.866
534.59	42.598
534.93	42.315
535.27	43.675
535.62	43.095
535.96	43.956
536.30	43.521
536.64	43.493
536.98	45.056
537.32	43.538
537.66	42.363
538.01	43.162
538.35	43.919
538.69	43.182
539.03	42.586
539.37	42.981
539.71	42.628
540.05	42.221
540.39	43.421
540.73	43.262
541.07	44.262
541.42	43.754
541.76	41.860
542.10	43.282
542.44	42.705
542.78	42.130
543.12	43.245
543.46	42.603
543.80	41.472
544.14	42.579
544.48	43.438
544.82	43.572
545.16	43.192
545.50	41.117
545.84	43.255
546.18	42.857
546.52	43.243
546.86	43.875
547.20	43.319
547.54	42.080
547.88	42.933
548.22	42.661
548.56	43.353
548.90	43.059
549.24	43.658
549.58	43.472
549.92	44.523
550.26	43.353
550.60	42.176
550.94	42.993
551.28	43.266
551.62	43.648
551.96	43.705
552.30	42.300
552.64	44.194
552.98	43.027
553.32	44.517
553.66	45.061
554.00	44.065
554.34	42.310
554.68	43.494
555.02	44.428
555.36	43.422
555.69	43.052
556.03	43.439
556.37	43.243
556.71	44.309
557.05	45.085
557.39	42.762
557.73	44.201
558.07	44.763
558.41	44.727
558.75	43.574
559.08	43.891
559.42	44.564
559.76	42.868
560.10	43.400
560.44	44.220
560.78	43.006
561.12	43.202
561.45	43.219
561.79	44.808
562.13	42.987
562.47	43.627
562.81	42.362
563.15	42.407
563.48	43.193
563.82	43.002
564.16	43.002
564.50	42.608
564.84	43.320
565.17	42.706
565.51	42.177
565.85	43.678
566.19	43.412
566.52	44.488
566.86	42.288
567.20	43.462
567.54	43.414
567.88	42.044
568.21	43.009
568.55	41.410
568.89	41.004
569.23	40.676
569.56	40.017
569.90	40.559
570.24	40.060
570.57	38.875
570.91	39.680
571.25	39.462
571.59	39.963
571.92	38.810
572.26	38.856
572.60	38.970
572.93	38.836
573.27	38.506
573.61	38.601
573.95	39.569
574.28	38.219
574.62	39.197
574.96	38.260
575.29	37.983
575.63	38.731
575.97	38.107
576.30	38.065
576.64	38.251
576.98	37.945
577.31	37.974
577.65	38.470
577.98	37.824
578.32	38.581
578.66	38.227
578.99	38.428
579.33	38.809
579.67	38.879
580.00	38.021
580.34	37.940
580.67	38.563
581.01	37.888
581.35	38.902
581.68	38.416
582.02	38.351
582.35	38.168
582.69	38.318
583.02	39.103
583.36	38.632
583.70	38.812
584.03	39.601
584.37	39.242
584.70	39.307
585.04	39.139
585.37	38.282
585.71	38.921
586.04	39.488
586.38	39.321
586.72	39.233
587.05	39.564
587.39	39.962
587.72	39.501
588.06	39.147
588.39	39.761
588.73	40.072
589.06	40.185
589.40	40.295
589.73	39.554
590.07	39.840
590.40	40.185
590.73	40.424
591.07	40.820
591.40	40.728
591.74	41.312
592.07	40.766
592.41	40.042
592.74	40.546
593.08	40.130
593.41	39.507
593.75	39.268
594.08	40.582
594.41	40.813
594.75	40.128
595.08	40.752
595.42	40.571
595.75	40.794
596.09	40.318
596.42	41.653
596.75	40.190
597.09	42.119
597.42	41.423
597.75	41.231
598.09	40.804
598.42	39.991
598.76	39.659
599.09	40.253
599.42	40.446
599.76	40.430
600.09	40.687
600.42	40.676
600.76	40.264
601.09	39.689
601.42	39.770
601.76	39.681
602.09	41.268
602.42	40.494
602.76	40.091
603.09	40.847
603.42	40.371
603.76	41.045
604.09	40.609
604.42	40.383
604.76	40.427
605.09	41.230
605.42	40.115
605.75	41.052
606.09	40.100
606.42	40.888
606.75	40.447
607.09	40.538
607.42	40.405
607.75	40.839
608.08	41.347
608.42	41.675
608.75	39.533
609.08	41.257
609.41	41.455
609.75	39.980
610.08	41.765
610.41	40.867
610.74	41.393
611.07	42.140
611.41	40.746
611.74	40.977
612.07	42.696
612.40	41.098
612.73	40.442
613.07	40.892
613.40	42.693
613.73	41.580
614.06	41.571
614.39	43.236
614.72	41.229
615.06	41.033
615.39	40.477
615.72	41.065
616.05	41.303
616.38	41.207
616.71	41.261
617.05	41.556
617.38	43.220
617.71	42.015
618.04	42.050
618.37	42.201
618.70	43.872
619.03	42.383
619.36	43.411
619.69	43.001
620.03	41.942
620.36	41.913
620.69	43.073
621.02	43.151
621.35	45.323
621.68	42.705
622.01	43.123
622.34	42.003
622.67	42.266
623.00	42.693
623.33	41.791
623.66	42.541
623.99	43.008
624.32	42.857
624.65	42.899
624.99	42.868
625.32	43.413
625.65	43.512
625.98	44.053
626.31	44.535
626.64	44.184
626.97	44.264
627.30	43.489
627.63	42.573
627.96	44.648
628.29	43.658
628.62	42.598
628.95	44.882
629.28	43.327
629.61	44.946
629.94	44.140
630.26	44.732
630.59	45.025
630.92	44.645
631.25	44.758
631.58	43.280
631.91	43.830
632.24	47.222
632.57	45.333
632.90	45.402
633.23	46.145
633.56	45.263
633.89	45.519
634.22	44.982
634.55	45.433
634.88	44.256
635.20	44.694
635.53	45.929
635.86	46.096
636.19	45.910
636.52	45.400
636.85	45.608
637.18	42.250
637.51	44.981
637.83	45.273
638.16	46.184
638.49	46.621
638.82	45.560
639.15	44.877
639.48	44.617
639.81	47.718
640.13	47.027
640.46	46.581
640.79	46.359
641.12	45.416
641.45	45.481
641.77	46.557
642.10	47.130
642.43	46.131
642.76	48.031
643.09	46.667
643.41	47.143
643.74	48.013
644.07	48.362
644.40	46.677
644.73	47.525
645.05	45.910
645.38	49.834
645.71	48.625
646.04	48.067
646.36	46.771
646.69	46.540
647.02	49.639
647.35	50.000
647.67	47.445
648.00	48.330
648.33	47.049
648.66	44.677
648.98	44.268
649.31	44.769
649.64	46.250
649.96	45.997
650.29	45.246
650.62	47.676
650.94	47.218
651.27	45.234
651.60	47.232
651.92	46.404
652.25	46.912
652.58	45.656
652.90	46.228
653.23	46.774
653.56	45.987
653.88	45.738
654.21	47.315
654.54	48.173
654.86	45.104
655.19	45.845
655.52	42.404
655.84	38.160
656.17	40.781
656.49	54.914
656.82	57.336
657.15	44.060
657.47	32.917
657.80	25.276
658.13	29.536
658.45	39.683
658.78	39.813
659.10	39.701
659.43	40.110
659.75	40.559
660.08	40.365
660.41	40.175
660.73	41.914
661.06	46.522
661.38	48.929
661.71	47.610
662.03	48.185
662.36	47.974
662.68	46.835
663.01	51.380
663.33	48.980
663.66	48.283
663.98	46.429
664.31	44.295
664.63	49.115
664.96	47.722
665.28	44.685
665.61	42.918
665.93	46.296
666.26	47.976
666.58	45.530
666.91	47.884
667.23	46.053
667.56	45.805
667.88	49.548
668.21	46.083
668.53	49.766
668.86	47.113
669.18	48.630
669.50	47.897
669.83	47.689
670.15	47.534
670.48	44.626
670.80	48.519
671.13	45.824
671.45	46.622
671.77	47.323
672.10	48.126
672.42	46.310
672.75	47.273
673.07	43.063
673.39	43.534
673.72	45.866
674.04	47.558
674.37	44.536
674.69	43.852
675.01	47.447
675.34	45.987
675.66	47.948
675.98	45.154
676.31	47.738
676.63	45.287
676.95	43.584
677.28	45.244
677.60	48.416
677.92	47.357
678.25	44.201
678.57	44.033
678.89	46.331
679.22	45.073
679.54	45.957
679.86	42.800
680.18	45.247
680.51	43.948
680.83	46.095
681.15	45.279
681.48	45.639
681.80	46.774
682.12	44.668
682.44	44.794
682.77	43.723
683.09	44.444
683.41	44.469
683.73	43.836
684.06	44.086
684.38	42.469
684.70	44.239
685.02	43.701
685.34	44.639
685.67	44.129
685.99	41.588
686.31	44.165
686.63	42.021
686.96	41.959
687.28	43.738
687.60	43.945
687.92	41.051
688.24	44.685
688.56	46.092
688.89	43.590
689.21	42.670
689.53	47.126
689.85	43.430
690.17	42.825
690.49	43.418
690.82	45.542
691.14	42.689
691.46	47.007
691.78	43.172
692.10	44.915
692.42	45.333
692.74	43.348
693.06	42.921
693.39	44.966
693.71	45.598
694.03	47.516
694.35	42.664
694.67	43.026
694.99	44.501
695.31	43.367
695.63	40.816
695.95	47.891
696.27	41.646
696.59	48.396
696.91	46.910
697.23	45.052
697.56	42.548
697.88	43.468
698.20	42.827
698.52	41.256
698.84	46.117
699.16	43.333
699.48	39.500
699.80	42.607
700.12	43.325
700.44	42.737
700.76	40.525
701.08	44.186
701.40	44.109
701.72	45.062
702.04	47.436
702.36	45.482
702.68	44.012
703.00	44.638
703.32	42.120
703.64	47.353
703.96	48.256
704.28	46.154
704.60	46.203
704.91	47.937
705.23	43.042
705.55	42.230
705.87	46.416
706.19	44.444
706.51	42.361
706.83	45.246
707.15	41.083
707.47	44.353
707.79	43.041
708.11	41.730
708.43	40.898
708.74	39.740
709.06	39.833
709.38	43.103
709.70	40.937
710.02	41.411
710.34	45.545
710.66	42.540
710.98	40.694
711.29	44.194
711.61	38.978
711.93	42.623
712.25	46.844
712.57	41.812
712.89	43.165
713.20	44.674
713.52	39.552
713.84	41.993
714.16	41.311
714.48	42.540
714.80	44.308
715.11	41.499
715.43	47.590
715.75	47.664
716.07	42.623
716.39	43.813
716.70	47.387
717.02	40.370
717.34	45.420
717.66	46.473
717.97	44.672
718.29	43.697
718.61	47.619
718.93	38.710
719.24	40.441
719.56	38.491
719.88	43.273
720.20	43.071
720.51	42.481
720.83	42.972
721.15	38.934
721.46	43.529
721.78	37.931
722.10	43.200
722.42	45.041
722.73	43.825
723.05	44.177
723.37	43.922
723.68	44.534
724.00	50.000
724.32	42.387
724.63	41.494
724.95	42.562
725.27	41.228
725.58	46.983
725.90	37.302
726.22	42.804
726.53	42.205
726.85	34.510
727.16	45.489
727.48	43.462
727.80	37.295
728.11	46.639
728.43	40.909
728.74	42.969
729.06	46.591
729.38	44.358
729.69	36.220
730.01	41.339
730.32	41.833
730.64	44.322
730.96	48.881
731.27	40.000
731.59	40.836
731.90	34.969
732.22	39.571
732.53	41.722
732.85	40.940
733.16	42.391
733.48	40.767
733.80	39.502
734.11	40.345
734.43	36.735
734.74	40.356
735.06	39.185
735.37	38.226
735.69	38.710
736.00	36.700
736.32	41.060
736.63	37.931
736.95	39.493
737.26	40.066
737.58	39.928
737.89	43.011
738.21	41.353
738.52	40.000
738.83	38.672
739.15	41.880
739.46	46.774
739.78	36.364
740.09	42.657
740.41	43.706
740.72	41.241
741.04	36.508
741.35	41.558
741.66	47.222
741.98	34.286
742.29	43.662
742.61	40.642
742.92	44.860
743.23	35.526
743.55	38.739
743.86	44.000
744.18	33.810
744.49	44.828
744.80	46.701
745.12	46.392
745.43	42.211
745.74	40.777
746.06	36.098
746.37	42.731
746.68	45.274
747.00	40.838
747.31	37.500
747.62	41.475
747.94	44.105
748.25	43.256
748.56	43.810
748.88	39.130
749.19	38.967
749.50	46.569
749.82	44.889
750.13	43.172
750.44	41.870
750.75	37.600
751.07	42.500
751.38	40.590
751.69	37.405
752.01	42.308
752.32	35.019
752.63	38.077
752.94	36.508
753.26	41.739
753.57	46.429
753.88	38.793
754.19	38.174
754.51	33.984
754.82	40.711
755.13	39.095
755.44	39.256
755.75	42.387
756.07	33.735
756.38	39.062
756.69	37.906
757.00	41.463
757.31	37.248
757.63	37.072
757.94	35.260
758.25	39.535
758.56	40.701
758.87	36.932
759.18	33.000
759.50	39.502
759.81	34.672
760.12	35.135
760.43	40.453
760.74	41.562
761.05	41.573
761.36	37.725
761.67	37.574
761.99	33.871
762.30	42.754
762.61	38.113
762.92	43.498
763.23	44.076
763.54	40.444
763.85	43.460
764.16	35.510
764.47	37.288
764.78	37.453
765.10	39.568
765.41	34.839
765.72	38.679
766.03	33.216
766.34	34.211
766.65	35.628
766.96	36.000
767.27	42.187
767.58	38.953
767.89	43.226
768.20	39.264
768.51	39.344
768.82	47.568
769.13	40.000
769.44	36.842
769.75	32.900
770.06	43.119
770.37	34.742
770.68	39.583
770.99	36.634
771.30	35.437
771.61	43.056
771.92	39.394
772.23	34.579
772.54	31.383
772.85	37.870
773.16	40.244
773.47	42.771
773.78	38.462
774.09	36.000
774.39	32.099
774.70	34.899
775.01	31.159
775.32	32.090
775.63	33.884
775.94	33.835
776.25	35.714
776.56	41.803
776.87	35.398
777.18	37.168
777.48	39.091
777.79	41.739
778.10	33.028
778.41	28.814
778.72	38.843
779.03	38.060
779.34	40.602
779.65	38.562
779.95	33.333
780.26	26.531
780.57	32.759
780.88	32.407
781.19	23.232
781.50	34.400
781.80	35.294
782.11	41.026
782.42	31.928
782.73	24.818
783.04	33.784
783.34	33.333
783.65	37.209
783.96	42.276
784.27	33.333
784.57	30.081
784.88	36.585
785.19	34.211
785.50	28.866
785.81	29.524
786.11	34.314
786.42	30.909
786.73	36.036
787.04	39.604
787.34	40.952
787.65	26.667
787.96	36.275
788.26	35.135
788.57	31.452
788.88	32.031
789.19	27.350
789.49	35.294
789.80	29.060
790.11	38.053
790.41	35.354
790.72	33.019
791.03	16.667
791.33	26.316
791.64	26.882
791.95	32.000
792.25	47.143
792.56	39.024
792.87	36.735
793.17	30.263
793.48	9.459
793.79	30.986
794.09	34.177
794.40	35.106
794.70	35.514
795.01	28.947
795.32	32.727
795.62	25.893
795.93	29.897
796.23	27.473
796.54	40.000
796.85	30.137
797.15	20.833
797.46	31.507
797.76	36.620
798.07	31.250
798.37	35.294
798.68	21.429
798.99	35.714
799.29	32.895
799.60	43.333
799.90	13.889
800.21	35.937
800.51	14.286
800.82	26.230
801.12	19.298
801.43	22.535
801.73	1.695
802.04	27.869
802.34	16.364
802.65	28.846
802.95	29.630
803.26	12.500
803.56	38.462
803.87	15.789
804.17	29.032
804.48	26.154
804.78	43.590
805.09	25.581
805.39	9.375
805.70	16.981
806.00	38.596
806.30	22.973
806.61	38.235
806.91	35.802
807.22	33.333
807.52	13.433
807.83	33.871
808.13	12.698
808.43	12.727
808.74	30.303
809.04	32.075
809.35	24.658
809.65	36.842
809.95	30.882
810.26	39.216
810.56	32.000
810.86	4.082
811.17	71.429
811.47	30.769
811.77	19.355
812.08	-13.158
812.38	33.333
812.69	15.217
812.99	12.903
813.29	7.143
813.59	-18.519
813.90	27.660
814.20	-4.651
814.50	18.750
814.81	15.000
815.11	31.707
815.41	3.333
815.72	68.571
816.02	0.000
816.32	35.897
816.62	24.324
816.93	20.588
817.23	15.217
817.53	14.706
817.84	17.647
818.14	21.875
818.44	41.379
818.74	9.677
819.04	3.704
819.35	-3.333
819.65	-4.000
819.95	56.667
820.25	0.000
820.56	-2.632
820.86	2.500
821.16	23.404
821.46	39.655
821.76	12.821
822.07	-10.000
822.37	0.000
822.67	46.667
822.97	2.703
823.27	48.649
823.57	64.000
823.88	37.838
824.18	-9.524
824.48	50.000
824.78	-69.231
825.08	26.087
825.38	0.000
825.69	12.500
825.99	-20.000
826.29	10.811
826.59	14.706
826.89	32.000
827.19	2.857
827.49	18.421
827.79	0.000
828.09	-3.333
828.39	39.130
828.70	-31.034
829.00	0.000
829.30	8.333
829.60	46.875
829.90	11.111
830.20	-42.308
830.50	-9.524
830.80	-14.286
831.10	15.385
831.40	-23.810
831.70	20.588
832.00	20.833
832.30	-52.632
832.60	0.000
832.90	-141.667
833.20	-76.471
833.50	13.333
833.80	20.000
834.10	40.000
834.40	-12.500
834.70	-38.889
835.00	15.385
835.30	8.333
835.60	44.828
835.90	-38.889
836.20	-27.273
836.50	-91.667
836.80	2.857
837.10	45.714
837.40	-88.235
837.70	-9.091
838.00	-8.333
838.30	56.250
838.60	19.048
838.90	40.000
839.19	-21.739
839.49	43.478
839.79	-50.000
840.09	26.087
840.39	-18.182
840.69	25.000
840.99	-10.526
841.29	-12.500
841.59	107.143
841.88	27.778
842.18	-16.667
842.48	-5.882
842.78	27.586
843.08	-7.143
843.38	-38.462
843.68	-44.444
843.97	-38.462
844.27	-109.091
844.57	-120.000
844.87	24.000
845.17	-140.000
845.47	-7.143
845.76	-88.889
846.06	0.000
846.36	-375.000
846.66	-130.000
846.96	0.000
847.25	-4.167
847.55	-66.667
847.85	40.000
848.15	-10.000
848.44	57.692
848.74	47.368
849.04	366.667
849.34	-88.889
849.63	-42.105
849.93	0.000
850.23	-25.000
850.53	-23.810
850.82	24.000
851.12	21.053
851.42	-550.000
851.71	21.429
852.01	-33.333
852.31	41.176
852.61	-20.000
852.90	4.762
853.20	-33.333
853.50	-27.778
853.79	-47.368
854.09	-6.667
854.39	-3.571
854.68	-4.348
854.98	-100.000
855.28	-31.034
855.57	-43.750
855.87	0.000
856.17	-20.000
856.46	-6.897
856.76	-53.333
857.05	-17.647
857.35	-53.846
857.65	9.091
857.94	29.630
858.24	-28.571
858.53	-7.143
858.83	-108.333
859.13	-211.111
859.42	23.810
859.72	-100.000
860.01	-166.667
860.31	-100.000
860.60	-320.000
860.90	-255.556
861.20	-75.000
861.49	-71.429
861.79	41.176
862.08	-750.000
862.38	-125.000
862.67	0.000
862.97	-11.765
863.26	-15.000
863.56	-58.824
863.85	733.333
864.15	-10.000
864.44	-46.154
864.74	5.000
865.03	-87.500
865.33	-316.667
865.62	-41.176
865.92	-400.000
866.21	-142.857
866.51	-58.333
866.80	-1000.000
867.10	-66.667
867.39	-58.824
867.69	8.696
867.98	114.286
868.27	-140.000
868.57	-87.500
868.86	-145.455
869.16	0.000
869.45	-50.000
869.75	-128.571
870.04	1500.000
870.33	-58.333
870.63	-280.000
870.92	-88.889
871.22	25.000
871.51	9.091
871.80	8.333
872.10	-90.000
>>>>>End Processed Spectral Data<<<<<
