SpectraSuite Data File
++++++++++++++++++++++++++++++++++++
Date: Sat May 16 11:09:53 PDT 2015
User: schluterlab
Dark Spectrum Present: Yes
Reference Spectrum Present: Yes
Number of Sampled Component Spectra: 1
Spectrometers: USB2E3373
Integration Time (usec): 3000 (USB2E3373)
Spectra Averaged: 3 (USB2E3373)
Boxcar Smoothing: 0 (USB2E3373)
Correct for Electrical Dark: No (USB2E3373)
Strobe/Lamp Enabled: No (USB2E3373)
Correct for Detector Non-linearity: No (USB2E3373)
Correct for Stray Light: No (USB2E3373)
Number of Pixels in Processed Spectrum: 2048
>>>>>Begin Processed Spectral Data<<<<<
178.53	0.000
178.91	80.000
179.29	200.000
179.67	100.000
180.04	30.769
180.42	-200.000
180.80	-50.000
181.18	400.000
181.56	187.500
181.94	500.000
182.31	200.000
182.69	61.538
183.07	233.333
183.45	1250.000
183.83	100.000
184.20	0.000
184.58	-87.500
184.96	-125.000
185.34	18.750
185.72	-275.000
186.09	116.667
186.47	-12.500
186.85	-62.500
187.23	12.500
187.61	-50.000
187.98	-125.000
188.36	37.500
188.74	-137.500
189.12	-100.000
189.49	242.857
189.87	-33.333
190.25	75.000
190.63	100.000
191.00	55.556
191.38	100.000
191.76	13.333
192.14	300.000
192.51	40.000
192.89	-233.333
193.27	0.000
193.65	0.000
194.02	-142.857
194.40	200.000
194.78	-10.000
195.15	-100.000
195.53	45.455
195.91	-183.333
196.29	40.000
196.66	-300.000
197.04	700.000
197.42	100.000
197.79	66.667
198.17	33.333
198.55	250.000
198.92	-1000.000
199.30	137.500
199.68	200.000
200.05	-11.111
200.43	-133.333
200.81	-1100.000
201.18	-25.000
201.56	-0.000
201.94	-20.000
202.31	27.273
202.69	100.000
203.07	-10.000
203.44	33.333
203.82	-116.667
204.19	-225.000
204.57	-50.000
204.95	-400.000
205.32	87.500
205.70	300.000
206.08	-600.000
206.45	77.778
206.83	-150.000
207.20	150.000
207.58	-366.667
207.96	-466.667
208.33	-50.000
208.71	0.000
209.08	140.000
209.46	-171.429
209.84	150.000
210.21	0.000
210.59	95.000
210.96	200.000
211.34	-100.000
211.71	200.000
212.09	275.000
212.46	850.000
212.84	-800.000
213.22	300.000
213.59	133.333
213.97	66.667
214.34	40.000
214.72	10.000
215.09	-33.333
215.47	-33.333
215.84	20.000
216.22	-10.000
216.59	33.333
216.97	-150.000
217.34	300.000
217.72	0.000
218.09	-116.667
218.47	-28.571
218.84	-85.714
219.22	42.857
219.59	0.000
219.97	200.000
220.34	225.000
220.72	137.500
221.09	7.692
221.47	0.000
221.84	66.667
222.22	50.000
222.59	600.000
222.97	-37.500
223.34	-150.000
223.72	-233.333
224.09	28.571
224.46	-75.000
224.84	35.714
225.21	-71.429
225.59	9.091
225.96	-25.000
226.34	-71.429
226.71	-77.778
227.08	75.000
227.46	400.000
227.83	-14.286
228.21	-162.500
228.58	-300.000
228.95	-43.750
229.33	-400.000
229.70	40.000
230.08	-50.000
230.45	50.000
230.82	-116.667
231.20	200.000
231.57	-250.000
231.95	100.000
232.32	66.667
232.69	-100.000
233.07	-114.286
233.44	0.000
233.81	26.667
234.19	22.222
234.56	0.000
234.93	43.750
235.31	14.286
235.68	-28.571
236.05	11.765
236.43	-59.091
236.80	32.258
237.17	4.167
237.55	23.810
237.92	-36.364
238.29	25.714
238.67	32.353
239.04	58.333
239.41	32.258
239.79	-2.564
240.16	19.048
240.53	14.545
240.91	23.077
241.28	12.727
241.65	40.000
242.02	4.918
242.40	32.787
242.77	12.121
243.14	28.814
243.51	14.286
243.89	12.658
244.26	17.978
244.63	16.842
245.00	23.158
245.38	7.627
245.75	23.894
246.12	22.400
246.49	12.598
246.87	14.634
247.24	19.492
247.61	12.712
247.98	23.239
248.36	11.888
248.73	18.987
249.10	14.650
249.47	18.129
249.84	25.568
250.22	11.310
250.59	18.079
250.96	22.513
251.33	19.905
251.70	17.788
252.08	25.118
252.45	14.692
252.82	22.857
253.19	17.447
253.56	15.323
253.94	19.409
254.31	25.322
254.68	21.545
255.05	18.548
255.42	19.841
255.79	17.563
256.16	20.784
256.54	23.529
256.91	19.697
257.28	18.681
257.65	20.213
258.02	21.069
258.39	21.405
258.76	15.878
259.14	17.593
259.51	20.328
259.88	22.561
260.25	20.807
260.62	18.971
260.99	17.804
261.36	23.476
261.73	23.121
262.10	23.889
262.47	16.239
262.85	23.143
263.22	21.203
263.59	20.308
263.96	22.319
264.33	21.951
264.70	20.442
265.07	19.505
265.44	20.413
265.81	17.829
266.18	17.722
266.55	19.363
266.92	22.922
267.29	19.128
267.66	20.247
268.03	23.188
268.40	18.545
268.77	19.518
269.14	19.026
269.51	20.000
269.88	19.495
270.25	19.814
270.62	19.908
270.99	21.171
271.36	21.445
271.73	19.283
272.10	23.570
272.47	17.778
272.84	23.333
273.21	22.018
273.58	24.615
273.95	20.395
274.32	20.588
274.69	21.882
275.06	20.245
275.43	19.420
275.80	23.218
276.17	20.293
276.54	21.181
276.91	20.782
277.28	18.864
277.65	20.455
278.02	22.756
278.39	20.432
278.76	22.709
279.13	21.542
279.50	19.284
279.87	20.507
280.23	21.255
280.60	19.284
280.97	19.806
281.34	22.244
281.71	21.154
282.08	23.185
282.45	16.497
282.82	20.543
283.19	21.273
283.56	21.978
283.92	19.965
284.29	18.030
284.66	20.863
285.03	19.073
285.40	22.878
285.77	21.754
286.14	20.397
286.51	19.893
286.87	19.601
287.24	19.966
287.61	19.339
287.98	18.371
288.35	16.694
288.72	19.525
289.08	16.102
289.45	19.697
289.82	19.723
290.19	20.033
290.56	18.347
290.93	19.396
291.29	17.990
291.66	17.552
292.03	19.780
292.40	18.373
292.77	18.012
293.13	17.724
293.50	18.276
293.87	17.638
294.24	17.195
294.60	18.030
294.97	18.513
295.34	18.667
295.71	17.857
296.08	15.207
296.44	16.023
296.81	18.519
297.18	17.887
297.55	18.503
297.91	18.689
298.28	17.123
298.65	16.736
299.02	18.316
299.38	16.578
299.75	16.304
300.12	16.667
300.48	16.752
300.85	17.693
301.22	17.335
301.59	16.255
301.95	18.262
302.32	15.254
302.69	16.279
303.05	15.385
303.42	16.000
303.79	18.301
304.15	17.773
304.52	16.803
304.89	16.293
305.25	16.972
305.62	15.981
305.99	16.961
306.35	16.648
306.72	16.515
307.09	16.232
307.45	16.118
307.82	15.978
308.19	17.338
308.55	16.449
308.92	16.219
309.29	18.162
309.65	15.801
310.02	15.443
310.38	17.297
310.75	17.623
311.12	17.562
311.48	16.701
311.85	17.611
312.22	18.538
312.58	18.616
312.95	17.329
313.31	18.681
313.68	19.095
314.05	19.387
314.41	18.712
314.78	16.983
315.14	19.645
315.51	18.744
315.87	19.361
316.24	20.019
316.61	20.250
316.97	21.294
317.34	21.291
317.70	20.686
318.07	21.269
318.43	21.161
318.80	23.474
319.16	21.295
319.53	22.274
319.89	21.543
320.26	23.725
320.62	22.596
320.99	23.184
321.35	21.773
321.72	22.006
322.08	24.332
322.45	24.752
322.81	23.727
323.18	24.400
323.54	25.693
323.91	26.228
324.27	25.760
324.64	25.868
325.00	24.782
325.37	27.240
325.73	28.521
326.10	27.281
326.46	28.284
326.83	27.489
327.19	28.857
327.56	29.472
327.92	29.312
328.29	30.216
328.65	29.909
329.01	31.007
329.38	30.062
329.74	30.678
330.11	30.281
330.47	31.698
330.84	31.622
331.20	30.776
331.56	31.085
331.93	32.504
332.29	31.963
332.66	32.572
333.02	32.489
333.38	32.527
333.75	32.591
334.11	32.800
334.48	31.951
334.84	31.846
335.20	32.358
335.57	31.318
335.93	34.109
336.29	33.127
336.66	31.894
337.02	34.324
337.38	31.907
337.75	31.607
338.11	33.363
338.47	33.007
338.84	32.396
339.20	32.337
339.56	32.175
339.93	32.275
340.29	30.735
340.65	30.157
341.02	32.040
341.38	32.519
341.74	32.091
342.11	32.935
342.47	32.103
342.83	32.158
343.20	33.305
343.56	31.347
343.92	32.638
344.28	32.212
344.65	32.343
345.01	32.773
345.37	33.140
345.73	29.951
346.10	30.744
346.46	31.113
346.82	31.034
347.19	31.635
347.55	31.862
347.91	31.890
348.27	30.708
348.63	31.583
349.00	31.742
349.36	29.664
349.72	31.768
350.08	31.034
350.45	30.654
350.81	31.449
351.17	31.350
351.53	30.708
351.89	31.285
352.26	31.938
352.62	30.492
352.98	31.725
353.34	32.934
353.70	30.425
354.07	31.550
354.43	31.700
354.79	31.379
355.15	30.511
355.51	30.625
355.87	31.542
356.24	30.659
356.60	32.474
356.96	32.256
357.32	31.196
357.68	30.805
358.04	30.947
358.40	31.245
358.77	30.139
359.13	31.446
359.49	31.595
359.85	30.793
360.21	30.898
360.57	31.476
360.93	32.370
361.29	32.362
361.66	30.945
362.02	30.843
362.38	31.548
362.74	31.429
363.10	30.273
363.46	31.054
363.82	30.977
364.18	32.055
364.54	31.594
364.90	31.726
365.26	30.884
365.62	32.502
365.98	32.148
366.35	29.648
366.71	30.303
367.07	31.263
367.43	31.366
367.79	31.409
368.15	31.223
368.51	31.329
368.87	31.456
369.23	31.719
369.59	30.556
369.95	32.488
370.31	31.224
370.67	30.369
371.03	30.685
371.39	30.410
371.75	31.617
372.11	31.133
372.47	31.887
372.83	32.128
373.19	32.071
373.55	31.879
373.91	31.935
374.27	30.869
374.63	31.263
374.99	31.433
375.35	30.888
375.71	32.073
376.07	30.732
376.42	29.470
376.78	32.810
377.14	31.729
377.50	31.786
377.86	32.185
378.22	31.156
378.58	32.366
378.94	31.011
379.30	31.505
379.66	31.269
380.02	31.373
380.38	31.239
380.74	30.598
381.09	31.634
381.45	30.967
381.81	30.551
382.17	31.015
382.53	31.246
382.89	30.622
383.25	31.126
383.61	30.601
383.97	31.353
384.32	31.352
384.68	31.076
385.04	30.737
385.40	31.893
385.76	31.585
386.12	30.543
386.48	31.683
386.83	31.534
387.19	31.261
387.55	30.951
387.91	30.943
388.27	29.614
388.62	30.950
388.98	30.527
389.34	31.334
389.70	30.694
390.06	30.454
390.42	31.474
390.77	30.284
391.13	31.429
391.49	30.817
391.85	30.860
392.20	29.915
392.56	30.910
392.92	30.405
393.28	31.114
393.64	31.449
393.99	31.815
394.35	30.961
394.71	30.080
395.07	31.387
395.42	30.572
395.78	30.610
396.14	31.589
396.50	30.826
396.85	30.845
397.21	30.377
397.57	31.003
397.92	30.328
398.28	31.333
398.64	30.874
399.00	31.292
399.35	30.947
399.71	30.836
400.07	31.224
400.42	31.083
400.78	30.710
401.14	30.180
401.49	30.130
401.85	30.384
402.21	29.142
402.57	30.279
402.92	30.900
403.28	31.005
403.63	29.718
403.99	30.827
404.35	30.072
404.70	30.661
405.06	31.027
405.42	29.213
405.77	29.921
406.13	30.437
406.49	30.917
406.84	30.954
407.20	30.094
407.55	31.096
407.91	30.376
408.27	30.637
408.62	30.728
408.98	30.321
409.34	30.165
409.69	29.238
410.05	30.503
410.40	30.656
410.76	29.638
411.11	31.297
411.47	29.604
411.83	30.685
412.18	29.394
412.54	28.920
412.89	30.255
413.25	29.162
413.60	29.587
413.96	30.006
414.31	30.703
414.67	29.714
415.03	30.207
415.38	29.798
415.74	31.057
416.09	29.795
416.45	29.696
416.80	29.974
417.16	29.568
417.51	31.123
417.87	29.838
418.22	30.594
418.58	30.616
418.93	30.595
419.29	30.238
419.64	30.088
420.00	30.134
420.35	29.864
420.71	30.432
421.06	30.355
421.42	30.152
421.77	30.765
422.12	31.281
422.48	30.091
422.83	30.581
423.19	30.624
423.54	30.548
423.90	30.538
424.25	30.430
424.61	32.388
424.96	32.124
425.31	31.358
425.67	32.149
426.02	30.694
426.38	32.607
426.73	30.976
427.09	31.924
427.44	31.193
427.79	31.337
428.15	32.196
428.50	32.023
428.85	33.273
429.21	31.655
429.56	33.073
429.92	32.064
430.27	32.004
430.62	33.124
430.98	31.730
431.33	33.298
431.68	33.673
432.04	33.520
432.39	33.390
432.74	32.374
433.10	31.908
433.45	32.585
433.80	32.419
434.16	33.423
434.51	33.753
434.86	34.036
435.22	33.909
435.57	33.109
435.92	33.294
436.28	34.718
436.63	34.087
436.98	32.016
437.34	34.436
437.69	34.014
438.04	33.579
438.39	34.958
438.75	34.226
439.10	34.314
439.45	34.762
439.81	34.819
440.16	34.242
440.51	34.941
440.86	34.529
441.22	33.499
441.57	34.632
441.92	34.936
442.27	35.011
442.63	34.710
442.98	33.747
443.33	34.267
443.68	34.758
444.03	34.627
444.39	34.655
444.74	34.581
445.09	35.033
445.44	35.678
445.79	35.186
446.15	35.597
446.50	33.968
446.85	34.992
447.20	35.240
447.55	35.691
447.91	35.430
448.26	34.972
448.61	35.144
448.96	36.078
449.31	34.667
449.66	35.776
450.02	34.848
450.37	35.304
450.72	34.972
451.07	36.141
451.42	34.572
451.77	35.787
452.12	35.459
452.47	36.461
452.83	36.459
453.18	36.243
453.53	34.950
453.88	37.141
454.23	34.946
454.58	36.607
454.93	36.587
455.28	36.074
455.63	35.197
455.98	36.867
456.34	35.006
456.69	36.210
457.04	35.956
457.39	35.945
457.74	36.621
458.09	36.833
458.44	37.240
458.79	34.585
459.14	36.224
459.49	35.998
459.84	35.919
460.19	35.322
460.54	35.874
460.89	36.547
461.24	35.823
461.59	36.987
461.94	36.919
462.29	36.152
462.64	35.441
462.99	36.145
463.34	36.124
463.69	37.405
464.04	35.501
464.39	35.902
464.74	35.875
465.09	35.418
465.44	36.661
465.79	36.887
466.14	36.997
466.49	36.327
466.84	37.335
467.19	36.658
467.54	35.506
467.89	36.745
468.24	37.292
468.59	37.102
468.94	37.170
469.29	36.777
469.64	37.264
469.99	38.015
470.34	36.607
470.68	37.355
471.03	37.715
471.38	36.181
471.73	38.462
472.08	37.416
472.43	36.808
472.78	36.467
473.13	35.719
473.48	35.929
473.83	36.849
474.17	36.115
474.52	38.747
474.87	36.946
475.22	37.050
475.57	36.500
475.92	36.609
476.27	36.400
476.61	36.507
476.96	36.110
477.31	36.222
477.66	36.525
478.01	38.358
478.36	36.721
478.70	37.320
479.05	37.372
479.40	36.788
479.75	36.646
480.10	37.302
480.45	35.348
480.79	36.624
481.14	36.979
481.49	37.464
481.84	36.708
482.19	35.998
482.53	36.790
482.88	35.453
483.23	37.371
483.58	36.864
483.92	36.837
484.27	35.667
484.62	36.199
484.97	36.282
485.31	34.976
485.66	34.342
486.01	34.044
486.36	34.890
486.70	34.942
487.05	34.955
487.40	35.443
487.75	35.458
488.09	35.238
488.44	35.149
488.79	35.550
489.13	35.945
489.48	37.316
489.83	36.332
490.17	36.395
490.52	37.138
490.87	36.166
491.22	36.618
491.56	35.926
491.91	37.500
492.26	36.792
492.60	36.537
492.95	36.887
493.30	36.970
493.64	36.060
493.99	36.807
494.34	35.857
494.68	37.313
495.03	36.377
495.37	36.627
495.72	37.083
496.07	36.509
496.41	37.425
496.76	36.849
497.11	36.976
497.45	37.787
497.80	37.069
498.14	36.640
498.49	36.364
498.84	36.602
499.18	37.476
499.53	36.727
499.87	36.535
500.22	37.353
500.56	37.169
500.91	35.862
501.26	35.371
501.60	37.025
501.95	36.618
502.29	35.050
502.64	36.445
502.98	35.362
503.33	36.701
503.67	34.866
504.02	36.697
504.36	36.275
504.71	36.120
505.06	36.046
505.40	36.627
505.75	36.026
506.09	36.400
506.44	36.642
506.78	35.173
507.13	35.530
507.47	36.672
507.82	36.293
508.16	36.891
508.51	35.446
508.85	35.870
509.19	36.525
509.54	36.099
509.88	36.117
510.23	36.059
510.57	36.561
510.92	38.024
511.26	36.789
511.61	35.799
511.95	35.614
512.30	36.394
512.64	35.949
512.98	36.689
513.33	36.354
513.67	35.399
514.02	36.745
514.36	36.177
514.70	36.729
515.05	37.278
515.39	36.967
515.74	36.533
516.08	37.233
516.42	36.714
516.77	37.262
517.11	36.728
517.46	35.526
517.80	36.943
518.14	36.715
518.49	36.163
518.83	35.964
519.17	36.116
519.52	35.801
519.86	36.619
520.20	36.553
520.55	36.062
520.89	36.694
521.23	36.142
521.58	35.862
521.92	37.492
522.26	35.492
522.61	35.868
522.95	35.737
523.29	37.304
523.64	35.415
523.98	35.837
524.32	36.769
524.66	35.839
525.01	34.875
525.35	36.791
525.69	35.394
526.04	36.031
526.38	36.919
526.72	34.738
527.06	35.417
527.41	35.776
527.75	34.983
528.09	36.069
528.43	35.410
528.78	35.804
529.12	35.019
529.46	36.340
529.80	36.088
530.15	34.127
530.49	33.700
530.83	36.280
531.17	35.421
531.51	33.958
531.86	34.365
532.20	34.480
532.54	34.091
532.88	35.639
533.22	34.492
533.57	34.465
533.91	34.270
534.25	33.752
534.59	33.604
534.93	32.545
535.27	33.228
535.62	34.399
535.96	34.131
536.30	33.573
536.64	34.130
536.98	36.017
537.32	33.794
537.66	34.555
538.01	32.852
538.35	34.257
538.69	35.160
539.03	33.311
539.37	33.733
539.71	33.622
540.05	33.585
540.39	35.042
540.73	34.623
541.07	33.060
541.42	32.883
541.76	32.625
542.10	33.491
542.44	32.645
542.78	33.175
543.12	32.451
543.46	32.740
543.80	32.241
544.14	32.035
544.48	34.121
544.82	33.018
545.16	32.529
545.50	32.100
545.84	32.058
546.18	33.356
546.52	33.642
546.86	32.550
547.20	32.771
547.54	31.061
547.88	31.652
548.22	30.996
548.56	31.931
548.90	31.806
549.24	32.165
549.58	32.604
549.92	33.004
550.26	32.948
550.60	32.006
550.94	33.431
551.28	32.581
551.62	32.570
551.96	33.213
552.30	32.613
552.64	32.020
552.98	31.675
553.32	32.540
553.66	32.300
554.00	32.694
554.34	31.264
554.68	30.848
555.02	31.187
555.36	31.560
555.69	30.659
556.03	30.667
556.37	30.868
556.71	32.212
557.05	32.003
557.39	30.364
557.73	32.896
558.07	32.404
558.41	31.788
558.75	31.711
559.08	30.428
559.42	32.236
559.76	31.058
560.10	32.811
560.44	31.142
560.78	30.550
561.12	30.918
561.45	31.164
561.79	30.523
562.13	31.136
562.47	29.762
562.81	31.259
563.15	30.651
563.48	31.375
563.82	30.899
564.16	29.479
564.50	30.309
564.84	29.431
565.17	30.040
565.51	29.661
565.85	31.102
566.19	30.435
566.52	29.615
566.86	29.330
567.20	28.753
567.54	29.711
567.88	28.252
568.21	28.523
568.55	28.632
568.89	27.386
569.23	27.811
569.56	27.196
569.90	26.947
570.24	26.682
570.57	26.116
570.91	26.080
571.25	26.135
571.59	26.506
571.92	26.161
572.26	25.105
572.60	25.690
572.93	25.766
573.27	25.427
573.61	24.749
573.95	25.732
574.28	24.754
574.62	25.191
574.96	24.551
575.29	24.924
575.63	24.396
575.97	24.164
576.30	24.993
576.64	25.170
576.98	24.509
577.31	24.195
577.65	24.357
577.98	24.206
578.32	23.806
578.66	24.143
578.99	23.931
579.33	24.265
579.67	24.398
580.00	24.132
580.34	23.997
580.67	24.075
581.01	23.720
581.35	24.216
581.68	23.626
582.02	23.646
582.35	23.494
582.69	24.009
583.02	23.497
583.36	23.594
583.70	24.091
584.03	24.327
584.37	24.438
584.70	23.976
585.04	23.646
585.37	23.007
585.71	23.706
586.04	23.936
586.38	23.657
586.72	24.549
587.05	23.988
587.39	23.901
587.72	23.732
588.06	23.714
588.39	23.811
588.73	24.472
589.06	24.488
589.40	24.631
589.73	24.504
590.07	24.472
590.40	24.613
590.73	24.590
591.07	24.836
591.40	25.043
591.74	25.239
592.07	25.450
592.41	25.265
592.74	24.673
593.08	25.026
593.41	23.980
593.75	23.673
594.08	24.335
594.41	24.843
594.75	23.669
595.08	23.835
595.42	24.025
595.75	24.587
596.09	24.719
596.42	24.755
596.75	24.666
597.09	25.022
597.42	24.313
597.75	24.535
598.09	24.492
598.42	24.790
598.76	23.837
599.09	24.033
599.42	24.567
599.76	24.122
600.09	24.389
600.42	24.649
600.76	24.256
601.09	23.661
601.42	23.704
601.76	24.494
602.09	24.294
602.42	24.033
602.76	23.681
603.09	24.315
603.42	24.214
603.76	23.853
604.09	23.108
604.42	23.522
604.76	24.422
605.09	24.503
605.42	24.512
605.75	23.803
606.09	23.163
606.42	23.125
606.75	24.002
607.09	23.776
607.42	24.252
607.75	23.885
608.08	24.808
608.42	24.267
608.75	23.738
609.08	24.501
609.41	24.514
609.75	23.745
610.08	24.314
610.41	24.530
610.74	24.420
611.07	24.138
611.41	23.500
611.74	24.062
612.07	25.134
612.40	23.774
612.73	24.771
613.07	24.656
613.40	24.904
613.73	24.251
614.06	23.998
614.39	25.028
614.72	24.358
615.06	23.641
615.39	23.277
615.72	24.443
616.05	23.468
616.38	24.724
616.71	24.324
617.05	25.030
617.38	24.582
617.71	24.263
618.04	25.093
618.37	24.906
618.70	25.945
619.03	25.254
619.36	25.229
619.69	25.700
620.03	24.518
620.36	25.176
620.69	24.695
621.02	24.962
621.35	25.484
621.68	25.902
622.01	26.618
622.34	25.543
622.67	25.078
623.00	25.325
623.33	26.269
623.66	24.594
623.99	25.038
624.32	24.330
624.65	24.430
624.99	25.168
625.32	24.925
625.65	26.263
625.98	24.413
626.31	26.346
626.64	25.607
626.97	25.685
627.30	26.128
627.63	25.389
627.96	26.545
628.29	25.368
628.62	25.883
628.95	27.461
629.28	27.256
629.61	26.300
629.94	26.938
630.26	27.038
630.59	28.141
630.92	27.027
631.25	28.528
631.58	27.302
631.91	24.574
632.24	28.000
632.57	26.667
632.90	27.931
633.23	28.388
633.56	29.240
633.89	28.774
634.22	28.335
634.55	27.163
634.88	27.932
635.20	28.964
635.53	29.262
635.86	28.841
636.19	27.839
636.52	27.838
636.85	27.918
637.18	26.125
637.51	28.501
637.83	28.495
638.16	28.026
638.49	26.897
638.82	27.671
639.15	29.053
639.48	27.497
639.81	28.216
640.13	30.946
640.46	28.063
640.79	30.532
641.12	30.183
641.45	28.838
641.77	29.042
642.10	29.909
642.43	28.528
642.76	27.717
643.09	29.683
643.41	30.000
643.74	27.504
644.07	28.393
644.40	27.877
644.73	30.858
645.05	30.217
645.38	28.642
645.71	31.959
646.04	30.756
646.36	28.796
646.69	32.526
647.02	29.603
647.35	28.520
647.67	30.657
648.00	30.053
648.33	30.354
648.66	29.355
648.98	29.140
649.31	29.385
649.64	30.313
649.96	28.885
650.29	28.525
650.62	29.260
650.94	27.656
651.27	26.690
651.60	29.931
651.92	29.110
652.25	28.381
652.58	25.383
652.90	26.164
653.23	27.419
653.56	27.425
653.88	28.197
654.21	30.705
654.54	26.910
654.86	28.090
655.19	27.507
655.52	22.978
655.84	18.802
656.17	20.279
656.49	27.654
656.82	28.625
657.15	21.358
657.47	15.872
657.80	12.501
658.13	14.674
658.45	19.766
658.78	19.896
659.10	20.050
659.43	19.871
659.75	21.125
660.08	21.823
660.41	21.329
660.73	24.312
661.06	29.420
661.38	28.750
661.71	28.107
662.03	29.637
662.36	28.998
662.68	27.637
663.01	30.573
663.33	30.839
663.66	30.043
663.98	32.589
664.31	31.544
664.63	33.186
664.96	31.453
665.28	31.670
665.61	26.004
665.93	29.424
666.26	31.377
666.58	29.106
666.91	33.408
667.23	33.333
667.56	27.664
667.88	29.638
668.21	31.336
668.53	29.206
668.86	29.330
669.18	33.562
669.50	29.673
669.83	32.360
670.15	30.493
670.48	27.336
670.80	28.929
671.13	29.345
671.45	28.378
671.77	29.979
672.10	27.811
672.42	25.646
672.75	25.455
673.07	26.847
673.39	27.687
673.72	27.756
674.04	26.964
674.37	27.835
674.69	28.484
675.01	27.872
675.34	29.718
675.66	31.749
675.98	31.498
676.31	30.317
676.63	29.195
676.95	28.761
677.28	26.914
677.60	31.900
677.92	30.176
678.25	27.133
678.57	28.189
678.89	28.302
679.22	29.140
679.54	28.994
679.86	25.800
680.18	27.186
680.51	24.022
680.83	29.524
681.15	25.434
681.48	27.181
681.80	27.016
682.12	25.956
682.44	26.719
682.77	25.541
683.09	29.140
683.41	30.531
683.73	23.516
684.06	24.946
684.38	27.615
684.70	30.041
685.02	25.591
685.34	25.536
685.67	26.326
685.99	22.495
686.31	26.391
686.63	26.950
686.96	24.584
687.28	26.782
687.60	25.586
687.92	22.568
688.24	25.984
688.56	26.653
688.89	25.641
689.21	28.009
689.53	28.046
689.85	28.508
690.17	26.682
690.49	29.561
690.82	26.265
691.14	27.594
691.46	28.160
691.78	26.432
692.10	26.483
692.42	26.222
692.74	26.395
693.06	26.742
693.39	27.069
693.71	25.734
694.03	28.726
694.35	22.799
694.67	26.005
694.99	26.598
695.31	27.806
695.63	27.806
695.95	29.280
696.27	29.426
696.59	29.144
696.91	27.528
697.23	28.125
697.56	25.721
697.88	22.973
698.20	26.552
698.52	23.767
698.84	24.757
699.16	25.476
699.48	22.250
699.80	26.817
700.12	28.212
700.44	22.905
700.76	27.114
701.08	27.035
701.40	28.097
701.72	28.395
702.04	29.808
702.36	30.120
702.68	23.952
703.00	27.536
703.32	25.215
703.64	29.118
703.96	27.907
704.28	30.178
704.60	25.000
704.91	24.127
705.23	28.479
705.55	27.703
705.87	30.717
706.19	25.000
706.51	27.083
706.83	30.492
707.15	28.025
707.47	27.548
707.79	28.351
708.11	21.374
708.43	28.180
708.74	22.857
709.06	24.513
709.38	24.138
709.70	25.000
710.02	28.834
710.34	26.073
710.66	23.810
710.98	29.338
711.29	23.871
711.61	24.601
711.93	26.557
712.25	30.897
712.57	24.390
712.89	30.216
713.20	29.210
713.52	20.896
713.84	28.470
714.16	29.180
714.48	23.810
714.80	23.077
715.11	26.513
715.43	30.723
715.75	28.660
716.07	22.623
716.39	27.759
716.70	31.010
717.02	28.889
717.34	26.718
717.66	29.046
717.97	30.328
718.29	28.992
718.61	28.968
718.93	30.108
719.24	25.735
719.56	25.283
719.88	28.000
720.20	25.843
720.51	25.940
720.83	27.711
721.15	25.820
721.46	25.882
721.78	24.904
722.10	24.000
722.42	26.446
722.73	25.498
723.05	27.309
723.37	29.020
723.68	27.530
724.00	34.146
724.32	30.453
724.63	25.726
724.95	31.405
725.27	24.123
725.58	24.138
725.90	25.000
726.22	29.151
726.53	23.954
726.85	19.608
727.16	32.331
727.48	26.538
727.80	25.000
728.11	27.311
728.43	20.248
728.74	31.250
729.06	23.106
729.38	25.292
729.69	27.165
730.01	24.803
730.32	25.498
730.64	27.473
730.96	26.866
731.27	23.929
731.59	23.794
731.90	21.472
732.22	26.074
732.53	29.801
732.85	22.148
733.16	21.739
733.48	25.087
733.80	24.199
734.11	23.793
734.43	22.789
734.74	22.255
735.06	21.630
735.37	24.159
735.69	20.000
736.00	23.232
736.32	23.841
736.63	20.000
736.95	22.101
737.26	24.834
737.58	26.259
737.89	26.165
738.21	19.925
738.52	27.692
738.83	25.000
739.15	22.222
739.46	25.403
739.78	21.329
740.09	23.077
740.41	21.329
740.72	23.723
741.04	27.381
741.35	23.810
741.66	27.315
741.98	20.952
742.29	25.352
742.61	31.016
742.92	25.701
743.23	21.053
743.55	27.027
743.86	31.111
744.18	27.143
744.49	33.990
744.80	31.472
745.12	26.289
745.43	30.653
745.74	26.699
746.06	26.341
746.37	29.515
746.68	27.363
747.00	28.796
747.31	27.404
747.62	25.806
747.94	27.511
748.25	27.442
748.56	26.667
748.88	21.739
749.19	29.108
749.50	26.961
749.82	32.444
750.13	29.075
750.44	20.325
750.75	22.800
751.07	25.357
751.38	22.140
751.69	21.374
752.01	23.077
752.32	22.179
752.63	20.769
752.94	21.825
753.26	26.087
753.57	30.357
753.88	26.293
754.19	22.822
754.51	19.922
754.82	21.739
755.13	23.045
755.44	23.140
755.75	25.926
756.07	22.892
756.38	22.656
756.69	23.466
757.00	20.209
757.31	20.805
757.63	23.676
757.94	21.387
758.25	20.058
758.56	23.720
758.87	23.011
759.18	18.667
759.50	25.267
759.81	15.693
760.12	18.919
760.43	21.036
760.74	24.062
761.05	22.472
761.36	23.653
761.67	21.598
761.99	20.645
762.30	23.188
762.61	22.264
762.92	28.700
763.23	23.697
763.54	20.000
763.85	22.785
764.16	24.082
764.47	25.424
764.78	24.345
765.10	23.741
765.41	21.290
765.72	24.214
766.03	16.254
766.34	28.947
766.65	21.457
766.96	21.000
767.27	23.437
767.58	20.930
767.89	21.290
768.20	26.380
768.51	23.497
768.82	24.865
769.13	19.000
769.44	22.368
769.75	23.810
770.06	28.440
770.37	25.352
770.68	18.229
770.99	22.772
771.30	23.786
771.61	23.148
771.92	18.182
772.23	20.561
772.54	20.213
772.85	18.343
773.16	24.390
773.47	24.096
773.78	20.879
774.09	36.000
774.39	29.012
774.70	20.805
775.01	19.565
775.32	21.642
775.63	18.182
775.94	24.812
776.25	25.714
776.56	35.246
776.87	25.664
777.18	23.009
777.48	35.455
777.79	33.043
778.10	15.596
778.41	27.119
778.72	26.446
779.03	24.627
779.34	30.075
779.65	18.301
779.95	25.362
780.26	24.490
780.57	22.414
780.88	28.704
781.19	14.141
781.50	20.000
781.80	20.261
782.11	21.795
782.42	18.072
782.73	20.438
783.04	22.973
783.34	21.970
783.65	23.256
783.96	34.146
784.27	28.205
784.57	13.821
784.88	17.073
785.19	28.947
785.50	11.340
785.81	23.810
786.11	18.627
786.42	24.545
786.73	16.216
787.04	29.703
787.34	13.333
787.65	13.333
787.96	18.627
788.26	33.333
788.57	29.032
788.88	21.094
789.19	20.513
789.49	16.807
789.80	30.769
790.11	29.204
790.41	14.141
790.72	32.075
791.03	27.778
791.33	31.579
791.64	15.054
791.95	22.667
792.25	24.286
792.56	20.732
792.87	19.388
793.17	18.421
793.48	18.919
793.79	26.761
794.09	22.785
794.40	15.957
794.70	23.364
795.01	0.000
795.32	14.545
795.62	13.393
795.93	26.804
796.23	18.681
796.54	24.211
796.85	23.288
797.15	8.333
797.46	28.767
797.76	19.718
798.07	17.500
798.37	22.059
798.68	37.143
798.99	17.143
799.29	31.579
799.60	31.667
799.90	9.722
800.21	1.562
800.51	19.048
800.82	36.066
801.12	35.088
801.43	36.620
801.73	10.169
802.04	47.541
802.34	21.818
802.65	3.846
802.95	31.481
803.26	-2.500
803.56	46.154
803.87	7.895
804.17	32.258
804.48	15.385
804.78	2.564
805.09	27.907
805.39	12.500
805.70	-1.887
806.00	47.368
806.30	29.730
806.61	1.471
806.91	20.988
807.22	21.333
807.52	14.925
807.83	19.355
808.13	19.048
808.43	-5.455
808.74	25.758
809.04	20.755
809.35	26.027
809.65	45.614
809.95	35.294
810.26	35.294
810.56	18.000
810.86	38.776
811.17	20.000
811.47	28.846
811.77	38.710
812.08	-23.684
812.38	42.857
812.69	30.435
812.99	45.161
813.29	14.286
813.59	-22.222
813.90	14.894
814.20	-11.628
814.50	12.500
814.81	20.000
815.11	21.951
815.41	13.333
815.72	40.000
816.02	11.111
816.32	33.333
816.62	35.135
816.93	20.588
817.23	2.174
817.53	5.882
817.84	35.294
818.14	-3.125
818.44	13.793
818.74	16.129
819.04	44.444
819.35	10.000
819.65	-4.000
819.95	-26.667
820.25	32.000
820.56	0.000
820.86	-10.000
821.16	14.894
821.46	36.207
821.76	-2.564
822.07	-20.000
822.37	0.000
822.67	-13.333
822.97	2.703
823.27	48.649
823.57	64.000
823.88	13.514
824.18	4.762
824.48	30.769
824.78	-69.231
825.08	-4.348
825.38	4.167
825.69	4.167
825.99	-55.000
826.29	18.919
826.59	11.765
826.89	64.000
827.19	0.000
827.49	42.105
827.79	6.250
828.09	16.667
828.39	0.000
828.70	-65.517
829.00	6.897
829.30	16.667
829.60	50.000
829.90	-33.333
830.20	-15.385
830.50	-23.810
830.80	-3.571
831.10	17.949
831.40	0.000
831.70	23.529
832.00	16.667
832.30	10.526
832.60	12.500
832.90	-33.333
833.20	-23.529
833.50	-60.000
833.80	20.000
834.10	35.000
834.40	8.333
834.70	-11.111
835.00	-15.385
835.30	0.000
835.60	-13.793
835.90	11.111
836.20	-54.545
836.50	-91.667
836.80	17.143
837.10	57.143
837.40	29.412
837.70	-181.818
838.00	25.000
838.30	-31.250
838.60	14.286
838.90	20.000
839.19	17.391
839.49	43.478
839.79	16.667
840.09	-65.217
840.39	-22.727
840.69	-6.250
840.99	-57.895
841.29	0.000
841.59	-14.286
841.88	16.667
842.18	45.833
842.48	11.765
842.78	24.138
843.08	7.143
843.38	30.769
843.68	-33.333
843.97	-61.538
844.27	54.545
844.57	-140.000
844.87	40.000
845.17	-140.000
845.47	0.000
845.76	0.000
846.06	0.000
846.36	-175.000
846.66	-170.000
846.96	-21.053
847.25	33.333
847.55	-91.667
847.85	46.667
848.15	-30.000
848.44	80.769
848.74	-21.053
849.04	466.667
849.34	-44.444
849.63	-10.526
849.93	0.000
850.23	-25.000
850.53	0.000
850.82	44.000
851.12	15.789
851.42	-150.000
851.71	85.714
852.01	66.667
852.31	41.176
852.61	20.000
852.90	33.333
853.20	-66.667
853.50	-11.111
853.79	-42.105
854.09	-33.333
854.39	35.714
854.68	-21.739
854.98	-116.667
855.28	51.724
855.57	-31.250
855.87	-15.000
856.17	-60.000
856.46	27.586
856.76	13.333
857.05	-17.647
857.35	-100.000
857.65	9.091
857.94	-18.519
858.24	-57.143
858.53	-35.714
858.83	-33.333
859.13	-66.667
859.42	47.619
859.72	-75.000
860.01	-266.667
860.31	-62.500
860.60	-280.000
860.90	-66.667
861.20	12.500
861.49	-142.857
861.79	94.118
862.08	200.000
862.38	-91.667
862.67	7.692
862.97	47.059
863.26	55.000
863.56	-11.765
863.85	133.333
864.15	-20.000
864.44	-23.077
864.74	5.000
865.03	-100.000
865.33	-83.333
865.62	17.647
865.92	-350.000
866.21	-28.571
866.51	16.667
866.80	-100.000
867.10	-300.000
867.39	29.412
867.69	65.217
867.98	-57.143
868.27	-180.000
868.57	-6.250
868.86	-54.545
869.16	70.588
869.45	-216.667
869.75	71.429
870.04	200.000
870.33	8.333
870.63	-20.000
870.92	33.333
871.22	66.667
871.51	9.091
871.80	133.333
872.10	20.000
>>>>>End Processed Spectral Data<<<<<
