SpectraSuite Data File
++++++++++++++++++++++++++++++++++++
Date: Sat May 16 11:33:20 PDT 2015
User: schluterlab
Dark Spectrum Present: Yes
Reference Spectrum Present: Yes
Number of Sampled Component Spectra: 1
Spectrometers: USB2E3373
Integration Time (usec): 3000 (USB2E3373)
Spectra Averaged: 3 (USB2E3373)
Boxcar Smoothing: 0 (USB2E3373)
Correct for Electrical Dark: No (USB2E3373)
Strobe/Lamp Enabled: No (USB2E3373)
Correct for Detector Non-linearity: No (USB2E3373)
Correct for Stray Light: No (USB2E3373)
Number of Pixels in Processed Spectrum: 2048
>>>>>Begin Processed Spectral Data<<<<<
178.53	0.000
178.91	146.667
179.29	833.333
179.67	-1500.000
180.04	-23.077
180.42	800.000
180.80	300.000
181.18	500.000
181.56	-75.000
181.94	1400.000
182.31	500.000
182.69	-46.154
183.07	-566.667
183.45	1100.000
183.83	466.667
184.20	-228.571
184.58	-237.500
184.96	-200.000
185.34	137.500
185.72	-425.000
186.09	366.667
186.47	-312.500
186.85	-250.000
187.23	-175.000
187.61	-225.000
187.98	-237.500
188.36	-137.500
188.74	-112.500
189.12	1000.000
189.49	471.429
189.87	-75.000
190.25	325.000
190.63	-42.857
191.00	-244.444
191.38	420.000
191.76	-6.667
192.14	420.000
192.51	-220.000
192.89	-400.000
193.27	0.000
193.65	-100.000
194.02	-128.571
194.40	500.000
194.78	-70.000
195.15	-1000.000
195.53	-18.182
195.91	-316.667
196.29	320.000
196.66	-433.333
197.04	1300.000
197.42	-350.000
197.79	33.333
198.17	-233.333
198.55	-750.000
198.92	-1800.000
199.30	437.500
199.68	-650.000
200.05	-188.889
200.43	-188.889
200.81	-1600.000
201.18	-100.000
201.56	242.857
201.94	40.000
202.31	0.000
202.69	50.000
203.07	-110.000
203.44	833.333
203.82	-300.000
204.19	-650.000
204.57	-125.000
204.95	-700.000
205.32	-31.250
205.70	1800.000
206.08	-1800.000
206.45	-66.667
206.83	-900.000
207.20	-950.000
207.58	-600.000
207.96	-400.000
208.33	-237.500
208.71	-122.222
209.08	270.000
209.46	-28.571
209.84	750.000
210.21	0.000
210.59	-30.000
210.96	800.000
211.34	-250.000
211.71	133.333
212.09	375.000
212.46	950.000
212.84	-2500.000
213.22	500.000
213.59	125.000
213.97	-66.667
214.34	200.000
214.72	-20.000
215.09	-700.000
215.47	-316.667
215.84	-160.000
216.22	-100.000
216.59	-53.333
216.97	-225.000
217.34	1200.000
217.72	-214.286
218.09	-283.333
218.47	-257.143
218.84	157.143
219.22	-57.143
219.59	0.000
219.97	242.857
220.34	400.000
220.72	150.000
221.09	-107.692
221.47	0.000
221.84	266.667
222.22	-600.000
222.59	1300.000
222.97	-275.000
223.34	-1100.000
223.72	-566.667
224.09	-92.857
224.46	-200.000
224.84	-42.857
225.21	-114.286
225.59	-63.636
225.96	-87.500
226.34	-57.143
226.71	-222.222
227.08	-35.000
227.46	1400.000
227.83	-271.429
228.21	-125.000
228.58	450.000
228.95	25.000
229.33	-1400.000
229.70	-320.000
230.08	-750.000
230.45	0.000
230.82	-183.333
231.20	-1700.000
231.57	-650.000
231.95	1500.000
232.32	-33.333
232.69	-133.333
233.07	-200.000
233.44	-600.000
233.81	-40.000
234.19	-55.556
234.56	12.500
234.93	-6.250
235.31	-300.000
235.68	-150.000
236.05	-35.294
236.43	-59.091
236.80	-25.806
237.17	-37.500
237.55	28.571
237.92	-100.000
238.29	-25.714
238.67	20.588
239.04	8.333
239.41	-35.484
239.79	-33.333
240.16	-11.905
240.53	-20.000
240.91	-28.205
241.28	14.545
241.65	15.385
242.02	1.639
242.40	-8.197
242.77	18.182
243.14	1.695
243.51	-2.857
243.89	8.861
244.26	2.247
244.63	22.105
245.00	8.421
245.38	15.254
245.75	18.584
246.12	10.400
246.49	16.535
246.87	8.130
247.24	5.932
247.61	19.492
247.98	18.310
248.36	11.888
248.73	18.987
249.10	8.917
249.47	18.713
249.84	25.568
250.22	2.976
250.59	19.774
250.96	14.136
251.33	22.275
251.70	15.385
252.08	19.905
252.45	17.062
252.82	15.238
253.19	18.723
253.56	24.597
253.94	18.143
254.31	23.176
254.68	23.171
255.05	16.129
255.42	24.206
255.79	15.054
256.16	27.451
256.54	22.794
256.91	21.591
257.28	19.414
257.65	20.213
258.02	22.956
258.39	18.395
258.76	18.919
259.14	19.136
259.51	21.967
259.88	17.683
260.25	25.466
260.62	21.543
260.99	21.365
261.36	20.732
261.73	22.832
262.10	22.500
262.47	21.368
262.85	23.429
263.22	20.344
263.59	20.923
263.96	19.130
264.33	23.306
264.70	21.823
265.07	19.231
265.44	19.638
265.81	20.155
266.18	24.051
266.55	21.569
266.92	22.670
267.29	25.908
267.66	22.222
268.03	23.671
268.40	21.127
268.77	18.795
269.14	21.810
269.51	24.368
269.88	19.266
270.25	20.746
270.62	20.824
270.99	21.622
271.36	24.009
271.73	20.179
272.10	22.654
272.47	17.111
272.84	23.333
273.21	23.853
273.58	22.418
273.95	22.807
274.32	22.398
274.69	21.444
275.06	23.926
275.43	19.866
275.80	21.996
276.17	23.222
276.54	23.218
276.91	21.605
277.28	21.907
277.65	23.140
278.02	20.877
278.39	21.807
278.76	22.709
279.13	21.146
279.50	23.062
279.87	23.467
280.23	21.053
280.60	20.477
280.97	21.748
281.34	21.277
281.71	23.462
282.08	23.790
282.45	20.978
282.82	20.736
283.19	20.909
283.56	23.626
283.92	21.378
284.29	21.747
284.66	20.324
285.03	19.964
285.40	21.402
285.77	23.158
286.14	16.787
286.51	20.782
286.87	22.323
287.24	21.502
287.61	20.496
287.98	20.624
288.35	19.008
288.72	18.846
289.08	19.492
289.45	20.202
289.82	18.166
290.19	21.675
290.56	16.694
290.93	18.760
291.29	18.476
291.66	18.680
292.03	21.507
292.40	19.729
292.77	18.634
293.13	20.000
293.50	17.682
293.87	18.098
294.24	19.910
294.60	17.424
294.97	19.423
295.34	17.481
295.71	17.560
296.08	15.822
296.44	17.310
296.81	18.661
297.18	16.479
297.55	17.655
297.91	19.386
298.28	15.616
298.65	18.828
299.02	19.118
299.38	17.647
299.75	16.440
300.12	17.564
300.48	17.391
300.85	16.907
301.22	17.464
301.59	18.336
301.95	18.766
302.32	16.297
302.69	16.034
303.05	16.972
303.42	17.625
303.79	17.105
304.15	15.758
304.52	16.569
304.89	16.293
305.25	16.850
305.62	15.629
305.99	19.317
306.35	17.425
306.72	17.540
307.09	17.707
307.45	15.891
307.82	16.201
308.19	17.562
308.55	17.102
308.92	15.897
309.29	18.054
309.65	17.073
310.02	16.631
310.38	16.324
310.75	18.340
311.12	17.562
311.48	17.328
311.85	17.508
312.22	17.714
312.58	18.718
312.95	19.164
313.31	17.782
313.68	18.794
314.05	19.881
314.41	18.209
314.78	18.781
315.14	20.829
315.51	18.845
315.87	19.555
316.24	20.408
316.61	20.537
316.97	21.692
317.34	20.906
317.70	21.429
318.07	22.388
318.43	21.536
318.80	23.005
319.16	21.482
319.53	22.650
319.89	22.578
320.26	22.647
320.62	21.923
320.99	22.090
321.35	22.365
321.72	22.108
322.08	24.036
322.45	23.465
322.81	24.111
323.18	24.400
323.54	25.231
323.91	25.579
324.27	24.240
324.64	25.503
325.00	24.782
325.37	24.796
325.73	27.034
326.10	25.066
326.46	25.919
326.83	27.234
327.19	26.439
327.56	28.876
327.92	27.358
328.29	27.100
328.65	27.182
329.01	29.240
329.38	27.654
329.74	28.480
330.11	29.193
330.47	28.520
330.84	29.606
331.20	28.069
331.56	28.715
331.93	29.574
332.29	31.050
332.66	28.885
333.02	31.493
333.38	29.659
333.75	30.098
334.11	28.711
334.48	29.391
334.84	30.446
335.20	29.610
335.57	31.227
335.93	31.423
336.29	30.204
336.66	30.132
337.02	31.712
337.38	30.927
337.75	30.114
338.11	29.964
338.47	31.317
338.84	30.218
339.20	29.965
339.56	31.373
339.93	30.071
340.29	30.558
340.65	29.808
341.02	30.438
341.38	29.402
341.74	30.144
342.11	29.778
342.47	29.785
342.83	30.227
343.20	31.426
343.56	29.959
343.92	30.551
344.28	31.623
344.65	29.290
345.01	30.672
345.37	31.561
345.73	29.296
346.10	29.599
346.46	29.813
346.82	29.751
347.19	30.731
347.55	30.658
347.91	30.079
348.27	29.117
348.63	30.775
349.00	30.947
349.36	27.791
349.72	30.732
350.08	30.152
350.45	29.866
350.81	30.573
351.17	29.984
351.53	29.356
351.89	30.396
352.26	30.000
352.62	30.261
352.98	30.538
353.34	30.456
353.70	29.653
354.07	30.527
354.43	30.988
354.79	30.269
355.15	31.070
355.51	30.078
355.87	29.644
356.24	30.342
356.60	31.507
356.96	31.178
357.32	30.325
357.68	30.115
358.04	30.254
358.40	31.090
358.77	30.371
359.13	31.446
359.49	30.083
359.85	31.174
360.21	31.887
360.57	30.572
360.93	30.963
361.29	30.643
361.66	30.107
362.02	30.917
362.38	31.401
362.74	31.062
363.10	30.344
363.46	31.553
363.82	31.997
364.18	30.970
364.54	32.380
364.90	30.538
365.26	31.455
365.62	31.932
365.98	32.788
366.35	32.042
366.71	31.853
367.07	31.969
367.43	31.984
367.79	32.234
368.15	30.939
368.51	32.028
368.87	32.349
369.23	30.947
369.59	32.083
369.95	32.347
370.31	32.911
370.67	32.321
371.03	32.289
371.39	30.976
371.75	33.190
372.11	33.716
372.47	33.550
372.83	34.284
373.19	32.929
373.55	33.286
373.91	33.215
374.27	33.265
374.63	32.367
374.99	33.658
375.35	32.974
375.71	35.044
376.07	33.881
376.42	33.510
376.78	35.229
377.14	35.593
377.50	34.172
377.86	33.615
378.22	34.611
378.58	34.651
378.94	33.847
379.30	34.674
379.66	35.155
380.02	34.581
380.38	35.650
380.74	35.522
381.09	35.677
381.45	34.905
381.81	34.846
382.17	35.401
382.53	34.347
382.89	36.423
383.25	35.400
383.61	35.259
383.97	35.885
384.32	36.796
384.68	36.276
385.04	35.145
385.40	35.484
385.76	35.793
386.12	36.102
386.48	36.819
386.83	34.969
387.19	37.059
387.55	37.371
387.91	36.929
388.27	36.248
388.62	36.719
388.98	36.887
389.34	36.108
389.70	37.393
390.06	36.544
390.42	37.885
390.77	37.035
391.13	37.578
391.49	38.116
391.85	37.905
392.20	36.104
392.56	36.347
392.92	36.965
393.28	38.175
393.64	38.184
393.99	38.585
394.35	37.530
394.71	36.751
395.07	39.736
395.42	37.068
395.78	36.958
396.14	39.252
396.50	37.737
396.85	38.556
397.21	38.639
397.57	38.663
397.92	37.237
398.28	38.056
398.64	38.489
399.00	39.663
399.35	39.008
399.71	38.676
400.07	38.448
400.42	39.234
400.78	39.296
401.14	39.581
401.49	38.149
401.85	39.353
402.21	38.558
402.57	38.471
402.92	39.648
403.28	38.358
403.63	38.826
403.99	39.466
404.35	38.829
404.70	38.561
405.06	38.639
405.42	38.684
405.77	38.235
406.13	38.558
406.49	40.324
406.84	38.572
407.20	39.694
407.55	38.505
407.91	38.536
408.27	39.767
408.62	39.808
408.98	38.690
409.34	39.183
409.69	39.319
410.05	39.721
410.40	39.914
410.76	39.538
411.11	39.401
411.47	40.026
411.83	39.914
412.18	38.985
412.54	39.231
412.89	40.401
413.25	39.374
413.60	39.125
413.96	39.187
414.31	40.734
414.67	39.429
415.03	39.586
415.38	39.232
415.74	40.206
416.09	40.665
416.45	40.212
416.80	40.247
417.16	40.797
417.51	40.053
417.87	40.712
418.22	40.202
418.58	40.886
418.93	40.650
419.29	39.649
419.64	40.389
420.00	41.495
420.35	40.390
420.71	40.816
421.06	42.012
421.42	40.105
421.77	40.369
422.12	40.963
422.48	41.315
422.83	41.059
423.19	41.871
423.54	41.729
423.90	41.238
424.25	41.629
424.61	42.340
424.96	43.008
425.31	42.035
425.67	41.719
426.02	40.964
426.38	42.105
426.73	42.724
427.09	42.708
427.44	41.875
427.79	42.674
428.15	43.148
428.50	43.167
428.85	42.266
429.21	42.446
429.56	43.333
429.92	42.635
430.27	42.772
430.62	43.156
430.98	43.231
431.33	43.330
431.68	44.397
432.04	44.152
432.39	43.704
432.74	43.825
433.10	45.189
433.45	44.272
433.80	44.233
434.16	43.740
434.51	45.808
434.86	45.577
435.22	44.098
435.57	44.125
435.92	45.193
436.28	45.401
436.63	44.715
436.98	43.872
437.34	43.946
437.69	44.982
438.04	45.207
438.39	43.682
438.75	46.508
439.10	45.253
439.45	45.021
439.81	45.060
440.16	44.577
440.51	45.471
440.86	45.402
441.22	45.274
441.57	46.000
441.92	45.371
442.27	45.076
442.63	46.191
442.98	44.977
443.33	47.062
443.68	45.440
444.03	46.022
444.39	45.766
444.74	47.026
445.09	46.217
445.44	47.046
445.79	47.323
446.15	46.605
446.50	45.182
446.85	45.767
447.20	46.629
447.55	46.464
447.91	47.558
448.26	45.810
448.61	46.180
448.96	46.667
449.31	47.125
449.66	47.167
450.02	45.706
450.37	45.971
450.72	46.836
451.07	46.763
451.42	47.584
451.77	45.183
452.12	47.080
452.47	47.670
452.83	46.418
453.18	47.375
453.53	46.206
453.88	48.445
454.23	46.252
454.58	48.602
454.93	47.229
455.28	47.291
455.63	47.789
455.98	46.566
456.34	47.586
456.69	47.655
457.04	46.712
457.39	46.770
457.74	47.962
458.09	47.680
458.44	47.748
458.79	46.525
459.14	46.264
459.49	46.773
459.84	47.667
460.19	47.434
460.54	46.884
460.89	46.581
461.24	48.391
461.59	47.890
461.94	49.268
462.29	48.243
462.64	48.353
462.99	47.791
463.34	47.400
463.69	48.155
464.04	47.393
464.39	47.611
464.74	47.872
465.09	46.663
465.44	48.731
465.79	47.885
466.14	48.159
466.49	48.474
466.84	46.519
467.19	48.192
467.54	47.342
467.89	48.089
468.24	46.853
468.59	47.408
468.94	48.296
469.29	47.888
469.64	46.900
469.99	48.278
470.34	47.695
470.68	48.619
471.03	48.245
471.38	46.806
471.73	48.601
472.08	47.122
472.43	48.069
472.78	48.333
473.13	46.720
473.48	47.926
473.83	48.015
474.17	48.217
474.52	49.233
474.87	48.135
475.22	46.549
475.57	47.889
475.92	48.758
476.27	47.943
476.61	46.986
476.96	47.568
477.31	47.847
477.66	48.091
478.01	48.676
478.36	46.517
478.70	48.318
479.05	47.161
479.40	48.083
479.75	47.248
480.10	47.718
480.45	47.727
480.79	48.421
481.14	49.072
481.49	47.822
481.84	47.110
482.19	47.739
482.53	48.059
482.88	47.841
483.23	46.526
483.58	48.104
483.92	48.161
484.27	45.902
484.62	46.955
484.97	46.999
485.31	45.728
485.66	45.277
486.01	45.938
486.36	47.197
486.70	48.377
487.05	47.312
487.40	47.009
487.75	46.575
488.09	46.788
488.44	47.497
488.79	46.976
489.13	46.862
489.48	47.920
489.83	47.773
490.17	47.018
490.52	47.826
490.87	47.852
491.22	48.015
491.56	47.685
491.91	48.616
492.26	46.887
492.60	48.145
492.95	47.834
493.30	47.499
493.64	47.391
493.99	46.941
494.34	47.429
494.68	48.736
495.03	48.040
495.37	48.771
495.72	47.839
496.07	48.240
496.41	48.309
496.76	47.717
497.11	47.433
497.45	47.701
497.80	48.074
498.14	48.183
498.49	49.272
498.84	47.233
499.18	47.417
499.53	46.810
499.87	46.959
500.22	48.676
500.56	48.524
500.91	47.931
501.26	48.326
501.60	48.146
501.95	49.034
502.29	47.048
502.64	47.242
502.98	47.341
503.33	47.509
503.67	46.983
504.02	47.900
504.36	49.167
504.71	47.163
505.06	46.780
505.40	48.154
505.75	48.222
506.09	47.674
506.44	48.170
506.78	47.918
507.13	47.219
507.47	47.366
507.82	48.322
508.16	47.513
508.51	48.377
508.85	47.930
509.19	48.666
509.54	47.886
509.88	47.713
510.23	47.746
510.57	48.571
510.92	49.570
511.26	49.070
511.61	48.434
511.95	48.222
512.30	47.993
512.64	48.358
512.98	48.680
513.33	48.435
513.67	47.795
514.02	48.043
514.36	48.089
514.70	48.783
515.05	48.714
515.39	47.463
515.74	49.215
516.08	47.954
516.42	48.895
516.77	49.682
517.11	48.398
517.46	50.359
517.80	49.940
518.14	48.973
518.49	49.791
518.83	48.783
519.17	48.135
519.52	47.658
519.86	49.283
520.20	49.389
520.55	49.231
520.89	48.967
521.23	49.084
521.58	49.718
521.92	50.348
522.26	48.000
522.61	48.542
522.95	47.288
523.29	49.216
523.64	49.219
523.98	49.077
524.32	49.466
524.66	48.323
525.01	49.069
525.35	49.356
525.69	49.252
526.04	49.413
526.38	49.777
526.72	47.701
527.06	50.326
527.41	48.977
527.75	48.185
528.09	49.437
528.43	48.721
528.78	48.744
529.12	50.384
529.46	49.936
529.80	48.741
530.15	48.873
530.49	47.736
530.83	50.164
531.17	49.697
531.51	48.359
531.86	48.321
532.20	50.135
532.54	49.064
532.88	47.628
533.22	49.933
533.57	48.695
533.91	48.315
534.25	48.523
534.59	47.595
534.93	47.729
535.27	48.836
535.62	49.297
535.96	48.222
536.30	48.495
536.64	48.207
536.98	50.000
537.32	49.689
537.66	48.133
538.01	49.966
538.35	47.905
538.69	48.262
539.03	49.018
539.37	48.037
539.71	47.632
540.05	50.171
540.39	47.853
540.73	49.551
541.07	48.702
541.42	48.008
541.76	47.110
542.10	49.088
542.44	49.300
542.78	48.779
543.12	48.812
543.46	47.877
543.80	48.227
544.14	47.884
544.48	49.081
544.82	48.444
545.16	48.625
545.50	47.981
545.84	48.609
546.18	49.098
546.52	48.364
546.86	49.359
547.20	49.719
547.54	48.278
547.88	48.308
548.22	47.641
548.56	48.363
548.90	48.989
549.24	48.704
549.58	48.977
549.92	47.986
550.26	49.061
550.60	50.142
550.94	49.270
551.28	49.962
551.62	49.335
551.96	48.987
552.30	48.223
552.64	50.246
552.98	49.474
553.32	48.268
553.66	49.676
554.00	49.964
554.34	48.809
554.68	49.488
555.02	48.987
555.36	49.317
555.69	49.069
556.03	48.351
556.37	50.213
556.71	50.322
557.05	50.776
557.39	49.963
557.73	49.964
558.07	49.962
558.41	49.589
558.75	50.190
559.08	48.560
559.42	49.311
559.76	49.310
560.10	49.590
560.44	50.939
560.78	49.478
561.12	49.275
561.45	50.205
561.79	49.756
562.13	49.719
562.47	48.739
562.81	49.293
563.15	49.825
563.48	48.376
563.82	50.845
564.16	50.372
564.50	50.067
564.84	49.339
565.17	49.271
565.51	49.804
565.85	50.304
566.19	50.593
566.52	49.576
566.86	48.673
567.20	49.516
567.54	50.738
567.88	49.190
568.21	49.553
568.55	49.046
568.89	49.354
569.23	49.422
569.56	47.079
569.90	48.426
570.24	48.027
570.57	47.487
570.91	47.535
571.25	47.147
571.59	47.861
571.92	47.262
572.26	47.244
572.60	47.347
572.93	46.764
573.27	46.341
573.61	45.856
573.95	46.195
574.28	46.608
574.62	47.433
574.96	45.987
575.29	46.494
575.63	47.014
575.97	46.170
576.30	46.314
576.64	47.076
576.98	45.608
577.31	46.460
577.65	46.433
577.98	46.689
578.32	46.411
578.66	46.849
578.99	47.146
579.33	46.822
579.67	46.640
580.00	46.677
580.34	46.869
580.67	46.850
581.01	46.047
581.35	46.876
581.68	46.355
582.02	46.594
582.35	46.629
582.69	46.911
583.02	47.524
583.36	46.973
583.70	46.646
584.03	47.710
584.37	47.388
584.70	46.762
585.04	46.987
585.37	45.847
585.71	46.904
586.04	47.239
586.38	46.592
586.72	47.379
587.05	48.088
587.39	47.938
587.72	47.890
588.06	47.455
588.39	47.593
588.73	48.552
589.06	48.977
589.40	48.540
589.73	48.052
590.07	47.560
590.40	47.565
590.73	47.981
591.07	47.295
591.40	49.697
591.74	47.828
592.07	48.559
592.41	48.620
592.74	48.040
593.08	48.266
593.41	48.355
593.75	47.511
594.08	49.461
594.41	49.279
594.75	48.433
595.08	49.248
595.42	49.061
595.75	48.254
596.09	49.282
596.42	48.404
596.75	47.995
597.09	49.644
597.42	49.018
597.75	48.583
598.09	47.989
598.42	48.785
598.76	48.173
599.09	47.435
599.42	48.481
599.76	48.396
600.09	49.122
600.42	48.500
600.76	48.889
601.09	48.196
601.42	48.358
601.76	48.598
602.09	48.180
602.42	49.053
602.76	48.276
603.09	48.226
603.42	49.234
603.76	49.063
604.09	48.578
604.42	48.418
604.76	48.801
605.09	49.186
605.42	50.089
605.75	48.383
606.09	47.073
606.42	49.016
606.75	49.163
607.09	49.228
607.42	48.856
607.75	49.227
608.08	49.797
608.42	48.770
608.75	48.645
609.08	50.317
609.41	49.427
609.75	48.903
610.08	50.343
610.41	49.012
610.74	50.677
611.07	49.645
611.41	49.773
611.74	49.614
612.07	50.161
612.40	50.213
612.73	49.111
613.07	49.147
613.40	50.739
613.73	49.482
614.06	48.490
614.39	51.297
614.72	49.888
615.06	48.043
615.39	48.562
615.72	49.919
616.05	50.028
616.38	50.725
616.71	50.030
617.05	51.508
617.38	51.517
617.71	50.307
618.04	51.180
618.37	51.384
618.70	52.412
619.03	50.643
619.36	51.445
619.69	51.687
620.03	50.069
620.36	50.633
620.69	52.907
621.02	52.055
621.35	50.726
621.68	52.049
622.01	51.456
622.34	51.242
622.67	50.625
623.00	52.640
623.33	51.940
623.66	50.591
623.99	53.233
624.32	50.521
624.65	50.258
624.99	52.054
625.32	49.850
625.65	50.971
625.98	50.391
626.31	52.529
626.64	51.213
626.97	51.284
627.30	52.340
627.63	51.123
627.96	52.654
628.29	53.401
628.62	53.009
628.95	53.150
629.28	51.692
629.61	52.208
629.94	52.741
630.26	53.082
630.59	54.673
630.92	53.453
631.25	52.117
631.58	53.862
631.91	52.447
632.24	53.333
632.57	54.111
632.90	54.713
633.23	54.439
633.56	52.982
633.89	55.660
634.22	55.490
634.55	54.207
634.88	52.721
635.20	53.683
635.53	53.944
635.86	54.282
636.19	54.090
636.52	53.405
636.85	52.467
637.18	53.375
637.51	55.762
637.83	56.192
638.16	55.000
638.49	55.310
638.82	53.024
639.15	55.383
639.48	53.826
639.81	56.017
640.13	53.649
640.46	54.986
640.79	55.042
641.12	54.866
641.45	53.945
641.77	56.437
642.10	56.042
642.43	54.476
642.76	54.331
643.09	54.762
643.41	55.397
643.74	57.393
644.07	54.446
644.40	53.485
644.73	54.455
645.05	54.758
645.38	55.298
645.71	57.904
646.04	56.471
646.36	54.974
646.69	55.190
647.02	57.581
647.35	55.054
647.67	56.022
648.00	57.821
648.33	55.649
648.66	54.032
648.98	55.414
649.31	55.385
649.64	58.125
649.96	54.631
650.29	52.787
650.62	56.282
650.94	54.637
651.27	54.246
651.60	55.363
651.92	56.849
652.25	53.422
652.58	53.663
652.90	52.488
653.23	55.806
653.56	54.849
653.88	53.607
654.21	55.872
654.54	54.817
654.86	55.056
655.19	52.865
655.52	52.381
655.84	50.683
656.17	54.464
656.49	73.305
656.82	75.800
657.15	57.232
657.47	42.710
657.80	32.939
658.13	37.186
658.45	50.396
658.78	50.098
659.10	49.664
659.43	48.530
659.75	49.685
660.08	49.427
660.41	48.649
660.73	51.375
661.06	54.638
661.38	57.857
661.71	54.111
662.03	55.645
662.36	55.864
662.68	54.641
663.01	55.839
663.33	57.596
663.66	55.579
663.98	56.027
664.31	58.389
664.63	57.965
664.96	56.182
665.28	57.701
665.61	56.871
665.93	54.733
666.26	55.061
666.58	52.807
666.91	56.570
667.23	57.018
667.56	52.834
667.88	58.371
668.21	56.912
668.53	54.673
668.86	57.044
669.18	56.393
669.50	55.841
669.83	57.664
670.15	56.726
670.48	56.308
670.80	56.036
671.13	54.176
671.45	56.306
671.77	53.105
672.10	55.819
672.42	56.089
672.75	55.455
673.07	54.775
673.39	53.188
673.72	56.299
674.04	52.866
674.37	52.990
674.69	56.557
675.01	56.596
675.34	53.796
675.66	56.371
675.98	57.930
676.31	55.430
676.63	55.172
676.95	53.982
677.28	55.684
677.60	54.072
677.92	54.846
678.25	56.236
678.57	56.790
678.89	54.717
679.22	55.346
679.54	56.410
679.86	55.000
680.18	54.373
680.51	52.700
680.83	53.714
681.15	54.721
681.48	55.984
681.80	52.621
682.12	54.728
682.44	51.473
682.77	54.978
683.09	53.040
683.41	51.991
683.73	52.740
684.06	54.409
684.38	55.439
684.70	56.173
685.02	56.102
685.34	55.945
685.67	54.356
685.99	53.308
686.31	52.424
686.63	53.369
686.96	53.050
687.28	54.528
687.60	55.469
687.92	53.307
688.24	50.394
688.56	50.902
688.89	52.778
689.21	56.893
689.53	57.241
689.85	53.898
690.17	55.605
690.49	57.737
690.82	53.253
691.14	56.132
691.46	55.876
691.78	54.846
692.10	54.025
692.42	54.667
692.74	53.648
693.06	56.404
693.39	54.139
693.71	53.273
694.03	55.508
694.35	54.176
694.67	54.374
694.99	51.662
695.31	55.102
695.63	53.571
695.95	55.583
696.27	56.608
696.59	54.545
696.91	56.461
697.23	57.031
697.56	54.327
697.88	55.180
698.20	52.248
698.52	50.897
698.84	54.612
699.16	53.810
699.48	53.750
699.80	54.386
700.12	55.919
700.44	53.631
700.76	56.851
701.08	52.907
701.40	53.776
701.72	58.333
702.04	57.692
702.36	55.422
702.68	49.701
703.00	56.232
703.32	52.722
703.64	58.529
703.96	58.721
704.28	54.142
704.60	51.582
704.91	52.063
705.23	54.693
705.55	55.405
705.87	61.433
706.19	52.083
706.51	54.167
706.83	56.066
707.15	55.096
707.47	55.372
707.79	57.216
708.11	50.891
708.43	56.359
708.74	51.948
709.06	54.039
709.38	52.586
709.70	55.625
710.02	52.147
710.34	54.785
710.66	52.698
710.98	51.420
711.29	50.000
711.61	50.479
711.93	56.393
712.25	54.485
712.57	55.401
712.89	58.273
713.20	57.045
713.52	55.970
713.84	53.025
714.16	57.377
714.48	54.286
714.80	55.077
715.11	53.890
715.43	53.916
715.75	54.517
716.07	54.098
716.39	53.512
716.70	54.704
717.02	52.222
717.34	51.908
717.66	60.581
717.97	52.049
718.29	53.782
718.61	57.937
718.93	51.254
719.24	51.471
719.56	51.698
719.88	48.364
720.20	52.434
720.51	57.143
720.83	60.241
721.15	55.328
721.46	51.765
721.78	49.808
722.10	57.200
722.42	54.959
722.73	57.371
723.05	54.217
723.37	50.980
723.68	51.417
724.00	54.878
724.32	55.556
724.63	46.888
724.95	54.132
725.27	57.895
725.58	59.052
725.90	55.952
726.22	49.815
726.53	55.894
726.85	50.980
727.16	57.143
727.48	49.231
727.80	53.279
728.11	55.882
728.43	53.306
728.74	53.906
729.06	56.818
729.38	55.253
729.69	52.362
730.01	55.512
730.32	54.582
730.64	50.916
730.96	56.716
731.27	54.643
731.59	50.482
731.90	52.761
732.22	48.466
732.53	52.318
732.85	42.617
733.16	56.159
733.48	56.098
733.80	50.178
734.11	53.103
734.43	54.082
734.74	52.522
735.06	54.545
735.37	53.211
735.69	48.387
736.00	51.852
736.32	51.656
736.63	51.379
736.95	51.449
737.26	50.993
737.58	52.158
737.89	55.197
738.21	51.504
738.52	52.692
738.83	53.125
739.15	53.419
739.46	55.645
739.78	51.049
740.09	51.399
740.41	48.951
740.72	51.825
741.04	50.000
741.35	47.186
741.66	53.704
741.98	47.619
742.29	47.418
742.61	59.358
742.92	49.065
743.23	48.684
743.55	50.901
743.86	57.778
744.18	46.667
744.49	58.621
744.80	53.299
745.12	55.155
745.43	58.794
745.74	54.854
746.06	49.756
746.37	49.339
746.68	53.731
747.00	60.209
747.31	50.481
747.62	47.005
747.94	50.218
748.25	53.023
748.56	53.810
748.88	54.891
749.19	53.521
749.50	53.431
749.82	56.444
750.13	52.863
750.44	53.252
750.75	55.600
751.07	56.786
751.38	52.399
751.69	49.237
752.01	54.615
752.32	48.249
752.63	47.692
752.94	47.619
753.26	56.087
753.57	51.786
753.88	52.586
754.19	53.942
754.51	51.563
754.82	52.569
755.13	51.440
755.44	46.694
755.75	48.971
756.07	44.177
756.38	51.172
756.69	49.819
757.00	54.355
757.31	55.705
757.63	51.402
757.94	46.821
758.25	50.291
758.56	53.369
758.87	51.989
759.18	47.000
759.50	53.381
759.81	47.810
760.12	44.932
760.43	55.340
760.74	52.187
761.05	46.629
761.36	54.192
761.67	51.479
761.99	51.935
762.30	51.449
762.61	50.943
762.92	57.399
763.23	49.289
763.54	49.333
763.85	53.586
764.16	51.837
764.47	54.661
764.78	48.689
765.10	53.597
765.41	49.355
765.72	52.830
766.03	43.816
766.34	51.880
766.65	52.227
766.96	49.500
767.27	51.562
767.58	56.395
767.89	55.484
768.20	53.988
768.51	48.087
768.82	55.676
769.13	53.500
769.44	49.561
769.75	53.680
770.06	48.165
770.37	51.174
770.68	53.125
770.99	50.990
771.30	45.631
771.61	48.148
771.92	51.515
772.23	54.206
772.54	50.000
772.85	43.787
773.16	55.488
773.47	59.036
773.78	48.901
774.09	58.000
774.39	51.235
774.70	51.678
775.01	58.696
775.32	55.224
775.63	46.281
775.94	54.887
776.25	47.857
776.56	52.459
776.87	60.177
777.18	53.097
777.48	40.909
777.79	43.478
778.10	53.211
778.41	41.525
778.72	54.545
779.03	48.507
779.34	48.872
779.65	52.941
779.95	50.000
780.26	48.299
780.57	45.690
780.88	50.000
781.19	40.404
781.50	40.800
781.80	51.634
782.11	49.359
782.42	40.361
782.73	41.606
783.04	52.027
783.34	48.485
783.65	42.636
783.96	51.220
784.27	55.556
784.57	48.780
784.88	48.780
785.19	46.491
785.50	35.052
785.81	44.762
786.11	43.137
786.42	33.636
786.73	54.054
787.04	51.485
787.34	41.905
787.65	44.762
787.96	50.980
788.26	50.450
788.57	50.806
788.88	35.156
789.19	40.171
789.49	38.655
789.80	47.009
790.11	45.133
790.41	44.444
790.72	39.623
791.03	48.611
791.33	40.789
791.64	45.161
791.95	38.667
792.25	41.429
792.56	42.683
792.87	51.020
793.17	44.737
793.48	29.730
793.79	32.394
794.09	37.975
794.40	50.000
794.70	43.925
795.01	31.579
795.32	50.909
795.62	44.643
795.93	30.928
796.23	42.857
796.54	45.263
796.85	26.027
797.15	25.000
797.46	47.945
797.76	49.296
798.07	45.000
798.37	41.176
798.68	57.143
798.99	55.714
799.29	55.263
799.60	45.000
799.90	33.333
800.21	26.562
800.51	20.635
800.82	44.262
801.12	40.351
801.43	35.211
801.73	18.644
802.04	22.951
802.34	25.455
802.65	23.077
802.95	20.370
803.26	25.000
803.56	46.154
803.87	31.579
804.17	33.871
804.48	52.308
804.78	28.205
805.09	44.186
805.39	15.625
805.70	13.208
806.00	59.649
806.30	45.946
806.61	39.706
806.91	28.395
807.22	38.667
807.52	32.836
807.83	35.484
808.13	19.048
808.43	36.364
808.74	34.848
809.04	33.962
809.35	39.726
809.65	35.088
809.95	42.647
810.26	43.137
810.56	26.000
810.86	20.408
811.17	20.000
811.47	21.154
811.77	38.710
812.08	0.000
812.38	30.952
812.69	15.217
812.99	45.161
813.29	23.810
813.59	-11.111
813.90	19.149
814.20	-4.651
814.50	14.583
814.81	35.000
815.11	17.073
815.41	16.667
815.72	25.714
816.02	13.889
816.32	35.897
816.62	21.622
816.93	0.000
817.23	6.522
817.53	41.176
817.84	29.412
818.14	3.125
818.44	31.034
818.74	0.000
819.04	-29.630
819.35	3.333
819.65	12.000
819.95	23.333
820.25	32.000
820.56	31.579
820.86	2.500
821.16	31.915
821.46	27.586
821.76	12.821
822.07	20.000
822.37	9.302
822.67	43.333
822.97	0.000
823.27	40.541
823.57	56.000
823.88	32.432
824.18	-19.048
824.48	3.846
824.78	0.000
825.08	34.783
825.38	12.500
825.69	45.833
825.99	-15.000
826.29	16.216
826.59	11.765
826.89	40.000
827.19	31.429
827.49	26.316
827.79	28.125
828.09	3.333
828.39	21.739
828.70	-3.448
829.00	34.483
829.30	11.111
829.60	50.000
829.90	-22.222
830.20	38.462
830.50	-57.143
830.80	-7.143
831.10	15.385
831.40	-28.571
831.70	23.529
832.00	-12.500
832.30	10.526
832.60	37.500
832.90	-50.000
833.20	-47.059
833.50	-20.000
833.80	-33.333
834.10	55.000
834.40	12.500
834.70	16.667
835.00	11.538
835.30	-33.333
835.60	6.897
835.90	-22.222
836.20	-72.727
836.50	-58.333
836.80	31.429
837.10	65.714
837.40	-17.647
837.70	-36.364
838.00	-37.500
838.30	-93.750
838.60	9.524
838.90	5.000
839.19	-8.696
839.49	-4.348
839.79	5.556
840.09	-39.130
840.39	-63.636
840.69	-6.250
840.99	-31.579
841.29	-68.750
841.59	21.429
841.88	16.667
842.18	-29.167
842.48	-52.941
842.78	-17.241
843.08	42.857
843.38	-15.385
843.68	-100.000
843.97	-69.231
844.27	-90.909
844.57	-100.000
844.87	-28.000
845.17	20.000
845.47	-71.429
845.76	-55.556
846.06	0.000
846.36	-250.000
846.66	-150.000
846.96	-26.316
847.25	8.333
847.55	-116.667
847.85	-100.000
848.15	-30.000
848.44	46.154
848.74	-10.526
849.04	766.667
849.34	-66.667
849.63	-52.632
849.93	0.000
850.23	-95.000
850.53	-33.333
850.82	-28.000
851.12	-26.316
851.42	-950.000
851.71	42.857
852.01	-8.333
852.31	-64.706
852.61	-106.667
852.90	-23.810
853.20	-166.667
853.50	33.333
853.79	36.842
854.09	-60.000
854.39	-17.857
854.68	-26.087
854.98	-125.000
855.28	0.000
855.57	-43.750
855.87	-25.000
856.17	-53.333
856.46	-6.897
856.76	-60.000
857.05	-76.471
857.35	-107.692
857.65	-163.636
857.94	-51.852
858.24	-121.429
858.53	-21.429
858.83	-66.667
859.13	-77.778
859.42	28.571
859.72	-237.500
860.01	-433.333
860.31	-137.500
860.60	-320.000
860.90	-155.556
861.20	-162.500
861.49	-200.000
861.79	-52.941
862.08	-600.000
862.38	-91.667
862.67	-23.077
862.97	-41.176
863.26	-20.000
863.56	-29.412
863.85	300.000
864.15	-90.000
864.44	-92.308
864.74	0.000
865.03	-312.500
865.33	-266.667
865.62	-88.235
865.92	-475.000
866.21	-142.857
866.51	-58.333
866.80	-600.000
867.10	-366.667
867.39	-76.471
867.69	8.696
867.98	-157.143
868.27	-260.000
868.57	-18.750
868.86	-145.455
869.16	-64.706
869.45	-216.667
869.75	-257.143
870.04	1200.000
870.33	-66.667
870.63	-40.000
870.92	-133.333
871.22	-91.667
871.51	-27.273
871.80	-25.000
872.10	-50.000
>>>>>End Processed Spectral Data<<<<<
