SpectraSuite Data File
++++++++++++++++++++++++++++++++++++
Date: Sat May 16 11:17:12 PDT 2015
User: schluterlab
Dark Spectrum Present: Yes
Reference Spectrum Present: Yes
Number of Sampled Component Spectra: 1
Spectrometers: USB2E3373
Integration Time (usec): 3000 (USB2E3373)
Spectra Averaged: 3 (USB2E3373)
Boxcar Smoothing: 0 (USB2E3373)
Correct for Electrical Dark: No (USB2E3373)
Strobe/Lamp Enabled: No (USB2E3373)
Correct for Detector Non-linearity: No (USB2E3373)
Correct for Stray Light: No (USB2E3373)
Number of Pixels in Processed Spectrum: 2048
>>>>>Begin Processed Spectral Data<<<<<
178.53	0.000
178.91	120.000
179.29	333.333
179.67	-100.000
180.04	0.000
180.42	300.000
180.80	200.000
181.18	250.000
181.56	-12.500
181.94	1300.000
182.31	250.000
182.69	15.385
183.07	-366.667
183.45	800.000
183.83	400.000
184.20	-157.143
184.58	-100.000
184.96	-75.000
185.34	143.750
185.72	-350.000
186.09	266.667
186.47	-200.000
186.85	-125.000
187.23	100.000
187.61	-25.000
187.98	-150.000
188.36	-25.000
188.74	-212.500
189.12	1500.000
189.49	242.857
189.87	-41.667
190.25	475.000
190.63	-64.286
191.00	-44.444
191.38	280.000
191.76	33.333
192.14	420.000
192.51	-200.000
192.89	-300.000
193.27	0.000
193.65	-122.222
194.02	-57.143
194.40	133.333
194.78	0.000
195.15	300.000
195.53	-27.273
195.91	-383.333
196.29	160.000
196.66	-33.333
197.04	800.000
197.42	25.000
197.79	-6.667
198.17	-400.000
198.55	-350.000
198.92	-1500.000
199.30	125.000
199.68	0.000
200.05	-33.333
200.43	-111.111
200.81	-1200.000
201.18	-116.667
201.56	100.000
201.94	-13.333
202.31	-9.091
202.69	20.000
203.07	30.000
203.44	500.000
203.82	-66.667
204.19	-225.000
204.57	-275.000
204.95	-100.000
205.32	-31.250
205.70	1000.000
206.08	-1100.000
206.45	27.778
206.83	-400.000
207.20	250.000
207.58	-433.333
207.96	-500.000
208.33	-87.500
208.71	44.444
209.08	220.000
209.46	-114.286
209.84	-100.000
210.21	0.000
210.59	50.000
210.96	1000.000
211.34	-216.667
211.71	-200.000
212.09	150.000
212.46	850.000
212.84	-1900.000
213.22	366.667
213.59	183.333
213.97	-33.333
214.34	130.000
214.72	-30.000
215.09	-133.333
215.47	-16.667
215.84	-80.000
216.22	-50.000
216.59	-6.667
216.97	-450.000
217.34	550.000
217.72	-171.429
218.09	-200.000
218.47	-242.857
218.84	228.571
219.22	-142.857
219.59	0.000
219.97	228.571
220.34	525.000
220.72	175.000
221.09	-23.077
221.47	0.000
221.84	-133.333
222.22	-650.000
222.59	300.000
222.97	-112.500
223.34	-750.000
223.72	-666.667
224.09	-85.714
224.46	-175.000
224.84	7.143
225.21	-57.143
225.59	-90.909
225.96	-87.500
226.34	71.429
226.71	-77.778
227.08	5.000
227.46	1000.000
227.83	-114.286
228.21	-187.500
228.58	-50.000
228.95	-12.500
229.33	-700.000
229.70	-200.000
230.08	-350.000
230.45	-66.667
230.82	-83.333
231.20	300.000
231.57	100.000
231.95	500.000
232.32	19.048
232.69	-44.444
233.07	-171.429
233.44	-100.000
233.81	-106.667
234.19	66.667
234.56	-37.500
234.93	9.375
235.31	0.000
235.68	-85.714
236.05	41.176
236.43	-18.182
236.80	29.032
237.17	16.667
237.55	-23.810
237.92	-18.182
238.29	-2.857
238.67	26.471
239.04	11.111
239.41	-6.452
239.79	-2.564
240.16	11.905
240.53	23.636
240.91	51.282
241.28	34.545
241.65	27.692
242.02	21.311
242.40	27.869
242.77	48.485
243.14	23.729
243.51	22.857
243.89	25.316
244.26	26.966
244.63	31.579
245.00	45.263
245.38	32.203
245.75	30.973
246.12	24.800
246.49	38.583
246.87	30.081
247.24	33.898
247.61	38.983
247.98	35.915
248.36	25.874
248.73	32.911
249.10	35.032
249.47	34.503
249.84	39.773
250.22	31.548
250.59	34.463
250.96	39.267
251.33	38.863
251.70	36.538
252.08	40.284
252.45	33.175
252.82	34.286
253.19	36.596
253.56	35.484
253.94	36.287
254.31	33.906
254.68	41.463
255.05	37.903
255.42	38.889
255.79	32.616
256.16	37.255
256.54	37.868
256.91	40.909
257.28	36.630
257.65	39.007
258.02	35.849
258.39	39.130
258.76	36.149
259.14	38.580
259.51	38.361
259.88	39.024
260.25	40.683
260.62	36.977
260.99	34.421
261.36	37.195
261.73	39.017
262.10	35.556
262.47	41.311
262.85	38.857
263.22	39.542
263.59	32.000
263.96	35.072
264.33	35.772
264.70	40.055
265.07	37.912
265.44	40.052
265.81	40.310
266.18	37.215
266.55	37.255
266.92	39.043
267.29	37.046
267.66	38.519
268.03	41.304
268.40	38.498
268.77	38.554
269.14	40.371
269.51	37.701
269.88	35.780
270.25	37.296
270.62	37.529
270.99	37.387
271.36	38.462
271.73	38.341
272.10	37.757
272.47	36.444
272.84	39.333
273.21	39.908
273.58	35.165
273.95	35.307
274.32	37.557
274.69	40.919
275.06	38.446
275.43	38.616
275.80	37.678
276.17	35.146
276.54	39.308
276.91	38.889
277.28	36.714
277.65	36.983
278.02	34.447
278.39	38.507
278.76	37.251
279.13	38.142
279.50	37.376
279.87	38.689
280.23	39.271
280.60	37.972
280.97	35.340
281.34	38.685
281.71	38.846
282.08	38.710
282.45	35.642
282.82	37.791
283.19	37.273
283.56	37.546
283.92	37.456
284.29	34.387
284.66	34.173
285.03	36.185
285.40	39.668
285.77	38.246
286.14	35.740
286.51	36.412
286.87	38.838
287.24	37.031
287.61	35.537
287.98	35.529
288.35	34.380
288.72	35.314
289.08	34.068
289.45	36.027
289.82	31.661
290.19	34.319
290.56	31.736
290.93	30.843
291.29	34.198
291.66	33.655
292.03	34.694
292.40	31.175
292.77	31.988
293.13	33.984
293.50	31.352
293.87	32.515
294.24	32.881
294.60	30.909
294.97	31.563
295.34	32.000
295.71	29.315
296.08	28.571
296.44	30.758
296.81	30.057
297.18	29.577
297.55	31.921
297.91	31.799
298.28	30.000
298.65	29.428
299.02	29.679
299.38	29.412
299.75	28.397
300.12	28.077
300.48	29.540
300.85	28.047
301.22	30.789
301.59	28.218
301.95	30.101
302.32	26.858
302.69	28.152
303.05	27.839
303.42	26.000
303.79	28.110
304.15	29.147
304.52	26.838
304.89	26.682
305.25	28.938
305.62	25.969
305.99	28.857
306.35	25.527
306.72	26.993
307.09	28.263
307.45	25.653
307.82	25.810
308.19	25.839
308.55	26.362
308.92	24.705
309.29	26.378
309.65	25.663
310.02	26.566
310.38	25.838
310.75	25.512
311.12	26.343
311.48	25.052
311.85	26.262
312.22	25.026
312.58	25.127
312.95	25.892
313.31	25.275
313.68	26.030
314.05	24.827
314.41	24.748
314.78	24.775
315.14	24.778
315.51	25.431
315.87	24.685
316.24	24.101
316.61	25.048
316.97	25.473
317.34	24.855
317.70	22.635
318.07	24.347
318.43	23.502
318.80	25.540
319.16	23.452
319.53	24.906
319.89	23.895
320.26	23.725
320.62	23.365
320.99	24.378
321.35	23.251
321.72	23.644
322.08	25.223
322.45	22.970
322.81	23.247
323.18	24.111
323.54	23.567
323.91	24.189
324.27	22.814
324.64	23.675
325.00	23.735
325.37	25.249
325.73	24.409
326.10	22.232
326.46	23.030
326.83	23.745
327.19	23.353
327.56	24.702
327.92	24.809
328.29	22.511
328.65	22.909
329.01	25.353
329.38	23.550
329.74	24.908
330.11	23.300
330.47	23.524
330.84	25.206
331.20	23.195
331.56	23.883
331.93	21.847
332.29	24.840
332.66	23.442
333.02	21.810
333.38	23.746
333.75	24.132
334.11	23.467
334.48	21.977
334.84	23.360
335.20	22.784
335.57	23.105
335.93	23.098
336.29	22.143
336.66	22.026
337.02	23.423
337.38	22.906
337.75	22.388
338.11	22.809
338.47	22.776
338.84	22.595
339.20	22.232
339.56	22.371
339.93	21.693
340.29	22.232
340.65	21.416
341.02	22.681
341.38	21.904
341.74	21.931
342.11	22.099
342.47	22.060
342.83	20.823
343.20	21.776
343.56	21.551
343.92	22.705
344.28	23.045
344.65	21.535
345.01	20.420
345.37	22.010
345.73	22.177
346.10	20.442
346.46	21.365
346.82	20.690
347.19	21.364
347.55	21.669
347.91	22.126
348.27	20.605
348.63	21.809
349.00	21.877
349.36	21.233
349.72	22.213
350.08	20.289
350.45	21.198
350.81	21.258
351.17	21.061
351.53	20.127
351.89	21.423
352.26	21.860
352.62	22.273
352.98	21.282
353.34	21.663
353.70	21.158
354.07	22.266
354.43	20.632
354.79	22.345
355.15	20.927
355.51	20.391
355.87	20.632
356.24	21.287
356.60	21.595
356.96	21.247
357.32	20.348
357.68	20.613
358.04	21.478
358.40	20.882
358.77	20.479
359.13	20.658
359.49	21.088
359.85	20.351
360.21	21.689
360.57	21.611
360.93	22.148
361.29	21.300
361.66	19.741
362.02	20.044
362.38	21.864
362.74	21.758
363.10	20.803
363.46	21.652
363.82	21.064
364.18	20.478
364.54	21.730
364.90	20.196
365.26	20.970
365.62	21.098
365.98	21.550
366.35	21.408
366.71	19.803
367.07	20.113
367.43	21.482
367.79	20.756
368.15	20.413
368.51	21.399
368.87	21.909
369.23	20.211
369.59	20.069
369.95	20.930
370.31	21.378
370.67	20.101
371.03	21.574
371.39	20.368
371.75	20.243
372.11	21.377
372.47	20.246
372.83	20.932
373.19	20.500
373.55	20.760
373.91	21.053
374.27	20.534
374.63	19.807
374.99	21.488
375.35	20.054
375.71	22.417
376.07	20.671
376.42	20.132
376.78	20.392
377.14	21.356
377.50	21.083
377.86	21.521
378.22	20.038
378.58	19.889
378.94	20.654
379.30	20.963
379.66	21.311
380.02	20.559
380.38	20.242
380.74	21.395
381.09	20.797
381.45	20.823
381.81	19.843
382.17	21.303
382.53	19.939
382.89	20.813
383.25	21.072
383.61	20.932
383.97	21.066
384.32	20.213
384.68	20.435
385.04	20.531
385.40	20.511
385.76	21.220
386.12	22.611
386.48	21.163
386.83	21.534
387.19	21.757
387.55	20.533
387.91	20.095
388.27	19.903
388.62	20.733
388.98	20.230
389.34	20.991
389.70	20.646
390.06	21.255
390.42	20.449
390.77	20.757
391.13	21.801
391.49	20.399
391.85	21.446
392.20	20.813
392.56	21.869
392.92	20.479
393.28	21.297
393.64	21.467
393.99	20.985
394.35	21.290
394.71	20.568
395.07	21.030
395.42	19.964
395.78	19.610
396.14	21.059
396.50	20.917
396.85	21.592
397.21	20.535
397.57	21.398
397.92	21.546
398.28	21.500
398.64	21.297
399.00	20.955
399.35	20.800
399.71	21.080
400.07	20.657
400.42	20.742
400.78	20.095
401.14	20.599
401.49	20.696
401.85	20.744
402.21	20.739
402.57	20.813
402.92	20.957
403.28	21.385
403.63	19.952
403.99	21.442
404.35	20.350
404.70	21.240
405.06	20.934
405.42	20.480
405.77	20.532
406.13	21.238
406.49	21.809
406.84	20.756
407.20	21.614
407.55	20.773
407.91	19.819
408.27	21.324
408.62	20.986
408.98	21.164
409.34	20.293
409.69	20.353
410.05	20.255
410.40	21.459
410.76	20.747
411.11	21.820
411.47	20.396
411.83	20.844
412.18	20.359
412.54	20.073
412.89	19.988
413.25	20.071
413.60	20.838
413.96	19.409
414.31	21.040
414.67	20.317
415.03	20.957
415.38	21.015
415.74	20.747
416.09	20.716
416.45	19.643
416.80	21.131
417.16	20.399
417.51	21.274
417.87	20.065
418.22	20.733
418.58	21.181
418.93	20.846
419.29	21.455
419.64	20.729
420.00	20.778
420.35	19.988
420.71	21.309
421.06	20.769
421.42	20.141
421.77	20.659
422.12	21.265
422.48	20.844
422.83	21.071
423.19	20.657
423.54	20.692
423.90	20.301
424.25	20.928
424.61	21.532
424.96	21.884
425.31	20.011
425.67	20.745
426.02	20.195
426.38	20.629
426.73	19.813
427.09	20.037
427.44	20.852
427.79	19.767
428.15	21.544
428.50	20.352
428.85	20.803
429.21	20.199
429.56	20.104
429.92	20.341
430.27	20.588
430.62	21.212
430.98	20.596
431.33	20.011
431.68	20.268
432.04	20.201
432.39	20.627
432.74	20.803
433.10	20.315
433.45	19.862
433.80	20.661
434.16	21.386
434.51	20.822
434.86	21.265
435.22	20.100
435.57	20.624
435.92	21.219
436.28	20.000
436.63	20.350
436.98	20.160
437.34	20.378
437.69	20.595
438.04	20.420
438.39	20.698
438.75	20.780
439.10	21.044
439.45	20.398
439.81	19.940
440.16	21.181
440.51	20.647
440.86	20.243
441.22	19.790
441.57	20.053
441.92	20.563
442.27	20.563
442.63	20.064
442.98	21.163
443.33	19.769
443.68	20.479
444.03	21.218
444.39	20.117
444.74	20.374
445.09	20.943
445.44	20.597
445.79	19.939
446.15	21.742
446.50	19.543
446.85	20.010
447.20	19.612
447.55	20.497
447.91	21.056
448.26	20.447
448.61	20.543
448.96	20.672
449.31	20.406
449.66	20.149
450.02	19.612
450.37	19.826
450.72	19.605
451.07	19.925
451.42	19.393
451.77	20.646
452.12	20.441
452.47	20.466
452.83	20.093
453.18	20.114
453.53	20.211
453.88	21.292
454.23	20.375
454.58	20.696
454.93	19.521
455.28	20.586
455.63	20.516
455.98	20.241
456.34	19.822
456.69	20.763
457.04	20.652
457.39	19.617
457.74	20.260
458.09	19.548
458.44	20.381
458.79	20.516
459.14	20.365
459.49	20.722
459.84	21.192
460.19	20.704
460.54	20.206
460.89	19.787
461.24	20.401
461.59	20.457
461.94	19.987
462.29	21.144
462.64	20.751
462.99	21.285
463.34	19.446
463.69	20.547
464.04	20.152
464.39	20.191
464.74	20.863
465.09	19.483
465.44	20.192
465.79	20.587
466.14	21.116
466.49	20.956
466.84	20.108
467.19	20.449
467.54	19.810
467.89	21.393
468.24	20.428
468.59	20.300
468.94	19.614
469.29	20.533
469.64	20.148
469.99	21.472
470.34	20.508
470.68	20.785
471.03	20.785
471.38	19.444
471.73	21.189
472.08	20.080
472.43	20.656
472.78	20.467
473.13	19.682
473.48	20.613
473.83	20.471
474.17	20.510
474.52	21.611
474.87	20.571
475.22	20.236
475.57	19.889
475.92	20.464
476.27	20.229
476.61	20.732
476.96	21.017
477.31	20.560
477.66	20.476
478.01	21.178
478.36	20.377
478.70	21.410
479.05	20.822
479.40	20.881
479.75	20.591
480.10	20.288
480.45	20.309
480.79	20.731
481.14	21.274
481.49	20.716
481.84	20.620
482.19	20.968
482.53	21.259
482.88	20.076
483.23	20.235
483.58	20.953
483.92	20.831
484.27	20.027
484.62	20.302
484.97	19.992
485.31	20.096
485.66	20.472
486.01	20.570
486.36	20.812
486.70	21.035
487.05	20.725
487.40	20.887
487.75	19.961
488.09	19.796
488.44	20.129
488.79	20.410
489.13	19.817
489.48	21.003
489.83	20.655
490.17	20.592
490.52	20.969
490.87	20.416
491.22	19.851
491.56	20.231
491.91	20.754
492.26	20.425
492.60	20.219
492.95	20.752
493.30	20.867
493.64	20.357
493.99	20.507
494.34	21.143
494.68	21.161
495.03	20.793
495.37	20.649
495.72	20.923
496.07	21.727
496.41	20.936
496.76	21.005
497.11	21.244
497.45	20.546
497.80	20.860
498.14	20.776
498.49	20.291
498.84	21.068
499.18	21.248
499.53	20.555
499.87	20.367
500.22	20.490
500.56	21.061
500.91	21.084
501.26	20.961
501.60	20.125
501.95	21.159
502.29	21.068
502.64	21.264
502.98	21.275
503.33	21.523
503.67	21.073
504.02	21.004
504.36	21.520
504.71	20.973
505.06	20.719
505.40	21.357
505.75	20.986
506.09	21.335
506.44	20.952
506.78	20.873
507.13	21.164
507.47	21.701
507.82	21.012
508.16	21.503
508.51	21.020
508.85	21.687
509.19	21.402
509.54	21.670
509.88	21.702
510.23	21.751
510.57	21.640
510.92	22.019
511.26	21.531
511.61	21.652
511.95	21.767
512.30	20.946
512.64	20.924
512.98	21.947
513.33	21.966
513.67	21.887
514.02	20.358
514.36	21.884
514.70	22.694
515.05	21.670
515.39	21.799
515.74	22.455
516.08	21.556
516.42	21.416
516.77	22.126
517.11	22.426
517.46	23.445
517.80	21.781
518.14	21.739
518.49	21.817
518.83	20.950
519.17	22.676
519.52	21.631
519.86	21.924
520.20	22.433
520.55	21.600
520.89	21.478
521.23	22.772
521.58	22.445
521.92	22.799
522.26	22.286
522.61	21.990
522.95	21.506
523.29	22.445
523.64	22.299
523.98	22.661
524.32	22.502
524.66	22.609
525.01	22.543
525.35	22.745
525.69	22.186
526.04	22.520
526.38	23.234
526.72	22.605
527.06	22.786
527.41	22.640
527.75	21.848
528.09	21.840
528.43	22.230
528.78	23.053
529.12	22.983
529.46	22.616
529.80	22.660
530.15	23.889
530.49	22.898
530.83	23.903
531.17	22.896
531.51	22.438
531.86	23.173
532.20	23.819
532.54	23.195
532.88	22.003
533.22	21.992
533.57	22.781
533.91	22.659
534.25	22.816
534.59	22.611
534.93	22.775
535.27	22.278
535.62	23.465
535.96	22.689
536.30	22.906
536.64	21.979
536.98	22.246
537.32	22.737
537.66	23.150
538.01	23.093
538.35	22.365
538.69	23.396
539.03	23.020
539.37	22.289
539.71	22.815
540.05	22.070
540.39	22.784
540.73	22.737
541.07	23.429
541.42	22.552
541.76	21.794
542.10	23.025
542.44	23.851
542.78	22.931
543.12	22.946
543.46	22.466
543.80	22.809
544.14	21.827
544.48	23.097
544.82	22.395
545.16	23.474
545.50	21.938
545.84	22.949
546.18	22.885
546.52	22.333
546.86	23.433
547.20	22.644
547.54	21.419
547.88	23.026
548.22	21.756
548.56	22.846
548.90	22.507
549.24	22.495
549.58	23.006
549.92	22.615
550.26	23.627
550.60	22.688
550.94	23.212
551.28	23.552
551.62	23.486
551.96	23.010
552.30	22.718
552.64	23.012
552.98	22.495
553.32	21.284
553.66	22.927
554.00	22.459
554.34	22.455
554.68	22.807
555.02	22.648
555.36	22.789
555.69	22.278
556.03	23.649
556.37	22.617
556.71	22.405
557.05	22.764
557.39	22.272
557.73	22.684
558.07	22.909
558.41	23.336
558.75	22.433
559.08	21.245
559.42	22.282
559.76	23.160
560.10	22.595
560.44	22.905
560.78	23.730
561.12	22.291
561.45	22.466
561.79	22.091
562.13	22.931
562.47	22.899
562.81	22.419
563.15	21.693
563.48	23.428
563.82	23.056
564.16	22.786
564.50	22.379
564.84	23.479
565.17	23.143
565.51	22.490
565.85	23.394
566.19	23.254
566.52	23.157
566.86	22.440
567.20	24.153
567.54	22.918
567.88	22.836
568.21	22.931
568.55	22.853
568.89	23.310
569.23	22.582
569.56	21.942
569.90	23.249
570.24	22.924
570.57	21.898
570.91	22.713
571.25	22.957
571.59	22.541
571.92	22.321
572.26	22.439
572.60	22.401
572.93	22.422
573.27	22.378
573.61	21.566
573.95	22.618
574.28	22.734
574.62	22.928
574.96	22.458
575.29	22.307
575.63	22.405
575.97	21.872
576.30	22.527
576.64	22.402
576.98	22.170
577.31	22.098
577.65	22.210
577.98	22.296
578.32	21.869
578.66	22.131
578.99	22.737
579.33	22.080
579.67	22.141
580.00	21.677
580.34	21.893
580.67	22.187
581.01	21.846
581.35	21.965
581.68	21.889
582.02	22.177
582.35	21.926
582.69	22.399
583.02	22.701
583.36	22.378
583.70	22.222
584.03	22.360
584.37	22.246
584.70	22.998
585.04	22.304
585.37	21.838
585.71	22.279
586.04	22.138
586.38	22.053
586.72	21.956
587.05	22.345
587.39	22.180
587.72	22.432
588.06	22.063
588.39	22.216
588.73	22.752
589.06	22.538
589.40	22.741
589.73	22.380
590.07	22.469
590.40	22.214
590.73	22.871
591.07	23.197
591.40	22.964
591.74	22.328
592.07	22.703
592.41	22.972
592.74	22.137
593.08	23.035
593.41	23.092
593.75	21.761
594.08	23.077
594.41	22.699
594.75	23.065
595.08	22.481
595.42	22.290
595.75	22.198
596.09	22.119
596.42	21.809
596.75	21.518
597.09	23.108
597.42	21.912
597.75	22.409
598.09	22.458
598.42	22.448
598.76	22.093
599.09	22.218
599.42	22.645
599.76	22.046
600.09	22.405
600.42	22.560
600.76	22.373
601.09	22.294
601.42	22.873
601.76	23.170
602.09	22.372
602.42	23.169
602.76	22.102
603.09	22.137
603.42	22.522
603.76	22.537
604.09	21.986
604.42	21.982
604.76	22.678
605.09	22.514
605.42	22.518
605.75	22.337
606.09	22.499
606.42	22.497
606.75	22.155
607.09	22.541
607.42	22.447
607.75	22.517
608.08	22.458
608.42	22.469
608.75	21.402
609.08	22.163
609.41	22.272
609.75	21.989
610.08	22.696
610.41	22.361
610.74	23.066
611.07	22.211
611.41	21.583
611.74	23.033
612.07	22.288
612.40	21.482
612.73	22.240
613.07	22.124
613.40	22.934
613.73	22.398
614.06	21.527
614.39	23.168
614.72	22.011
615.06	22.337
615.39	21.758
615.72	22.922
616.05	22.419
616.38	22.751
616.71	22.643
617.05	22.014
617.38	22.167
617.71	21.990
618.04	21.491
618.37	22.264
618.70	22.947
619.03	22.613
619.36	23.326
619.69	22.757
620.03	22.521
620.36	22.574
620.69	22.828
621.02	23.516
621.35	22.581
621.68	22.377
622.01	22.735
622.34	22.826
622.67	23.203
623.00	22.800
623.33	23.134
623.66	22.157
623.99	22.105
624.32	22.098
624.65	21.486
624.99	23.077
625.32	22.380
625.65	22.455
625.98	23.552
626.31	22.512
626.64	22.594
626.97	22.945
627.30	22.723
627.63	22.453
627.96	22.193
628.29	22.151
628.62	22.254
628.95	23.228
629.28	21.429
629.61	21.394
629.94	23.629
630.26	22.763
630.59	23.518
630.92	21.722
631.25	22.782
631.58	22.540
631.91	22.128
632.24	22.111
632.57	23.444
632.90	22.529
633.23	22.664
633.56	21.404
633.89	21.226
634.22	22.786
634.55	21.034
634.88	21.765
635.20	22.347
635.53	23.282
635.86	21.788
636.19	23.443
636.52	21.983
636.85	21.420
637.18	20.750
637.51	23.048
637.83	20.639
638.16	22.237
638.49	21.655
638.82	23.295
639.15	23.087
639.48	20.363
639.81	22.407
640.13	24.324
640.46	22.507
640.79	21.429
641.12	22.144
641.45	23.816
641.77	21.557
642.10	21.903
642.43	23.672
642.76	22.047
643.09	24.127
643.41	23.175
643.74	24.006
644.07	23.557
644.40	23.015
644.73	22.772
645.05	20.367
645.38	23.344
645.71	21.649
646.04	22.857
646.36	20.419
646.69	23.183
647.02	23.105
647.35	22.022
647.67	24.270
648.00	24.253
648.33	24.115
648.66	22.742
648.98	23.885
649.31	22.462
649.64	21.562
649.96	20.722
650.29	21.148
650.62	21.687
650.94	22.091
651.27	22.357
651.60	25.606
651.92	22.432
652.25	21.870
652.58	22.658
652.90	22.151
653.23	20.484
653.56	22.742
653.88	20.984
654.21	22.651
654.54	21.927
654.86	25.040
655.19	21.920
655.52	21.618
655.84	22.473
656.17	24.435
656.49	33.108
656.82	34.061
657.15	25.233
657.47	18.740
657.80	14.667
658.13	16.149
658.45	21.935
658.78	21.567
659.10	21.569
659.43	21.035
659.75	20.653
660.08	21.146
660.41	20.015
660.73	20.242
661.06	22.609
661.38	22.857
661.71	20.459
662.03	22.581
662.36	23.881
662.68	21.941
663.01	24.841
663.33	21.088
663.66	23.605
663.98	22.545
664.31	23.266
664.63	24.336
664.96	20.824
665.28	25.163
665.61	21.987
665.93	21.605
666.26	23.482
666.58	22.869
666.91	23.163
667.23	24.781
667.56	21.995
667.88	24.208
668.21	23.272
668.53	21.963
668.86	25.404
669.18	23.516
669.50	22.430
669.83	18.491
670.15	21.973
670.48	19.626
670.80	19.134
671.13	22.348
671.45	20.721
671.77	21.842
672.10	22.682
672.42	20.664
672.75	20.182
673.07	18.559
673.39	22.222
673.72	19.488
674.04	20.807
674.37	21.443
674.69	23.566
675.01	20.426
675.34	20.174
675.66	22.894
675.98	22.026
676.31	20.362
676.63	21.149
676.95	19.469
677.28	19.258
677.60	20.814
677.92	22.687
678.25	22.319
678.57	23.045
678.89	19.706
679.22	20.964
679.54	22.091
679.86	19.800
680.18	20.532
680.51	20.112
680.83	21.714
681.15	21.773
681.48	22.110
681.80	19.960
682.12	20.322
682.44	22.986
682.77	18.182
683.09	22.432
683.41	23.009
683.73	21.233
684.06	21.075
684.38	22.594
684.70	22.840
685.02	21.850
685.34	19.103
685.67	17.235
685.99	20.794
686.31	22.801
686.63	22.163
686.96	20.702
687.28	22.736
687.60	21.289
687.92	21.595
688.24	21.260
688.56	19.639
688.89	20.726
689.21	20.788
689.53	20.920
689.85	22.049
690.17	19.283
690.49	20.092
690.82	20.723
691.14	21.462
691.46	21.064
691.78	22.687
692.10	23.729
692.42	20.222
692.74	21.459
693.06	22.022
693.39	25.503
693.71	21.445
694.03	23.758
694.35	19.865
694.67	21.749
694.99	20.460
695.31	24.745
695.63	17.092
695.95	22.333
696.27	20.200
696.59	22.193
696.91	22.472
697.23	22.135
697.56	21.394
697.88	19.144
698.20	20.985
698.52	19.058
698.84	20.631
699.16	21.667
699.48	18.500
699.80	21.554
700.12	24.937
700.44	18.436
700.76	20.700
701.08	21.221
701.40	18.127
701.72	21.296
702.04	20.192
702.36	20.181
702.68	20.958
703.00	19.710
703.32	18.338
703.64	24.412
703.96	21.512
704.28	20.710
704.60	22.152
704.91	19.365
705.23	22.977
705.55	22.297
705.87	23.891
706.19	21.181
706.51	17.708
706.83	22.951
707.15	22.930
707.47	22.865
707.79	20.876
708.11	17.048
708.43	24.688
708.74	21.039
709.06	19.220
709.38	19.540
709.70	19.688
710.02	20.552
710.34	19.472
710.66	18.730
710.98	19.874
711.29	16.774
711.61	19.808
711.93	21.311
712.25	22.591
712.57	15.679
712.89	20.863
713.20	21.993
713.52	17.910
713.84	17.082
714.16	22.623
714.48	18.730
714.80	15.692
715.11	21.614
715.43	23.795
715.75	18.692
716.07	18.033
716.39	24.080
716.70	20.557
717.02	21.111
717.34	22.519
717.66	20.747
717.97	20.492
718.29	19.748
718.61	21.825
718.93	18.996
719.24	13.971
719.56	18.868
719.88	18.545
720.20	22.472
720.51	22.556
720.83	14.056
721.15	18.852
721.46	21.176
721.78	19.157
722.10	19.200
722.42	19.008
722.73	19.920
723.05	19.277
723.37	20.784
723.68	20.243
724.00	24.390
724.32	23.457
724.63	19.502
724.95	26.033
725.27	21.491
725.58	17.672
725.90	17.857
726.22	21.771
726.53	23.574
726.85	14.902
727.16	19.925
727.48	17.308
727.80	16.393
728.11	19.748
728.43	17.769
728.74	18.750
729.06	20.455
729.38	15.953
729.69	16.142
730.01	18.504
730.32	15.936
730.64	20.513
730.96	19.403
731.27	20.357
731.59	21.865
731.90	19.018
732.22	20.859
732.53	25.166
732.85	17.450
733.16	21.739
733.48	21.254
733.80	19.573
734.11	20.690
734.43	22.449
734.74	24.036
735.06	20.690
735.37	21.407
735.69	18.065
736.00	18.855
736.32	23.179
736.63	13.793
736.95	17.754
737.26	23.841
737.58	20.504
737.89	25.448
738.21	16.165
738.52	21.154
738.83	21.094
739.15	20.513
739.46	23.387
739.78	18.531
740.09	18.881
740.41	22.028
740.72	18.613
741.04	15.873
741.35	19.048
741.66	19.907
741.98	13.810
742.29	18.310
742.61	17.112
742.92	23.364
743.23	17.982
743.55	18.018
743.86	22.667
744.18	14.762
744.49	25.616
744.80	13.706
745.12	27.835
745.43	20.603
745.74	16.019
746.06	15.610
746.37	16.300
746.68	21.393
747.00	23.037
747.31	21.635
747.62	22.120
747.94	20.087
748.25	25.116
748.56	23.333
748.88	15.761
749.19	20.657
749.50	23.039
749.82	21.333
750.13	19.824
750.44	19.919
750.75	16.000
751.07	23.929
751.38	15.867
751.69	16.412
752.01	20.385
752.32	16.732
752.63	18.462
752.94	18.254
753.26	18.261
753.57	21.875
753.88	19.828
754.19	15.353
754.51	18.359
754.82	18.182
755.13	17.695
755.44	19.835
755.75	18.519
756.07	14.859
756.38	19.922
756.69	20.578
757.00	20.209
757.31	20.134
757.63	21.495
757.94	19.364
758.25	15.988
758.56	22.642
758.87	19.886
759.18	20.333
759.50	19.573
759.81	20.073
760.12	17.230
760.43	20.712
760.74	20.625
761.05	22.472
761.36	18.862
761.67	18.935
761.99	17.097
762.30	21.739
762.61	17.358
762.92	21.076
763.23	19.431
763.54	18.222
763.85	26.160
764.16	23.265
764.47	18.220
764.78	22.472
765.10	22.662
765.41	18.387
765.72	19.811
766.03	15.901
766.34	21.429
766.65	18.623
766.96	16.000
767.27	20.312
767.58	18.023
767.89	15.484
768.20	20.859
768.51	19.672
768.82	14.595
769.13	17.000
769.44	16.667
769.75	20.779
770.06	26.606
770.37	22.535
770.68	18.750
770.99	16.832
771.30	23.301
771.61	17.130
771.92	16.017
772.23	18.224
772.54	20.745
772.85	17.160
773.16	15.854
773.47	20.482
773.78	22.527
774.09	20.000
774.39	14.815
774.70	17.450
775.01	10.870
775.32	20.149
775.63	13.223
775.94	30.075
776.25	16.429
776.56	19.672
776.87	30.973
777.18	12.389
777.48	10.909
777.79	16.522
778.10	9.174
778.41	21.186
778.72	23.140
779.03	25.373
779.34	15.038
779.65	20.915
779.95	15.217
780.26	12.925
780.57	13.793
780.88	18.519
781.19	4.040
781.50	11.200
781.80	15.033
782.11	12.821
782.42	21.687
782.73	9.489
783.04	18.919
783.34	14.394
783.65	13.953
783.96	21.951
784.27	20.513
784.57	14.634
784.88	13.821
785.19	27.193
785.50	0.000
785.81	-1.905
786.11	11.765
786.42	20.000
786.73	19.820
787.04	16.832
787.34	22.857
787.65	11.429
787.96	12.745
788.26	17.117
788.57	25.806
788.88	10.937
789.19	17.949
789.49	11.765
789.80	10.256
790.11	23.009
790.41	5.051
790.72	20.755
791.03	1.389
791.33	7.895
791.64	25.806
791.95	9.333
792.25	14.286
792.56	19.512
792.87	27.551
793.17	7.895
793.48	0.000
793.79	-4.225
794.09	-1.266
794.40	9.574
794.70	3.738
795.01	-6.140
795.32	16.364
795.62	12.500
795.93	10.309
796.23	13.187
796.54	9.474
796.85	-16.438
797.15	5.556
797.46	10.959
797.76	15.493
798.07	22.500
798.37	14.706
798.68	20.000
798.99	27.143
799.29	10.526
799.60	13.333
799.90	-5.556
800.21	-3.125
800.51	15.873
800.82	34.426
801.12	-7.018
801.43	9.859
801.73	8.475
802.04	14.754
802.34	16.364
802.65	0.000
802.95	14.815
803.26	-17.500
803.56	9.615
803.87	-10.526
804.17	11.290
804.48	7.692
804.78	-15.385
805.09	-9.302
805.39	-18.750
805.70	-7.547
806.00	24.561
806.30	10.811
806.61	25.000
806.91	11.111
807.22	12.000
807.52	16.418
807.83	6.452
808.13	-6.349
808.43	10.909
808.74	6.061
809.04	3.774
809.35	28.767
809.65	10.526
809.95	13.235
810.26	17.647
810.56	-16.000
810.86	-6.122
811.17	22.857
811.47	-15.385
811.77	6.452
812.08	-36.842
812.38	14.286
812.69	0.000
812.99	-45.161
813.29	-4.762
813.59	-48.148
813.90	-6.383
814.20	-20.930
814.50	20.833
814.81	-5.000
815.11	-21.951
815.41	-3.333
815.72	20.000
816.02	8.333
816.32	-12.821
816.62	-16.216
816.93	-26.471
817.23	4.348
817.53	-2.941
817.84	2.941
818.14	-18.750
818.44	-34.483
818.74	-41.935
819.04	3.704
819.35	10.000
819.65	-28.000
819.95	3.333
820.25	-4.000
820.56	-5.263
820.86	-7.500
821.16	17.021
821.46	18.966
821.76	-20.513
822.07	-10.000
822.37	-16.279
822.67	-20.000
822.97	-54.054
823.27	0.000
823.57	16.000
823.88	24.324
824.18	-47.619
824.48	3.846
824.78	-92.308
825.08	-13.043
825.38	-16.667
825.69	-8.333
825.99	5.000
826.29	-16.216
826.59	0.000
826.89	64.000
827.19	-22.857
827.49	18.421
827.79	-9.375
828.09	-13.333
828.39	-8.696
828.70	-48.276
829.00	-13.793
829.30	41.667
829.60	15.625
829.90	11.111
830.20	-11.538
830.50	-42.857
830.80	-35.714
831.10	2.564
831.40	0.000
831.70	-26.471
832.00	4.167
832.30	-15.789
832.60	-43.750
832.90	-58.333
833.20	-76.471
833.50	-33.333
833.80	-66.667
834.10	0.000
834.40	-20.833
834.70	27.778
835.00	11.538
835.30	-45.833
835.60	-24.138
835.90	-66.667
836.20	-90.909
836.50	-233.333
836.80	17.143
837.10	31.429
837.40	-47.059
837.70	-109.091
838.00	25.000
838.30	-100.000
838.60	19.048
838.90	-40.000
839.19	4.348
839.49	-8.696
839.79	5.556
840.09	-86.957
840.39	-27.273
840.69	-62.500
840.99	-47.368
841.29	-37.500
841.59	-57.143
841.88	-55.556
842.18	20.833
842.48	-82.353
842.78	31.034
843.08	0.000
843.38	-23.077
843.68	-188.889
843.97	-30.769
844.27	-63.636
844.57	-180.000
844.87	0.000
845.17	-120.000
845.47	-121.429
845.76	-55.556
846.06	0.000
846.36	-425.000
846.66	-150.000
846.96	-42.105
847.25	-33.333
847.55	-50.000
847.85	0.000
848.15	-180.000
848.44	46.154
848.74	31.579
849.04	500.000
849.34	-66.667
849.63	-42.105
849.93	0.000
850.23	0.000
850.53	-47.619
850.82	-20.000
851.12	-31.579
851.42	-750.000
851.71	-7.143
852.01	-58.333
852.31	-11.765
852.61	-33.333
852.90	-71.429
853.20	-200.000
853.50	-72.222
853.79	-31.579
854.09	-13.333
854.39	-50.000
854.68	-30.435
854.98	-183.333
855.28	37.931
855.57	-50.000
855.87	-40.000
856.17	-53.333
856.46	6.897
856.76	13.333
857.05	-94.118
857.35	-53.846
857.65	-81.818
857.94	55.556
858.24	-42.857
858.53	-107.143
858.83	-50.000
859.13	-144.444
859.42	33.333
859.72	-150.000
860.01	-533.333
860.31	-87.500
860.60	-340.000
860.90	-66.667
861.20	-175.000
861.49	-242.857
861.79	5.882
862.08	-650.000
862.38	-141.667
862.67	-84.615
862.97	-17.647
863.26	-35.000
863.56	-5.882
863.85	166.667
864.15	-120.000
864.44	15.385
864.74	15.000
865.03	-250.000
865.33	-183.333
865.62	-117.647
865.92	-500.000
866.21	-71.429
866.51	-83.333
866.80	-1000.000
867.10	-33.333
867.39	47.059
867.69	30.435
867.98	-42.857
868.27	-280.000
868.57	-37.500
868.86	-136.364
869.16	17.647
869.45	-200.000
869.75	-114.286
870.04	600.000
870.33	-66.667
870.63	-200.000
870.92	-44.444
871.22	-33.333
871.51	-45.455
871.80	-16.667
872.10	10.000
>>>>>End Processed Spectral Data<<<<<
