SpectraSuite Data File
++++++++++++++++++++++++++++++++++++
Date: Sat May 16 11:23:16 PDT 2015
User: schluterlab
Dark Spectrum Present: Yes
Reference Spectrum Present: Yes
Number of Sampled Component Spectra: 1
Spectrometers: USB2E3373
Integration Time (usec): 3000 (USB2E3373)
Spectra Averaged: 3 (USB2E3373)
Boxcar Smoothing: 0 (USB2E3373)
Correct for Electrical Dark: No (USB2E3373)
Strobe/Lamp Enabled: No (USB2E3373)
Correct for Detector Non-linearity: No (USB2E3373)
Correct for Stray Light: No (USB2E3373)
Number of Pixels in Processed Spectrum: 2048
>>>>>Begin Processed Spectral Data<<<<<
178.53	0.000
178.91	126.667
179.29	433.333
179.67	-1900.000
180.04	-146.154
180.42	500.000
180.80	400.000
181.18	500.000
181.56	-75.000
181.94	1100.000
182.31	525.000
182.69	-30.769
183.07	-433.333
183.45	1150.000
183.83	166.667
184.20	-157.143
184.58	-237.500
184.96	-275.000
185.34	143.750
185.72	-325.000
186.09	183.333
186.47	-200.000
186.85	-125.000
187.23	-62.500
187.61	-225.000
187.98	-175.000
188.36	-137.500
188.74	-75.000
189.12	200.000
189.49	328.571
189.87	8.333
190.25	450.000
190.63	-50.000
191.00	-177.778
191.38	360.000
191.76	20.000
192.14	640.000
192.51	-60.000
192.89	-300.000
193.27	0.000
193.65	-244.444
194.02	-200.000
194.40	300.000
194.78	-50.000
195.15	-1600.000
195.53	-145.455
195.91	-466.667
196.29	140.000
196.66	-600.000
197.04	2400.000
197.42	-325.000
197.79	0.000
198.17	-266.667
198.55	-400.000
198.92	-1700.000
199.30	175.000
199.68	-550.000
200.05	-88.889
200.43	-211.111
200.81	-2000.000
201.18	-83.333
201.56	171.429
201.94	-113.333
202.31	0.000
202.69	-10.000
203.07	-140.000
203.44	366.667
203.82	-200.000
204.19	-425.000
204.57	-175.000
204.95	-1500.000
205.32	-37.500
205.70	500.000
206.08	-1600.000
206.45	-44.444
206.83	-800.000
207.20	-50.000
207.58	-700.000
207.96	-333.333
208.33	-125.000
208.71	-111.111
209.08	170.000
209.46	57.143
209.84	1150.000
210.21	0.000
210.59	15.000
210.96	500.000
211.34	-116.667
211.71	-400.000
212.09	325.000
212.46	850.000
212.84	-2500.000
213.22	566.667
213.59	183.333
213.97	-22.222
214.34	160.000
214.72	-40.000
215.09	-366.667
215.47	33.333
215.84	-110.000
216.22	-100.000
216.59	-20.000
216.97	-225.000
217.34	1100.000
217.72	-57.143
218.09	-216.667
218.47	-171.429
218.84	228.571
219.22	-114.286
219.59	0.000
219.97	185.714
220.34	275.000
220.72	50.000
221.09	-69.231
221.47	0.000
221.84	400.000
222.22	-850.000
222.59	1800.000
222.97	-175.000
223.34	-1000.000
223.72	-333.333
224.09	-71.429
224.46	-425.000
224.84	-107.143
225.21	-128.571
225.59	45.455
225.96	-200.000
226.34	-100.000
226.71	-155.556
227.08	-25.000
227.46	1500.000
227.83	-214.286
228.21	-200.000
228.58	400.000
228.95	-31.250
229.33	-900.000
229.70	-120.000
230.08	-900.000
230.45	-50.000
230.82	-183.333
231.20	-1000.000
231.57	-950.000
231.95	1500.000
232.32	-23.810
232.69	-211.111
233.07	-142.857
233.44	-1200.000
233.81	-86.667
234.19	-211.111
234.56	-37.500
234.93	3.125
235.31	-300.000
235.68	-78.571
236.05	-64.706
236.43	-113.636
236.80	-38.710
237.17	37.500
237.55	-57.143
237.92	-113.636
238.29	-54.286
238.67	0.000
239.04	2.778
239.41	-74.194
239.79	-48.718
240.16	-21.429
240.53	-21.818
240.91	-7.692
241.28	-18.182
241.65	4.615
242.02	-13.115
242.40	-31.148
242.77	-4.545
243.14	-18.644
243.51	-32.857
243.89	-16.456
244.26	-15.730
244.63	-3.158
245.00	-21.053
245.38	-9.322
245.75	-0.885
246.12	-8.000
246.49	-2.362
246.87	-10.569
247.24	-17.797
247.61	-13.559
247.98	-13.380
248.36	-6.993
248.73	-2.532
249.10	-5.732
249.47	-14.035
249.84	-8.523
250.22	-12.500
250.59	-5.085
250.96	-4.188
251.33	0.948
251.70	-3.846
252.08	-5.213
252.45	-4.265
252.82	-7.619
253.19	-1.702
253.56	-7.258
253.94	-3.797
254.31	-6.867
254.68	-4.878
255.05	-6.048
255.42	-3.968
255.79	-5.735
256.16	-6.275
256.54	-4.412
256.91	-6.439
257.28	-9.524
257.65	-6.028
258.02	0.629
258.39	-2.341
258.76	-7.095
259.14	-2.469
259.51	-3.279
259.88	-4.573
260.25	-4.969
260.62	-0.643
260.99	-5.045
261.36	-2.439
261.73	0.000
262.10	-0.278
262.47	-2.849
262.85	-1.429
263.22	-1.719
263.59	-9.538
263.96	-1.159
264.33	-1.897
264.70	1.105
265.07	-4.396
265.44	-5.685
265.81	-3.101
266.18	-6.329
266.55	-1.716
266.92	-1.511
267.29	-0.969
267.66	-3.210
268.03	-0.483
268.40	-2.347
268.77	-2.169
269.14	-1.392
269.51	-2.529
269.88	-4.128
270.25	-6.294
270.62	-3.432
270.99	-2.027
271.36	-1.166
271.73	-2.018
272.10	-5.492
272.47	-2.444
272.84	1.556
273.21	-1.606
273.58	-2.198
273.95	-1.535
274.32	-1.357
274.69	-1.094
275.06	0.204
275.43	-4.018
275.80	1.833
276.17	-1.674
276.54	0.204
276.91	-2.263
277.28	-0.811
277.65	-2.686
278.02	-1.461
278.39	-2.750
278.76	-3.386
279.13	-1.383
279.50	-0.199
279.87	-3.805
280.23	-1.215
280.60	-0.596
280.97	-4.078
281.34	-2.708
281.71	-0.962
282.08	-2.823
282.45	-4.481
282.82	-2.132
283.19	-1.455
283.56	1.648
283.92	-0.707
284.29	-2.045
284.66	-2.518
285.03	1.783
285.40	-2.583
285.77	1.228
286.14	-3.069
286.51	-1.954
286.87	-0.907
287.24	-0.171
287.61	-1.983
287.98	-2.426
288.35	-0.661
288.72	-0.679
289.08	-3.390
289.45	-1.010
289.82	-2.768
290.19	0.164
290.56	-1.488
290.93	-2.385
291.29	0.972
291.66	-2.093
292.03	0.157
292.40	0.452
292.77	-0.932
293.13	-0.813
293.50	0.000
293.87	-0.920
294.24	-0.754
294.60	-1.970
294.97	1.366
295.34	-2.222
295.71	-1.488
296.08	-1.843
296.44	-2.003
296.81	-1.709
297.18	-1.127
297.55	-0.989
297.91	-0.558
298.28	-1.370
298.65	-1.116
299.02	1.337
299.38	-1.738
299.75	-0.679
300.12	-0.385
300.48	-0.767
300.85	-0.917
301.22	0.000
301.59	-0.130
301.95	1.259
302.32	-2.999
302.69	-1.102
303.05	-0.611
303.42	-1.125
303.79	0.120
304.15	-0.355
304.52	0.117
304.89	0.000
305.25	-0.977
305.62	-0.470
305.99	0.707
306.35	0.777
306.72	-1.139
307.09	0.000
307.45	-0.341
307.82	0.000
308.19	-0.336
308.55	0.218
308.92	0.644
309.29	-0.324
309.65	-0.742
310.02	-0.108
310.38	-0.108
310.75	1.025
311.12	0.310
311.48	1.148
311.85	1.339
312.22	0.927
312.58	1.424
312.95	-0.102
313.31	1.898
313.68	2.211
314.05	3.066
314.41	0.503
314.78	0.300
315.14	1.974
315.51	1.824
315.87	2.420
316.24	1.166
316.61	2.783
316.97	1.990
317.34	0.867
317.70	2.134
318.07	2.425
318.43	1.498
318.80	2.347
319.16	2.064
319.53	2.444
319.89	1.976
320.26	3.235
320.62	2.115
320.99	3.184
321.35	1.970
321.72	2.559
322.08	2.868
322.45	2.079
322.81	3.746
323.18	3.939
323.54	3.789
323.91	3.522
324.27	4.373
324.64	3.839
325.00	4.625
325.37	4.796
325.73	6.474
326.10	4.163
326.46	4.203
326.83	5.617
327.19	6.422
327.56	6.303
327.92	6.542
328.29	5.974
328.65	6.727
329.01	6.184
329.38	7.939
329.74	8.974
330.11	7.616
330.47	7.629
330.84	9.074
331.20	8.032
331.56	8.842
331.93	8.348
332.29	8.219
332.66	10.711
333.02	8.778
333.38	10.394
333.75	8.994
334.11	10.222
334.48	9.532
334.84	10.149
335.20	10.816
335.57	10.650
335.93	11.728
336.29	10.275
336.66	9.868
337.02	11.171
337.38	9.982
337.75	10.799
338.11	11.270
338.47	10.676
338.84	11.525
339.20	11.599
339.56	11.765
339.93	10.758
340.29	10.452
340.65	10.752
341.02	11.467
341.38	10.783
341.74	11.770
342.11	10.751
342.47	12.361
342.83	10.747
343.20	10.760
343.56	11.347
343.92	12.104
344.28	12.616
344.65	11.964
345.01	11.429
345.37	11.960
345.73	10.884
346.10	9.812
346.46	11.292
346.82	11.067
347.19	11.832
347.55	11.396
347.91	11.811
348.27	10.819
348.63	11.712
349.00	11.535
349.36	9.758
349.72	12.341
350.08	11.868
350.45	10.402
350.81	11.783
351.17	11.254
351.53	9.626
351.89	11.318
352.26	10.930
352.62	13.134
352.98	10.522
353.34	11.191
353.70	10.656
354.07	12.195
354.43	12.569
354.79	11.252
355.15	10.783
355.51	10.937
355.87	11.700
356.24	11.199
356.60	11.926
356.96	12.471
357.32	11.322
357.68	11.724
358.04	12.548
358.40	11.137
358.77	10.433
359.13	11.553
359.49	11.565
359.85	10.976
360.21	12.100
360.57	11.898
360.93	11.407
361.29	11.435
361.66	10.137
362.02	11.169
362.38	12.472
362.74	11.575
363.10	11.478
363.46	13.248
363.82	12.026
364.18	12.012
364.54	12.795
364.90	12.020
365.26	11.983
365.62	12.046
365.98	12.518
366.35	12.535
366.71	11.346
367.07	12.209
367.43	14.001
367.79	12.027
368.15	10.384
368.51	13.007
368.87	13.118
369.23	12.632
369.59	13.472
369.95	13.037
370.31	12.658
370.67	11.497
371.03	13.484
371.39	12.518
371.75	12.876
372.11	12.912
372.47	13.232
372.83	13.700
373.19	13.071
373.55	13.793
373.91	13.442
374.27	13.484
374.63	13.665
374.99	12.865
375.35	12.584
375.71	14.585
376.07	13.758
376.42	12.649
376.78	14.248
377.14	14.441
377.50	14.184
377.86	15.020
378.22	14.573
378.58	13.836
378.94	13.502
379.30	14.199
379.66	15.058
380.02	15.152
380.38	15.287
380.74	14.537
381.09	15.349
381.45	15.513
381.81	14.701
382.17	14.474
382.53	14.833
382.89	15.789
383.25	15.834
383.61	15.743
383.97	15.493
384.32	15.895
384.68	15.780
385.04	15.097
385.40	15.216
385.76	16.646
386.12	16.115
386.48	16.213
386.83	16.626
387.19	15.900
387.55	15.687
387.91	15.945
388.27	15.983
388.62	15.625
388.98	15.930
389.34	15.789
389.70	15.652
390.06	15.848
390.42	15.897
390.77	17.161
391.13	17.578
391.49	16.719
391.85	16.833
392.20	15.655
392.56	16.738
392.92	16.714
393.28	17.566
393.64	15.995
393.99	16.862
394.35	16.667
394.71	17.295
395.07	17.075
395.42	16.269
395.78	16.342
396.14	17.508
396.50	17.370
396.85	17.027
397.21	16.100
397.57	16.109
397.92	16.862
398.28	17.278
398.64	16.895
399.00	17.528
399.35	17.475
399.71	17.015
400.07	17.134
400.42	17.640
400.78	16.696
401.14	17.425
401.49	16.745
401.85	17.206
402.21	16.806
402.57	17.476
402.92	17.747
403.28	17.157
403.63	16.717
403.99	16.781
404.35	16.848
404.70	17.437
405.06	18.108
405.42	16.605
405.77	16.459
406.13	16.865
406.49	16.537
406.84	16.617
407.20	16.902
407.55	17.099
407.91	15.803
408.27	17.402
408.62	16.536
408.98	16.616
409.34	16.819
409.69	16.446
410.05	16.010
410.40	16.309
410.76	16.657
411.11	16.272
411.47	16.816
411.83	17.543
412.18	16.894
412.54	16.351
412.89	17.679
413.25	15.939
413.60	16.464
413.96	16.574
414.31	16.820
414.67	16.635
415.03	17.206
415.38	17.372
415.74	17.461
416.09	17.072
416.45	16.865
416.80	16.905
417.16	16.146
417.51	17.663
417.87	15.987
418.22	16.688
418.58	17.394
418.93	17.351
419.29	16.374
419.64	16.583
420.00	18.044
420.35	16.913
420.71	16.987
421.06	18.107
421.42	16.276
421.77	17.253
422.12	16.732
422.48	16.462
422.83	17.483
423.19	17.149
423.54	17.291
423.90	17.582
424.25	17.081
424.61	17.189
424.96	18.432
425.31	17.999
425.67	18.166
426.02	17.728
426.38	18.633
426.73	17.358
427.09	18.566
427.44	18.125
427.79	17.558
428.15	17.534
428.50	18.299
428.85	18.285
429.21	18.539
429.56	18.229
429.92	18.036
430.27	18.295
430.62	19.018
430.98	17.773
431.33	18.517
431.68	18.552
432.04	18.131
432.39	18.177
432.74	18.165
433.10	18.796
433.45	18.365
433.80	18.085
434.16	18.646
434.51	19.123
434.86	19.918
435.22	18.875
435.57	18.543
435.92	17.702
436.28	18.872
436.63	19.107
436.98	17.583
437.34	19.019
437.69	17.911
438.04	18.605
438.39	18.953
438.75	18.335
439.10	19.100
439.45	18.346
439.81	18.855
440.16	17.831
440.51	18.118
440.86	18.913
441.22	17.689
441.57	19.368
441.92	19.182
442.27	19.264
442.63	19.260
442.98	18.510
443.33	19.220
443.68	18.812
444.03	18.861
444.39	19.139
444.74	19.769
445.09	18.969
445.44	18.965
445.79	19.480
446.15	19.441
446.50	18.454
446.85	19.600
447.20	19.714
447.55	19.890
447.91	19.090
448.26	19.441
448.61	19.185
448.96	19.608
449.31	19.391
449.66	19.748
450.02	19.280
450.37	18.377
450.72	19.096
451.07	19.107
451.42	19.579
451.77	19.569
452.12	19.249
452.47	20.403
452.83	19.744
453.18	19.987
453.53	20.522
453.88	20.156
454.23	18.924
454.58	19.640
454.93	19.584
455.28	18.866
455.63	20.393
455.98	20.723
456.34	18.551
456.69	19.637
457.04	20.283
457.39	18.840
457.74	19.846
458.09	19.316
458.44	19.688
458.79	19.451
459.14	19.566
459.49	20.189
459.84	20.461
460.19	19.093
460.54	19.480
460.89	20.067
461.24	20.219
461.59	20.985
461.94	19.924
462.29	20.012
462.64	19.697
462.99	20.549
463.34	20.257
463.69	19.720
464.04	19.039
464.39	19.056
464.74	20.154
465.09	19.603
465.44	19.797
465.79	20.192
466.14	19.965
466.49	19.632
466.84	19.268
467.19	20.324
467.54	19.241
467.89	20.284
468.24	20.665
468.59	19.613
468.94	20.386
469.29	19.168
469.64	20.418
469.99	20.932
470.34	20.307
470.68	19.840
471.03	20.028
471.38	20.208
471.73	20.769
472.08	19.277
472.43	20.142
472.78	19.733
473.13	19.682
473.48	20.166
473.83	19.789
474.17	20.510
474.52	21.547
474.87	21.212
475.22	20.413
475.57	19.500
475.92	21.112
476.27	20.171
476.61	19.549
476.96	20.067
477.31	19.752
477.66	20.199
478.01	20.854
478.36	20.587
478.70	20.609
479.05	21.633
479.40	20.725
479.75	20.693
480.10	20.585
480.45	20.068
480.79	20.089
481.14	20.622
481.49	20.281
481.84	20.666
482.19	20.238
482.53	21.023
482.88	19.791
483.23	20.563
483.58	21.924
483.92	20.545
484.27	20.957
484.62	20.518
484.97	20.538
485.31	20.288
485.66	19.739
486.01	19.577
486.36	20.344
486.70	20.583
487.05	20.384
487.40	20.486
487.75	20.185
488.09	20.012
488.44	20.704
488.79	20.269
489.13	21.111
489.48	21.166
489.83	20.830
490.17	20.157
490.52	21.558
490.87	20.508
491.22	21.205
491.56	20.185
491.91	20.897
492.26	21.368
492.60	20.076
492.95	20.990
493.30	21.343
493.64	20.780
493.99	20.650
494.34	21.714
494.68	22.191
495.03	21.033
495.37	21.141
495.72	21.267
496.07	21.539
496.41	21.955
496.76	21.279
497.11	21.526
497.45	21.887
497.80	20.960
498.14	21.464
498.49	21.195
498.84	20.388
499.18	21.442
499.53	21.286
499.87	20.512
500.22	21.422
500.56	21.561
500.91	21.429
501.26	21.834
501.60	21.281
501.95	21.498
502.29	21.634
502.64	21.829
502.98	21.322
503.33	21.241
503.67	21.408
504.02	21.342
504.36	21.275
504.71	20.922
505.06	20.869
505.40	21.607
505.75	21.037
506.09	21.537
506.44	21.504
506.78	21.877
507.13	21.730
507.47	21.805
507.82	20.909
508.16	21.244
508.51	20.762
508.85	20.963
509.19	21.664
509.54	21.300
509.88	21.915
510.23	21.855
510.57	22.381
510.92	22.234
511.26	21.797
511.61	21.112
511.95	21.767
512.30	21.165
512.64	21.258
512.98	22.057
513.33	21.307
513.67	21.943
514.02	21.644
514.36	21.828
514.70	21.902
515.05	22.070
515.39	21.280
515.74	22.629
516.08	21.441
516.42	22.210
516.77	21.953
517.11	22.254
517.46	22.608
517.80	22.864
518.14	21.618
518.49	22.475
518.83	21.602
519.17	22.262
519.52	21.573
519.86	22.162
520.20	23.350
520.55	22.462
520.89	21.227
521.23	21.795
521.58	22.069
521.92	22.039
522.26	21.778
522.61	22.053
522.95	22.399
523.29	22.947
523.64	21.487
523.98	21.961
524.32	21.747
524.66	22.050
525.01	21.066
525.35	22.874
525.69	22.902
526.04	22.977
526.38	22.724
526.72	21.201
527.06	21.810
527.41	22.442
527.75	22.178
528.09	23.097
528.43	23.148
528.78	22.299
529.12	23.111
529.46	22.229
529.80	22.208
530.15	21.829
530.49	21.345
530.83	23.248
531.17	23.098
531.51	21.701
531.86	22.317
532.20	22.537
532.54	22.259
532.88	21.937
533.22	22.861
533.57	22.454
533.91	22.659
534.25	21.433
534.59	21.924
534.93	21.655
535.27	22.215
535.62	21.483
535.96	21.849
536.30	21.990
536.64	23.174
536.98	22.387
537.32	22.875
537.66	22.267
538.01	21.993
538.35	23.311
538.69	21.324
539.03	22.817
539.37	22.821
539.71	22.348
540.05	21.933
540.39	23.061
540.73	23.359
541.07	22.473
541.42	22.012
541.76	21.661
542.10	22.687
542.44	22.185
542.78	22.863
543.12	21.792
543.46	21.849
543.80	22.140
544.14	22.028
544.48	22.507
544.82	21.380
545.16	23.005
545.50	22.005
545.84	22.392
546.18	21.914
546.52	22.333
546.86	23.006
547.20	23.558
547.54	22.039
547.88	21.831
548.22	21.691
548.56	21.042
548.90	22.776
549.24	21.654
549.58	22.159
549.92	22.403
550.26	23.266
550.60	22.404
550.94	22.993
551.28	21.896
551.62	22.452
551.96	21.635
552.30	22.369
552.64	22.590
552.98	23.966
553.32	22.294
553.66	22.927
554.00	23.596
554.34	22.094
554.68	21.930
555.02	22.721
555.36	22.286
555.69	21.920
556.03	22.105
556.37	21.622
556.71	22.405
557.05	23.577
557.39	22.272
557.73	22.101
558.07	22.833
558.41	22.364
558.75	23.574
559.08	22.023
559.42	22.129
559.76	23.006
560.10	23.043
560.44	23.194
560.78	22.965
561.12	22.705
561.45	21.918
561.79	22.718
562.13	22.090
562.47	21.989
562.81	22.065
563.15	22.813
563.48	22.253
563.82	23.124
564.16	22.583
564.50	21.573
564.84	22.222
565.17	21.950
565.51	22.947
565.85	22.853
566.19	23.452
566.52	22.701
566.86	21.302
567.20	21.610
567.54	22.800
567.88	21.887
568.21	22.763
568.55	21.315
568.89	20.626
569.23	21.703
569.56	21.269
569.90	21.479
570.24	22.322
570.57	20.527
570.91	21.489
571.25	21.304
571.59	21.855
571.92	20.952
572.26	21.210
572.60	21.036
572.93	20.749
573.27	20.396
573.61	20.505
573.95	20.836
574.28	20.430
574.62	21.327
574.96	20.738
575.29	20.376
575.63	20.865
575.97	20.361
576.30	20.444
576.64	21.044
576.98	20.428
577.31	20.715
577.65	20.711
577.98	20.531
578.32	20.438
578.66	20.539
578.99	20.683
579.33	20.874
579.67	20.543
580.00	19.965
580.34	20.793
580.67	20.887
581.01	20.384
581.35	19.987
581.68	20.115
582.02	20.140
582.35	20.359
582.69	20.527
583.02	20.623
583.36	20.567
583.70	20.456
584.03	21.390
584.37	20.920
584.70	20.936
585.04	20.430
585.37	19.952
585.71	20.537
586.04	20.466
586.38	19.888
586.72	20.321
587.05	20.447
587.39	20.486
587.72	20.945
588.06	20.825
588.39	20.194
588.73	20.851
589.06	21.164
589.40	21.436
589.73	21.105
590.07	20.320
590.40	20.701
590.73	20.672
591.07	20.697
591.40	21.620
591.74	21.025
592.07	20.856
592.41	20.722
592.74	21.099
593.08	21.112
593.41	20.362
593.75	20.442
594.08	21.100
594.41	21.146
594.75	21.404
595.08	21.429
595.42	21.604
595.75	20.838
596.09	21.187
596.42	22.013
596.75	20.699
597.09	21.817
597.42	21.257
597.75	21.213
598.09	21.103
598.42	21.122
598.76	20.723
599.09	20.837
599.42	20.338
599.76	20.687
600.09	21.336
600.42	21.610
600.76	21.092
601.09	21.193
601.42	21.250
601.76	21.223
602.09	21.022
602.42	20.947
602.76	20.897
603.09	20.887
603.42	20.790
603.76	21.021
604.09	21.185
604.42	20.774
604.76	20.759
605.09	21.383
605.42	20.878
605.75	20.957
606.09	20.340
606.42	20.151
606.75	20.824
607.09	21.173
607.42	20.599
607.75	20.883
608.08	21.464
608.42	21.476
608.75	20.748
609.08	21.042
609.41	21.176
609.75	20.965
610.08	21.569
610.41	21.205
610.74	21.615
611.07	22.414
611.41	20.171
611.74	21.799
612.07	22.180
612.40	21.375
612.73	21.002
613.07	20.969
613.40	21.401
613.73	22.507
614.06	21.032
614.39	22.097
614.72	20.670
615.06	20.707
615.39	20.239
615.72	21.510
616.05	21.204
616.38	20.778
616.71	20.541
617.05	21.291
617.38	21.238
617.71	20.332
618.04	21.366
618.37	21.006
618.70	21.969
619.03	20.244
619.36	22.763
619.69	23.403
620.03	20.868
620.36	21.238
620.69	22.111
621.02	21.842
621.35	22.903
621.68	22.213
622.01	22.573
622.34	22.826
622.67	21.094
623.00	21.270
623.33	22.164
623.66	20.753
623.99	21.805
624.32	21.354
624.65	21.854
624.99	21.583
625.32	21.557
625.65	22.378
625.98	21.049
626.31	22.594
626.64	23.598
626.97	22.260
627.30	22.638
627.63	20.380
627.96	21.932
628.29	21.875
628.62	22.541
628.95	23.031
629.28	22.556
629.61	22.375
629.94	23.157
630.26	22.465
630.59	22.814
630.92	21.421
631.25	22.278
631.58	23.386
631.91	21.489
632.24	22.000
632.57	23.333
632.90	22.529
633.23	23.715
633.56	22.573
633.89	23.585
634.22	21.488
634.55	24.519
634.88	22.854
635.20	21.973
635.53	24.046
635.86	22.166
636.19	22.955
636.52	21.864
636.85	21.901
637.18	22.125
637.51	24.287
637.83	21.838
638.16	21.711
638.49	24.690
638.82	20.592
639.15	23.217
639.48	21.012
639.81	24.066
640.13	23.514
640.46	24.359
640.79	22.829
641.12	22.708
641.45	24.534
641.77	22.754
642.10	20.997
642.43	23.217
642.76	22.205
643.09	22.698
643.41	23.968
643.74	24.801
644.07	23.401
644.40	20.583
644.73	21.617
645.05	21.035
645.38	23.841
645.71	26.289
646.04	23.193
646.36	23.037
646.69	23.356
647.02	23.646
647.35	21.480
647.67	23.905
648.00	25.835
648.33	25.295
648.66	23.548
648.98	22.930
649.31	25.231
649.64	22.812
649.96	22.292
650.29	23.115
650.62	23.408
650.94	23.777
651.27	23.917
651.60	25.260
651.92	25.342
652.25	22.705
652.58	21.295
652.90	20.867
653.23	22.581
653.56	21.237
653.88	23.279
654.21	24.832
654.54	22.757
654.86	24.398
655.19	22.636
655.52	21.240
655.84	19.501
656.17	20.939
656.49	28.545
656.82	29.190
657.15	22.231
657.47	16.343
657.80	12.578
658.13	14.461
658.45	19.672
658.78	19.592
659.10	19.776
659.43	19.565
659.75	20.220
660.08	19.948
660.41	20.599
660.73	21.672
661.06	23.623
661.38	23.214
661.71	22.753
662.03	24.194
662.36	24.307
662.68	22.574
663.01	23.142
663.33	24.490
663.66	22.103
663.98	21.875
664.31	22.819
664.63	27.655
664.96	21.041
665.28	23.210
665.61	19.662
665.93	22.222
666.26	22.267
666.58	25.156
666.91	22.494
667.23	24.342
667.56	21.542
667.88	25.566
668.21	20.737
668.53	25.467
668.86	24.480
669.18	21.461
669.50	21.028
669.83	20.925
670.15	24.664
670.48	21.963
670.80	23.690
671.13	20.542
671.45	22.523
671.77	23.340
672.10	23.077
672.42	21.402
672.75	22.000
673.07	20.541
673.39	22.769
673.72	25.000
674.04	22.293
674.37	21.649
674.69	25.000
675.01	20.000
675.34	23.210
675.66	22.462
675.98	22.026
676.31	26.471
676.63	21.609
676.95	22.566
677.28	22.274
677.60	25.113
677.92	24.670
678.25	23.414
678.57	23.251
678.89	20.755
679.22	24.319
679.54	24.852
679.86	21.800
680.18	22.053
680.51	19.739
680.83	22.667
681.15	19.846
681.48	23.327
681.80	19.960
682.12	19.115
682.44	20.432
682.77	18.615
683.09	20.335
683.41	21.903
683.73	19.635
684.06	18.925
684.38	22.176
684.70	20.988
685.02	20.866
685.34	21.053
685.67	18.561
685.99	19.471
686.31	21.005
686.63	19.858
686.96	19.778
687.28	21.002
687.60	18.750
687.92	18.288
688.24	18.307
688.56	21.443
688.89	21.795
689.21	22.757
689.53	22.529
689.85	24.499
690.17	21.973
690.49	21.247
690.82	20.241
691.14	21.698
691.46	21.508
691.78	22.467
692.10	22.458
692.42	21.111
692.74	20.815
693.06	22.022
693.39	21.477
693.71	20.993
694.03	24.190
694.35	18.962
694.67	18.676
694.99	20.716
695.31	19.643
695.63	20.408
695.95	21.340
696.27	21.945
696.59	22.995
696.91	20.787
697.23	19.792
697.56	19.231
697.88	18.243
698.20	18.630
698.52	19.058
698.84	22.816
699.16	18.333
699.48	18.500
699.80	18.797
700.12	22.418
700.44	19.832
700.76	18.950
701.08	20.349
701.40	15.408
701.72	22.531
702.04	21.474
702.36	24.096
702.68	14.671
703.00	21.159
703.32	16.905
703.64	20.294
703.96	21.512
704.28	19.527
704.60	20.253
704.91	19.683
705.23	23.301
705.55	18.581
705.87	20.137
706.19	19.792
706.51	22.917
706.83	20.656
707.15	20.701
707.47	19.559
707.79	19.588
708.11	16.539
708.43	20.698
708.74	14.545
709.06	18.663
709.38	19.253
709.70	21.562
710.02	21.472
710.34	18.812
710.66	20.952
710.98	23.659
711.29	16.129
711.61	19.808
711.93	20.000
712.25	21.595
712.57	20.906
712.89	22.302
713.20	20.275
713.52	13.806
713.84	19.929
714.16	20.328
714.48	20.317
714.80	21.231
715.11	21.614
715.43	19.578
715.75	23.676
716.07	17.377
716.39	20.067
716.70	20.209
717.02	18.519
717.34	19.847
717.66	23.237
717.97	14.754
718.29	17.227
718.61	19.841
718.93	17.563
719.24	14.706
719.56	16.981
719.88	24.000
720.20	18.727
720.51	23.684
720.83	18.072
721.15	18.033
721.46	18.824
721.78	21.073
722.10	21.600
722.42	17.355
722.73	17.928
723.05	16.867
723.37	20.392
723.68	21.457
724.00	23.577
724.32	21.811
724.63	17.842
724.95	20.661
725.27	17.982
725.58	14.224
725.90	17.460
726.22	18.450
726.53	16.350
726.85	15.686
727.16	20.677
727.48	16.538
727.80	12.295
728.11	15.546
728.43	21.488
728.74	17.578
729.06	20.833
729.38	15.564
729.69	14.567
730.01	18.110
730.32	17.928
730.64	19.780
730.96	20.896
731.27	17.857
731.59	17.685
731.90	16.258
732.22	16.871
732.53	20.861
732.85	16.779
733.16	20.290
733.48	15.331
733.80	11.744
734.11	16.552
734.43	18.707
734.74	19.585
735.06	19.122
735.37	21.101
735.69	13.871
736.00	16.498
736.32	17.219
736.63	14.138
736.95	17.029
737.26	19.205
737.58	14.388
737.89	18.280
738.21	17.669
738.52	17.692
738.83	19.141
739.15	16.667
739.46	23.790
739.78	17.483
740.09	13.287
740.41	15.734
740.72	20.803
741.04	12.302
741.35	15.152
741.66	12.500
741.98	13.333
742.29	18.310
742.61	20.321
742.92	21.963
743.23	16.667
743.55	14.865
743.86	20.444
744.18	12.381
744.49	20.690
744.80	13.706
745.12	12.371
745.43	17.588
745.74	18.932
746.06	19.512
746.37	19.383
746.68	19.403
747.00	13.089
747.31	17.308
747.62	16.590
747.94	18.341
748.25	17.209
748.56	17.619
748.88	10.326
749.19	20.657
749.50	21.078
749.82	20.889
750.13	19.383
750.44	13.821
750.75	14.400
751.07	21.786
751.38	14.760
751.69	14.504
752.01	16.538
752.32	15.564
752.63	13.846
752.94	20.238
753.26	18.261
753.57	20.982
753.88	13.793
754.19	14.108
754.51	14.844
754.82	17.787
755.13	13.992
755.44	16.116
755.75	19.342
756.07	14.859
756.38	16.797
756.69	17.690
757.00	16.725
757.31	13.087
757.63	16.199
757.94	16.474
758.25	14.244
758.56	17.251
758.87	13.352
759.18	11.667
759.50	21.708
759.81	15.693
760.12	12.838
760.43	16.505
760.74	18.437
761.05	17.135
761.36	16.766
761.67	15.976
761.99	13.548
762.30	17.391
762.61	13.962
762.92	17.489
763.23	18.483
763.54	15.556
763.85	18.143
764.16	20.408
764.47	17.373
764.78	17.228
765.10	21.583
765.41	14.516
765.72	18.239
766.03	12.721
766.34	16.165
766.65	13.360
766.96	12.500
767.27	16.667
767.58	16.279
767.89	16.129
768.20	15.337
768.51	14.208
768.82	19.459
769.13	12.000
769.44	12.719
769.75	13.420
770.06	18.349
770.37	14.085
770.68	15.625
770.99	17.822
771.30	14.078
771.61	17.130
771.92	14.286
772.23	10.748
772.54	15.426
772.85	15.385
773.16	20.732
773.47	10.843
773.78	20.879
774.09	8.667
774.39	19.136
774.70	6.040
775.01	8.696
775.32	9.701
775.63	7.438
775.94	19.549
776.25	17.857
776.56	24.590
776.87	14.159
777.18	12.389
777.48	5.455
777.79	0.000
778.10	10.092
778.41	5.085
778.72	14.050
779.03	22.388
779.34	12.782
779.65	14.379
779.95	11.594
780.26	4.082
780.57	8.621
780.88	14.815
781.19	7.071
781.50	6.400
781.80	15.686
782.11	12.821
782.42	15.060
782.73	6.569
783.04	10.135
783.34	12.121
783.65	6.977
783.96	20.325
784.27	5.128
784.57	19.512
784.88	8.130
785.19	14.912
785.50	-12.371
785.81	9.524
786.11	-3.922
786.42	3.636
786.73	10.811
787.04	9.901
787.34	7.619
787.65	14.286
787.96	5.882
788.26	15.315
788.57	14.516
788.88	7.031
789.19	7.692
789.49	8.403
789.80	5.128
790.11	6.195
790.41	10.101
790.72	27.358
791.03	-2.778
791.33	10.526
791.64	9.677
791.95	8.000
792.25	-2.857
792.56	9.756
792.87	13.265
793.17	-3.947
793.48	-2.703
793.79	-19.718
794.09	1.266
794.40	11.702
794.70	14.019
795.01	-11.404
795.32	4.545
795.62	4.464
795.93	-1.031
796.23	0.000
796.54	9.474
796.85	0.000
797.15	-13.889
797.46	5.479
797.76	5.634
798.07	16.250
798.37	5.882
798.68	0.000
798.99	8.571
799.29	6.579
799.60	8.333
799.90	-2.778
800.21	0.000
800.51	3.175
800.82	8.197
801.12	-7.018
801.43	18.310
801.73	-10.169
802.04	14.754
802.34	-18.182
802.65	-7.692
802.95	25.926
803.26	-15.000
803.56	3.846
803.87	-15.789
804.17	20.968
804.48	7.692
804.78	-46.154
805.09	-11.628
805.39	-46.875
805.70	-32.075
806.00	17.544
806.30	16.216
806.61	7.353
806.91	-7.407
807.22	17.333
807.52	11.940
807.83	-9.677
808.13	7.937
808.43	0.000
808.74	4.545
809.04	9.434
809.35	0.000
809.65	15.789
809.95	1.471
810.26	1.961
810.56	-20.000
810.86	-4.082
811.17	-42.857
811.47	-19.231
811.77	9.677
812.08	-34.211
812.38	-2.381
812.69	-26.087
812.99	-9.677
813.29	-2.381
813.59	-66.667
813.90	-23.404
814.20	-18.605
814.50	-10.417
814.81	13.333
815.11	-2.439
815.41	-20.000
815.72	5.714
816.02	-27.778
816.32	15.385
816.62	13.514
816.93	-29.412
817.23	-17.391
817.53	-14.706
817.84	5.882
818.14	-15.625
818.44	-6.897
818.74	-45.161
819.04	-7.407
819.35	-16.667
819.65	0.000
819.95	-30.000
820.25	8.000
820.56	-28.947
820.86	-17.500
821.16	29.787
821.46	15.517
821.76	-33.333
822.07	-50.000
822.37	-32.558
822.67	3.333
822.97	-13.514
823.27	-16.216
823.57	-4.000
823.88	-2.703
824.18	-47.619
824.48	-50.000
824.78	-100.000
825.08	-47.826
825.38	-33.333
825.69	-12.500
825.99	-20.000
826.29	-37.838
826.59	-17.647
826.89	12.000
827.19	-34.286
827.49	5.263
827.79	-28.125
828.09	-13.333
828.39	-8.696
828.70	-37.931
829.00	-20.690
829.30	2.778
829.60	21.875
829.90	-94.444
830.20	-30.769
830.50	-100.000
830.80	-25.000
831.10	-23.077
831.40	-52.381
831.70	11.765
832.00	-25.000
832.30	-52.632
832.60	-100.000
832.90	-58.333
833.20	-70.588
833.50	-100.000
833.80	-100.000
834.10	-40.000
834.40	-25.000
834.70	-44.444
835.00	-7.692
835.30	-75.000
835.60	0.000
835.90	-77.778
836.20	-163.636
836.50	-66.667
836.80	-11.429
837.10	31.429
837.40	17.647
837.70	-236.364
838.00	-12.500
838.30	-37.500
838.60	-42.857
838.90	-5.000
839.19	-8.696
839.49	-8.696
839.79	-127.778
840.09	-65.217
840.39	-18.182
840.69	-37.500
840.99	42.105
841.29	-93.750
841.59	-50.000
841.88	-94.444
842.18	-33.333
842.48	-58.824
842.78	-17.241
843.08	0.000
843.38	-84.615
843.68	-155.556
843.97	-53.846
844.27	-54.545
844.57	-200.000
844.87	4.000
845.17	-120.000
845.47	-57.143
845.76	-44.444
846.06	0.000
846.36	-700.000
846.66	-120.000
846.96	-26.316
847.25	-37.500
847.55	-33.333
847.85	-66.667
848.15	-130.000
848.44	30.769
848.74	-5.263
849.04	600.000
849.34	-111.111
849.63	-105.263
849.93	0.000
850.23	-75.000
850.53	0.000
850.82	-20.000
851.12	-31.579
851.42	-650.000
851.71	-71.429
852.01	-158.333
852.31	-35.294
852.61	-13.333
852.90	-38.095
853.20	-283.333
853.50	-27.778
853.79	-68.421
854.09	-106.667
854.39	-25.000
854.68	-34.783
854.98	-191.667
855.28	-37.931
855.57	-87.500
855.87	-40.000
856.17	-40.000
856.46	-17.241
856.76	-93.333
857.05	-94.118
857.35	-100.000
857.65	-81.818
857.94	-51.852
858.24	-71.429
858.53	-85.714
858.83	-141.667
859.13	-155.556
859.42	-33.333
859.72	-137.500
860.01	-466.667
860.31	-187.500
860.60	-380.000
860.90	-66.667
861.20	-100.000
861.49	-114.286
861.79	5.882
862.08	-850.000
862.38	-108.333
862.67	-138.462
862.97	-52.941
863.26	-15.000
863.56	0.000
863.85	533.333
864.15	-160.000
864.44	-107.692
864.74	-15.000
865.03	-262.500
865.33	-100.000
865.62	-64.706
865.92	-375.000
866.21	-150.000
866.51	-66.667
866.80	-1700.000
867.10	-566.667
867.39	-41.176
867.69	8.696
867.98	-214.286
868.27	-280.000
868.57	-75.000
868.86	-118.182
869.16	17.647
869.45	-100.000
869.75	-228.571
870.04	600.000
870.33	-50.000
870.63	-200.000
870.92	-88.889
871.22	-100.000
871.51	-72.727
871.80	-33.333
872.10	-40.000
>>>>>End Processed Spectral Data<<<<<
