SpectraSuite Data File
++++++++++++++++++++++++++++++++++++
Date: Sat May 16 11:44:47 PDT 2015
User: schluterlab
Dark Spectrum Present: Yes
Reference Spectrum Present: Yes
Number of Sampled Component Spectra: 1
Spectrometers: USB2E3373
Integration Time (usec): 3000 (USB2E3373)
Spectra Averaged: 3 (USB2E3373)
Boxcar Smoothing: 0 (USB2E3373)
Correct for Electrical Dark: No (USB2E3373)
Strobe/Lamp Enabled: No (USB2E3373)
Correct for Detector Non-linearity: No (USB2E3373)
Correct for Stray Light: No (USB2E3373)
Number of Pixels in Processed Spectrum: 2048
>>>>>Begin Processed Spectral Data<<<<<
178.53	0.000
178.91	146.667
179.29	600.000
179.67	-800.000
180.04	-46.154
180.42	900.000
180.80	325.000
181.18	700.000
181.56	-150.000
181.94	1900.000
182.31	325.000
182.69	-53.846
183.07	-466.667
183.45	1350.000
183.83	300.000
184.20	-114.286
184.58	-150.000
184.96	-425.000
185.34	175.000
185.72	-300.000
186.09	233.333
186.47	-187.500
186.85	-200.000
187.23	-100.000
187.61	25.000
187.98	-187.500
188.36	-62.500
188.74	-150.000
189.12	1200.000
189.49	242.857
189.87	-50.000
190.25	225.000
190.63	-100.000
191.00	-188.889
191.38	420.000
191.76	0.000
192.14	560.000
192.51	-60.000
192.89	-466.667
193.27	0.000
193.65	-133.333
194.02	-271.429
194.40	533.333
194.78	-180.000
195.15	-1200.000
195.53	-72.727
195.91	-516.667
196.29	280.000
196.66	-366.667
197.04	1800.000
197.42	-100.000
197.79	-6.667
198.17	-266.667
198.55	100.000
198.92	-1600.000
199.30	375.000
199.68	-350.000
200.05	-111.111
200.43	-66.667
200.81	-1000.000
201.18	-16.667
201.56	200.000
201.94	-53.333
202.31	40.909
202.69	-10.000
203.07	-90.000
203.44	533.333
203.82	-283.333
204.19	-75.000
204.57	-450.000
204.95	-600.000
205.32	68.750
205.70	1200.000
206.08	-1700.000
206.45	-66.667
206.83	-650.000
207.20	-100.000
207.58	-466.667
207.96	-400.000
208.33	-225.000
208.71	-166.667
209.08	250.000
209.46	-157.143
209.84	750.000
210.21	0.000
210.59	-30.000
210.96	2000.000
211.34	-250.000
211.71	-33.333
212.09	200.000
212.46	1100.000
212.84	-2200.000
213.22	333.333
213.59	83.333
213.97	0.000
214.34	90.000
214.72	-100.000
215.09	-100.000
215.47	-150.000
215.84	-30.000
216.22	-90.000
216.59	20.000
216.97	-225.000
217.34	950.000
217.72	-142.857
218.09	-350.000
218.47	-214.286
218.84	71.429
219.22	-71.429
219.59	0.000
219.97	157.143
220.34	450.000
220.72	-12.500
221.09	-69.231
221.47	0.000
221.84	200.000
222.22	-650.000
222.59	600.000
222.97	-387.500
223.34	-850.000
223.72	-300.000
224.09	-85.714
224.46	-300.000
224.84	-78.571
225.21	-185.714
225.59	-36.364
225.96	-237.500
226.34	-185.714
226.71	-122.222
227.08	15.000
227.46	1500.000
227.83	-128.571
228.21	-225.000
228.58	1050.000
228.95	-25.000
229.33	-1500.000
229.70	-140.000
230.08	-900.000
230.45	-50.000
230.82	-83.333
231.20	-900.000
231.57	100.000
231.95	1000.000
232.32	42.857
232.69	-177.778
233.07	-57.143
233.44	-650.000
233.81	-46.667
234.19	-55.556
234.56	-93.750
234.93	6.250
235.31	-142.857
235.68	-100.000
236.05	-100.000
236.43	-50.000
236.80	-6.452
237.17	-8.333
237.55	-23.810
237.92	-22.727
238.29	5.714
238.67	17.647
239.04	-16.667
239.41	-16.129
239.79	-12.821
240.16	-14.286
240.53	-5.455
240.91	10.256
241.28	18.182
241.65	21.538
242.02	31.148
242.40	26.230
242.77	33.333
243.14	23.729
243.51	25.714
243.89	26.582
244.26	14.607
244.63	20.000
245.00	17.895
245.38	27.119
245.75	26.549
246.12	23.200
246.49	29.921
246.87	19.512
247.24	23.729
247.61	20.339
247.98	23.944
248.36	23.776
248.73	26.582
249.10	14.650
249.47	22.222
249.84	29.545
250.22	23.214
250.59	22.034
250.96	24.607
251.33	25.592
251.70	25.962
252.08	26.066
252.45	25.592
252.82	23.810
253.19	27.234
253.56	29.435
253.94	25.738
254.31	29.185
254.68	32.114
255.05	25.000
255.42	34.524
255.79	24.014
256.16	32.941
256.54	27.941
256.91	26.136
257.28	24.542
257.65	23.404
258.02	29.245
258.39	30.769
258.76	26.689
259.14	27.778
259.51	27.541
259.88	28.354
260.25	32.298
260.62	30.225
260.99	27.596
261.36	27.744
261.73	29.480
262.10	31.111
262.47	25.641
262.85	30.571
263.22	27.794
263.59	24.615
263.96	29.565
264.33	28.184
264.70	28.453
265.07	27.198
265.44	26.357
265.81	28.682
266.18	27.342
266.55	28.676
266.92	29.471
267.29	30.024
267.66	27.160
268.03	29.952
268.40	30.751
268.77	30.602
269.14	27.378
269.51	27.126
269.88	25.229
270.25	23.077
270.62	26.773
270.99	26.577
271.36	27.972
271.73	26.457
272.10	29.062
272.47	24.222
272.84	30.667
273.21	26.606
273.58	27.473
273.95	27.193
274.32	29.638
274.69	30.197
275.06	28.834
275.43	27.679
275.80	27.291
276.17	27.197
276.54	28.921
276.91	27.778
277.28	27.992
277.65	26.446
278.02	27.766
278.39	27.898
278.76	31.275
279.13	27.075
279.50	27.435
279.87	27.484
280.23	29.150
280.60	27.634
280.97	27.184
281.34	26.886
281.71	29.038
282.08	29.435
282.45	24.644
282.82	27.907
283.19	26.182
283.56	28.205
283.92	28.269
284.29	29.368
284.66	27.338
285.03	26.916
285.40	27.306
285.77	26.316
286.14	28.339
286.51	27.353
286.87	28.494
287.24	29.863
287.61	26.777
287.98	29.116
288.35	26.942
288.72	25.127
289.08	26.271
289.45	29.461
289.82	25.779
290.19	28.900
290.56	26.116
290.93	24.324
291.29	28.201
291.66	23.349
292.03	29.199
292.40	25.301
292.77	26.087
293.13	25.854
293.50	27.340
293.87	25.613
294.24	25.792
294.60	25.758
294.97	25.493
295.34	26.370
295.71	26.935
296.08	25.192
296.44	23.462
296.81	28.348
297.18	27.183
297.55	26.412
297.91	27.476
298.28	25.890
298.65	25.384
299.02	25.802
299.38	27.807
299.75	26.766
300.12	26.026
300.48	26.215
300.85	25.819
301.22	26.132
301.59	26.918
301.95	28.967
302.32	24.902
302.69	27.540
303.05	25.641
303.42	26.375
303.79	26.675
304.15	26.896
304.52	27.655
304.89	26.328
305.25	26.740
305.62	26.557
305.99	29.093
306.35	27.303
306.72	26.310
307.09	28.036
307.45	28.263
307.82	27.263
308.19	27.740
308.55	27.124
308.92	27.927
309.29	27.135
309.65	27.996
310.02	26.566
310.38	27.243
310.75	28.484
311.12	29.545
311.48	28.706
311.85	28.733
312.22	28.733
312.58	29.095
312.95	29.358
313.31	31.169
313.68	30.050
314.05	31.157
314.41	29.376
314.78	30.669
315.14	30.602
315.51	31.003
315.87	31.655
316.24	31.584
316.61	32.150
316.97	34.030
317.34	32.466
317.70	32.189
318.07	33.769
318.43	33.801
318.80	34.178
319.16	33.865
319.53	34.211
319.89	33.302
320.26	35.490
320.62	35.000
320.99	35.025
321.35	35.271
321.72	36.029
322.08	36.993
322.45	34.950
322.81	36.888
323.18	38.617
323.54	37.985
323.91	38.925
324.27	39.639
324.64	40.219
325.00	39.965
325.37	42.172
325.73	43.045
326.10	42.958
326.46	42.907
326.83	44.851
327.19	44.954
327.56	49.063
327.92	47.409
328.29	47.446
328.65	46.727
329.01	48.233
329.38	50.669
329.74	51.648
330.11	50.408
330.47	52.044
330.84	51.787
331.20	52.256
331.56	53.601
331.93	54.440
332.29	55.890
332.66	54.346
333.02	54.842
333.38	56.272
333.75	56.456
334.11	55.022
334.48	55.693
334.84	56.780
335.20	57.181
335.57	56.498
335.93	57.833
336.29	56.333
336.66	56.211
337.02	58.829
337.38	57.576
337.75	57.507
338.11	59.302
338.47	57.740
338.84	57.895
339.20	57.733
339.56	59.982
339.93	59.700
340.29	57.219
340.65	58.479
341.02	58.853
341.38	57.624
341.74	59.272
342.11	58.020
342.47	60.515
342.83	58.438
343.20	60.120
343.56	57.469
343.92	59.933
344.28	58.621
344.65	58.086
345.01	60.588
345.37	60.216
345.73	58.265
346.10	56.337
346.46	57.595
346.82	58.621
347.19	59.737
347.55	58.668
347.91	56.457
348.27	58.313
348.63	60.501
349.00	58.870
349.36	57.767
349.72	61.545
350.08	59.262
350.45	59.811
350.81	60.430
351.17	60.531
351.53	59.348
351.89	59.418
352.26	59.225
352.62	60.061
352.98	59.256
353.34	58.993
353.70	58.687
354.07	60.268
354.43	60.158
354.79	59.746
355.15	61.102
355.51	60.391
355.87	61.423
356.24	59.889
356.60	61.886
356.96	61.047
357.32	60.966
357.68	60.000
358.04	60.662
358.40	60.170
358.77	59.428
359.13	62.510
359.49	59.562
359.85	61.052
360.21	59.513
360.57	62.349
360.93	62.444
361.29	61.958
361.66	60.518
362.02	61.169
362.38	60.968
362.74	62.344
363.10	59.756
363.46	63.034
363.82	63.338
364.18	62.880
364.54	63.045
364.90	63.103
365.26	62.553
365.62	64.220
365.98	63.229
366.35	62.324
366.71	62.438
367.07	63.162
367.43	62.251
367.79	63.436
368.15	63.229
368.51	62.727
368.87	64.423
369.23	63.930
369.59	63.333
369.95	63.284
370.31	63.713
370.67	64.281
371.03	64.650
371.39	62.871
371.75	64.521
372.11	64.562
372.47	66.161
372.83	65.577
373.19	65.786
373.55	65.658
373.91	65.718
374.27	63.997
374.63	65.286
374.99	66.203
375.35	64.805
375.71	68.332
376.07	66.735
376.42	65.762
376.78	67.386
377.14	66.983
377.50	67.505
377.86	65.540
378.22	67.274
378.58	66.523
378.94	67.386
379.30	66.240
379.66	66.910
380.02	66.726
380.38	67.069
380.74	67.468
381.09	66.432
381.45	67.721
381.81	67.332
382.17	66.792
382.53	67.660
382.89	67.285
383.25	68.694
383.61	66.568
383.97	67.299
384.32	69.086
384.68	68.984
385.04	67.089
385.40	68.290
385.76	69.451
386.12	68.332
386.48	70.606
386.83	69.080
387.19	68.500
387.55	68.988
387.91	68.643
388.27	67.672
388.62	68.750
388.98	69.473
389.34	68.054
389.70	68.331
390.06	67.868
390.42	68.269
390.77	68.265
391.13	69.814
391.49	68.621
391.85	68.080
392.20	67.961
392.56	66.830
392.92	68.397
393.28	68.542
393.64	69.032
393.99	69.600
394.35	69.221
394.71	67.264
395.07	69.240
395.42	68.355
395.78	68.008
396.14	68.785
396.50	68.135
396.85	67.489
397.21	68.773
397.57	69.726
397.92	68.150
398.28	69.111
398.64	67.460
399.00	68.596
399.35	67.587
399.71	67.422
400.07	69.015
400.42	67.153
400.78	67.382
401.14	67.246
401.49	67.512
401.85	68.151
402.21	66.985
402.57	67.415
402.92	67.590
403.28	66.544
403.63	65.368
403.99	66.750
404.35	65.399
404.70	65.243
405.06	65.975
405.42	64.760
405.77	64.989
406.13	65.304
406.49	65.908
406.84	66.707
407.20	66.254
407.55	64.978
407.91	62.435
408.27	65.809
408.62	65.604
408.98	65.252
409.34	64.717
409.69	63.957
410.05	64.463
410.40	64.746
410.76	64.671
411.11	65.337
411.47	63.491
411.83	64.731
412.18	63.861
412.54	63.453
412.89	64.459
413.25	65.053
413.60	63.609
413.96	63.463
414.31	65.015
414.67	64.825
415.03	64.360
415.38	64.997
415.74	65.593
416.09	64.386
416.45	64.352
416.80	65.410
417.16	63.455
417.51	68.024
417.87	67.055
418.22	67.762
418.58	66.752
418.93	66.830
419.29	66.186
419.64	65.892
420.00	68.104
420.35	68.303
420.71	68.908
421.06	66.923
421.42	67.330
421.77	68.621
422.12	70.173
422.48	69.695
422.83	70.103
423.19	70.156
423.54	70.605
423.90	71.776
424.25	70.419
424.61	73.583
424.96	73.610
425.31	73.784
425.67	73.811
426.02	73.838
426.38	75.923
426.73	74.342
427.09	76.042
427.44	75.568
427.79	75.349
428.15	75.464
428.50	76.833
428.85	78.237
429.21	77.975
429.56	78.646
429.92	77.154
430.27	78.315
430.62	78.736
430.98	79.665
431.33	78.122
431.68	81.126
432.04	82.429
432.39	81.425
432.74	82.074
433.10	82.893
433.45	82.096
433.80	83.763
434.16	81.730
434.51	85.096
434.86	85.589
435.22	83.575
435.57	85.067
435.92	84.525
436.28	84.807
436.63	83.946
436.98	83.906
437.34	86.415
437.69	85.414
438.04	88.088
438.39	85.860
438.75	85.506
439.10	86.952
439.45	87.326
439.81	86.627
440.16	86.542
440.51	88.235
440.86	87.565
441.22	86.622
441.57	88.053
441.92	88.593
442.27	88.474
442.63	90.129
442.98	89.278
443.33	89.237
443.68	90.099
444.03	90.521
444.39	90.210
444.74	90.639
445.09	90.570
445.44	91.728
445.79	91.688
446.15	90.964
446.50	90.746
446.85	90.354
447.20	91.216
447.55	92.486
447.91	92.925
448.26	92.123
448.61	92.417
448.96	94.398
449.31	93.461
449.66	93.875
450.02	93.241
450.37	93.391
450.72	93.107
451.07	95.475
451.42	92.751
451.77	94.734
452.12	93.623
452.47	92.947
452.83	94.525
453.18	95.825
453.53	94.216
453.88	96.950
454.23	94.740
454.58	97.576
454.93	95.844
455.28	96.558
455.63	98.342
455.98	97.892
456.34	97.395
456.69	96.748
457.04	95.144
457.39	96.352
457.74	96.043
458.09	96.346
458.44	98.557
458.79	96.973
459.14	96.691
459.49	98.579
459.84	96.796
460.19	96.659
460.54	97.641
460.89	97.814
461.24	96.478
461.59	97.479
461.94	100.127
462.29	96.903
462.64	100.066
462.99	100.402
463.34	97.367
463.69	100.064
464.04	97.657
464.39	98.327
464.74	97.577
465.09	96.993
465.44	99.098
465.79	97.970
466.14	99.194
466.49	98.561
466.84	98.980
467.19	100.249
467.54	98.671
467.89	100.986
468.24	98.634
468.59	98.751
468.94	101.929
469.29	100.910
469.64	100.876
469.99	102.768
470.34	101.269
470.68	100.945
471.03	102.546
471.38	103.958
471.73	104.545
472.08	103.079
472.43	101.673
472.78	102.400
473.13	100.464
473.48	100.957
473.83	101.427
474.17	102.739
474.52	104.220
474.87	101.049
475.22	102.478
475.57	101.833
475.92	102.754
476.27	101.371
476.61	101.746
476.96	102.571
477.31	103.606
477.66	101.937
478.01	103.025
478.36	100.471
478.70	104.805
479.05	101.839
479.40	102.332
479.75	102.396
480.10	101.736
480.45	100.580
480.79	103.998
481.14	104.215
481.49	104.308
481.84	102.219
482.19	102.741
482.53	104.119
482.88	102.278
483.23	101.502
483.58	104.163
483.92	104.778
484.27	101.949
484.62	101.987
484.97	100.857
485.31	98.240
485.66	94.429
486.01	95.643
486.36	98.160
486.70	100.534
487.05	99.173
487.40	98.932
487.75	99.354
488.09	99.475
488.44	100.271
488.79	99.894
489.13	101.598
489.48	103.181
489.83	103.188
490.17	103.178
490.52	105.072
490.87	104.296
491.22	103.550
491.56	104.306
491.91	105.010
492.26	104.953
492.60	104.948
492.95	104.664
493.30	102.859
493.64	102.257
493.99	106.166
494.34	104.524
494.68	105.243
495.03	104.924
495.37	107.915
495.72	105.403
496.07	104.740
496.41	105.373
496.76	105.160
497.11	104.946
497.45	106.322
497.80	106.453
498.14	105.255
498.49	108.137
498.84	103.544
499.18	103.947
499.53	105.796
499.87	107.046
500.22	106.569
500.56	107.504
500.91	105.911
501.26	104.852
501.60	106.259
501.95	107.198
502.29	102.598
502.64	105.705
502.98	106.037
503.33	104.934
503.67	104.406
504.02	105.649
504.36	106.961
504.71	107.396
505.06	105.442
505.40	106.088
505.75	106.606
506.09	108.038
506.44	106.767
506.78	106.774
507.13	106.952
507.47	108.033
507.82	106.608
508.16	108.497
508.51	106.440
508.85	107.919
509.19	108.268
509.54	109.091
509.88	108.457
510.23	107.600
510.57	108.360
510.92	109.076
511.26	108.240
511.61	108.045
511.95	107.435
512.30	108.356
512.64	108.180
512.98	109.131
513.33	108.457
513.67	110.385
514.02	109.899
514.36	108.920
514.70	108.772
515.05	110.234
515.39	109.458
515.74	110.588
516.08	110.202
516.42	109.235
516.77	111.554
517.11	111.041
517.46	111.603
517.80	112.696
518.14	112.077
518.49	111.476
518.83	110.386
519.17	109.591
519.52	109.890
519.86	111.410
520.20	113.264
520.55	112.308
520.89	112.085
521.23	111.966
521.58	113.229
521.92	112.730
522.26	111.429
522.61	112.421
522.95	112.317
523.29	114.107
523.64	110.244
523.98	111.840
524.32	112.508
524.66	109.441
525.01	112.653
525.35	112.307
525.69	111.321
526.04	112.272
526.38	111.649
526.72	111.239
527.06	112.760
527.41	113.135
527.75	110.297
528.09	112.244
528.43	110.820
528.78	108.857
529.12	112.612
529.46	112.113
529.80	110.006
530.15	108.564
530.49	107.827
530.83	111.329
531.17	112.660
531.51	112.056
531.86	110.467
532.20	109.379
532.54	110.294
532.88	109.025
533.22	111.163
533.57	111.097
533.91	105.306
534.25	109.114
534.59	104.809
534.93	108.090
535.27	107.615
535.62	107.992
535.96	107.304
536.30	107.853
536.64	106.707
536.98	111.794
537.32	109.191
537.66	109.708
538.01	109.622
538.35	108.378
538.69	109.492
539.03	109.682
539.37	106.254
539.71	108.806
540.05	109.116
540.39	111.150
540.73	109.675
541.07	109.631
541.42	108.508
541.76	106.113
542.10	109.588
542.44	107.195
542.78	106.784
543.12	108.350
543.46	106.438
543.80	106.622
544.14	107.253
544.48	108.530
544.82	108.525
545.16	108.920
545.50	106.931
545.84	109.597
546.18	106.796
546.52	108.962
546.86	109.900
547.20	108.720
547.54	105.854
547.88	106.038
548.22	106.619
548.56	107.749
548.90	109.232
549.24	109.671
549.58	108.469
549.92	107.562
550.26	111.633
550.60	107.539
550.94	110.000
551.28	111.362
551.62	110.192
551.96	109.624
552.30	107.317
552.64	109.008
552.98	108.690
553.32	109.091
553.66	111.680
554.00	110.377
554.34	110.325
554.68	110.526
555.02	108.611
555.36	108.124
555.69	109.527
556.03	108.982
556.37	110.171
556.71	110.236
557.05	110.421
557.39	110.022
557.73	110.430
558.07	112.660
558.41	109.274
558.75	111.255
559.08	111.751
559.42	111.562
559.76	109.969
560.10	110.589
560.44	110.260
560.78	109.464
561.12	109.179
561.45	110.616
561.79	110.523
562.13	109.677
562.47	108.964
562.81	109.547
563.15	109.097
563.48	107.740
563.82	109.128
564.16	108.790
564.50	110.013
564.84	107.143
565.17	109.615
565.51	108.344
565.85	111.156
566.19	108.564
566.52	107.567
566.86	106.448
567.20	107.324
567.54	108.269
567.88	103.518
568.21	105.257
568.55	106.734
568.89	101.292
569.23	101.203
569.56	99.159
569.90	100.865
570.24	99.775
570.57	97.786
570.91	97.246
571.25	97.211
571.59	97.190
571.92	94.851
572.26	95.267
572.60	95.594
572.93	94.116
573.27	94.604
573.61	94.436
573.95	94.705
574.28	93.967
574.62	93.391
574.96	92.298
575.29	93.115
575.63	93.071
575.97	92.799
576.30	93.478
576.64	92.977
576.98	92.162
577.31	92.348
577.65	93.044
577.98	91.738
578.32	92.275
578.66	92.218
578.99	92.883
579.33	92.891
579.67	91.986
580.00	92.609
580.34	92.490
580.67	92.890
581.01	90.905
581.35	91.584
581.68	91.050
582.02	90.949
582.35	91.634
582.69	93.741
583.02	94.098
583.36	93.684
583.70	93.523
584.03	95.663
584.37	93.559
584.70	94.925
585.04	93.924
585.37	92.554
585.71	93.928
586.04	94.478
586.38	94.146
586.72	95.547
587.05	95.865
587.39	95.903
587.72	95.275
588.06	95.461
588.39	95.956
588.73	97.465
589.06	98.146
589.40	98.076
589.73	96.884
590.07	98.106
590.40	98.266
590.73	101.120
591.07	100.902
591.40	101.733
591.74	100.738
592.07	101.441
592.41	101.911
592.74	99.693
593.08	97.151
593.41	97.862
593.75	98.483
594.08	101.582
594.41	99.889
594.75	99.660
595.08	100.414
595.42	99.458
595.75	100.404
596.09	101.087
596.42	101.309
596.75	101.509
597.09	102.271
597.42	101.091
597.75	102.259
598.09	101.039
598.42	102.033
598.76	101.204
599.09	99.684
599.42	99.616
599.76	99.887
600.09	100.840
600.42	98.595
600.76	100.339
601.09	99.051
601.42	101.068
601.76	99.611
602.09	101.022
602.42	100.535
602.76	100.457
603.09	100.847
603.42	100.766
603.76	101.436
604.09	100.120
604.42	100.250
604.76	100.000
605.09	103.300
605.42	100.842
605.75	101.768
606.09	101.370
606.42	100.000
606.75	100.988
607.09	101.809
607.42	101.585
607.75	101.192
608.08	101.627
608.42	104.021
608.75	100.327
609.08	101.851
609.41	102.441
609.75	101.316
610.08	103.971
610.41	102.602
610.74	103.143
611.07	103.398
611.41	101.362
611.74	101.748
612.07	105.371
612.40	103.252
612.73	101.562
613.07	104.788
613.40	105.419
613.73	106.213
614.06	103.185
614.39	105.750
614.72	102.737
615.06	103.913
615.39	101.682
615.72	104.074
616.05	102.098
616.38	104.759
616.71	105.285
617.05	106.152
617.38	105.820
617.71	106.388
618.04	106.149
618.37	107.484
618.70	108.996
619.03	105.958
619.36	108.668
619.69	107.179
620.03	105.923
620.36	108.368
620.69	109.117
621.02	109.970
621.35	111.774
621.68	109.508
622.01	111.812
622.34	108.696
622.67	109.531
623.00	112.395
623.33	109.254
623.66	108.863
623.99	110.602
624.32	108.259
624.65	108.756
624.99	110.605
625.32	108.757
625.65	109.946
625.98	108.998
626.31	112.969
626.64	112.971
626.97	112.586
627.30	112.596
627.63	112.090
627.96	113.403
628.29	114.246
628.62	112.130
628.95	115.157
629.28	114.850
629.61	116.192
629.94	112.382
630.26	118.091
630.59	117.387
630.92	115.315
631.25	113.306
631.58	115.450
631.91	115.532
632.24	120.111
632.57	118.778
632.90	120.345
633.23	119.626
633.56	118.246
633.89	121.580
634.22	119.126
634.55	121.875
634.88	122.249
635.20	121.099
635.53	122.010
635.86	118.640
636.19	116.850
636.52	117.563
636.85	117.449
637.18	119.750
637.51	120.198
637.83	121.971
638.16	118.289
638.49	124.828
638.82	119.434
639.15	121.271
639.48	118.288
639.81	124.066
640.13	121.622
640.46	124.786
640.79	124.370
641.12	121.298
641.45	122.956
641.77	126.048
642.10	125.378
642.43	120.637
642.76	123.150
643.09	123.810
643.41	125.873
643.74	128.140
644.07	124.961
644.40	124.797
644.73	129.703
645.05	128.047
645.38	126.325
645.71	128.522
646.04	128.403
646.36	130.366
646.69	126.990
647.02	128.520
647.35	130.144
647.67	130.109
648.00	130.404
648.33	124.958
648.66	123.065
648.98	123.885
649.31	123.231
649.64	124.219
649.96	122.920
650.29	123.607
650.62	130.465
650.94	125.295
651.27	128.076
651.60	125.952
651.92	124.315
652.25	124.541
652.58	127.087
652.90	121.830
653.23	121.452
653.56	124.749
653.88	124.098
654.21	126.174
654.54	124.252
654.86	119.904
655.19	119.341
655.52	104.989
655.84	94.088
656.17	97.884
656.49	100.000
656.82	100.000
657.15	100.000
657.47	100.000
657.80	94.460
658.13	67.206
658.45	92.569
658.78	92.319
659.10	91.681
659.43	91.825
659.75	93.509
660.08	94.427
660.41	96.786
660.73	105.501
661.06	119.565
661.38	121.429
661.71	124.092
662.03	130.847
662.36	129.851
662.68	129.536
663.01	135.032
663.33	136.508
663.66	125.966
663.98	131.696
664.31	133.333
664.63	132.743
664.96	129.935
665.28	129.284
665.61	128.330
665.93	126.749
666.26	125.709
666.58	125.780
666.91	132.071
667.23	128.289
667.56	131.519
667.88	128.507
668.21	132.258
668.53	134.112
668.86	130.254
669.18	131.279
669.50	130.140
669.83	136.010
670.15	126.009
670.48	129.907
670.80	131.435
671.13	125.508
671.45	127.928
671.77	128.480
672.10	125.049
672.42	119.926
672.75	124.364
673.07	121.982
673.39	121.676
673.72	124.016
674.04	129.512
674.37	122.474
674.69	130.123
675.01	125.106
675.34	125.597
675.66	124.838
675.98	130.396
676.31	131.222
676.63	132.414
676.95	121.460
677.28	129.930
677.60	124.661
677.92	125.551
678.25	126.258
678.57	123.251
678.89	123.061
679.22	126.415
679.54	122.091
679.86	120.600
680.18	121.103
680.51	117.877
680.83	121.143
681.15	121.387
681.48	125.355
681.80	120.363
682.12	123.541
682.44	118.271
682.77	120.779
683.09	120.964
683.41	125.221
683.73	124.658
684.06	122.796
684.38	121.548
684.70	120.370
685.02	121.850
685.34	118.129
685.67	119.318
685.99	118.147
686.31	116.517
686.63	113.830
686.96	114.233
687.28	116.378
687.60	119.531
687.92	116.537
688.24	120.866
688.56	115.230
688.89	120.726
689.21	119.256
689.53	122.759
689.85	118.708
690.17	125.336
690.49	125.866
690.82	125.301
691.14	123.349
691.46	118.625
691.78	120.925
692.10	119.280
692.42	118.444
692.74	118.884
693.06	122.921
693.39	117.897
693.71	121.219
694.03	118.359
694.35	115.350
694.67	116.312
694.99	120.972
695.31	124.235
695.63	123.214
695.95	122.829
696.27	121.945
696.59	130.214
696.91	130.056
697.23	125.000
697.56	121.875
697.88	118.468
698.20	114.133
698.52	117.489
698.84	117.476
699.16	115.952
699.48	119.750
699.80	117.794
700.12	120.907
700.44	122.626
700.76	128.280
701.08	126.163
701.40	124.471
701.72	128.704
702.04	132.372
702.36	131.325
702.68	128.743
703.00	128.116
703.32	120.630
703.64	124.412
703.96	121.802
704.28	124.556
704.60	124.684
704.91	127.302
705.23	126.861
705.55	129.392
705.87	125.597
706.19	124.306
706.51	125.000
706.83	126.885
707.15	126.115
707.47	122.865
707.79	111.082
708.11	117.557
708.43	117.706
708.74	115.325
709.06	120.891
709.38	120.977
709.70	126.562
710.02	123.313
710.34	124.752
710.66	119.683
710.98	124.290
711.29	122.903
711.61	118.850
711.93	123.607
712.25	126.246
712.57	121.254
712.89	128.777
713.20	123.368
713.52	130.970
713.84	123.843
714.16	124.918
714.48	124.127
714.80	116.000
715.11	112.680
715.43	117.169
715.75	122.741
716.07	122.295
716.39	122.742
716.70	125.436
717.02	126.667
717.34	123.282
717.66	131.950
717.97	126.230
718.29	130.672
718.61	128.571
718.93	116.129
719.24	119.485
719.56	118.113
719.88	114.909
720.20	121.348
720.51	121.805
720.83	127.309
721.15	125.410
721.46	128.235
721.78	120.307
722.10	122.800
722.42	125.620
722.73	122.709
723.05	123.293
723.37	123.137
723.68	110.526
724.00	123.171
724.32	117.284
724.63	120.747
724.95	123.967
725.27	117.105
725.58	124.138
725.90	118.651
726.22	119.926
726.53	125.095
726.85	118.431
727.16	117.669
727.48	113.462
727.80	120.082
728.11	117.227
728.43	122.314
728.74	120.312
729.06	115.909
729.38	120.623
729.69	120.472
730.01	117.717
730.32	116.335
730.64	117.582
730.96	116.791
731.27	117.500
731.59	107.395
731.90	108.282
732.22	104.908
732.53	112.914
732.85	111.745
733.16	121.739
733.48	111.150
733.80	110.676
734.11	113.793
734.43	112.925
734.74	107.122
735.06	114.107
735.37	110.398
735.69	108.710
736.00	109.091
736.32	108.609
736.63	105.517
736.95	114.855
737.26	109.603
737.58	116.547
737.89	116.846
738.21	116.917
738.52	118.077
738.83	110.547
739.15	114.530
739.46	116.129
739.78	105.245
740.09	110.839
740.41	109.441
740.72	113.504
741.04	112.698
741.35	114.719
741.66	111.574
741.98	113.333
742.29	114.554
742.61	126.738
742.92	121.495
743.23	111.842
743.55	113.063
743.86	111.556
744.18	120.476
744.49	118.719
744.80	126.904
745.12	130.928
745.43	127.638
745.74	125.728
746.06	115.610
746.37	107.489
746.68	124.876
747.00	125.654
747.31	114.423
747.62	116.129
747.94	113.537
748.25	116.744
748.56	118.571
748.88	119.022
749.19	113.146
749.50	125.490
749.82	118.667
750.13	122.026
750.44	118.699
750.75	119.200
751.07	107.857
751.38	107.749
751.69	110.305
752.01	111.154
752.32	109.339
752.63	110.000
752.94	112.302
753.26	116.522
753.57	120.982
753.88	116.379
754.19	111.203
754.51	108.984
754.82	114.229
755.13	111.934
755.44	112.810
755.75	112.757
756.07	112.048
756.38	108.203
756.69	109.747
757.00	109.408
757.31	107.718
757.63	107.788
757.94	104.046
758.25	101.163
758.56	106.199
758.87	105.682
759.18	107.333
759.50	105.338
759.81	106.934
760.12	107.770
760.43	113.269
760.74	108.750
761.05	102.247
761.36	103.593
761.67	105.325
761.99	99.677
762.30	109.783
762.61	104.151
762.92	118.386
763.23	118.957
763.54	110.667
763.85	103.376
764.16	107.347
764.47	111.864
764.78	101.498
765.10	110.791
765.41	100.645
765.72	100.314
766.03	103.887
766.34	106.015
766.65	104.049
766.96	113.500
767.27	116.667
767.58	119.186
767.89	116.774
768.20	122.086
768.51	111.475
768.82	121.622
769.13	104.500
769.44	107.456
769.75	104.329
770.06	115.596
770.37	106.573
770.68	114.583
770.99	111.386
771.30	116.019
771.61	112.500
771.92	100.866
772.23	110.280
772.54	111.170
772.85	109.467
773.16	108.537
773.47	116.867
773.78	103.846
774.09	117.333
774.39	100.617
774.70	116.107
775.01	108.696
775.32	111.194
775.63	118.182
775.94	113.534
776.25	110.000
776.56	117.213
776.87	128.319
777.18	115.929
777.48	115.455
777.79	110.435
778.10	113.761
778.41	111.017
778.72	110.744
779.03	111.194
779.34	118.045
779.65	105.229
779.95	115.942
780.26	103.401
780.57	121.552
780.88	110.185
781.19	104.040
781.50	107.200
781.80	101.961
782.11	104.487
782.42	98.193
782.73	100.730
783.04	104.730
783.34	107.576
783.65	103.876
783.96	111.382
784.27	122.222
784.57	107.317
784.88	112.195
785.19	111.404
785.50	104.124
785.81	112.381
786.11	116.667
786.42	109.091
786.73	103.604
787.04	127.723
787.34	116.190
787.65	116.190
787.96	112.745
788.26	118.919
788.57	102.419
788.88	86.719
789.19	99.145
789.49	94.118
789.80	105.128
790.11	100.885
790.41	109.091
790.72	97.170
791.03	123.611
791.33	110.526
791.64	113.978
791.95	121.333
792.25	105.714
792.56	103.659
792.87	110.204
793.17	98.684
793.48	90.541
793.79	107.042
794.09	115.190
794.40	109.574
794.70	107.477
795.01	94.737
795.32	100.909
795.62	93.750
795.93	104.124
796.23	120.879
796.54	95.789
796.85	97.260
797.15	86.111
797.46	98.630
797.76	101.408
798.07	100.000
798.37	123.529
798.68	124.286
798.99	92.857
799.29	101.316
799.60	133.333
799.90	98.611
800.21	89.063
800.51	120.635
800.82	96.721
801.12	98.246
801.43	90.141
801.73	67.797
802.04	101.639
802.34	129.091
802.65	107.692
802.95	114.815
803.26	117.500
803.56	123.077
803.87	147.368
804.17	96.774
804.48	96.923
804.78	120.513
805.09	127.907
805.39	140.625
805.70	83.019
806.00	115.789
806.30	89.189
806.61	107.353
806.91	98.765
807.22	113.333
807.52	105.970
807.83	103.226
808.13	77.778
808.43	101.818
808.74	86.364
809.04	113.208
809.35	71.233
809.65	112.281
809.95	88.235
810.26	94.118
810.56	84.000
810.86	102.041
811.17	117.143
811.47	100.000
811.77	141.935
812.08	89.474
812.38	111.905
812.69	76.087
812.99	138.710
813.29	83.333
813.59	62.963
813.90	102.128
814.20	93.023
814.50	89.583
814.81	106.667
815.11	114.634
815.41	136.667
815.72	125.714
816.02	75.000
816.32	105.128
816.62	116.216
816.93	73.529
817.23	56.522
817.53	105.882
817.84	85.294
818.14	78.125
818.44	86.207
818.74	83.871
819.04	103.704
819.35	100.000
819.65	168.000
819.95	83.333
820.25	116.000
820.56	68.421
820.86	77.500
821.16	80.851
821.46	81.034
821.76	94.872
822.07	80.000
822.37	79.070
822.67	130.000
822.97	78.378
823.27	75.676
823.57	140.000
823.88	113.514
824.18	95.238
824.48	96.154
824.78	61.538
825.08	117.391
825.38	104.167
825.69	87.500
825.99	120.000
826.29	81.081
826.59	97.059
826.89	120.000
827.19	74.286
827.49	113.158
827.79	109.375
828.09	66.667
828.39	134.783
828.70	62.069
829.00	93.103
829.30	91.667
829.60	106.250
829.90	127.778
830.20	100.000
830.50	28.571
830.80	42.857
831.10	71.795
831.40	61.905
831.70	35.294
832.00	83.333
832.30	78.947
832.60	93.750
832.90	133.333
833.20	23.529
833.50	46.667
833.80	140.000
834.10	35.000
834.40	20.833
834.70	100.000
835.00	100.000
835.30	50.000
835.60	58.621
835.90	77.778
836.20	45.455
836.50	125.000
836.80	37.143
837.10	65.714
837.40	94.118
837.70	-27.273
838.00	54.167
838.30	131.250
838.60	38.095
838.90	40.000
839.19	30.435
839.49	34.783
839.79	72.222
840.09	56.522
840.39	13.636
840.69	12.500
840.99	78.947
841.29	12.500
841.59	128.571
841.88	22.222
842.18	45.833
842.48	41.176
842.78	58.621
843.08	107.143
843.38	100.000
843.68	33.333
843.97	7.692
844.27	9.091
844.57	-220.000
844.87	56.000
845.17	140.000
845.47	71.429
845.76	22.222
846.06	0.000
846.36	-250.000
846.66	-30.000
846.96	31.579
847.25	54.167
847.55	25.000
847.85	46.667
848.15	10.000
848.44	88.462
848.74	110.526
849.04	366.667
849.34	55.556
849.63	5.263
849.93	0.000
850.23	20.000
850.53	33.333
850.82	-4.000
851.12	42.105
851.42	100.000
851.71	42.857
852.01	66.667
852.31	47.059
852.61	0.000
852.90	66.667
853.20	-216.667
853.50	11.111
853.79	-5.263
854.09	73.333
854.39	67.857
854.68	34.783
854.98	58.333
855.28	75.862
855.57	87.500
855.87	70.000
856.17	46.667
856.46	62.069
856.76	0.000
857.05	0.000
857.35	-7.692
857.65	9.091
857.94	0.000
858.24	-28.571
858.53	50.000
858.83	-8.333
859.13	-66.667
859.42	57.143
859.72	-87.500
860.01	-133.333
860.31	25.000
860.60	-40.000
860.90	-111.111
861.20	-125.000
861.49	-28.571
861.79	41.176
862.08	-900.000
862.38	-50.000
862.67	23.077
862.97	64.706
863.26	20.000
863.56	11.765
863.85	133.333
864.15	0.000
864.44	-15.385
864.74	30.000
865.03	-187.500
865.33	66.667
865.62	29.412
865.92	-125.000
866.21	-28.571
866.51	-108.333
866.80	-900.000
867.10	-100.000
867.39	-17.647
867.69	52.174
867.98	-142.857
868.27	-380.000
868.57	-12.500
868.86	-90.909
869.16	58.824
869.45	-116.667
869.75	-14.286
870.04	600.000
870.33	-16.667
870.63	-100.000
870.92	-66.667
871.22	0.000
871.51	-36.364
871.80	8.333
872.10	-10.000
>>>>>End Processed Spectral Data<<<<<
