SpectraSuite Data File
++++++++++++++++++++++++++++++++++++
Date: Sat May 16 11:41:12 PDT 2015
User: schluterlab
Dark Spectrum Present: Yes
Reference Spectrum Present: Yes
Number of Sampled Component Spectra: 1
Spectrometers: USB2E3373
Integration Time (usec): 3000 (USB2E3373)
Spectra Averaged: 3 (USB2E3373)
Boxcar Smoothing: 0 (USB2E3373)
Correct for Electrical Dark: No (USB2E3373)
Strobe/Lamp Enabled: No (USB2E3373)
Correct for Detector Non-linearity: No (USB2E3373)
Correct for Stray Light: No (USB2E3373)
Number of Pixels in Processed Spectrum: 2048
>>>>>Begin Processed Spectral Data<<<<<
178.53	0.000
178.91	186.667
179.29	833.333
179.67	-900.000
180.04	-100.000
180.42	1200.000
180.80	175.000
181.18	425.000
181.56	-112.500
181.94	1700.000
182.31	325.000
182.69	-92.308
183.07	-700.000
183.45	1650.000
183.83	466.667
184.20	-100.000
184.58	-275.000
184.96	-350.000
185.34	93.750
185.72	-575.000
186.09	350.000
186.47	-212.500
186.85	-212.500
187.23	-50.000
187.61	-300.000
187.98	-162.500
188.36	-112.500
188.74	-125.000
189.12	1900.000
189.49	285.714
189.87	-66.667
190.25	250.000
190.63	-35.714
191.00	-177.778
191.38	320.000
191.76	0.000
192.14	360.000
192.51	-120.000
192.89	-366.667
193.27	0.000
193.65	11.111
194.02	-428.571
194.40	333.333
194.78	-150.000
195.15	-1000.000
195.53	-81.818
195.91	-333.333
196.29	320.000
196.66	-600.000
197.04	2200.000
197.42	-250.000
197.79	-40.000
198.17	-166.667
198.55	-1350.000
198.92	-1800.000
199.30	300.000
199.68	-950.000
200.05	-244.444
200.43	-177.778
200.81	-1300.000
201.18	-116.667
201.56	228.571
201.94	-6.667
202.31	22.727
202.69	-70.000
203.07	-70.000
203.44	533.333
203.82	-416.667
204.19	-425.000
204.57	-200.000
204.95	-1500.000
205.32	0.000
205.70	2100.000
206.08	-2700.000
206.45	-72.222
206.83	-1250.000
207.20	-400.000
207.58	-700.000
207.96	-366.667
208.33	-237.500
208.71	-55.556
209.08	160.000
209.46	-200.000
209.84	850.000
210.21	0.000
210.59	-40.000
210.96	1300.000
211.34	-400.000
211.71	-300.000
212.09	175.000
212.46	2000.000
212.84	-2800.000
213.22	633.333
213.59	141.667
213.97	-100.000
214.34	200.000
214.72	-140.000
215.09	-300.000
215.47	-383.333
215.84	-130.000
216.22	-40.000
216.59	-40.000
216.97	-375.000
217.34	650.000
217.72	-85.714
218.09	-383.333
218.47	-271.429
218.84	228.571
219.22	-57.143
219.59	0.000
219.97	271.429
220.34	425.000
220.72	262.500
221.09	-7.692
221.47	0.000
221.84	166.667
222.22	-650.000
222.59	1000.000
222.97	-212.500
223.34	-400.000
223.72	-500.000
224.09	-64.286
224.46	-50.000
224.84	-64.286
225.21	-171.429
225.59	-100.000
225.96	-100.000
226.34	-200.000
226.71	-133.333
227.08	5.000
227.46	1800.000
227.83	-257.143
228.21	-125.000
228.58	550.000
228.95	-37.500
229.33	-2400.000
229.70	-320.000
230.08	-700.000
230.45	-16.667
230.82	-116.667
231.20	-900.000
231.57	-150.000
231.95	100.000
232.32	57.143
232.69	-133.333
233.07	-328.571
233.44	-1200.000
233.81	-100.000
234.19	-100.000
234.56	-31.250
234.93	-12.500
235.31	-228.571
235.68	-157.143
236.05	-17.647
236.43	-72.727
236.80	-25.806
237.17	-33.333
237.55	-19.048
237.92	-81.818
238.29	20.000
238.67	0.000
239.04	-13.889
239.41	0.000
239.79	-41.026
240.16	-16.667
240.53	-29.091
240.91	25.641
241.28	-5.455
241.65	6.154
242.02	4.918
242.40	4.918
242.77	24.242
243.14	5.085
243.51	-1.429
243.89	16.456
244.26	16.854
244.63	14.737
245.00	8.421
245.38	11.864
245.75	23.894
246.12	12.000
246.49	15.748
246.87	9.756
247.24	14.407
247.61	7.627
247.98	16.197
248.36	18.881
248.73	16.456
249.10	14.650
249.47	15.789
249.84	23.295
250.22	8.929
250.59	23.164
250.96	15.183
251.33	20.379
251.70	18.269
252.08	20.379
252.45	15.166
252.82	22.857
253.19	17.021
253.56	16.935
253.94	17.722
254.31	19.742
254.68	25.203
255.05	20.161
255.42	17.063
255.79	15.054
256.16	27.059
256.54	21.324
256.91	22.348
257.28	16.850
257.65	19.149
258.02	22.013
258.39	22.408
258.76	15.878
259.14	17.901
259.51	24.262
259.88	21.037
260.25	23.913
260.62	20.579
260.99	18.398
261.36	21.037
261.73	22.832
262.10	23.611
262.47	19.943
262.85	23.429
263.22	20.630
263.59	20.000
263.96	21.449
264.33	21.680
264.70	21.547
265.07	22.802
265.44	22.739
265.81	19.897
266.18	17.722
266.55	21.324
266.92	24.433
267.29	22.034
267.66	22.222
268.03	21.256
268.40	24.648
268.77	23.133
269.14	20.882
269.51	22.529
269.88	19.954
270.25	19.580
270.62	20.824
270.99	22.072
271.36	22.378
271.73	21.300
272.10	22.883
272.47	20.000
272.84	24.667
273.21	21.101
273.58	21.538
273.95	21.711
274.32	23.529
274.69	22.319
275.06	21.677
275.43	22.321
275.80	21.792
276.17	19.456
276.54	21.996
276.91	20.988
277.28	21.298
277.65	23.347
278.02	21.503
278.39	22.397
278.76	22.709
279.13	20.949
279.50	23.062
279.87	22.199
280.23	21.660
280.60	22.664
280.97	20.777
281.34	22.244
281.71	20.962
282.08	21.371
282.45	20.978
282.82	22.868
283.19	21.818
283.56	22.161
283.92	21.201
284.29	20.818
284.66	21.942
285.03	21.747
285.40	20.849
285.77	22.105
286.14	20.578
286.51	21.670
286.87	21.597
287.24	22.867
287.61	18.017
287.98	21.144
288.35	18.678
288.72	22.411
289.08	18.983
289.45	21.717
289.82	21.799
290.19	20.361
290.56	19.669
290.93	20.986
291.29	19.773
291.66	18.680
292.03	20.722
292.40	19.428
292.77	20.497
293.13	19.187
293.50	19.316
293.87	17.485
294.24	18.552
294.60	16.061
294.97	19.727
295.34	18.370
295.71	17.708
296.08	17.972
296.44	16.452
296.81	17.379
297.18	17.887
297.55	17.514
297.91	19.526
298.28	16.575
298.65	17.155
299.02	18.449
299.38	15.909
299.75	17.663
300.12	16.667
300.48	18.286
300.85	16.907
301.22	17.206
301.59	16.775
301.95	17.758
302.32	15.906
302.69	17.013
303.05	15.629
303.42	15.875
303.79	16.029
304.15	15.758
304.52	16.803
304.89	16.765
305.25	17.705
305.62	15.746
305.99	18.139
306.35	16.426
306.72	16.515
307.09	17.480
307.45	17.140
307.82	16.313
308.19	15.436
308.55	16.013
308.92	16.327
309.29	15.784
309.65	17.073
310.02	15.767
310.38	15.784
310.75	16.189
311.12	16.839
311.48	17.328
311.85	16.787
312.22	15.345
312.58	17.599
312.95	17.329
313.31	17.582
313.68	18.392
314.05	18.200
314.41	17.203
314.78	16.084
315.14	17.473
315.51	17.021
315.87	17.909
316.24	18.270
316.61	17.179
316.97	17.711
317.34	17.726
317.70	18.275
318.07	17.351
318.43	17.884
318.80	19.249
319.16	18.105
319.53	18.891
319.89	19.003
320.26	18.725
320.62	19.231
320.99	20.398
321.35	18.030
321.72	18.424
322.08	19.486
322.45	21.089
322.81	19.885
323.18	20.749
323.54	20.795
323.91	21.131
324.27	20.627
324.64	20.384
325.00	21.204
325.37	21.629
325.73	21.960
326.10	19.309
326.46	21.891
326.83	20.426
327.19	21.351
327.56	22.487
327.92	21.410
328.29	22.251
328.65	21.636
329.01	22.527
329.38	22.748
329.74	23.810
330.11	22.937
330.47	24.342
330.84	23.740
331.20	22.834
331.56	23.610
331.93	22.469
332.29	24.018
332.66	23.968
333.02	22.805
333.38	24.104
333.75	23.954
334.11	24.089
334.48	23.831
334.84	24.059
335.20	25.266
335.57	25.361
335.93	24.530
336.29	24.978
336.66	24.670
337.02	25.405
337.38	24.777
337.75	24.934
338.11	24.419
338.47	24.822
338.84	24.682
339.20	24.517
339.56	25.045
339.93	25.485
340.29	24.889
340.65	24.126
341.02	24.958
341.38	25.274
341.74	25.064
342.11	25.427
342.47	25.150
342.83	24.433
343.20	24.338
343.56	23.673
343.92	25.376
344.28	25.484
344.65	25.578
345.01	24.034
345.37	26.495
345.73	24.468
346.10	24.939
346.46	23.883
346.82	25.180
347.19	25.883
347.55	25.040
347.91	24.961
348.27	24.185
348.63	26.333
349.00	25.139
349.36	23.419
349.72	25.478
350.08	25.020
350.45	25.217
350.81	25.955
351.17	25.241
351.53	24.662
351.89	25.384
352.26	25.426
352.62	26.805
352.98	25.633
353.34	25.739
353.70	24.633
354.07	25.728
354.43	25.850
354.79	25.357
355.15	25.160
355.51	25.000
355.87	26.640
356.24	27.006
356.60	26.914
356.96	25.558
357.32	26.207
357.68	25.594
358.04	26.174
358.40	26.605
358.77	26.507
359.13	26.014
359.49	25.397
359.85	25.915
360.21	26.788
360.57	26.355
360.93	27.778
361.29	27.429
361.66	26.220
362.02	25.814
362.38	27.439
362.74	28.352
363.10	27.044
363.46	27.208
363.82	28.134
364.18	26.773
364.54	26.876
364.90	27.533
365.26	26.961
365.62	27.441
365.98	28.094
366.35	27.254
366.71	26.498
367.07	27.664
367.43	28.140
367.79	28.660
368.15	27.027
368.51	27.483
368.87	28.846
369.23	28.070
369.59	28.264
369.95	28.612
370.31	29.606
370.67	27.983
371.03	28.790
371.39	27.864
371.75	29.041
372.11	28.838
372.47	28.706
372.83	29.207
373.19	29.786
373.55	29.346
373.91	28.947
374.27	28.337
374.63	29.262
374.99	29.624
375.35	29.139
375.71	30.790
376.07	30.801
376.42	28.808
376.78	31.373
377.14	30.441
377.50	30.239
377.86	30.234
378.22	31.470
378.58	30.389
378.94	31.258
379.30	31.688
379.66	31.208
380.02	30.541
380.38	31.118
380.74	30.657
381.09	31.400
381.45	31.742
381.81	31.216
382.17	31.078
382.53	32.036
382.89	31.220
383.25	31.547
383.61	31.840
383.97	33.190
384.32	33.354
384.68	33.918
385.04	32.367
385.40	32.867
385.76	32.683
386.12	33.104
386.48	33.540
386.83	32.638
387.19	33.712
387.55	33.010
387.91	32.958
388.27	33.414
388.62	33.173
388.98	32.707
389.34	33.109
389.70	33.678
390.06	33.623
390.42	33.782
390.77	33.817
391.13	34.037
391.49	35.059
391.85	33.229
392.20	33.981
392.56	34.270
392.92	34.455
393.28	34.673
393.64	34.937
393.99	35.015
394.35	35.280
394.71	34.033
395.07	35.844
395.42	33.850
395.78	33.375
396.14	35.140
396.50	34.373
396.85	34.732
397.21	35.055
397.57	35.137
397.92	35.773
398.28	35.167
398.64	34.920
399.00	35.787
399.35	35.118
399.71	35.656
400.07	36.239
400.42	35.827
400.78	35.361
401.14	34.671
401.49	35.436
401.85	35.876
402.21	35.518
402.57	35.740
402.92	36.123
403.28	35.968
403.63	35.830
403.99	36.544
404.35	35.809
404.70	35.810
405.06	36.390
405.42	36.162
405.77	35.464
406.13	37.365
406.49	36.609
406.84	35.333
407.20	36.808
407.55	37.682
407.91	35.298
408.27	37.377
408.62	36.681
408.98	35.840
409.34	37.172
409.69	36.421
410.05	35.719
410.40	36.419
410.76	37.937
411.11	36.970
411.47	36.317
411.83	37.286
412.18	37.252
412.54	37.950
412.89	37.971
413.25	36.187
413.60	36.817
413.96	36.476
414.31	37.737
414.67	37.460
415.03	37.516
415.38	37.866
415.74	38.402
416.09	37.020
416.45	36.442
416.80	37.906
417.16	37.874
417.51	38.608
417.87	38.058
418.22	37.927
418.58	37.548
418.93	38.872
419.29	38.645
419.64	38.568
420.00	38.700
420.35	38.616
420.71	38.836
421.06	37.811
421.42	39.110
421.77	39.643
422.12	39.843
422.48	39.177
422.83	39.636
423.19	39.811
423.54	39.827
423.90	39.503
424.25	39.762
424.61	40.290
424.96	41.603
425.31	39.296
425.67	39.771
426.02	39.931
426.38	41.379
426.73	41.321
427.09	40.809
427.44	41.591
427.79	40.756
428.15	42.549
428.50	41.994
428.85	42.086
429.21	41.118
429.56	42.240
429.92	41.383
430.27	42.223
430.62	42.059
430.98	41.558
431.33	41.782
431.68	43.056
432.04	42.865
432.39	43.191
432.74	43.585
433.10	43.782
433.45	43.351
433.80	43.281
434.16	43.041
434.51	43.562
434.86	43.702
435.22	44.042
435.57	44.002
435.92	43.728
436.28	44.273
436.63	44.375
436.98	43.414
437.34	44.832
437.69	43.466
438.04	44.016
438.39	44.404
438.75	44.703
439.10	44.864
439.45	44.780
439.81	44.337
440.16	44.747
440.51	46.059
440.86	45.228
441.22	44.223
441.57	46.368
441.92	45.013
442.27	45.725
442.63	46.030
442.98	44.808
443.33	45.689
443.68	46.014
444.03	46.071
444.39	45.521
444.74	47.907
445.09	46.711
445.44	46.652
445.79	46.405
446.15	45.400
446.50	45.999
446.85	45.664
447.20	47.242
447.55	45.912
447.91	46.940
448.26	46.704
448.61	46.350
448.96	46.162
449.31	46.223
449.66	47.167
450.02	46.371
450.37	46.203
450.72	46.328
451.07	47.643
451.42	45.911
451.77	47.397
452.12	47.139
452.47	46.348
452.83	47.467
453.18	47.565
453.53	48.134
453.88	49.103
454.23	47.461
454.58	49.161
454.93	46.851
455.28	47.674
455.63	47.727
455.98	48.434
456.34	47.332
456.69	48.218
457.04	48.248
457.39	47.249
457.74	47.490
458.09	48.376
458.44	49.769
458.79	48.094
459.14	49.287
459.49	47.661
459.84	47.667
460.19	48.150
460.54	48.034
460.89	47.814
461.24	48.391
461.59	49.414
461.94	48.950
462.29	47.767
462.64	48.946
462.99	48.996
463.34	48.818
463.69	48.791
464.04	48.682
464.39	47.790
464.74	47.754
465.09	47.805
465.44	49.013
465.79	48.675
466.14	49.425
466.49	49.568
466.84	49.700
467.19	49.439
467.54	48.608
467.89	49.877
468.24	49.822
468.59	49.469
468.94	49.711
469.29	49.448
469.64	49.394
469.99	50.641
470.34	50.701
470.68	51.453
471.03	51.273
471.38	49.653
471.73	51.818
472.08	50.268
472.43	51.223
472.78	50.267
473.13	49.370
473.48	50.925
473.83	51.675
474.17	50.064
474.52	51.215
474.87	49.942
475.22	50.147
475.57	51.056
475.92	50.648
476.27	50.000
476.61	51.155
476.96	50.922
477.31	50.861
477.66	49.972
478.01	51.432
478.36	49.974
478.70	51.255
479.05	51.595
479.40	52.073
479.75	49.847
480.10	49.504
480.45	49.420
480.79	51.283
481.14	51.179
481.49	51.452
481.84	51.179
482.19	50.662
482.53	51.089
482.88	51.068
483.23	51.455
483.58	51.526
483.92	51.505
484.27	49.668
484.62	50.324
484.97	49.221
485.31	47.808
485.66	46.401
486.01	46.213
486.36	47.978
486.70	49.322
487.05	48.553
487.40	48.317
487.75	49.158
488.09	49.506
488.44	49.865
488.79	49.982
489.13	50.209
489.48	50.367
489.83	51.747
490.17	51.197
490.52	51.812
490.87	50.716
491.22	52.312
491.56	51.667
491.91	51.622
492.26	52.123
492.60	51.522
492.95	51.547
493.30	52.263
493.64	52.139
493.99	52.055
494.34	52.333
494.68	52.575
495.03	51.769
495.37	53.736
495.72	52.947
496.07	53.355
496.41	52.339
496.76	52.648
497.11	53.038
497.45	52.443
497.80	52.376
498.14	52.652
498.49	52.587
498.84	52.136
499.18	53.850
499.53	53.434
499.87	52.027
500.22	51.912
500.56	53.477
500.91	53.153
501.26	53.906
501.60	53.442
501.95	54.541
502.29	52.574
502.64	52.758
502.98	52.324
503.33	52.350
503.67	52.778
504.02	53.211
504.36	54.314
504.71	54.661
505.06	53.070
505.40	54.790
505.75	55.285
506.09	55.106
506.44	54.436
506.78	55.996
507.13	54.428
507.47	55.347
507.82	55.188
508.16	55.959
508.51	54.766
508.85	53.727
509.19	55.730
509.54	54.968
509.88	56.064
510.23	55.765
510.57	56.614
510.92	56.015
511.26	55.875
511.61	56.156
511.95	55.819
512.30	56.185
512.64	56.594
512.98	56.051
513.33	55.958
513.67	56.896
514.02	57.327
514.36	56.011
514.70	56.480
515.05	58.148
515.39	57.382
515.74	58.581
516.08	57.406
516.42	57.620
516.77	58.810
517.11	57.723
517.46	60.287
517.80	59.206
518.14	59.964
518.49	58.279
518.83	58.754
519.17	58.674
519.52	57.548
519.86	59.618
520.20	61.064
520.55	58.462
520.89	59.737
521.23	59.768
521.58	59.624
521.92	60.101
522.26	59.746
522.61	59.949
522.95	60.179
523.29	60.815
523.64	60.462
523.98	61.808
524.32	60.905
524.66	58.634
525.01	60.694
525.35	60.631
525.69	61.093
526.04	61.423
526.38	61.426
526.72	59.898
527.06	61.458
527.41	60.792
527.75	59.736
528.09	61.482
528.43	60.393
528.78	59.548
529.12	61.524
529.46	60.438
529.80	60.684
530.15	61.108
530.49	59.961
530.83	60.969
531.17	62.020
531.51	61.621
531.86	60.171
532.20	60.864
532.54	60.628
532.88	61.265
533.22	61.631
533.57	61.488
533.91	60.362
534.25	61.094
534.59	59.213
534.93	60.797
535.27	60.352
535.62	60.870
535.96	61.215
536.30	59.097
536.64	60.292
536.98	62.147
537.32	60.608
537.66	61.914
538.01	62.268
538.35	61.081
538.69	62.299
539.03	60.393
539.37	61.344
539.71	60.307
540.05	60.864
540.39	62.050
540.73	61.230
541.07	61.817
541.42	59.689
541.76	59.668
542.10	61.107
542.44	60.293
542.78	61.330
543.12	61.982
543.46	59.863
543.80	59.599
544.14	59.973
544.48	61.483
544.82	61.299
545.16	61.234
545.50	61.171
545.84	61.613
546.18	61.096
546.52	63.727
546.86	61.538
547.20	61.533
547.54	60.813
547.88	61.447
548.22	58.650
548.56	61.790
548.90	61.658
549.24	61.528
549.58	62.526
549.92	61.767
550.26	62.572
550.60	60.882
550.94	62.044
551.28	63.431
551.62	62.260
551.96	62.301
552.30	60.906
552.64	63.899
552.98	63.069
553.32	62.121
553.66	63.663
554.00	62.758
554.34	61.083
554.68	62.135
555.02	63.097
555.36	62.329
555.69	61.748
556.03	61.754
556.37	62.162
556.71	63.493
557.05	63.341
557.39	63.549
557.73	61.926
558.07	65.185
558.41	64.099
558.75	63.422
559.08	63.268
559.42	63.706
559.76	65.031
560.10	63.236
560.44	64.017
560.78	62.909
561.12	61.974
561.45	62.055
561.79	62.927
562.13	61.851
562.47	63.095
562.81	62.447
563.15	63.191
563.48	61.437
563.82	63.354
564.16	63.016
564.50	62.836
564.84	62.037
565.17	60.743
565.51	63.103
565.85	63.692
566.19	62.253
566.52	62.100
566.86	61.568
567.20	61.743
567.54	62.256
567.88	60.134
568.21	61.353
568.55	59.544
568.89	59.245
569.23	59.000
569.56	57.083
569.90	57.238
570.24	57.648
570.57	55.606
570.91	55.559
571.25	55.674
571.59	56.385
571.92	54.524
572.26	54.913
572.60	55.166
572.93	55.342
573.27	54.238
573.61	53.599
573.95	54.098
574.28	53.055
574.62	54.474
574.96	53.141
575.29	54.167
575.63	53.730
575.97	53.155
576.30	53.631
576.64	54.099
576.98	53.844
577.31	53.564
577.65	53.232
577.98	53.373
578.32	53.378
578.66	52.974
578.99	54.144
579.33	53.379
579.67	52.802
580.00	53.919
580.34	53.841
580.67	54.572
581.01	52.925
581.35	53.356
581.68	52.977
582.02	53.571
582.35	53.314
582.69	53.975
583.02	54.797
583.36	54.385
583.70	53.994
584.03	55.415
584.37	54.750
584.70	55.062
585.04	54.101
585.37	53.795
585.71	54.161
586.04	55.066
586.38	54.691
586.72	54.707
587.05	54.970
587.39	55.586
587.72	54.712
588.06	54.580
588.39	56.366
588.73	56.759
589.06	56.042
589.40	57.266
589.73	56.728
590.07	56.591
590.40	57.306
590.73	57.057
591.07	57.951
591.40	59.055
591.74	57.385
592.07	58.378
592.41	58.726
592.74	56.879
593.08	55.853
593.41	56.020
593.75	55.292
594.08	57.441
594.41	58.189
594.75	57.456
595.08	57.481
595.42	57.225
595.75	57.185
596.09	58.168
596.42	58.142
596.75	58.603
597.09	59.350
597.42	57.660
597.75	58.237
598.09	59.196
598.42	58.418
598.76	57.973
599.09	57.143
599.42	57.862
599.76	56.625
600.09	58.168
600.42	57.235
600.76	58.041
601.09	56.703
601.42	57.657
601.76	56.931
602.09	57.628
602.42	57.860
602.76	58.039
603.09	57.661
603.42	57.937
603.76	58.117
604.09	56.828
604.42	57.993
604.76	58.918
605.09	59.403
605.42	58.599
605.75	58.862
606.09	57.368
606.42	58.651
606.75	57.578
607.09	59.374
607.42	58.187
607.75	59.294
608.08	59.150
608.42	59.082
608.75	58.411
609.08	60.546
609.41	60.837
609.75	58.654
610.08	60.539
610.41	59.036
610.74	59.526
611.07	60.396
611.41	59.758
611.74	60.411
612.07	61.547
612.40	59.915
612.73	60.151
613.07	59.604
613.40	61.303
613.73	61.907
614.06	60.242
614.39	61.838
614.72	60.559
615.06	60.435
615.39	59.848
615.72	61.380
616.05	61.237
616.38	61.985
616.71	62.042
617.05	61.942
617.38	64.149
617.71	63.268
618.04	63.851
618.37	63.145
618.70	63.950
619.03	62.559
619.36	64.553
619.69	64.537
620.03	63.292
620.36	64.698
620.69	65.973
621.02	64.460
621.35	66.290
621.68	67.049
622.01	67.071
622.34	66.382
622.67	65.234
623.00	65.570
623.33	65.373
623.66	64.623
623.99	66.992
624.32	63.095
624.65	66.814
624.99	65.422
625.32	64.746
625.65	66.434
625.98	65.649
626.31	67.700
626.64	67.531
626.97	67.723
627.30	67.234
627.63	66.235
627.96	68.407
628.29	69.301
628.62	68.768
628.95	71.260
629.28	67.857
629.61	69.872
629.94	69.849
630.26	70.278
630.59	71.457
630.92	70.270
631.25	70.867
631.58	71.534
631.91	72.447
632.24	73.889
632.57	71.222
632.90	74.253
633.23	74.883
633.56	70.526
633.89	74.882
634.22	72.373
634.55	73.197
634.88	72.672
635.20	73.408
635.53	75.318
635.86	71.914
636.19	74.359
636.52	70.490
636.85	73.887
637.18	73.625
637.51	75.465
637.83	76.165
638.16	74.868
638.49	77.655
638.82	74.260
639.15	75.616
639.48	72.244
639.81	75.795
640.13	75.541
640.46	79.060
640.79	75.770
641.12	77.856
641.45	76.040
641.77	78.443
642.10	76.133
642.43	78.452
642.76	76.693
643.09	76.349
643.41	78.571
643.74	77.424
644.07	77.847
644.40	76.985
644.73	78.383
645.05	78.130
645.38	77.318
645.71	80.069
646.04	78.487
646.36	78.360
646.69	78.374
647.02	82.491
647.35	80.686
647.67	79.562
648.00	79.965
648.33	79.933
648.66	73.226
648.98	75.637
649.31	76.923
649.64	76.562
649.96	76.766
650.29	73.115
650.62	79.346
650.94	78.752
651.27	79.896
651.60	77.855
651.92	81.507
652.25	76.628
652.58	77.172
652.90	73.676
653.23	75.968
653.56	74.247
653.88	76.066
654.21	78.859
654.54	75.415
654.86	77.207
655.19	74.928
655.52	65.382
655.84	56.182
656.17	59.210
656.49	80.437
656.82	83.265
657.15	63.425
657.47	47.616
657.80	36.698
658.13	42.061
658.45	58.129
658.78	58.950
659.10	57.908
659.43	58.359
659.75	60.307
660.08	60.000
660.41	61.213
660.73	66.117
661.06	73.188
661.38	79.286
661.71	79.159
662.03	79.234
662.36	84.648
662.68	81.857
663.01	84.289
663.33	82.540
663.66	81.330
663.98	85.045
664.31	81.879
664.63	82.965
664.96	80.043
665.28	83.080
665.61	79.070
665.93	80.864
666.26	82.996
666.58	79.210
666.91	81.737
667.23	79.386
667.56	82.540
667.88	84.163
668.21	78.341
668.53	84.346
668.86	83.603
669.18	84.247
669.50	84.813
669.83	86.375
670.15	80.942
670.48	82.477
670.80	83.599
671.13	82.393
671.45	78.604
671.77	83.298
672.10	80.671
672.42	76.568
672.75	74.364
673.07	75.495
673.39	77.049
673.72	81.496
674.04	80.042
674.37	79.588
674.69	81.557
675.01	77.872
675.34	81.562
675.66	81.641
675.98	83.260
676.31	82.127
676.63	86.667
676.95	77.434
677.28	81.439
677.60	80.995
677.92	79.075
678.25	81.182
678.57	78.807
678.89	77.778
679.22	81.551
679.54	78.895
679.86	77.400
680.18	78.897
680.51	76.723
680.83	78.286
681.15	76.108
681.48	81.947
681.80	75.605
682.12	78.873
682.44	75.049
682.77	78.788
683.09	80.294
683.41	81.637
683.73	79.680
684.06	77.849
684.38	77.615
684.70	76.337
685.02	75.394
685.34	76.413
685.67	73.485
685.99	75.992
686.31	77.379
686.63	73.759
686.96	73.567
687.28	74.952
687.60	78.711
687.92	73.541
688.24	77.559
688.56	73.347
688.89	77.350
689.21	77.462
689.53	80.230
689.85	79.287
690.17	76.457
690.49	80.831
690.82	77.590
691.14	77.123
691.46	75.831
691.78	77.093
692.10	77.966
692.42	79.333
692.74	74.464
693.06	77.528
693.39	78.300
693.71	76.975
694.03	77.754
694.35	76.749
694.67	75.650
694.99	78.772
695.31	82.908
695.63	78.571
695.95	78.660
696.27	79.800
696.59	85.829
696.91	85.112
697.23	79.948
697.56	79.327
697.88	79.955
698.20	73.448
698.52	71.973
698.84	78.883
699.16	76.905
699.48	78.000
699.80	77.444
700.12	77.078
700.44	77.933
700.76	80.758
701.08	78.779
701.40	82.175
701.72	79.630
702.04	83.654
702.36	82.229
702.68	80.539
703.00	82.029
703.32	82.808
703.64	86.176
703.96	81.395
704.28	82.544
704.60	83.544
704.91	81.587
705.23	83.819
705.55	81.419
705.87	84.642
706.19	82.639
706.51	81.944
706.83	88.525
707.15	78.025
707.47	82.920
707.79	78.351
708.11	72.519
708.43	76.808
708.74	74.026
709.06	77.716
709.38	79.310
709.70	76.562
710.02	82.822
710.34	82.178
710.66	79.365
710.98	80.126
711.29	79.677
711.61	78.275
711.93	80.984
712.25	79.734
712.57	80.488
712.89	87.050
713.20	83.162
713.52	82.836
713.84	84.342
714.16	79.672
714.48	79.683
714.80	76.308
715.11	75.504
715.43	79.217
715.75	80.997
716.07	81.311
716.39	78.261
716.70	80.836
717.02	80.741
717.34	81.298
717.66	84.232
717.97	81.967
718.29	86.134
718.61	83.333
718.93	75.627
719.24	70.221
719.56	76.981
719.88	75.273
720.20	77.154
720.51	82.707
720.83	84.739
721.15	86.475
721.46	83.922
721.78	80.077
722.10	82.400
722.42	82.645
722.73	80.080
723.05	82.731
723.37	78.039
723.68	77.733
724.00	86.179
724.32	83.128
724.63	76.349
724.95	80.992
725.27	87.281
725.58	80.603
725.90	82.937
726.22	81.181
726.53	82.129
726.85	74.902
727.16	76.692
727.48	75.385
727.80	78.279
728.11	81.513
728.43	77.273
728.74	82.812
729.06	76.136
729.38	74.319
729.69	76.378
730.01	79.528
730.32	81.673
730.64	77.656
730.96	82.090
731.27	77.500
731.59	72.026
731.90	72.086
732.22	70.859
732.53	78.146
732.85	72.483
733.16	77.899
733.48	75.958
733.80	76.157
734.11	74.138
734.43	75.850
734.74	69.733
735.06	77.429
735.37	76.453
735.69	69.677
736.00	75.758
736.32	71.523
736.63	74.483
736.95	73.188
737.26	74.834
737.58	74.101
737.89	72.760
738.21	76.692
738.52	74.231
738.83	74.219
739.15	74.786
739.46	80.242
739.78	72.727
740.09	66.434
740.41	73.077
740.72	73.723
741.04	77.778
741.35	72.727
741.66	82.407
741.98	80.000
742.29	79.343
742.61	81.818
742.92	80.841
743.23	62.719
743.55	83.784
743.86	78.667
744.18	76.190
744.49	82.266
744.80	82.741
745.12	85.052
745.43	85.930
745.74	82.524
746.06	77.073
746.37	79.295
746.68	88.557
747.00	79.581
747.31	87.019
747.62	76.498
747.94	81.659
748.25	83.721
748.56	75.714
748.88	79.891
749.19	77.465
749.50	84.314
749.82	82.222
750.13	83.700
750.44	80.488
750.75	82.800
751.07	76.429
751.38	76.384
751.69	73.282
752.01	77.308
752.32	76.654
752.63	73.462
752.94	78.175
753.26	82.174
753.57	83.929
753.88	76.293
754.19	80.498
754.51	75.781
754.82	74.704
755.13	79.012
755.44	73.554
755.75	78.601
756.07	73.896
756.38	73.437
756.69	80.144
757.00	73.171
757.31	71.812
757.63	72.897
757.94	69.364
758.25	71.802
758.56	71.698
758.87	72.159
759.18	70.333
759.50	76.512
759.81	73.723
760.12	75.000
760.43	73.786
760.74	77.187
761.05	70.506
761.36	65.569
761.67	68.935
761.99	70.645
762.30	74.638
762.61	73.585
762.92	78.924
763.23	78.673
763.54	73.778
763.85	75.105
764.16	71.429
764.47	81.780
764.78	71.161
765.10	74.460
765.41	70.323
765.72	67.610
766.03	71.025
766.34	72.932
766.65	75.709
766.96	82.000
767.27	73.958
767.58	78.488
767.89	85.161
768.20	82.209
768.51	75.956
768.82	73.514
769.13	77.500
769.44	75.000
769.75	69.264
770.06	79.358
770.37	65.258
770.68	78.125
770.99	75.248
771.30	79.612
771.61	72.685
771.92	70.130
772.23	69.159
772.54	77.660
772.85	76.923
773.16	85.366
773.47	82.530
773.78	77.473
774.09	80.667
774.39	74.691
774.70	70.470
775.01	74.638
775.32	83.582
775.63	76.860
775.94	74.436
776.25	67.143
776.56	79.508
776.87	86.726
777.18	72.566
777.48	70.000
777.79	69.565
778.10	76.147
778.41	69.492
778.72	71.901
779.03	70.896
779.34	73.684
779.65	70.588
779.95	79.710
780.26	66.667
780.57	75.862
780.88	78.704
781.19	75.758
781.50	70.400
781.80	67.320
782.11	76.923
782.42	66.867
782.73	72.263
783.04	68.243
783.34	71.970
783.65	68.217
783.96	81.301
784.27	76.923
784.57	69.919
784.88	65.041
785.19	85.088
785.50	69.072
785.81	76.190
786.11	79.412
786.42	78.182
786.73	89.189
787.04	90.099
787.34	69.524
787.65	71.429
787.96	74.510
788.26	65.766
788.57	80.645
788.88	67.187
789.19	66.667
789.49	59.664
789.80	61.538
790.11	69.027
790.41	64.646
790.72	77.358
791.03	81.944
791.33	71.053
791.64	79.570
791.95	73.333
792.25	80.000
792.56	73.171
792.87	68.367
793.17	65.789
793.48	78.378
793.79	69.014
794.09	72.152
794.40	80.851
794.70	79.439
795.01	71.053
795.32	61.818
795.62	68.750
795.93	70.103
796.23	72.527
796.54	72.632
796.85	57.534
797.15	62.500
797.46	73.973
797.76	74.648
798.07	53.750
798.37	80.882
798.68	80.000
798.99	62.857
799.29	65.789
799.60	80.000
799.90	59.722
800.21	78.125
800.51	65.079
800.82	54.098
801.12	64.912
801.43	59.155
801.73	38.983
802.04	78.689
802.34	54.545
802.65	61.538
802.95	77.778
803.26	72.500
803.56	76.923
803.87	68.421
804.17	64.516
804.48	75.385
804.78	76.923
805.09	76.744
805.39	112.500
805.70	58.491
806.00	78.947
806.30	68.919
806.61	58.824
806.91	56.790
807.22	73.333
807.52	64.179
807.83	58.065
808.13	44.444
808.43	65.455
808.74	62.121
809.04	64.151
809.35	50.685
809.65	78.947
809.95	60.294
810.26	52.941
810.56	48.000
810.86	63.265
811.17	65.714
811.47	44.231
811.77	67.742
812.08	21.053
812.38	64.286
812.69	56.522
812.99	54.839
813.29	54.762
813.59	29.630
813.90	21.277
814.20	25.581
814.50	54.167
814.81	46.667
815.11	34.146
815.41	86.667
815.72	91.429
816.02	38.889
816.32	76.923
816.62	56.757
816.93	38.235
817.23	43.478
817.53	67.647
817.84	73.529
818.14	43.750
818.44	93.103
818.74	45.161
819.04	29.630
819.35	93.333
819.65	28.000
819.95	50.000
820.25	44.000
820.56	50.000
820.86	22.500
821.16	42.553
821.46	39.655
821.76	38.462
822.07	65.000
822.37	41.860
822.67	16.667
822.97	29.730
823.27	70.270
823.57	52.000
823.88	43.243
824.18	52.381
824.48	46.154
824.78	-38.462
825.08	52.174
825.38	37.500
825.69	50.000
825.99	65.000
826.29	8.108
826.59	32.353
826.89	88.000
827.19	28.571
827.49	81.579
827.79	31.250
828.09	16.667
828.39	60.870
828.70	17.241
829.00	37.931
829.30	25.000
829.60	75.000
829.90	61.111
830.20	19.231
830.50	9.524
830.80	32.143
831.10	28.205
831.40	-14.286
831.70	32.353
832.00	66.667
832.30	10.526
832.60	25.000
832.90	58.333
833.20	-29.412
833.50	-20.000
833.80	13.333
834.10	70.000
834.40	37.500
834.70	61.111
835.00	80.769
835.30	50.000
835.60	41.379
835.90	-16.667
836.20	45.455
836.50	41.667
836.80	22.857
837.10	60.000
837.40	-17.647
837.70	45.455
838.00	20.833
838.30	-25.000
838.60	-4.762
838.90	90.000
839.19	-8.696
839.49	13.043
839.79	-5.556
840.09	34.783
840.39	54.545
840.69	18.750
840.99	-31.579
841.29	-6.250
841.59	7.143
841.88	-11.111
842.18	-8.333
842.48	17.647
842.78	0.000
843.08	14.286
843.38	-30.769
843.68	-44.444
843.97	-46.154
844.27	-72.727
844.57	-180.000
844.87	52.000
845.17	-80.000
845.47	21.429
845.76	-66.667
846.06	0.000
846.36	50.000
846.66	-40.000
846.96	5.263
847.25	8.333
847.55	-75.000
847.85	113.333
848.15	-90.000
848.44	42.308
848.74	47.368
849.04	333.333
849.34	11.111
849.63	-63.158
849.93	0.000
850.23	15.000
850.53	14.286
850.82	-12.000
851.12	10.526
851.42	-450.000
851.71	50.000
852.01	-133.333
852.31	29.412
852.61	0.000
852.90	-9.524
853.20	-16.667
853.50	11.111
853.79	47.368
854.09	-66.667
854.39	25.000
854.68	26.087
854.98	-66.667
855.28	51.724
855.57	12.500
855.87	5.000
856.17	-26.667
856.46	0.000
856.76	-46.667
857.05	-29.412
857.35	-146.154
857.65	-9.091
857.94	14.815
858.24	-21.429
858.53	-21.429
858.83	-75.000
859.13	-88.889
859.42	19.048
859.72	-250.000
860.01	100.000
860.31	12.500
860.60	-320.000
860.90	-77.778
861.20	-125.000
861.49	-85.714
861.79	-11.765
862.08	-200.000
862.38	0.000
862.67	-46.154
862.97	23.529
863.26	45.000
863.56	-5.882
863.85	600.000
864.15	-70.000
864.44	-84.615
864.74	25.000
865.03	-200.000
865.33	-233.333
865.62	-5.882
865.92	-400.000
866.21	-78.571
866.51	-141.667
866.80	-800.000
867.10	-266.667
867.39	17.647
867.69	17.391
867.98	-85.714
868.27	-100.000
868.57	-6.250
868.86	-81.818
869.16	-17.647
869.45	-233.333
869.75	-357.143
870.04	-200.000
870.33	-33.333
870.63	-160.000
870.92	-133.333
871.22	-8.333
871.51	-18.182
871.80	25.000
872.10	100.000
>>>>>End Processed Spectral Data<<<<<
