SpectraSuite Data File
++++++++++++++++++++++++++++++++++++
Date: Sat May 16 11:32:11 PDT 2015
User: schluterlab
Dark Spectrum Present: Yes
Reference Spectrum Present: Yes
Number of Sampled Component Spectra: 1
Spectrometers: USB2E3373
Integration Time (usec): 3000 (USB2E3373)
Spectra Averaged: 3 (USB2E3373)
Boxcar Smoothing: 0 (USB2E3373)
Correct for Electrical Dark: No (USB2E3373)
Strobe/Lamp Enabled: No (USB2E3373)
Correct for Detector Non-linearity: No (USB2E3373)
Correct for Stray Light: No (USB2E3373)
Number of Pixels in Processed Spectrum: 2048
>>>>>Begin Processed Spectral Data<<<<<
178.53	0.000
178.91	140.000
179.29	533.333
179.67	-1600.000
180.04	-76.923
180.42	1400.000
180.80	325.000
181.18	350.000
181.56	-125.000
181.94	500.000
182.31	525.000
182.69	0.000
183.07	-633.333
183.45	2100.000
183.83	166.667
184.20	-228.571
184.58	-62.500
184.96	-575.000
185.34	93.750
185.72	-725.000
186.09	200.000
186.47	-150.000
186.85	-187.500
187.23	-162.500
187.61	-450.000
187.98	-250.000
188.36	-25.000
188.74	-337.500
189.12	1800.000
189.49	328.571
189.87	-75.000
190.25	350.000
190.63	-100.000
191.00	-177.778
191.38	500.000
191.76	-53.333
192.14	500.000
192.51	-140.000
192.89	-266.667
193.27	0.000
193.65	-22.222
194.02	-185.714
194.40	433.333
194.78	-50.000
195.15	-900.000
195.53	-136.364
195.91	-383.333
196.29	400.000
196.66	-300.000
197.04	1600.000
197.42	-375.000
197.79	6.667
198.17	-333.333
198.55	-1000.000
198.92	-1900.000
199.30	287.500
199.68	-550.000
200.05	-211.111
200.43	-144.444
200.81	-800.000
201.18	-108.333
201.56	85.714
201.94	-93.333
202.31	4.545
202.69	-50.000
203.07	-100.000
203.44	633.333
203.82	-450.000
204.19	-575.000
204.57	-225.000
204.95	-1100.000
205.32	-100.000
205.70	400.000
206.08	-2900.000
206.45	16.667
206.83	-700.000
207.20	-250.000
207.58	-833.333
207.96	-633.333
208.33	-212.500
208.71	-244.444
209.08	290.000
209.46	-57.143
209.84	1050.000
210.21	0.000
210.59	15.000
210.96	800.000
211.34	-350.000
211.71	-200.000
212.09	350.000
212.46	1150.000
212.84	-2000.000
213.22	700.000
213.59	100.000
213.97	-22.222
214.34	160.000
214.72	-60.000
215.09	-566.667
215.47	-266.667
215.84	-120.000
216.22	-30.000
216.59	-20.000
216.97	-325.000
217.34	650.000
217.72	-371.429
218.09	-183.333
218.47	-200.000
218.84	314.286
219.22	-128.571
219.59	0.000
219.97	228.571
220.34	575.000
220.72	300.000
221.09	-138.462
221.47	0.000
221.84	166.667
222.22	-250.000
222.59	2000.000
222.97	-250.000
223.34	-400.000
223.72	-400.000
224.09	-100.000
224.46	-525.000
224.84	-57.143
225.21	-114.286
225.59	-127.273
225.96	-200.000
226.34	-171.429
226.71	-144.444
227.08	-40.000
227.46	900.000
227.83	-328.571
228.21	-200.000
228.58	650.000
228.95	-6.250
229.33	-2100.000
229.70	-320.000
230.08	-600.000
230.45	-33.333
230.82	0.000
231.20	-1200.000
231.57	-850.000
231.95	800.000
232.32	-9.524
232.69	-111.111
233.07	-342.857
233.44	-600.000
233.81	-160.000
234.19	-211.111
234.56	-68.750
234.93	-53.125
235.31	-242.857
235.68	-164.286
236.05	-123.529
236.43	-54.545
236.80	-41.935
237.17	-25.000
237.55	-61.905
237.92	-109.091
238.29	-45.714
238.67	-35.294
239.04	-22.222
239.41	-41.935
239.79	-58.974
240.16	-38.095
240.53	-25.455
240.91	-15.385
241.28	-20.000
241.65	1.538
242.02	-18.033
242.40	-22.951
242.77	-21.212
243.14	-33.898
243.51	-20.000
243.89	-25.316
244.26	-12.360
244.63	-7.368
245.00	-10.526
245.38	0.000
245.75	-10.619
246.12	-12.000
246.49	-11.024
246.87	-15.447
247.24	-20.339
247.61	-18.644
247.98	-13.380
248.36	-5.594
248.73	-3.165
249.10	-10.191
249.47	-5.848
249.84	-6.250
250.22	-13.690
250.59	1.695
250.96	-2.618
251.33	0.000
251.70	-4.327
252.08	-2.370
252.45	-10.900
252.82	-6.190
253.19	-2.553
253.56	-2.419
253.94	-2.532
254.31	-1.717
254.68	2.846
255.05	-3.629
255.42	0.794
255.79	-3.584
256.16	-1.961
256.54	3.676
256.91	-4.924
257.28	-6.960
257.65	-6.028
258.02	1.887
258.39	-4.348
258.76	-5.405
259.14	-4.630
259.51	0.000
259.88	-1.220
260.25	-2.174
260.62	-3.537
260.99	-2.671
261.36	-1.524
261.73	0.578
262.10	1.389
262.47	-1.425
262.85	2.857
263.22	-3.152
263.59	-4.308
263.96	-2.609
264.33	-1.626
264.70	-3.591
265.07	-3.297
265.44	-3.876
265.81	-1.809
266.18	-2.532
266.55	-2.451
266.92	-2.267
267.29	-2.906
267.66	-4.938
268.03	2.174
268.40	-1.408
268.77	-2.892
269.14	-0.464
269.51	0.000
269.88	-4.358
270.25	-4.196
270.62	-0.229
270.99	-1.351
271.36	-3.497
271.73	-0.224
272.10	-2.059
272.47	-2.889
272.84	0.444
273.21	-0.459
273.58	-0.659
273.95	-1.535
274.32	0.000
274.69	0.875
275.06	-1.022
275.43	-3.348
275.80	-1.426
276.17	-1.255
276.54	0.611
276.91	-3.292
277.28	-2.231
277.65	-1.653
278.02	0.209
278.39	-1.768
278.76	-2.988
279.13	-0.395
279.50	-2.187
279.87	-1.903
280.23	0.810
280.60	-1.590
280.97	-2.718
281.34	-2.901
281.71	-0.769
282.08	0.000
282.45	-4.888
282.82	-3.488
283.19	-2.000
283.56	1.832
283.92	0.530
284.29	-2.045
284.66	-1.978
285.03	1.783
285.40	-0.185
285.77	0.526
286.14	-1.444
286.51	-2.842
286.87	-0.181
287.24	-1.365
287.61	0.826
287.98	-2.426
288.35	-1.488
288.72	-2.037
289.08	-2.542
289.45	-2.357
289.82	-2.076
290.19	0.000
290.56	-0.496
290.93	-1.908
291.29	-2.917
291.66	-0.322
292.03	-0.314
292.40	-0.301
292.77	0.000
293.13	-0.163
293.50	-2.675
293.87	-0.613
294.24	-1.659
294.60	-1.818
294.97	0.455
295.34	-1.185
295.71	-2.381
296.08	-2.919
296.44	-2.432
296.81	-0.570
297.18	-1.127
297.55	-0.141
297.91	0.976
298.28	-0.822
298.65	-1.395
299.02	0.936
299.38	-1.070
299.75	-0.136
300.12	-0.897
300.48	-1.918
300.85	-0.917
301.22	-0.259
301.59	-1.430
301.95	1.637
302.32	-1.173
302.69	0.612
303.05	-0.488
303.42	-0.875
303.79	0.837
304.15	-0.592
304.52	1.284
304.89	-0.590
305.25	-1.587
305.62	0.470
305.99	1.178
306.35	0.888
306.72	-0.683
307.09	1.476
307.45	-0.681
307.82	-1.117
308.19	-0.895
308.55	0.654
308.92	-0.322
309.29	0.324
309.65	0.530
310.02	0.972
310.38	-0.216
310.75	1.844
311.12	1.756
311.48	0.939
311.85	1.648
312.22	1.545
312.58	2.340
312.95	1.937
313.31	1.998
313.68	1.910
314.05	2.967
314.41	0.503
314.78	1.099
315.14	1.283
315.51	2.736
315.87	3.969
316.24	2.818
316.61	3.647
316.97	3.284
317.34	3.179
317.70	3.618
318.07	4.104
318.43	3.184
318.80	4.319
319.16	3.096
319.53	5.075
319.89	4.233
320.26	4.412
320.62	3.846
320.99	6.169
321.35	4.138
321.72	5.834
322.08	5.440
322.45	5.347
322.81	6.148
323.18	5.764
323.54	6.377
323.91	7.136
324.27	7.700
324.64	6.856
325.00	7.592
325.37	7.330
325.73	10.061
326.10	7.086
326.46	9.282
326.83	8.936
327.19	9.425
327.56	10.392
327.92	9.856
328.29	9.697
328.65	9.727
329.01	11.307
329.38	10.526
329.74	11.813
330.11	12.149
330.47	12.262
330.84	13.016
331.20	11.733
331.56	13.036
331.93	13.410
332.29	13.699
332.66	12.291
333.02	12.489
333.38	14.158
333.75	14.159
334.11	13.511
334.48	12.357
334.84	15.573
335.20	13.741
335.57	14.531
335.93	15.936
336.29	13.286
336.66	14.097
337.02	13.694
337.38	14.260
337.75	13.696
338.11	14.222
338.47	14.235
338.84	13.884
339.20	14.148
339.56	16.399
339.93	13.933
340.29	14.880
340.65	13.899
341.02	15.346
341.38	15.501
341.74	15.580
342.11	14.078
342.47	15.279
342.83	14.777
343.20	14.518
343.56	12.980
343.92	15.860
344.28	16.064
344.65	13.944
345.01	15.378
345.37	15.864
345.73	14.894
346.10	14.391
346.46	15.028
346.82	15.076
347.19	14.708
347.55	15.329
347.91	14.173
348.27	14.956
348.63	16.155
349.00	15.990
349.36	14.442
349.72	15.605
350.08	15.317
350.45	15.445
350.81	15.844
351.17	14.871
351.53	13.763
351.89	14.228
352.26	15.504
352.62	16.129
352.98	14.873
353.34	15.588
353.70	15.598
354.07	15.657
354.43	14.941
354.79	14.976
355.15	14.856
355.51	14.766
355.87	15.415
356.24	15.568
356.60	16.197
356.96	14.935
357.32	15.756
357.68	15.096
358.04	15.935
358.40	17.324
358.77	15.533
359.13	15.455
359.49	16.780
359.85	15.168
360.21	15.830
360.57	16.190
360.93	16.222
361.29	15.845
361.66	15.015
362.02	15.976
362.38	16.654
362.74	16.117
363.10	15.280
363.46	17.094
363.82	16.910
364.18	17.366
364.54	17.941
364.90	16.562
365.26	16.405
365.62	18.033
365.98	17.425
366.35	17.394
366.71	17.336
367.07	16.514
367.43	18.257
367.79	18.488
368.15	17.425
368.51	18.252
368.87	18.544
369.23	16.982
369.59	17.639
369.95	17.548
370.31	18.776
370.67	18.221
371.03	17.784
371.39	18.600
371.75	18.884
372.11	18.580
372.47	18.149
372.83	19.263
373.19	18.571
373.55	19.212
373.91	19.132
374.27	19.302
374.63	18.703
374.99	19.541
375.35	19.314
375.71	20.662
376.07	19.986
376.42	18.940
376.78	19.608
377.14	20.271
377.50	20.632
377.86	19.961
378.22	20.289
378.58	21.618
378.94	20.592
379.30	20.597
379.66	21.008
380.02	20.321
380.38	21.148
380.74	20.457
381.09	22.027
381.45	21.659
381.81	21.416
382.17	21.805
382.53	21.033
382.89	21.950
383.25	22.637
383.61	22.406
383.97	22.352
384.32	23.154
384.68	23.579
385.04	22.041
385.40	23.068
385.76	22.988
386.12	21.986
386.48	23.453
386.83	22.822
387.19	22.236
387.55	23.077
387.91	23.355
388.27	23.341
388.62	24.038
388.98	23.259
389.34	24.051
389.70	23.508
390.06	22.374
390.42	24.231
390.77	24.038
391.13	24.037
391.49	25.016
391.85	24.875
392.20	23.119
392.56	24.435
392.92	23.617
393.28	24.856
393.64	24.654
393.99	24.369
394.35	24.513
394.71	24.768
395.07	24.922
395.42	24.255
395.78	24.199
396.14	25.545
396.50	25.015
396.85	24.800
397.21	25.334
397.57	25.775
397.92	25.000
398.28	25.333
398.64	25.045
399.00	25.787
399.35	25.705
399.71	25.610
400.07	24.836
400.42	26.034
400.78	24.508
401.14	25.090
401.49	24.116
401.85	25.015
402.21	25.685
402.57	25.364
402.92	26.558
403.28	25.245
403.63	25.404
403.99	25.420
404.35	24.698
404.70	24.459
405.06	25.663
405.42	25.400
405.77	24.887
406.13	24.588
406.49	25.764
406.84	25.495
407.20	25.618
407.55	25.332
407.91	24.935
408.27	25.919
408.62	24.534
408.98	25.288
409.34	24.802
409.69	25.520
410.05	24.742
410.40	24.096
410.76	25.252
411.11	25.312
411.47	24.808
411.83	25.672
412.18	24.505
412.54	25.198
412.89	26.002
413.25	24.616
413.60	24.970
413.96	24.522
414.31	26.300
414.67	24.635
415.03	25.550
415.38	25.830
415.74	25.580
416.09	25.128
416.45	24.537
416.80	27.113
417.16	26.113
417.51	26.198
417.87	25.890
418.22	25.917
418.58	26.252
418.93	26.364
419.29	26.349
419.64	24.623
420.00	26.306
420.35	25.784
420.71	27.011
421.06	26.568
421.42	25.820
421.77	26.912
422.12	26.693
422.48	26.029
422.83	26.765
423.19	26.559
423.54	26.801
423.90	26.316
424.25	26.753
424.61	28.287
424.96	27.209
425.31	27.054
425.67	26.991
426.02	26.621
426.38	27.768
426.73	27.119
427.09	28.309
427.44	27.273
427.79	26.919
428.15	28.426
428.50	28.094
428.85	28.657
429.21	27.615
429.56	28.854
429.92	28.657
430.27	28.265
430.62	27.847
430.98	28.594
431.33	28.602
431.68	29.115
432.04	29.547
432.39	29.630
432.74	28.957
433.10	28.925
433.45	28.900
433.80	29.675
434.16	29.876
434.51	29.808
434.86	31.283
435.22	29.120
435.57	30.539
435.92	29.894
436.28	30.267
436.63	29.847
436.98	29.611
437.34	30.774
437.69	29.930
438.04	30.176
438.39	30.084
438.75	30.617
439.10	30.094
439.45	30.658
439.81	29.819
440.16	30.324
440.51	31.412
440.86	30.191
441.22	29.464
441.57	32.053
441.92	31.714
442.27	31.115
442.63	31.277
442.98	30.248
443.33	31.796
443.68	31.110
444.03	31.336
444.39	31.620
444.74	32.269
445.09	31.250
445.44	31.120
445.79	31.668
446.15	32.421
446.50	31.029
446.85	31.503
447.20	31.410
447.55	32.652
447.91	32.341
448.26	31.173
448.61	31.749
448.96	31.317
449.31	31.229
449.66	31.998
450.02	31.967
450.37	32.058
450.72	30.960
451.07	33.250
451.42	31.784
451.77	32.376
452.12	31.704
452.47	32.368
452.83	32.033
453.18	32.638
453.53	31.779
453.88	33.254
454.23	32.164
454.58	31.945
454.93	32.620
455.28	31.230
455.63	32.371
455.98	32.229
456.34	32.338
456.69	32.896
457.04	32.698
457.39	32.237
457.74	32.959
458.09	32.541
458.44	32.910
458.79	32.567
459.14	32.801
459.49	33.333
459.84	32.209
460.19	33.711
460.54	32.002
460.89	32.791
461.24	32.848
461.59	31.653
461.94	32.145
462.29	32.936
462.64	32.938
462.99	34.070
463.34	33.288
463.69	33.461
464.04	33.392
464.39	32.378
464.74	32.920
465.09	31.870
465.44	33.051
465.79	33.221
466.14	33.429
466.49	33.161
466.84	33.013
467.19	33.479
467.54	32.152
467.89	34.032
468.24	33.254
468.59	33.042
468.94	33.826
469.29	34.828
469.64	32.951
469.99	35.044
470.34	33.267
470.68	33.285
471.03	32.966
471.38	33.750
471.73	34.056
472.08	32.999
472.43	34.170
472.78	33.533
473.13	33.068
473.48	34.014
473.83	34.615
474.17	34.841
474.52	35.166
474.87	34.149
475.22	33.687
475.57	34.556
475.92	34.773
476.27	33.829
476.61	34.366
476.96	34.153
477.31	34.499
477.66	33.758
478.01	34.738
478.36	34.154
478.70	34.544
479.05	34.343
479.40	34.611
479.75	34.251
480.10	33.581
480.45	33.994
480.79	34.699
481.14	34.772
481.49	33.785
481.84	33.981
482.19	35.130
482.53	34.328
482.88	34.741
483.23	34.507
483.58	34.968
483.92	34.878
484.27	35.179
484.62	34.860
484.97	33.983
485.31	33.792
485.66	33.173
486.01	33.143
486.36	34.265
486.70	35.107
487.05	35.344
487.40	34.642
487.75	34.194
488.09	34.064
488.44	34.100
488.79	33.994
489.13	34.386
489.48	35.033
489.83	34.934
490.17	34.349
490.52	34.918
490.87	35.520
491.22	34.143
491.56	34.907
491.91	35.639
492.26	33.774
492.60	34.491
492.95	34.555
493.30	34.683
493.64	34.368
493.99	34.608
494.34	35.286
494.68	36.002
495.03	34.656
495.37	35.497
495.72	35.314
496.07	34.960
496.41	35.526
496.76	35.388
497.11	35.374
497.45	35.153
497.80	34.717
498.14	35.167
498.49	34.505
498.84	35.194
499.18	35.721
499.53	35.606
499.87	36.149
500.22	35.490
500.56	35.568
500.91	35.616
501.26	35.517
501.60	34.569
501.95	35.459
502.29	34.719
502.64	35.596
502.98	35.697
503.33	34.774
503.67	35.105
504.02	35.780
504.36	36.029
504.71	35.562
505.06	36.595
505.40	36.427
505.75	35.823
506.09	35.844
506.44	36.942
506.78	36.879
507.13	35.582
507.47	36.881
507.82	36.603
508.16	36.736
508.51	35.394
508.85	36.698
509.19	36.473
509.54	37.315
509.88	38.032
510.23	36.426
510.57	37.725
510.92	37.916
511.26	37.002
511.61	36.069
511.95	37.231
512.30	38.043
512.64	37.952
512.98	38.229
513.33	37.342
513.67	38.303
514.02	37.025
514.36	38.116
514.70	37.748
515.05	38.822
515.39	37.601
515.74	38.453
516.08	37.637
516.42	38.640
516.77	38.359
517.11	38.444
517.46	38.577
517.80	39.471
518.14	37.621
518.49	38.673
518.83	38.635
519.17	38.721
519.52	38.288
519.86	39.606
520.20	39.731
520.55	39.077
520.89	39.011
521.23	39.866
521.58	39.561
521.92	40.279
522.26	39.556
522.61	39.544
522.95	38.226
523.29	39.687
523.64	39.725
523.98	40.102
524.32	39.158
524.66	39.503
525.01	40.591
525.35	40.786
525.69	40.468
526.04	41.057
526.38	40.038
526.72	38.378
527.06	40.234
527.41	40.198
527.75	39.142
528.09	39.974
528.43	39.803
528.78	39.259
529.12	40.717
529.46	41.302
529.80	39.832
530.15	39.601
530.49	39.004
530.83	40.733
531.17	40.269
531.51	40.054
531.86	38.907
532.20	40.621
532.54	41.444
532.88	40.250
533.22	41.110
533.57	41.057
533.91	39.076
534.25	38.843
534.59	39.475
534.93	38.519
535.27	39.585
535.62	39.514
535.96	39.819
536.30	39.660
536.64	40.505
536.98	40.890
537.32	40.152
537.66	40.190
538.01	40.344
538.35	40.946
538.69	39.639
539.03	40.555
539.37	39.055
539.71	39.159
540.05	41.124
540.39	40.166
540.73	39.599
541.07	40.779
541.42	39.568
541.76	39.668
542.10	40.783
542.44	38.974
542.78	40.841
543.12	41.412
543.46	38.973
543.80	39.465
544.14	40.564
544.48	40.551
544.82	39.851
545.16	40.711
545.50	40.310
545.84	39.569
546.18	40.985
546.52	42.390
546.86	41.311
547.20	40.788
547.54	39.532
547.88	39.748
548.22	39.974
548.56	40.147
548.90	40.364
549.24	40.084
549.58	41.073
549.92	41.060
550.26	42.558
550.60	39.829
550.94	40.219
551.28	40.858
551.62	40.325
551.96	40.232
552.30	39.303
552.64	41.098
552.98	40.925
553.32	40.909
553.66	40.880
554.00	41.222
554.34	40.650
554.68	41.520
555.02	40.955
555.36	40.834
555.69	39.327
556.03	40.982
556.37	41.110
556.71	40.515
557.05	40.650
557.39	40.238
557.73	41.284
558.07	40.618
558.41	40.688
558.75	40.608
559.08	39.922
559.42	40.046
559.76	42.868
560.10	41.685
560.44	40.535
560.78	40.362
561.12	40.097
561.45	40.616
561.79	40.767
562.13	40.673
562.47	39.706
562.81	40.806
563.15	40.448
563.48	41.050
563.82	41.176
564.16	40.568
564.50	40.726
564.84	40.079
565.17	39.324
565.51	40.548
565.85	41.582
566.19	40.975
566.52	40.835
566.86	40.202
567.20	40.920
567.54	42.351
567.88	40.089
568.21	41.275
568.55	40.244
568.89	39.712
569.23	39.472
569.56	39.218
569.90	39.772
570.24	39.271
570.57	38.489
570.91	37.810
571.25	39.105
571.59	39.494
571.92	38.810
572.26	38.077
572.60	38.349
572.93	37.442
573.27	38.232
573.61	38.084
573.95	38.664
574.28	38.866
574.62	37.850
574.96	37.861
575.29	37.551
575.63	37.669
575.97	37.567
576.30	37.435
576.64	37.859
576.98	37.895
577.31	37.735
577.65	37.978
577.98	38.136
578.32	38.160
578.66	38.072
578.99	38.142
579.33	38.307
579.67	37.383
580.00	37.376
580.34	37.818
580.67	37.975
581.01	36.952
581.35	37.850
581.68	37.500
582.02	38.296
582.35	37.847
582.69	38.700
583.02	38.705
583.36	38.084
583.70	38.172
584.03	38.254
584.37	38.078
584.70	37.854
585.04	38.152
585.37	37.303
585.71	38.171
586.04	38.045
586.38	38.546
586.72	38.444
587.05	38.006
587.39	38.214
587.72	38.572
588.06	38.817
588.39	38.536
588.73	39.077
589.06	39.226
589.40	38.990
589.73	38.739
590.07	38.638
590.40	38.782
590.73	39.584
591.07	39.344
591.40	40.035
591.74	39.183
592.07	39.775
592.41	40.127
592.74	39.124
593.08	39.959
593.41	39.770
593.75	38.905
594.08	39.684
594.41	39.704
594.75	39.034
595.08	39.887
595.42	39.090
595.75	38.662
596.09	39.853
596.42	39.975
596.75	39.241
597.09	40.071
597.42	38.804
597.75	40.080
598.09	39.720
598.42	39.240
598.76	38.164
599.09	38.437
599.42	38.870
599.76	39.071
600.09	39.771
600.42	40.486
600.76	39.586
601.09	39.119
601.42	38.860
601.76	38.902
602.09	39.223
602.42	38.848
602.76	39.551
603.09	40.040
603.42	40.411
603.76	39.888
604.09	39.407
604.42	39.842
604.76	39.424
605.09	39.693
605.42	39.672
605.75	39.414
606.09	38.979
606.42	39.380
606.75	40.532
607.09	40.009
607.42	38.556
607.75	39.249
608.08	40.217
608.42	40.114
608.75	38.692
609.08	38.870
609.41	39.412
609.75	39.834
610.08	39.265
610.41	39.566
610.74	40.426
611.07	40.314
611.41	39.183
611.74	39.229
612.07	40.763
612.40	38.966
612.73	40.226
613.07	40.396
613.40	41.653
613.73	40.545
614.06	40.198
614.39	40.304
614.72	39.050
615.06	39.348
615.39	39.989
615.72	39.707
616.05	39.757
616.38	40.337
616.71	39.219
617.05	40.410
617.38	40.557
617.71	40.049
618.04	41.491
618.37	40.755
618.70	41.265
619.03	40.826
619.36	41.438
619.69	40.488
620.03	39.807
620.36	40.928
620.69	41.134
621.02	41.400
621.35	40.161
621.68	40.328
622.01	40.291
622.34	41.460
622.67	40.625
623.00	41.239
623.33	40.448
623.66	39.956
623.99	39.925
624.32	40.699
624.65	41.280
624.99	40.105
625.32	40.045
625.65	40.948
625.98	39.906
626.31	40.620
626.64	40.669
626.97	41.353
627.30	40.766
627.63	40.242
627.96	41.950
628.29	42.371
628.62	41.547
628.95	41.732
629.28	39.850
629.61	40.824
629.94	41.966
630.26	41.750
630.59	42.010
630.92	41.141
631.25	42.843
631.58	41.376
631.91	39.468
632.24	42.111
632.57	41.222
632.90	42.184
633.23	41.939
633.56	41.637
633.89	43.042
634.22	42.621
634.55	42.668
634.88	40.750
635.20	40.325
635.53	43.384
635.86	41.814
636.19	41.880
636.52	40.980
636.85	40.193
637.18	40.875
637.51	41.512
637.83	40.479
638.16	41.053
638.49	43.862
638.82	42.214
639.15	42.802
639.48	40.467
639.81	43.292
640.13	41.622
640.46	42.593
640.79	43.697
641.12	43.583
641.45	43.185
641.77	43.862
642.10	43.807
642.43	42.033
642.76	40.472
643.09	44.603
643.41	41.746
643.74	43.720
644.07	42.902
644.40	43.922
644.73	42.244
645.05	41.402
645.38	42.384
645.71	44.330
646.04	44.034
646.36	43.630
646.69	44.118
647.02	44.585
647.35	42.780
647.67	43.248
648.00	43.761
648.33	43.339
648.66	40.968
648.98	41.561
649.31	42.769
649.64	42.812
649.96	40.345
650.29	42.623
650.62	44.234
650.94	41.147
651.27	42.808
651.60	43.253
651.92	43.322
652.25	40.902
652.58	42.930
652.90	39.968
653.23	41.129
653.56	40.468
653.88	41.475
654.21	42.282
654.54	43.688
654.86	42.215
655.19	40.688
655.52	40.136
655.84	38.938
656.17	42.032
656.49	56.627
656.82	58.295
657.15	43.623
657.47	32.223
657.80	25.028
658.13	28.060
658.45	36.665
658.78	36.581
659.10	36.638
659.43	36.497
659.75	35.995
660.08	36.510
660.41	35.793
660.73	38.064
661.06	41.159
661.38	43.214
661.71	42.065
662.03	42.540
662.36	45.203
662.68	40.717
663.01	42.887
663.33	41.043
663.66	43.991
663.98	43.080
664.31	43.848
664.63	45.796
664.96	38.829
665.28	42.950
665.61	42.495
665.93	42.798
666.26	41.296
666.58	43.035
666.91	39.198
667.23	45.833
667.56	42.404
667.88	45.475
668.21	41.935
668.53	44.159
668.86	44.573
669.18	44.749
669.50	42.056
669.83	43.796
670.15	41.256
670.48	45.093
670.80	42.141
671.13	41.309
671.45	43.018
671.77	41.756
672.10	43.984
672.42	40.959
672.75	41.636
673.07	38.018
673.39	40.984
673.72	40.748
674.04	40.552
674.37	38.144
674.69	42.418
675.01	40.426
675.34	39.696
675.66	42.981
675.98	41.410
676.31	41.855
676.63	45.057
676.95	41.593
677.28	41.299
677.60	43.213
677.92	44.273
678.25	40.700
678.57	43.004
678.89	41.509
679.22	42.348
679.54	44.773
679.86	39.000
680.18	43.156
680.51	40.596
680.83	41.333
681.15	41.618
681.48	43.408
681.80	41.331
682.12	40.040
682.44	41.847
682.77	40.043
683.09	39.832
683.41	41.593
683.73	41.781
684.06	41.290
684.38	42.887
684.70	39.918
685.02	39.567
685.34	40.546
685.67	40.909
685.99	41.588
686.31	42.190
686.63	39.716
686.96	40.296
687.28	38.343
687.60	39.453
687.92	39.105
688.24	43.110
688.56	39.679
688.89	39.744
689.21	41.794
689.53	42.299
689.85	39.644
690.17	40.583
690.49	42.725
690.82	40.000
691.14	38.443
691.46	41.685
691.78	39.868
692.10	42.585
692.42	42.444
692.74	39.270
693.06	42.022
693.39	40.940
693.71	38.826
694.03	40.821
694.35	43.115
694.67	38.534
694.99	38.875
695.31	39.286
695.63	40.051
695.95	41.191
696.27	39.900
696.59	41.979
696.91	42.416
697.23	43.750
697.56	38.221
697.88	42.342
698.20	40.257
698.52	36.323
698.84	41.019
699.16	40.476
699.48	43.250
699.80	39.850
700.12	39.295
700.44	39.106
700.76	42.566
701.08	39.535
701.40	36.858
701.72	41.667
702.04	47.756
702.36	45.482
702.68	37.126
703.00	38.551
703.32	37.249
703.64	46.176
703.96	40.698
704.28	42.308
704.60	38.608
704.91	39.048
705.23	42.395
705.55	39.865
705.87	38.225
706.19	34.028
706.51	38.889
706.83	40.000
707.15	38.854
707.47	40.771
707.79	38.918
708.11	36.387
708.43	37.905
708.74	39.221
709.06	38.440
709.38	36.207
709.70	38.438
710.02	38.957
710.34	35.644
710.66	39.683
710.98	43.218
711.29	42.258
711.61	38.339
711.93	37.705
712.25	43.189
712.57	41.812
712.89	39.568
713.20	39.863
713.52	31.716
713.84	42.349
714.16	37.705
714.48	43.492
714.80	38.154
715.11	38.617
715.43	43.072
715.75	41.121
716.07	36.721
716.39	38.796
716.70	44.599
717.02	41.481
717.34	37.786
717.66	41.079
717.97	39.344
718.29	34.874
718.61	39.286
718.93	40.502
719.24	35.662
719.56	39.623
719.88	39.636
720.20	38.202
720.51	40.977
720.83	38.554
721.15	40.984
721.46	36.078
721.78	42.912
722.10	42.800
722.42	36.364
722.73	40.637
723.05	36.546
723.37	38.039
723.68	34.008
724.00	41.463
724.32	39.095
724.63	32.780
724.95	39.256
725.27	41.228
725.58	40.948
725.90	40.476
726.22	41.697
726.53	41.065
726.85	36.471
727.16	37.594
727.48	38.846
727.80	35.246
728.11	32.353
728.43	36.364
728.74	36.719
729.06	40.152
729.38	34.241
729.69	36.220
730.01	39.764
730.32	34.661
730.64	41.758
730.96	37.687
731.27	41.071
731.59	36.334
731.90	38.650
732.22	36.810
732.53	40.728
732.85	38.255
733.16	41.667
733.48	39.024
733.80	36.655
734.11	35.862
734.43	41.156
734.74	39.763
735.06	37.618
735.37	35.780
735.69	33.226
736.00	34.343
736.32	37.086
736.63	37.241
736.95	39.493
737.26	39.404
737.58	38.489
737.89	40.502
738.21	35.338
738.52	36.538
738.83	36.719
739.15	33.333
739.46	39.919
739.78	40.210
740.09	36.364
740.41	37.413
740.72	37.956
741.04	33.730
741.35	35.065
741.66	34.722
741.98	32.857
742.29	37.089
742.61	40.107
742.92	41.121
743.23	37.719
743.55	35.135
743.86	37.778
744.18	40.952
744.49	35.961
744.80	30.964
745.12	38.660
745.43	38.191
745.74	42.718
746.06	37.073
746.37	39.648
746.68	41.294
747.00	40.838
747.31	37.500
747.62	39.171
747.94	36.245
748.25	39.070
748.56	37.619
748.88	36.957
749.19	40.376
749.50	43.137
749.82	38.222
750.13	37.445
750.44	41.463
750.75	39.600
751.07	37.143
751.38	37.269
751.69	35.496
752.01	35.000
752.32	36.576
752.63	33.846
752.94	31.349
753.26	33.913
753.57	40.179
753.88	38.793
754.19	34.440
754.51	37.500
754.82	37.549
755.13	30.864
755.44	36.364
755.75	39.095
756.07	35.743
756.38	38.281
756.69	39.711
757.00	38.328
757.31	40.940
757.63	37.072
757.94	36.127
758.25	34.884
758.56	39.623
758.87	36.364
759.18	35.000
759.50	36.299
759.81	33.212
760.12	30.405
760.43	35.275
760.74	40.312
761.05	34.831
761.36	36.826
761.67	37.278
761.99	32.258
762.30	35.145
762.61	33.208
762.92	37.220
763.23	36.967
763.54	35.556
763.85	37.975
764.16	35.510
764.47	37.712
764.78	40.075
765.10	43.885
765.41	34.516
765.72	33.962
766.03	35.689
766.34	36.466
766.65	29.960
766.96	38.000
767.27	38.021
767.58	34.884
767.89	39.355
768.20	34.969
768.51	34.973
768.82	35.135
769.13	33.000
769.44	36.842
769.75	29.437
770.06	38.073
770.37	32.394
770.68	31.250
770.99	37.624
771.30	36.893
771.61	33.796
771.92	35.065
772.23	34.112
772.54	32.447
772.85	34.911
773.16	40.854
773.47	42.169
773.78	36.264
774.09	37.333
774.39	39.506
774.70	30.201
775.01	36.957
775.32	27.612
775.63	26.446
775.94	37.594
776.25	31.429
776.56	31.967
776.87	37.168
777.18	44.248
777.48	33.636
777.79	21.739
778.10	34.862
778.41	33.051
778.72	29.752
779.03	33.582
779.34	31.579
779.65	37.255
779.95	47.101
780.26	23.810
780.57	34.483
780.88	28.704
781.19	20.202
781.50	22.400
781.80	34.641
782.11	35.256
782.42	34.940
782.73	25.547
783.04	30.405
783.34	28.030
783.65	29.457
783.96	43.089
784.27	32.479
784.57	31.707
784.88	24.390
785.19	31.579
785.50	28.866
785.81	33.333
786.11	25.490
786.42	14.545
786.73	24.324
787.04	35.644
787.34	31.429
787.65	21.905
787.96	29.412
788.26	36.937
788.57	25.806
788.88	32.813
789.19	27.350
789.49	22.689
789.80	38.462
790.11	28.319
790.41	26.263
790.72	22.642
791.03	15.278
791.33	26.316
791.64	33.333
791.95	30.667
792.25	27.143
792.56	14.634
792.87	28.571
793.17	11.842
793.48	8.108
793.79	16.901
794.09	15.190
794.40	36.170
794.70	24.299
795.01	18.421
795.32	28.182
795.62	19.643
795.93	18.557
796.23	17.582
796.54	31.579
796.85	19.178
797.15	18.056
797.46	17.808
797.76	32.394
798.07	28.750
798.37	29.412
798.68	25.714
798.99	37.143
799.29	35.526
799.60	18.333
799.90	4.167
800.21	17.187
800.51	12.698
800.82	32.787
801.12	12.281
801.43	18.310
801.73	15.254
802.04	26.230
802.34	20.000
802.65	17.308
802.95	11.111
803.26	10.000
803.56	34.615
803.87	2.632
804.17	35.484
804.48	29.231
804.78	15.385
805.09	-2.326
805.39	12.500
805.70	7.547
806.00	28.070
806.30	29.730
806.61	20.588
806.91	29.630
807.22	10.667
807.52	13.433
807.83	27.419
808.13	9.524
808.43	10.909
808.74	27.273
809.04	18.868
809.35	31.507
809.65	35.088
809.95	30.882
810.26	23.529
810.56	12.000
810.86	6.122
811.17	2.857
811.47	13.462
811.77	32.258
812.08	-23.684
812.38	2.381
812.69	28.261
812.99	29.032
813.29	23.810
813.59	-51.852
813.90	2.128
814.20	-11.628
814.50	16.667
814.81	13.333
815.11	19.512
815.41	40.000
815.72	42.857
816.02	-8.333
816.32	20.513
816.62	0.000
816.93	-5.882
817.23	30.435
817.53	29.412
817.84	-11.765
818.14	-9.375
818.44	-6.897
818.74	-25.806
819.04	-11.111
819.35	0.000
819.65	12.000
819.95	-6.667
820.25	-32.000
820.56	-13.158
820.86	-5.000
821.16	19.149
821.46	20.690
821.76	-28.205
822.07	-12.500
822.37	0.000
822.67	-20.000
822.97	-8.108
823.27	29.730
823.57	-8.000
823.88	18.919
824.18	-52.381
824.48	-23.077
824.78	-123.077
825.08	17.391
825.38	-33.333
825.69	4.167
825.99	-30.000
826.29	-18.919
826.59	-32.353
826.89	84.000
827.19	-25.714
827.49	10.526
827.79	15.625
828.09	-6.667
828.39	17.391
828.70	-41.379
829.00	-6.897
829.30	13.889
829.60	28.125
829.90	-16.667
830.20	-3.846
830.50	-61.905
830.80	10.714
831.10	7.692
831.40	4.762
831.70	26.471
832.00	29.167
832.30	15.789
832.60	-18.750
832.90	-50.000
833.20	-94.118
833.50	-80.000
833.80	0.000
834.10	-25.000
834.40	-29.167
834.70	-44.444
835.00	-15.385
835.30	-8.333
835.60	-27.586
835.90	-88.889
836.20	-118.182
836.50	-166.667
836.80	-11.429
837.10	42.857
837.40	-23.529
837.70	-27.273
838.00	-20.833
838.30	-62.500
838.60	-28.571
838.90	-5.000
839.19	-34.783
839.49	13.043
839.79	-72.222
840.09	13.043
840.39	4.545
840.69	-50.000
840.99	-21.053
841.29	-50.000
841.59	-28.571
841.88	-72.222
842.18	-45.833
842.48	-94.118
842.78	6.897
843.08	-14.286
843.38	0.000
843.68	-188.889
843.97	-76.923
844.27	-18.182
844.57	-180.000
844.87	8.000
845.17	-300.000
845.47	-35.714
845.76	-166.667
846.06	0.000
846.36	-475.000
846.66	-100.000
846.96	-26.316
847.25	20.833
847.55	-33.333
847.85	13.333
848.15	-130.000
848.44	30.769
848.74	-47.368
849.04	500.000
849.34	-111.111
849.63	-94.737
849.93	0.000
850.23	-55.000
850.53	-9.524
850.82	-68.000
851.12	-73.684
851.42	-800.000
851.71	-92.857
852.01	-141.667
852.31	-52.941
852.61	-20.000
852.90	-57.143
853.20	-283.333
853.50	-38.889
853.79	10.526
854.09	-120.000
854.39	-64.286
854.68	-30.435
854.98	-300.000
855.28	-6.897
855.57	-18.750
855.87	-55.000
856.17	-66.667
856.46	-34.483
856.76	-86.667
857.05	-41.176
857.35	-107.692
857.65	-172.727
857.94	-14.815
858.24	-71.429
858.53	-78.571
858.83	-100.000
859.13	-166.667
859.42	-4.762
859.72	-137.500
860.01	-533.333
860.31	50.000
860.60	-580.000
860.90	-155.556
861.20	-50.000
861.49	-342.857
861.79	29.412
862.08	-1000.000
862.38	-125.000
862.67	-69.231
862.97	-23.529
863.26	-25.000
863.56	-52.941
863.85	466.667
864.15	-90.000
864.44	-38.462
864.74	5.000
865.03	-237.500
865.33	-300.000
865.62	-23.529
865.92	-325.000
866.21	-78.571
866.51	-66.667
866.80	-2100.000
867.10	-66.667
867.39	-29.412
867.69	8.696
867.98	-171.429
868.27	-260.000
868.57	-131.250
868.86	-172.727
869.16	0.000
869.45	-116.667
869.75	-157.143
870.04	1400.000
870.33	-33.333
870.63	-140.000
870.92	-155.556
871.22	-58.333
871.51	-109.091
871.80	-58.333
872.10	-10.000
>>>>>End Processed Spectral Data<<<<<
