SpectraSuite Data File
++++++++++++++++++++++++++++++++++++
Date: Sat May 16 11:20:13 PDT 2015
User: schluterlab
Dark Spectrum Present: Yes
Reference Spectrum Present: Yes
Number of Sampled Component Spectra: 1
Spectrometers: USB2E3373
Integration Time (usec): 3000 (USB2E3373)
Spectra Averaged: 3 (USB2E3373)
Boxcar Smoothing: 0 (USB2E3373)
Correct for Electrical Dark: No (USB2E3373)
Strobe/Lamp Enabled: No (USB2E3373)
Correct for Detector Non-linearity: No (USB2E3373)
Correct for Stray Light: No (USB2E3373)
Number of Pixels in Processed Spectrum: 2048
>>>>>Begin Processed Spectral Data<<<<<
178.53	0.000
178.91	133.333
179.29	366.667
179.67	-400.000
180.04	-30.769
180.42	500.000
180.80	250.000
181.18	350.000
181.56	-50.000
181.94	1100.000
182.31	475.000
182.69	-46.154
183.07	-200.000
183.45	1200.000
183.83	800.000
184.20	-171.429
184.58	-137.500
184.96	-375.000
185.34	112.500
185.72	-450.000
186.09	216.667
186.47	-137.500
186.85	-12.500
187.23	75.000
187.61	-75.000
187.98	-150.000
188.36	-50.000
188.74	-137.500
189.12	1800.000
189.49	171.429
189.87	-33.333
190.25	300.000
190.63	-64.286
191.00	-155.556
191.38	300.000
191.76	26.667
192.14	600.000
192.51	-220.000
192.89	-300.000
193.27	0.000
193.65	-155.556
194.02	-285.714
194.40	266.667
194.78	-100.000
195.15	0.000
195.53	-90.909
195.91	-366.667
196.29	180.000
196.66	-600.000
197.04	1600.000
197.42	50.000
197.79	6.667
198.17	-466.667
198.55	-150.000
198.92	-1100.000
199.30	175.000
199.68	-450.000
200.05	-100.000
200.43	-111.111
200.81	-1200.000
201.18	-83.333
201.56	171.429
201.94	-13.333
202.31	18.182
202.69	30.000
203.07	-50.000
203.44	500.000
203.82	-33.333
204.19	-100.000
204.57	-25.000
204.95	-1000.000
205.32	-56.250
205.70	600.000
206.08	-1700.000
206.45	-38.889
206.83	-850.000
207.20	100.000
207.58	-533.333
207.96	-333.333
208.33	-87.500
208.71	-33.333
209.08	200.000
209.46	-142.857
209.84	950.000
210.21	0.000
210.59	-5.000
210.96	800.000
211.34	-183.333
211.71	-233.333
212.09	300.000
212.46	850.000
212.84	-2300.000
213.22	666.667
213.59	166.667
213.97	0.000
214.34	120.000
214.72	-30.000
215.09	33.333
215.47	-233.333
215.84	-50.000
216.22	-10.000
216.59	-26.667
216.97	-300.000
217.34	1000.000
217.72	-100.000
218.09	-166.667
218.47	-171.429
218.84	114.286
219.22	57.143
219.59	0.000
219.97	357.143
220.34	250.000
220.72	225.000
221.09	-38.462
221.47	0.000
221.84	566.667
222.22	-250.000
222.59	300.000
222.97	-37.500
223.34	-550.000
223.72	-300.000
224.09	7.143
224.46	-375.000
224.84	-21.429
225.21	-28.571
225.59	0.000
225.96	-187.500
226.34	-114.286
226.71	-44.444
227.08	10.000
227.46	2000.000
227.83	-42.857
228.21	-62.500
228.58	450.000
228.95	-50.000
229.33	-800.000
229.70	-320.000
230.08	-1050.000
230.45	41.667
230.82	83.333
231.20	-1000.000
231.57	-750.000
231.95	1300.000
232.32	33.333
232.69	-111.111
233.07	-200.000
233.44	-400.000
233.81	40.000
234.19	-55.556
234.56	6.250
234.93	9.375
235.31	-214.286
235.68	-114.286
236.05	-29.412
236.43	-81.818
236.80	-29.032
237.17	-8.333
237.55	0.000
237.92	-54.545
238.29	-28.571
238.67	-29.412
239.04	5.556
239.41	-12.903
239.79	-46.154
240.16	11.905
240.53	-7.273
240.91	23.077
241.28	7.273
241.65	16.923
242.02	18.033
242.40	-6.557
242.77	28.788
243.14	11.864
243.51	15.714
243.89	5.063
244.26	15.730
244.63	20.000
245.00	22.105
245.38	18.644
245.75	23.894
246.12	18.400
246.49	18.110
246.87	15.447
247.24	18.644
247.61	16.102
247.98	16.197
248.36	19.580
248.73	29.114
249.10	16.561
249.47	26.316
249.84	23.864
250.22	14.881
250.59	27.119
250.96	19.372
251.33	25.592
251.70	20.673
252.08	22.275
252.45	20.853
252.82	20.476
253.19	22.553
253.56	23.790
253.94	24.895
254.31	24.893
254.68	26.829
255.05	24.597
255.42	26.587
255.79	22.222
256.16	22.353
256.54	25.735
256.91	25.379
257.28	19.414
257.65	22.695
258.02	25.157
258.39	25.418
258.76	22.297
259.14	22.531
259.51	26.557
259.88	25.610
260.25	23.913
260.62	25.080
260.99	20.178
261.36	24.085
261.73	27.168
262.10	25.000
262.47	21.937
262.85	29.143
263.22	26.361
263.59	24.615
263.96	24.058
264.33	26.558
264.70	27.901
265.07	23.352
265.44	22.481
265.81	22.481
266.18	25.823
266.55	22.794
266.92	26.700
267.29	25.908
267.66	22.716
268.03	28.019
268.40	24.648
268.77	23.373
269.14	25.290
269.51	24.598
269.88	25.000
270.25	25.408
270.62	24.943
270.99	24.775
271.36	25.408
271.73	26.233
272.10	27.460
272.47	26.444
272.84	26.222
273.21	25.229
273.58	24.835
273.95	25.439
274.32	28.733
274.69	27.133
275.06	25.153
275.43	23.661
275.80	25.255
276.17	24.477
276.54	26.069
276.91	26.337
277.28	21.907
277.65	25.620
278.02	24.008
278.39	24.165
278.76	24.502
279.13	24.308
279.50	24.652
279.87	25.581
280.23	25.709
280.60	23.459
280.97	25.825
281.34	24.758
281.71	25.000
282.08	25.202
282.45	23.014
282.82	26.163
283.19	23.273
283.56	25.641
283.92	24.205
284.29	25.651
284.66	23.381
285.03	24.777
285.40	25.646
285.77	25.263
286.14	25.090
286.51	23.623
286.87	25.771
287.24	23.891
287.61	22.645
287.98	23.744
288.35	24.463
288.72	24.788
289.08	21.864
289.45	23.232
289.82	22.491
290.19	22.332
290.56	21.157
290.93	20.827
291.29	21.070
291.66	21.417
292.03	23.705
292.40	21.084
292.77	21.739
293.13	22.602
293.50	21.397
293.87	20.552
294.24	20.513
294.60	19.394
294.97	21.093
295.34	19.852
295.71	20.982
296.08	18.280
296.44	19.599
296.81	20.085
297.18	19.437
297.55	20.621
297.91	21.060
298.28	20.000
298.65	16.876
299.02	20.187
299.38	19.519
299.75	20.516
300.12	20.385
300.48	19.437
300.85	19.135
301.22	20.310
301.59	17.815
301.95	19.144
302.32	16.558
302.69	19.339
303.05	17.460
303.42	18.375
303.79	17.943
304.15	18.483
304.52	18.903
304.89	17.946
305.25	19.292
305.62	17.156
305.99	19.906
306.35	18.424
306.72	17.426
307.09	19.183
307.45	17.707
307.82	17.430
308.19	17.562
308.55	17.320
308.92	16.112
309.29	17.622
309.65	16.649
310.02	17.279
310.38	16.541
310.75	18.750
311.12	18.079
311.48	17.015
311.85	17.714
312.22	17.714
312.58	18.108
312.95	16.718
313.31	18.881
313.68	18.593
314.05	19.189
314.41	17.203
314.78	17.582
315.14	18.657
315.51	18.845
315.87	18.780
316.24	18.756
316.61	17.754
316.97	19.303
317.34	18.882
317.70	18.553
318.07	18.470
318.43	18.071
318.80	19.718
319.16	18.480
319.53	19.455
319.89	18.344
320.26	19.608
320.62	17.692
320.99	18.607
321.35	17.734
321.72	18.731
322.08	20.870
322.45	19.901
322.81	19.020
323.18	20.845
323.54	19.593
323.91	20.482
324.27	20.817
324.64	20.384
325.00	21.379
325.37	21.086
325.73	21.522
326.10	21.878
326.46	22.242
326.83	22.383
327.19	21.685
327.56	24.106
327.92	22.940
328.29	23.550
328.65	21.818
329.01	23.233
329.38	23.283
329.74	24.267
330.11	22.665
330.47	22.707
330.84	24.198
331.20	23.646
331.56	24.157
331.93	24.067
332.29	25.114
332.66	23.968
333.02	22.805
333.38	24.821
333.75	25.289
334.11	24.356
334.48	24.625
334.84	24.759
335.20	23.848
335.57	25.542
335.93	25.962
336.29	24.092
336.66	24.846
337.02	25.045
337.38	23.797
337.75	23.442
338.11	23.971
338.47	25.356
338.84	24.682
339.20	24.341
339.56	26.560
339.93	24.427
340.29	23.561
340.65	24.650
341.02	24.452
341.38	24.431
341.74	24.217
342.11	25.171
342.47	23.519
342.83	24.097
343.20	24.680
343.56	24.082
343.92	24.958
344.28	26.156
344.65	24.505
345.01	24.706
345.37	25.664
345.73	23.732
346.10	23.712
346.46	24.370
346.82	24.699
347.19	23.993
347.55	24.559
347.91	24.882
348.27	24.503
348.63	24.879
349.00	24.741
349.36	23.810
349.72	25.080
350.08	25.662
350.45	24.507
350.81	25.239
351.17	24.759
351.53	23.389
351.89	24.414
352.26	25.039
352.62	26.114
352.98	25.554
353.34	26.059
353.70	25.097
354.07	25.098
354.43	25.455
354.79	25.277
355.15	25.639
355.51	24.688
355.87	25.929
356.24	25.496
356.60	26.189
356.96	26.405
357.32	24.941
357.68	25.900
358.04	25.327
358.40	25.135
358.77	25.734
359.13	25.478
359.49	24.792
359.85	26.372
360.21	25.495
360.57	25.828
360.93	26.296
361.29	26.981
361.66	24.771
362.02	26.257
362.38	26.706
362.74	26.740
363.10	25.897
363.46	27.350
363.82	26.385
364.18	26.483
364.54	27.663
364.90	26.765
365.26	25.963
365.62	26.800
365.98	27.809
366.35	27.113
366.71	26.709
367.07	27.241
367.43	27.248
367.79	27.079
368.15	26.600
368.51	28.322
368.87	28.091
369.23	27.649
369.59	27.361
369.95	27.907
370.31	27.778
370.67	26.898
371.03	27.843
371.39	27.157
371.75	27.682
372.11	28.694
372.47	28.272
372.83	29.277
373.19	28.857
373.55	29.346
373.91	28.663
374.27	29.158
374.63	28.778
374.99	29.346
375.35	28.668
375.71	30.047
376.07	29.637
376.42	28.940
376.78	29.673
377.14	31.254
377.50	30.174
377.86	29.389
378.22	30.151
378.58	30.266
378.94	30.271
379.30	30.652
379.66	30.965
380.02	30.422
380.38	29.426
380.74	30.363
381.09	31.576
381.45	31.325
381.81	30.853
382.17	31.579
382.53	31.915
382.89	31.459
383.25	32.812
383.61	31.073
383.97	32.578
384.32	32.541
384.68	32.709
385.04	32.186
385.40	32.015
385.76	32.500
386.12	32.167
386.48	33.849
386.83	33.129
387.19	33.174
387.55	33.071
387.91	32.899
388.27	32.509
388.62	32.572
388.98	33.737
389.34	33.354
389.70	34.227
390.06	33.810
390.42	34.551
390.77	34.385
391.13	34.410
391.49	33.874
391.85	34.040
392.20	33.677
392.56	33.903
392.92	34.113
393.28	35.132
393.64	34.336
393.99	34.954
394.35	33.698
394.71	34.589
395.07	35.279
395.42	33.492
395.78	33.564
396.14	35.202
396.50	34.801
396.85	34.917
397.21	34.629
397.57	35.076
397.92	35.304
398.28	35.111
398.64	35.396
399.00	35.337
399.35	35.457
399.71	36.005
400.07	35.284
400.42	35.036
400.78	34.228
401.14	34.551
401.49	34.729
401.85	35.387
402.21	36.055
402.57	35.376
402.92	35.683
403.28	34.865
403.63	33.613
403.99	35.115
404.35	35.326
404.70	35.284
405.06	35.871
405.42	34.994
405.77	35.124
406.13	35.548
406.49	35.950
406.84	34.853
407.20	36.042
407.55	35.845
407.91	34.391
408.27	35.968
408.62	34.576
408.98	35.173
409.34	34.857
409.69	35.350
410.05	36.022
410.40	35.929
410.76	35.862
411.11	36.160
411.47	36.061
411.83	35.636
412.18	34.901
412.54	34.838
412.89	36.027
413.25	35.065
413.60	34.143
413.96	35.675
414.31	36.269
414.67	35.556
415.03	34.994
415.38	36.174
415.74	35.954
416.09	35.997
416.45	34.392
416.80	36.281
417.16	34.153
417.51	36.638
417.87	36.764
418.22	36.979
418.58	36.521
418.93	35.868
419.29	36.449
419.64	36.307
420.00	36.999
420.35	37.138
420.71	37.155
421.06	37.929
421.42	36.593
421.77	37.242
422.12	37.773
422.48	36.986
422.83	37.813
423.19	37.194
423.54	37.637
423.90	37.420
424.25	37.557
424.61	38.902
424.96	39.087
425.31	37.675
425.67	37.650
426.02	37.923
426.38	38.959
426.73	38.165
427.09	39.767
427.44	38.807
427.79	39.070
428.15	39.617
428.50	39.472
428.85	38.969
429.21	39.402
429.56	40.260
429.92	38.878
430.27	39.631
430.62	39.551
430.98	39.415
431.33	40.181
431.68	40.590
432.04	41.018
432.39	40.570
432.74	40.168
433.10	40.405
433.45	39.436
433.80	40.090
434.16	40.140
434.51	40.603
434.86	41.008
435.22	40.924
435.57	42.289
435.92	40.856
436.28	41.899
436.63	40.192
436.98	40.321
437.34	40.933
437.69	41.365
438.04	40.839
438.39	41.697
438.75	42.084
439.10	40.644
439.45	40.495
439.81	42.108
440.16	41.681
440.51	42.059
440.86	41.990
441.22	40.851
441.57	41.368
441.92	42.455
442.27	42.478
442.63	43.240
442.98	41.084
443.33	41.406
443.68	42.626
444.03	42.731
444.39	42.291
444.74	43.612
445.09	42.708
445.44	43.050
445.79	42.937
446.15	42.607
446.50	42.461
446.85	42.278
447.20	42.594
447.55	43.812
447.91	43.290
448.26	42.123
448.61	42.671
448.96	43.641
449.31	43.405
449.66	42.931
450.02	41.994
450.37	43.304
450.72	42.994
451.07	44.060
451.42	42.255
451.77	43.926
452.12	43.564
452.47	44.081
452.83	43.564
453.18	43.517
453.53	42.973
453.88	44.019
454.23	41.354
454.58	44.562
454.93	43.073
455.28	43.977
455.63	43.550
455.98	43.735
456.34	43.520
456.69	43.715
457.04	43.454
457.39	42.644
457.74	43.768
458.09	43.735
458.44	44.804
458.79	43.890
459.14	43.697
459.49	43.280
459.84	43.114
460.19	42.542
460.54	42.952
460.89	44.170
461.24	43.352
461.59	42.966
461.94	43.094
462.29	44.133
462.64	44.598
462.99	44.311
463.34	44.362
463.69	43.702
464.04	42.472
464.39	44.146
464.74	42.849
465.09	42.333
465.44	42.752
465.79	43.711
466.14	44.879
466.49	43.235
466.84	44.238
467.19	43.766
467.54	42.342
467.89	44.328
468.24	42.577
468.59	43.910
468.94	43.859
469.29	43.535
469.64	44.137
469.99	45.105
470.34	43.955
470.68	44.331
471.03	43.772
471.38	43.472
471.73	45.245
472.08	44.378
472.43	43.050
472.78	43.533
473.13	44.268
473.48	44.863
473.83	45.161
474.17	44.459
474.52	46.675
474.87	43.240
475.22	44.012
475.57	44.000
475.92	44.006
476.27	43.543
476.61	44.056
476.96	44.941
477.31	44.403
477.66	44.383
478.01	44.787
478.36	44.212
478.70	45.008
479.05	43.591
479.40	44.301
479.75	44.546
480.10	43.800
480.45	43.520
480.79	44.274
481.14	45.058
481.49	44.337
481.84	43.643
482.19	44.175
482.53	44.792
482.88	44.044
483.23	44.648
483.58	43.895
483.92	43.717
484.27	43.642
484.62	43.024
484.97	43.375
485.31	43.392
485.66	41.701
486.01	42.592
486.36	43.725
486.70	44.412
487.05	43.396
487.40	43.964
487.75	44.161
488.09	43.422
488.44	43.809
488.79	43.615
489.13	44.275
489.48	44.576
489.83	44.803
490.17	44.319
490.52	44.384
490.87	44.065
491.22	44.325
491.56	43.056
491.91	44.323
492.26	43.726
492.60	44.053
492.95	43.741
493.30	43.735
493.64	42.736
493.99	44.646
494.34	44.286
494.68	44.803
495.03	44.455
495.37	44.002
495.72	44.450
496.07	45.425
496.41	44.604
496.76	44.429
497.11	44.936
497.45	44.732
497.80	44.522
498.14	44.646
498.49	44.350
498.84	43.883
499.18	44.834
499.53	44.812
499.87	44.836
500.22	45.049
500.56	45.273
500.91	44.236
501.26	44.736
501.60	44.584
501.95	44.638
502.29	45.064
502.64	44.932
502.98	44.514
503.33	44.408
503.67	44.636
504.02	44.230
504.36	45.588
504.71	44.782
505.06	45.082
505.40	45.509
505.75	46.291
506.09	45.854
506.44	44.912
506.78	46.412
507.13	44.954
507.47	47.001
507.82	45.173
508.16	45.181
508.51	44.874
508.85	45.911
509.19	45.264
509.54	44.715
509.88	46.011
510.23	45.440
510.57	47.090
510.92	46.563
511.26	45.082
511.61	46.112
511.95	46.336
512.30	46.784
512.64	45.520
512.98	45.545
513.33	45.634
513.67	45.338
514.02	45.470
514.36	46.371
514.70	46.576
515.05	47.570
515.39	47.001
515.74	47.760
516.08	47.147
516.42	46.402
516.77	48.065
517.11	46.911
517.46	47.608
517.80	47.413
518.14	47.222
518.49	47.579
518.83	46.766
519.17	47.484
519.52	45.749
519.86	47.790
520.20	48.350
520.55	47.877
520.89	47.777
521.23	46.886
521.58	48.652
521.92	48.575
522.26	48.063
522.61	47.465
522.95	47.926
523.29	49.216
523.64	46.596
523.98	48.313
524.32	48.397
524.66	47.453
525.01	48.298
525.35	48.196
525.69	48.861
526.04	47.911
526.38	48.440
526.72	47.573
527.06	48.307
527.41	47.393
527.75	48.185
528.09	48.709
528.43	48.197
528.78	47.362
529.12	48.143
529.46	47.616
529.80	47.256
530.15	48.487
530.49	46.895
530.83	48.527
531.17	46.734
531.51	48.024
531.86	46.280
532.20	47.503
532.54	48.930
532.88	46.706
533.22	47.727
533.57	48.238
533.91	47.066
534.25	46.637
534.59	46.658
534.93	47.418
535.27	47.577
535.62	47.698
535.96	46.736
536.30	47.251
536.64	47.211
536.98	48.164
537.32	48.791
537.66	47.658
538.01	49.072
538.35	48.581
538.69	47.995
539.03	47.461
539.37	46.973
539.71	47.098
540.05	48.389
540.39	48.753
540.73	49.205
541.07	47.883
541.42	48.278
541.76	47.043
542.10	48.886
542.44	47.235
542.78	47.151
543.12	48.473
543.46	46.781
543.80	47.023
544.14	46.004
544.48	48.360
544.82	47.700
545.16	48.424
545.50	46.635
545.84	48.331
546.18	49.168
546.52	48.009
546.86	49.074
547.20	47.398
547.54	46.901
547.88	48.042
548.22	48.165
548.56	48.029
548.90	48.046
549.24	48.213
549.58	48.342
549.92	48.481
550.26	48.410
550.60	48.009
550.94	48.467
551.28	48.683
551.62	48.301
551.96	49.493
552.30	47.735
552.64	48.205
552.98	48.633
553.32	48.918
553.66	49.459
554.00	48.827
554.34	48.809
554.68	48.099
555.02	48.915
555.36	46.945
555.69	48.854
556.03	47.860
556.37	49.004
556.71	49.034
557.05	48.263
557.39	48.849
557.73	48.724
558.07	49.359
558.41	49.738
558.75	48.517
559.08	48.638
559.42	48.775
559.76	49.003
560.10	49.217
560.44	48.916
560.78	48.643
561.12	49.068
561.45	48.493
561.79	49.826
562.13	47.405
562.47	47.829
562.81	48.161
563.15	48.006
563.48	48.514
563.82	48.479
564.16	47.735
564.50	47.849
564.84	48.743
565.17	48.408
565.51	47.718
565.85	48.546
566.19	48.155
566.52	47.554
566.86	47.914
567.20	48.910
567.54	49.144
567.88	47.739
568.21	48.210
568.55	47.296
568.89	46.123
569.23	46.738
569.56	45.944
569.90	46.420
570.24	46.524
570.57	45.237
570.91	45.563
571.25	45.590
571.59	45.957
571.92	44.911
572.26	45.416
572.60	45.517
572.93	44.906
573.27	44.634
573.61	44.135
573.95	44.838
574.28	44.226
574.62	45.755
574.96	45.339
575.29	45.122
575.63	44.651
575.97	44.444
576.30	44.697
576.64	45.117
576.98	44.140
577.31	44.696
577.65	44.979
577.98	44.634
578.32	45.022
578.66	45.014
578.99	44.328
579.33	45.039
579.67	45.625
580.00	44.866
580.34	44.692
580.67	45.256
581.01	44.059
581.35	44.814
581.68	44.160
582.02	45.016
582.35	44.551
582.69	45.804
583.02	45.336
583.36	44.852
583.70	45.341
584.03	46.228
584.37	45.196
584.70	45.969
585.04	45.722
585.37	44.487
585.71	45.017
586.04	45.542
586.38	44.988
586.72	45.800
587.05	46.106
587.39	45.698
587.72	45.447
588.06	46.245
588.39	46.283
588.73	45.504
589.06	46.036
589.40	47.029
589.73	46.069
590.07	46.176
590.40	46.089
590.73	47.461
591.07	47.541
591.40	47.097
591.74	47.220
592.07	46.982
592.41	47.091
592.74	46.426
593.08	46.584
593.41	45.954
593.75	45.203
594.08	47.017
594.41	46.839
594.75	46.584
595.08	46.805
595.42	46.929
595.75	47.115
596.09	47.419
596.42	47.054
596.75	47.348
597.09	48.531
597.42	45.788
597.75	47.919
598.09	46.769
598.42	47.371
598.76	45.972
599.09	46.685
599.42	47.328
599.76	47.225
600.09	47.214
600.42	46.221
600.76	47.232
601.09	45.310
601.42	47.131
601.76	46.924
602.09	47.607
602.42	46.667
602.76	46.822
603.09	46.492
603.42	47.703
603.76	47.627
604.09	47.257
604.42	46.545
604.76	48.103
605.09	47.242
605.42	47.429
605.75	47.779
606.09	46.907
606.42	46.502
606.75	46.629
607.09	46.758
607.42	47.227
607.75	47.506
608.08	47.808
608.42	47.871
608.75	46.822
609.08	47.735
609.41	47.235
609.75	47.392
610.08	48.088
610.41	47.904
610.74	47.437
611.07	47.718
611.41	47.605
611.74	48.380
612.07	48.604
612.40	48.241
612.73	48.896
613.07	47.936
613.40	47.893
613.73	47.902
614.06	46.842
614.39	49.380
614.72	47.151
615.06	47.446
615.39	47.368
615.72	49.267
616.05	47.985
616.38	50.203
616.71	48.769
617.05	49.397
617.38	49.164
617.71	47.912
618.04	49.627
618.37	49.119
618.70	49.544
619.03	48.274
619.36	49.753
619.69	49.031
620.03	47.383
620.36	49.719
620.69	50.467
621.02	50.533
621.35	50.968
621.68	49.672
622.01	50.566
622.34	50.699
622.67	49.922
623.00	49.426
623.33	49.552
623.66	48.080
623.99	50.150
624.32	48.884
624.65	49.375
624.99	51.083
625.32	49.177
625.65	51.671
625.98	49.531
626.31	51.060
626.64	50.377
626.97	49.914
627.30	51.915
627.63	49.050
627.96	51.871
628.29	51.562
628.62	50.525
628.95	50.689
629.28	50.282
629.61	50.442
629.94	51.418
630.26	53.380
630.59	52.764
630.92	53.253
631.25	51.008
631.58	53.545
631.91	50.957
632.24	51.667
632.57	50.778
632.90	52.529
633.23	52.921
633.56	51.462
633.89	53.302
634.22	53.837
634.55	50.601
634.88	53.567
635.20	52.185
635.53	54.198
635.86	52.141
636.19	51.770
636.52	50.657
636.85	51.625
637.18	52.750
637.51	53.903
637.83	53.795
638.16	53.553
638.49	55.034
638.82	51.995
639.15	52.399
639.48	52.789
639.81	54.219
640.13	54.054
640.46	56.553
640.79	52.521
641.12	52.609
641.45	55.093
641.77	55.090
642.10	54.834
642.43	53.414
642.76	55.276
643.09	53.175
643.41	54.127
643.74	56.280
644.07	54.914
644.40	56.888
644.73	55.281
645.05	54.090
645.38	55.464
645.71	56.701
646.04	56.471
646.36	53.229
646.69	55.017
647.02	54.152
647.35	55.054
647.67	56.387
648.00	55.185
648.33	55.143
648.66	53.548
648.98	53.344
649.31	55.077
649.64	54.688
649.96	53.689
650.29	53.934
650.62	57.831
650.94	54.132
651.27	55.633
651.60	56.055
651.92	56.336
652.25	50.918
652.58	55.026
652.90	53.451
653.23	54.677
653.56	55.853
653.88	53.934
654.21	53.859
654.54	55.648
654.86	52.488
655.19	53.152
655.52	52.381
655.84	47.982
656.17	51.011
656.49	68.844
656.82	71.383
657.15	53.460
657.47	39.894
657.80	30.825
658.13	35.462
658.45	48.114
658.78	47.494
659.10	47.671
659.43	47.826
659.75	48.780
660.08	47.708
660.41	49.233
660.73	50.825
661.06	55.652
661.38	57.143
661.71	56.023
662.03	58.266
662.36	58.849
662.68	56.329
663.01	57.749
663.33	57.823
663.66	56.223
663.98	56.920
664.31	56.600
664.63	59.735
664.96	54.447
665.28	54.664
665.61	54.545
665.93	58.230
666.26	54.858
666.58	55.717
666.91	58.129
667.23	60.088
667.56	55.782
667.88	57.240
668.21	55.991
668.53	57.243
668.86	55.427
669.18	57.991
669.50	59.112
669.83	59.854
670.15	56.278
670.48	57.009
670.80	57.631
671.13	52.822
671.45	57.432
671.77	55.032
672.10	55.030
672.42	54.613
672.75	55.273
673.07	52.613
673.39	56.831
673.72	56.299
674.04	56.051
674.37	51.959
674.69	55.943
675.01	54.894
675.34	56.833
675.66	57.451
675.98	56.388
676.31	55.430
676.63	56.092
676.95	55.752
677.28	55.220
677.60	59.050
677.92	58.150
678.25	55.361
678.57	58.436
678.89	56.394
679.22	54.927
679.54	55.424
679.86	53.000
680.18	54.753
680.51	55.866
680.83	55.238
681.15	53.372
681.48	56.795
681.80	55.444
682.12	55.332
682.44	53.045
682.77	56.277
683.09	55.975
683.41	58.407
683.73	54.795
684.06	55.914
684.38	55.439
684.70	51.852
685.02	55.709
685.34	55.361
685.67	52.273
685.99	54.631
686.31	53.860
686.63	52.305
686.96	54.529
687.28	54.913
687.60	55.273
687.92	55.837
688.24	55.315
688.56	52.305
688.89	55.342
689.21	56.018
689.53	56.322
689.85	56.125
690.17	58.296
690.49	54.734
690.82	57.831
691.14	53.538
691.46	60.310
691.78	53.965
692.10	55.297
692.42	55.778
692.74	54.936
693.06	53.708
693.39	54.139
693.71	52.144
694.03	56.803
694.35	51.693
694.67	50.827
694.99	52.430
695.31	56.378
695.63	57.653
695.95	55.087
696.27	56.110
696.59	56.684
696.91	56.742
697.23	53.385
697.56	57.933
697.88	55.405
698.20	54.604
698.52	54.260
698.84	55.825
699.16	55.000
699.48	57.500
699.80	54.887
700.12	54.912
700.44	57.263
700.76	56.560
701.08	58.430
701.40	55.287
701.72	56.481
702.04	60.577
702.36	61.145
702.68	54.790
703.00	55.072
703.32	55.587
703.64	58.529
703.96	59.593
704.28	58.580
704.60	56.962
704.91	55.238
705.23	58.576
705.55	59.459
705.87	59.386
706.19	50.694
706.51	55.903
706.83	58.689
707.15	55.096
707.47	54.545
707.79	54.639
708.11	53.690
708.43	56.110
708.74	51.688
709.06	52.089
709.38	57.184
709.70	57.500
710.02	58.589
710.34	55.776
710.66	50.159
710.98	54.890
711.29	56.774
711.61	53.035
711.93	55.082
712.25	56.478
712.57	53.310
712.89	61.871
713.20	57.045
713.52	57.463
713.84	59.075
714.16	57.049
714.48	53.016
714.80	56.923
715.11	51.873
715.43	60.542
715.75	55.140
716.07	60.000
716.39	55.853
716.70	56.794
717.02	57.407
717.34	61.450
717.66	59.336
717.97	56.148
718.29	55.882
718.61	58.333
718.93	54.480
719.24	52.574
719.56	54.340
719.88	54.545
720.20	53.184
720.51	56.015
720.83	56.627
721.15	53.689
721.46	58.431
721.78	57.088
722.10	60.800
722.42	57.438
722.73	52.590
723.05	55.020
723.37	56.471
723.68	54.656
724.00	60.569
724.32	55.967
724.63	56.432
724.95	57.438
725.27	57.018
725.58	56.466
725.90	56.746
726.22	56.458
726.53	60.456
726.85	50.196
727.16	55.639
727.48	56.923
727.80	53.689
728.11	55.462
728.43	56.198
728.74	54.297
729.06	52.273
729.38	52.140
729.69	54.331
730.01	57.874
730.32	53.386
730.64	51.282
730.96	52.239
731.27	53.929
731.59	50.482
731.90	53.988
732.22	53.374
732.53	55.298
732.85	54.027
733.16	55.435
733.48	53.310
733.80	55.160
734.11	56.207
734.43	55.102
734.74	54.599
735.06	53.918
735.37	53.211
735.69	50.645
736.00	50.505
736.32	52.649
736.63	49.655
736.95	57.971
737.26	50.662
737.58	55.755
737.89	55.556
738.21	51.128
738.52	52.692
738.83	51.172
739.15	53.846
739.46	58.871
739.78	51.748
740.09	54.545
740.41	52.098
740.72	48.905
741.04	52.381
741.35	50.649
741.66	53.704
741.98	50.952
742.29	54.460
742.61	56.684
742.92	56.542
743.23	49.123
743.55	55.405
743.86	58.222
744.18	53.333
744.49	58.128
744.80	57.360
745.12	65.464
745.43	54.271
745.74	56.311
746.06	46.341
746.37	51.542
746.68	66.169
747.00	57.592
747.31	56.731
747.62	53.456
747.94	53.275
748.25	56.744
748.56	57.619
748.88	56.522
749.19	55.399
749.50	67.157
749.82	56.000
750.13	57.269
750.44	53.659
750.75	57.200
751.07	48.929
751.38	53.506
751.69	50.382
752.01	51.538
752.32	54.475
752.63	51.154
752.94	54.762
753.26	55.652
753.57	59.821
753.88	53.448
754.19	56.017
754.51	53.516
754.82	56.126
755.13	54.321
755.44	52.479
755.75	58.848
756.07	53.815
756.38	52.344
756.69	53.791
757.00	48.780
757.31	56.711
757.63	56.698
757.94	52.601
758.25	50.581
758.56	52.291
758.87	50.852
759.18	48.000
759.50	54.804
759.81	52.190
760.12	53.716
760.43	54.369
760.74	53.125
761.05	51.966
761.36	53.293
761.67	50.888
761.99	48.065
762.30	55.797
762.61	52.453
762.92	53.812
763.23	61.137
763.54	52.444
763.85	54.430
764.16	51.429
764.47	57.203
764.78	55.056
765.10	52.518
765.41	50.000
765.72	54.403
766.03	49.823
766.34	56.391
766.65	53.441
766.96	58.000
767.27	57.812
767.58	54.070
767.89	56.774
768.20	56.442
768.51	48.087
768.82	55.135
769.13	47.500
769.44	54.825
769.75	54.545
770.06	55.505
770.37	52.582
770.68	55.729
770.99	50.495
771.30	55.825
771.61	52.778
771.92	48.918
772.23	51.402
772.54	51.064
772.85	50.888
773.16	48.780
773.47	57.229
773.78	54.945
774.09	57.333
774.39	53.086
774.70	54.362
775.01	45.652
775.32	40.299
775.63	57.851
775.94	58.647
776.25	57.143
776.56	57.377
776.87	59.292
777.18	63.717
777.48	46.364
777.79	41.739
778.10	48.624
778.41	39.831
778.72	47.107
779.03	57.463
779.34	50.376
779.65	52.941
779.95	52.174
780.26	54.422
780.57	41.379
780.88	50.000
781.19	50.505
781.50	50.400
781.80	48.366
782.11	53.846
782.42	47.590
782.73	40.876
783.04	52.703
783.34	50.758
783.65	45.736
783.96	55.285
784.27	50.427
784.57	43.902
784.88	49.593
785.19	52.632
785.50	39.175
785.81	42.857
786.11	46.078
786.42	60.000
786.73	53.153
787.04	61.386
787.34	50.476
787.65	47.619
787.96	50.000
788.26	55.856
788.57	56.452
788.88	39.844
789.19	52.137
789.49	44.538
789.80	47.863
790.11	44.248
790.41	49.495
790.72	48.113
791.03	61.111
791.33	48.684
791.64	53.763
791.95	58.667
792.25	51.429
792.56	29.268
792.87	44.898
793.17	52.632
793.48	31.081
793.79	39.437
794.09	45.570
794.40	71.277
794.70	44.860
795.01	39.474
795.32	42.727
795.62	41.964
795.93	43.299
796.23	47.253
796.54	50.526
796.85	41.096
797.15	43.056
797.46	54.795
797.76	47.887
798.07	45.000
798.37	47.059
798.68	50.000
798.99	34.286
799.29	63.158
799.60	41.667
799.90	43.056
800.21	40.625
800.51	38.095
800.82	32.787
801.12	47.368
801.43	45.070
801.73	28.814
802.04	63.934
802.34	45.455
802.65	42.308
802.95	51.852
803.26	45.000
803.56	63.462
803.87	84.211
804.17	53.226
804.48	35.385
804.78	51.282
805.09	51.163
805.39	37.500
805.70	16.981
806.00	66.667
806.30	51.351
806.61	39.706
806.91	43.210
807.22	52.000
807.52	41.791
807.83	38.710
808.13	34.921
808.43	47.273
808.74	57.576
809.04	50.943
809.35	53.425
809.65	50.877
809.95	36.765
810.26	49.020
810.56	36.000
810.86	34.694
811.17	57.143
811.47	32.692
811.77	45.161
812.08	2.632
812.38	45.238
812.69	15.217
812.99	12.903
813.29	9.524
813.59	37.037
813.90	31.915
814.20	41.860
814.50	27.083
814.81	28.333
815.11	43.902
815.41	50.000
815.72	62.857
816.02	22.222
816.32	35.897
816.62	40.541
816.93	2.941
817.23	32.609
817.53	52.941
817.84	47.059
818.14	18.750
818.44	24.138
818.74	9.677
819.04	29.630
819.35	40.000
819.65	28.000
819.95	-6.667
820.25	72.000
820.56	7.895
820.86	37.500
821.16	38.298
821.46	36.207
821.76	23.077
822.07	42.500
822.37	25.581
822.67	30.000
822.97	18.919
823.27	13.514
823.57	52.000
823.88	56.757
824.18	28.571
824.48	15.385
824.78	-15.385
825.08	4.348
825.38	29.167
825.69	0.000
825.99	10.000
826.29	21.622
826.59	23.529
826.89	60.000
827.19	11.429
827.49	57.895
827.79	40.625
828.09	36.667
828.39	43.478
828.70	6.897
829.00	17.241
829.30	38.889
829.60	28.125
829.90	38.889
830.20	34.615
830.50	-66.667
830.80	14.286
831.10	15.385
831.40	-14.286
831.70	20.588
832.00	50.000
832.30	5.263
832.60	-31.250
832.90	16.667
833.20	-47.059
833.50	-33.333
833.80	-80.000
834.10	35.000
834.40	20.833
834.70	5.556
835.00	15.385
835.30	8.333
835.60	-27.586
835.90	-61.111
836.20	9.091
836.50	-16.667
836.80	14.286
837.10	68.571
837.40	-5.882
837.70	-27.273
838.00	58.333
838.30	-18.750
838.60	0.000
838.90	25.000
839.19	21.739
839.49	0.000
839.79	-83.333
840.09	-47.826
840.39	4.545
840.69	25.000
840.99	-5.263
841.29	-31.250
841.59	-21.429
841.88	-33.333
842.18	37.500
842.48	-58.824
842.78	41.379
843.08	50.000
843.38	38.462
843.68	-144.444
843.97	7.692
844.27	27.273
844.57	-160.000
844.87	44.000
845.17	-320.000
845.47	21.429
845.76	-44.444
846.06	0.000
846.36	-450.000
846.66	-20.000
846.96	26.316
847.25	0.000
847.55	-58.333
847.85	53.333
848.15	10.000
848.44	46.154
848.74	-10.526
849.04	66.667
849.34	-66.667
849.63	-15.789
849.93	0.000
850.23	-10.000
850.53	52.381
850.82	28.000
851.12	10.526
851.42	-600.000
851.71	-14.286
852.01	-25.000
852.31	-29.412
852.61	0.000
852.90	-19.048
853.20	-66.667
853.50	-27.778
853.79	0.000
854.09	-26.667
854.39	28.571
854.68	30.435
854.98	-166.667
855.28	37.931
855.57	106.250
855.87	-25.000
856.17	-93.333
856.46	24.138
856.76	60.000
857.05	17.647
857.35	-23.077
857.65	-109.091
857.94	0.000
858.24	-64.286
858.53	7.143
858.83	8.333
859.13	-122.222
859.42	95.238
859.72	0.000
860.01	100.000
860.31	-125.000
860.60	-160.000
860.90	-55.556
861.20	-162.500
861.49	-114.286
861.79	23.529
862.08	-750.000
862.38	-33.333
862.67	0.000
862.97	100.000
863.26	25.000
863.56	-52.941
863.85	66.667
864.15	-20.000
864.44	0.000
864.74	35.000
865.03	-187.500
865.33	33.333
865.62	-47.059
865.92	-375.000
866.21	-135.714
866.51	-8.333
866.80	300.000
867.10	-500.000
867.39	-23.529
867.69	43.478
867.98	-42.857
868.27	-380.000
868.57	-68.750
868.86	-118.182
869.16	-29.412
869.45	-66.667
869.75	-57.143
870.04	400.000
870.33	-16.667
870.63	-100.000
870.92	55.556
871.22	-8.333
871.51	-36.364
871.80	-8.333
872.10	0.000
>>>>>End Processed Spectral Data<<<<<
