SpectraSuite Data File
++++++++++++++++++++++++++++++++++++
Date: Sat May 16 11:07:03 PDT 2015
User: schluterlab
Dark Spectrum Present: Yes
Reference Spectrum Present: Yes
Number of Sampled Component Spectra: 1
Spectrometers: USB2E3373
Integration Time (usec): 3000 (USB2E3373)
Spectra Averaged: 3 (USB2E3373)
Boxcar Smoothing: 0 (USB2E3373)
Correct for Electrical Dark: No (USB2E3373)
Strobe/Lamp Enabled: No (USB2E3373)
Correct for Detector Non-linearity: No (USB2E3373)
Correct for Stray Light: No (USB2E3373)
Number of Pixels in Processed Spectrum: 2048
>>>>>Begin Processed Spectral Data<<<<<
178.53	0.000
178.91	20.000
179.29	33.333
179.67	-900.000
180.04	7.692
180.42	200.000
180.80	25.000
181.18	25.000
181.56	137.500
181.94	100.000
182.31	50.000
182.69	92.308
183.07	-66.667
183.45	650.000
183.83	166.667
184.20	57.143
184.58	37.500
184.96	-50.000
185.34	43.750
185.72	75.000
186.09	166.667
186.47	-137.500
186.85	-100.000
187.23	87.500
187.61	200.000
187.98	-62.500
188.36	37.500
188.74	-37.500
189.12	-600.000
189.49	57.143
189.87	16.667
190.25	-0.000
190.63	85.714
191.00	-88.889
191.38	200.000
191.76	60.000
192.14	220.000
192.51	-20.000
192.89	-333.333
193.27	0.000
193.65	11.111
194.02	-71.429
194.40	166.667
194.78	20.000
195.15	600.000
195.53	-72.727
195.91	-183.333
196.29	160.000
196.66	66.667
197.04	600.000
197.42	250.000
197.79	100.000
198.17	-33.333
198.55	0.000
198.92	800.000
199.30	37.500
199.68	350.000
200.05	33.333
200.43	-88.889
200.81	-400.000
201.18	8.333
201.56	100.000
201.94	13.333
202.31	54.545
202.69	80.000
203.07	60.000
203.44	266.667
203.82	-33.333
204.19	-150.000
204.57	75.000
204.95	500.000
205.32	43.750
205.70	-1100.000
206.08	-800.000
206.45	55.556
206.83	-400.000
207.20	200.000
207.58	-133.333
207.96	-66.667
208.33	75.000
208.71	33.333
209.08	60.000
209.46	71.429
209.84	350.000
210.21	0.000
210.59	95.000
210.96	-300.000
211.34	-316.667
211.71	233.333
212.09	50.000
212.46	550.000
212.84	-900.000
213.22	533.333
213.59	25.000
213.97	100.000
214.34	40.000
214.72	80.000
215.09	-133.333
215.47	83.333
215.84	-30.000
216.22	30.000
216.59	93.333
216.97	-225.000
217.34	-100.000
217.72	100.000
218.09	-200.000
218.47	-128.571
218.84	28.571
219.22	142.857
219.59	0.000
219.97	28.571
220.34	225.000
220.72	87.500
221.09	46.154
221.47	0.000
221.84	100.000
222.22	400.000
222.59	-400.000
222.97	-50.000
223.34	-250.000
223.72	-66.667
224.09	0.000
224.46	0.000
224.84	14.286
225.21	-14.286
225.59	72.727
225.96	-12.500
226.34	100.000
226.71	-44.444
227.08	40.000
227.46	400.000
227.83	171.429
228.21	-37.500
228.58	-100.000
228.95	56.250
229.33	-800.000
229.70	120.000
230.08	-150.000
230.45	83.333
230.82	-33.333
231.20	-500.000
231.57	50.000
231.95	-100.000
232.32	42.857
232.69	0.000
233.07	-42.857
233.44	150.000
233.81	40.000
234.19	88.889
234.56	25.000
234.93	34.375
235.31	0.000
235.68	14.286
236.05	100.000
236.43	-9.091
236.80	67.742
237.17	66.667
237.55	42.857
237.92	-4.545
238.29	31.429
238.67	44.118
239.04	50.000
239.41	9.677
239.79	-5.128
240.16	40.476
240.53	40.000
240.91	43.590
241.28	40.000
241.65	41.538
242.02	31.148
242.40	36.066
242.77	46.970
243.14	38.983
243.51	44.286
243.89	39.241
244.26	40.449
244.63	41.053
245.00	38.947
245.38	36.441
245.75	29.204
246.12	35.200
246.49	33.858
246.87	29.268
247.24	32.203
247.61	36.441
247.98	35.915
248.36	29.371
248.73	43.671
249.10	33.758
249.47	37.427
249.84	36.364
250.22	25.595
250.59	33.898
250.96	38.220
251.33	37.441
251.70	28.846
252.08	34.123
252.45	35.545
252.82	37.143
253.19	30.213
253.56	31.452
253.94	36.287
254.31	35.622
254.68	41.057
255.05	31.855
255.42	38.492
255.79	30.108
256.16	37.255
256.54	38.235
256.91	34.848
257.28	29.304
257.65	35.106
258.02	37.736
258.39	33.110
258.76	33.108
259.14	30.247
259.51	40.656
259.88	33.841
260.25	38.199
260.62	33.119
260.99	32.641
261.36	34.451
261.73	36.705
262.10	33.889
262.47	34.473
262.85	33.429
263.22	34.097
263.59	32.615
263.96	35.072
264.33	32.520
264.70	33.149
265.07	32.692
265.44	33.333
265.81	35.142
266.18	31.646
266.55	34.069
266.92	36.776
267.29	35.593
267.66	34.321
268.03	34.541
268.40	29.577
268.77	34.699
269.14	32.947
269.51	32.414
269.88	30.505
270.25	35.198
270.62	33.410
270.99	32.432
271.36	35.198
271.73	33.184
272.10	32.265
272.47	34.667
272.84	35.556
273.21	36.009
273.58	30.330
273.95	32.895
274.32	36.199
274.69	32.604
275.06	34.151
275.43	33.259
275.80	36.253
276.17	35.146
276.54	35.642
276.91	35.597
277.28	34.077
277.65	33.264
278.02	34.029
278.39	32.613
278.76	32.470
279.13	32.806
279.50	33.996
279.87	31.501
280.23	34.211
280.60	33.002
280.97	33.398
281.34	32.495
281.71	31.538
282.08	35.081
282.45	30.957
282.82	33.721
283.19	33.273
283.56	32.967
283.92	35.159
284.29	34.201
284.66	31.115
285.03	29.947
285.40	31.365
285.77	33.684
286.14	31.769
286.51	32.327
286.87	32.668
287.24	31.911
287.61	30.579
287.98	30.329
288.35	29.091
288.72	29.881
289.08	28.814
289.45	30.976
289.82	28.893
290.19	33.990
290.56	28.926
290.93	27.663
291.29	30.146
291.66	28.986
292.03	28.885
292.40	27.861
292.77	27.950
293.13	28.455
293.50	27.637
293.87	28.374
294.24	26.848
294.60	26.667
294.97	27.162
295.34	26.370
295.71	27.381
296.08	25.806
296.44	26.609
296.81	27.493
297.18	27.606
297.55	26.977
297.91	25.941
298.28	25.205
298.65	24.128
299.02	24.866
299.38	24.866
299.75	24.864
300.12	23.718
300.48	25.320
300.85	24.115
301.22	24.968
301.59	24.707
301.95	25.189
302.32	22.816
302.69	23.745
303.05	22.711
303.42	21.250
303.79	23.923
304.15	23.934
304.52	22.870
304.89	24.675
305.25	22.222
305.62	21.152
305.99	24.971
306.35	22.642
306.72	22.665
307.09	24.972
307.45	21.793
307.82	21.006
308.19	21.812
308.55	22.767
308.92	21.375
309.29	21.730
309.65	21.633
310.02	22.246
310.38	20.432
310.75	21.414
311.12	22.004
311.48	22.547
311.85	21.627
312.22	21.833
312.58	21.668
312.95	20.285
313.31	21.479
313.68	21.106
314.05	21.860
314.41	21.529
314.78	20.679
315.14	21.224
315.51	21.479
315.87	21.781
316.24	23.032
316.61	20.345
316.97	21.393
317.34	20.906
317.70	21.336
318.07	21.082
318.43	20.693
318.80	22.254
319.16	20.544
319.53	20.395
319.89	20.602
320.26	20.686
320.62	19.135
320.99	21.493
321.35	18.621
321.72	20.164
322.08	20.079
322.45	21.089
322.81	20.557
323.18	21.614
323.54	20.610
323.91	19.833
324.27	20.152
324.64	20.384
325.00	19.546
325.37	20.452
325.73	21.260
326.10	18.866
326.46	20.403
326.83	20.085
327.19	19.766
327.56	21.295
327.92	19.116
328.29	19.740
328.65	18.727
329.01	19.170
329.38	18.912
329.74	20.604
330.11	19.402
330.47	20.436
330.84	18.698
331.20	20.397
331.56	19.417
331.93	19.272
332.29	19.635
332.66	18.876
333.02	18.914
333.38	20.072
333.75	19.056
334.11	19.733
334.48	19.594
334.84	18.985
335.20	20.213
335.57	18.682
335.93	20.680
336.29	19.663
336.66	19.295
337.02	19.459
337.38	18.717
337.75	19.315
338.11	18.873
338.47	19.039
338.84	19.873
339.20	18.893
339.56	19.519
339.93	19.753
340.29	17.715
340.65	17.745
341.02	19.309
341.38	18.197
341.74	19.221
342.11	18.857
342.47	18.283
342.83	18.304
343.20	18.787
343.56	17.551
343.92	19.699
344.28	18.923
344.65	18.152
345.01	18.908
345.37	19.020
345.73	17.921
346.10	16.926
346.46	17.465
346.82	18.685
347.19	17.420
347.55	18.299
347.91	18.268
348.27	18.457
348.63	19.386
349.00	18.059
349.36	16.003
349.72	18.073
350.08	17.562
350.45	16.706
350.81	17.357
351.17	17.765
351.53	17.343
351.89	18.674
352.26	16.512
352.62	18.433
352.98	18.038
353.34	17.506
353.70	16.525
354.07	18.096
354.43	17.628
354.79	17.512
355.15	17.572
355.51	17.578
355.87	17.154
356.24	17.315
356.60	18.533
356.96	18.168
357.32	17.656
357.68	17.241
358.04	17.706
358.40	17.247
358.77	17.543
359.13	17.674
359.49	17.611
359.85	17.226
360.21	17.960
360.57	17.545
360.93	18.222
361.29	17.638
361.66	16.921
362.02	16.790
362.38	17.902
362.74	16.484
363.10	16.858
363.46	17.877
363.82	16.691
364.18	17.149
364.54	18.156
364.90	16.632
365.26	16.904
365.62	18.460
365.98	17.496
366.35	16.972
366.71	16.279
367.07	17.078
367.43	17.227
367.79	17.045
368.15	16.572
368.51	18.671
368.87	18.201
369.23	17.404
369.59	16.944
369.95	17.125
370.31	18.425
370.67	16.486
371.03	16.691
371.39	16.124
371.75	18.097
372.11	17.934
372.47	16.992
372.83	17.385
373.19	17.929
373.55	16.749
373.91	17.639
374.27	16.632
374.63	16.908
374.99	17.524
375.35	16.622
375.71	18.028
376.07	16.701
376.42	15.695
376.78	17.320
377.14	16.542
377.50	18.117
377.86	16.320
378.22	17.023
378.58	16.739
378.94	17.263
379.30	17.063
379.66	17.608
380.02	16.578
380.38	16.979
380.74	16.589
381.09	17.340
381.45	17.542
381.81	16.757
382.17	16.855
382.53	16.413
382.89	17.404
383.25	16.978
383.61	16.392
383.97	16.595
384.32	16.896
384.68	16.626
385.04	16.304
385.40	17.042
385.76	16.707
386.12	16.427
386.48	17.017
386.83	17.117
387.19	16.677
387.55	17.323
387.91	16.538
388.27	16.405
388.62	17.067
388.98	16.172
389.34	16.524
389.70	17.905
390.06	17.464
390.42	16.987
390.77	16.404
391.13	18.261
391.49	17.093
391.85	16.521
392.20	16.323
392.56	16.860
392.92	16.543
393.28	16.992
393.64	17.017
393.99	16.554
394.35	16.667
394.71	17.603
395.07	16.761
395.42	16.508
395.78	16.028
396.14	16.760
396.50	16.758
396.85	16.348
397.21	16.829
397.57	16.231
397.92	16.979
398.28	16.889
398.64	16.538
399.00	17.022
399.35	16.629
399.71	17.247
400.07	17.552
400.42	16.971
400.78	16.458
401.14	16.527
401.49	16.450
401.85	17.084
402.21	17.282
402.57	16.323
402.92	16.551
403.28	16.544
403.63	15.518
403.99	16.718
404.35	16.244
404.70	16.384
405.06	17.359
405.42	16.236
405.77	16.799
406.13	16.979
406.49	16.777
406.84	16.557
407.20	17.256
407.55	16.529
407.91	16.321
408.27	17.279
408.62	16.957
408.98	16.252
409.34	16.210
409.69	16.887
410.05	17.526
410.40	16.493
410.76	17.072
411.11	16.584
411.47	15.921
411.83	17.115
412.18	16.337
412.54	16.412
412.89	17.072
413.25	16.588
413.60	16.221
413.96	16.143
414.31	16.697
414.67	15.873
415.03	16.365
415.38	16.526
415.74	17.332
416.09	16.944
416.45	16.005
416.80	17.295
417.16	16.213
417.51	17.072
417.87	16.052
418.22	16.498
418.58	15.725
418.93	17.106
419.29	17.189
419.64	16.771
420.00	17.679
420.35	16.085
420.71	16.447
421.06	16.568
421.42	15.691
421.77	16.639
422.12	16.732
422.48	16.676
422.83	16.856
423.19	16.927
423.54	16.888
423.90	15.963
424.25	16.290
424.61	17.069
424.96	17.379
425.31	17.049
425.67	16.848
426.02	16.294
426.38	17.302
426.73	16.365
427.09	17.157
427.44	16.705
427.79	15.756
428.15	16.577
428.50	17.009
428.85	16.906
429.21	16.159
429.56	16.927
429.92	16.733
430.27	16.600
430.62	17.241
430.98	16.309
431.33	16.916
431.68	17.962
432.04	16.732
432.39	16.809
432.74	16.727
433.10	16.432
433.45	16.120
433.80	16.125
434.16	16.819
434.51	15.890
434.86	16.696
435.22	16.203
435.57	15.789
435.92	16.530
436.28	17.567
436.63	16.563
436.98	16.208
437.34	17.779
437.69	16.861
438.04	17.130
438.39	17.629
438.75	16.182
439.10	16.158
439.45	16.234
439.81	16.566
440.16	16.865
440.51	17.471
440.86	17.525
441.22	16.528
441.57	16.632
441.92	16.982
442.27	17.154
442.63	16.470
442.98	16.366
443.33	16.749
443.68	16.727
444.03	16.896
444.39	16.691
444.74	17.070
445.09	17.050
445.44	16.770
445.79	16.879
446.15	17.634
446.50	16.331
446.85	16.675
447.20	17.365
447.55	17.017
447.91	17.855
448.26	16.816
448.61	16.865
448.96	16.807
449.31	16.460
449.66	16.886
450.02	16.399
450.37	15.710
450.72	16.723
451.07	17.033
451.42	16.295
451.77	17.056
452.12	16.567
452.47	17.443
452.83	17.123
453.18	17.078
453.53	17.289
453.88	17.763
454.23	17.170
454.58	17.029
454.93	17.695
455.28	16.699
455.63	17.076
455.98	17.229
456.34	16.455
456.69	18.199
457.04	17.517
457.39	16.926
457.74	17.247
458.09	17.227
458.44	16.570
458.79	16.928
459.14	17.171
459.49	17.940
459.84	17.144
460.19	17.303
460.54	17.060
460.89	16.312
461.24	17.061
461.59	17.292
461.94	17.505
462.29	17.927
462.64	17.128
462.99	17.269
463.34	17.488
463.69	18.003
464.04	17.223
464.39	16.965
464.74	17.612
465.09	17.799
465.44	17.090
465.79	18.443
466.14	17.434
466.49	16.926
466.84	16.867
467.19	17.020
467.54	16.582
467.89	17.016
468.24	16.568
468.59	17.552
468.94	18.328
469.29	17.349
469.64	18.127
469.99	17.556
470.34	17.502
470.68	18.314
471.03	17.894
471.38	17.153
471.73	17.552
472.08	16.801
472.43	17.503
472.78	17.533
473.13	16.899
473.48	17.358
473.83	17.494
474.17	17.452
474.52	18.223
474.87	17.075
475.22	17.227
475.57	16.667
475.92	17.279
476.27	17.143
476.61	17.690
476.96	17.216
477.31	17.223
477.66	17.266
478.01	17.126
478.36	17.391
478.70	17.886
479.05	17.469
479.40	17.150
479.75	17.380
480.10	17.361
480.45	16.151
480.79	17.226
481.14	17.712
481.49	17.861
481.84	17.568
482.19	17.725
482.53	17.566
482.88	17.561
483.23	17.183
483.58	18.455
483.92	17.439
484.27	17.590
484.62	17.495
484.97	18.122
485.31	17.088
485.66	16.644
486.01	16.746
486.36	16.455
486.70	16.660
487.05	16.882
487.40	17.094
487.75	16.929
488.09	16.183
488.44	16.441
488.79	17.191
489.13	17.459
489.48	17.374
489.83	17.904
490.17	18.285
490.52	18.297
490.87	17.136
491.22	17.095
491.56	17.963
491.91	17.796
492.26	17.830
492.60	17.460
492.95	17.944
493.30	17.389
493.64	17.866
493.99	17.925
494.34	17.857
494.68	17.931
495.03	17.352
495.37	17.847
495.72	17.534
496.07	18.067
496.41	18.342
496.76	18.219
497.11	17.899
497.45	17.529
497.80	18.109
498.14	18.566
498.49	17.730
498.84	18.058
499.18	18.470
499.53	19.094
499.87	17.954
500.22	17.843
500.56	18.109
500.91	17.882
501.26	18.729
501.60	17.910
501.95	18.164
502.29	18.139
502.64	18.058
502.98	17.154
503.33	18.092
503.67	17.912
504.02	17.431
504.36	18.480
504.71	17.882
505.06	16.925
505.40	18.263
505.75	18.039
506.09	17.998
506.44	18.045
506.78	18.766
507.13	18.435
507.47	18.571
507.82	18.482
508.16	18.808
508.51	18.187
508.85	18.116
509.19	17.792
509.54	18.182
509.88	17.926
510.23	18.553
510.57	18.677
510.92	18.797
511.26	18.394
511.61	18.305
511.95	18.373
512.30	18.197
512.64	17.863
512.98	18.702
513.33	18.836
513.67	18.202
514.02	18.512
514.36	18.393
514.70	18.619
515.05	18.639
515.39	18.397
515.74	19.081
516.08	19.481
516.42	19.037
516.77	18.775
517.11	19.508
517.46	19.139
517.80	19.856
518.14	17.814
518.49	19.068
518.83	18.932
519.17	19.775
519.52	18.276
519.86	19.654
520.20	19.682
520.55	19.262
520.89	18.785
521.23	19.536
521.58	20.125
521.92	19.379
522.26	19.111
522.61	19.138
522.95	18.507
523.29	18.683
523.64	18.801
523.98	19.542
524.32	18.730
524.66	17.888
525.01	18.433
525.35	19.588
525.69	18.933
526.04	18.864
526.38	19.351
526.72	19.029
527.06	18.945
527.41	18.878
527.75	17.888
528.09	19.259
528.43	19.541
528.78	19.912
529.12	20.166
529.46	19.008
529.80	19.561
530.15	19.768
530.49	18.564
530.83	20.039
531.17	18.586
531.51	18.888
531.86	19.421
532.20	18.691
532.54	18.917
532.88	19.499
533.22	18.382
533.57	19.909
533.91	17.853
534.25	18.416
534.59	18.551
534.93	18.295
535.27	19.257
535.62	19.373
535.96	18.875
536.30	18.914
536.64	19.389
536.98	18.927
537.32	18.798
537.66	19.077
538.01	19.175
538.35	19.662
538.69	18.984
539.03	19.228
539.37	19.827
539.71	19.013
540.05	18.917
540.39	18.421
540.73	18.867
541.07	18.921
541.42	18.704
541.76	18.206
542.10	19.649
542.44	19.587
542.78	19.335
543.12	19.009
543.46	18.904
543.80	18.395
544.14	18.603
544.48	20.079
544.82	18.539
545.16	18.913
545.50	18.506
545.84	18.846
546.18	19.279
546.52	18.990
546.86	18.234
547.20	19.339
547.54	18.457
547.88	18.779
548.22	17.562
548.56	18.504
548.90	19.744
549.24	18.430
549.58	18.560
549.92	18.869
550.26	19.581
550.60	18.919
550.94	18.467
551.28	18.736
551.62	19.350
551.96	18.669
552.30	18.815
552.64	18.367
552.98	18.991
553.32	18.903
553.66	19.539
554.00	18.977
554.34	18.700
554.68	19.079
555.02	19.320
555.36	18.260
555.69	19.054
556.03	18.596
556.37	18.421
556.71	18.969
557.05	19.143
557.39	18.337
557.73	19.912
558.07	18.764
558.41	18.998
558.75	19.316
559.08	19.455
559.42	19.219
559.76	19.325
560.10	20.880
560.44	20.014
560.78	18.789
561.12	19.738
561.45	19.384
561.79	19.164
562.13	18.934
562.47	19.328
562.81	18.388
563.15	18.404
563.48	17.830
563.82	18.932
564.16	18.594
564.50	19.220
564.84	18.320
565.17	18.966
565.51	18.774
565.85	19.540
566.19	19.236
566.52	18.852
566.86	18.015
567.20	19.310
567.54	18.960
567.88	18.314
568.21	18.512
568.55	18.346
568.89	17.097
569.23	18.232
569.56	17.192
569.90	17.899
570.24	17.625
570.57	17.047
570.91	17.647
571.25	17.056
571.59	16.984
571.92	16.786
572.26	17.496
572.60	17.406
572.93	16.662
573.27	16.646
573.61	17.408
573.95	17.483
574.28	16.572
574.62	17.158
574.96	16.700
575.29	16.819
575.63	17.096
575.97	16.397
576.30	16.964
576.64	16.580
576.98	16.770
577.31	16.901
577.65	16.573
577.98	16.359
578.32	16.375
578.66	16.493
578.99	16.456
579.33	16.403
579.67	16.764
580.00	16.344
580.34	16.487
580.67	16.622
581.01	16.293
581.35	16.684
581.68	16.565
582.02	16.670
582.35	16.298
582.69	17.005
583.02	16.357
583.36	16.659
583.70	17.127
584.03	16.999
584.37	16.969
584.70	16.733
585.04	16.582
585.37	16.038
585.71	16.522
586.04	16.439
586.38	16.787
586.72	16.629
587.05	17.021
587.39	16.990
587.72	16.910
588.06	16.616
588.39	16.690
588.73	16.868
589.06	17.231
589.40	17.898
589.73	17.280
590.07	17.116
590.40	16.716
590.73	17.353
591.07	17.828
591.40	17.721
591.74	17.072
592.07	17.658
592.41	17.325
592.74	17.525
593.08	17.370
593.41	16.908
593.75	16.222
594.08	17.434
594.41	17.264
594.75	17.139
595.08	16.767
595.42	17.305
595.75	17.053
596.09	16.492
596.42	18.085
596.75	17.119
597.09	18.121
597.42	17.154
597.75	17.272
598.09	17.307
598.42	16.792
598.76	17.276
599.09	17.127
599.42	16.801
599.76	17.403
600.09	17.748
600.42	17.698
600.76	16.874
601.09	16.673
601.42	16.541
601.76	17.445
602.09	17.301
602.42	17.737
602.76	16.701
603.09	17.339
603.42	16.801
603.76	16.992
604.09	16.740
604.42	17.319
604.76	17.444
605.09	17.812
605.42	17.465
605.75	17.292
606.09	17.352
606.42	16.841
606.75	16.788
607.09	17.689
607.42	16.901
607.75	17.263
608.08	17.397
608.42	17.171
608.75	17.009
609.08	17.146
609.41	17.190
609.75	17.114
610.08	17.402
610.41	17.205
610.74	17.360
611.07	18.306
611.41	16.894
611.74	18.766
612.07	18.421
612.40	17.910
612.73	17.878
613.07	16.731
613.40	17.734
613.73	17.820
614.06	17.518
614.39	18.151
614.72	17.654
615.06	18.043
615.39	17.580
615.72	18.034
616.05	17.891
616.38	18.456
616.71	18.498
617.05	18.335
617.38	17.771
617.71	17.199
618.04	17.329
618.37	17.736
618.70	18.123
619.03	17.806
619.36	17.900
619.69	19.239
620.03	18.182
620.36	17.511
620.69	17.660
621.02	19.102
621.35	19.435
621.68	18.361
622.01	18.770
622.34	18.711
622.67	18.203
623.00	18.439
623.33	18.358
623.66	17.356
623.99	18.722
624.32	18.304
624.65	18.764
624.99	17.849
625.32	18.263
625.65	18.881
625.98	17.997
626.31	19.331
626.64	18.996
626.97	19.092
627.30	19.404
627.63	19.257
627.96	19.321
628.29	18.015
628.62	17.765
628.95	19.390
629.28	18.797
629.61	18.940
629.94	19.754
630.26	19.781
630.59	20.804
630.92	19.620
631.25	19.254
631.58	18.836
631.91	16.489
632.24	19.111
632.57	21.667
632.90	20.920
633.23	19.393
633.56	18.830
633.89	20.519
634.22	19.126
634.55	20.673
634.88	18.863
635.20	19.975
635.53	19.720
635.86	17.632
636.19	19.780
636.52	17.682
636.85	18.773
637.18	17.625
637.51	20.198
637.83	19.707
638.16	20.789
638.49	18.345
638.82	18.790
639.15	19.196
639.48	20.493
639.81	20.332
640.13	18.919
640.46	20.085
640.79	19.888
641.12	22.567
641.45	20.373
641.77	21.108
642.10	20.695
642.43	20.941
642.76	20.945
643.09	19.206
643.41	20.794
643.74	21.145
644.07	22.777
644.40	19.935
644.73	20.132
645.05	18.364
645.38	22.682
645.71	21.821
646.04	21.345
646.36	19.721
646.69	22.145
647.02	24.188
647.35	22.202
647.67	22.263
648.00	23.726
648.33	22.597
648.66	17.581
648.98	20.860
649.31	20.154
649.64	21.406
649.96	21.507
650.29	19.836
650.62	18.589
650.94	22.428
651.27	20.971
651.60	18.685
651.92	22.260
652.25	21.035
652.58	19.591
652.90	20.385
653.23	20.645
653.56	18.395
653.88	21.803
654.21	20.470
654.54	21.595
654.86	20.225
655.19	19.484
655.52	18.065
655.84	16.116
656.17	17.409
656.49	23.536
656.82	23.669
657.15	17.680
657.47	13.107
657.80	10.155
658.13	11.793
658.45	15.353
658.78	15.101
659.10	15.890
659.43	15.156
659.75	16.090
660.08	16.927
660.41	17.677
660.73	17.052
661.06	19.130
661.38	22.321
661.71	20.459
662.03	23.387
662.36	21.535
662.68	20.253
663.01	21.868
663.33	20.635
663.66	22.318
663.98	19.420
664.31	20.134
664.63	21.239
664.96	21.041
665.28	21.909
665.61	19.662
665.93	21.193
666.26	23.077
666.58	21.622
666.91	23.163
667.23	25.000
667.56	17.460
667.88	20.588
668.21	21.198
668.53	20.794
668.86	21.247
669.18	20.320
669.50	20.561
669.83	21.411
670.15	21.749
670.48	17.991
670.80	17.768
671.13	20.993
671.45	20.270
671.77	20.557
672.10	21.696
672.42	20.295
672.75	19.455
673.07	19.820
673.39	19.490
673.72	18.898
674.04	18.471
674.37	17.938
674.69	20.492
675.01	20.213
675.34	22.777
675.66	22.246
675.98	22.026
676.31	18.778
676.63	20.000
676.95	21.903
677.28	21.578
677.60	22.624
677.92	24.449
678.25	20.569
678.57	20.370
678.89	19.078
679.22	19.497
679.54	21.302
679.86	19.800
680.18	20.532
680.51	18.250
680.83	20.952
681.15	21.387
681.48	22.515
681.80	21.774
682.12	20.322
682.44	19.646
682.77	17.965
683.09	21.384
683.41	20.575
683.73	19.863
684.06	19.785
684.38	21.548
684.70	21.811
685.02	19.882
685.34	21.248
685.67	17.992
685.99	17.769
686.31	20.646
686.63	21.099
686.96	18.299
687.28	17.919
687.60	19.141
687.92	17.704
688.24	21.260
688.56	18.236
688.89	17.735
689.21	21.007
689.53	21.379
689.85	20.045
690.17	20.179
690.49	21.709
690.82	20.241
691.14	20.047
691.46	20.399
691.78	21.586
692.10	22.669
692.42	18.889
692.74	18.455
693.06	23.146
693.39	19.687
693.71	18.962
694.03	22.246
694.35	21.445
694.67	21.749
694.99	17.647
695.31	25.000
695.63	18.878
695.95	19.355
696.27	21.696
696.59	21.925
696.91	20.506
697.23	20.833
697.56	17.308
697.88	18.243
698.20	18.630
698.52	16.368
698.84	19.903
699.16	18.810
699.48	19.000
699.80	22.807
700.12	20.403
700.44	19.553
700.76	20.991
701.08	21.221
701.40	17.523
701.72	21.605
702.04	24.038
702.36	23.795
702.68	20.359
703.00	21.449
703.32	20.057
703.64	23.529
703.96	23.547
704.28	19.527
704.60	19.937
704.91	17.460
705.23	17.476
705.55	18.581
705.87	19.113
706.19	22.569
706.51	21.528
706.83	26.230
707.15	21.019
707.47	21.212
707.79	19.330
708.11	18.066
708.43	18.204
708.74	20.779
709.06	17.549
709.38	22.126
709.70	19.688
710.02	23.926
710.34	19.802
710.66	20.000
710.98	19.243
711.29	17.742
711.61	20.447
711.93	18.689
712.25	23.256
712.57	20.906
712.89	23.741
713.20	20.275
713.52	19.030
713.84	19.573
714.16	19.672
714.48	19.365
714.80	18.462
715.11	21.614
715.43	23.795
715.75	21.184
716.07	20.984
716.39	19.398
716.70	23.693
717.02	20.741
717.34	22.901
717.66	23.237
717.97	21.721
718.29	26.891
718.61	24.206
718.93	22.222
719.24	19.485
719.56	16.604
719.88	24.364
720.20	20.225
720.51	25.940
720.83	20.080
721.15	18.852
721.46	24.314
721.78	24.138
722.10	19.600
722.42	17.355
722.73	19.124
723.05	24.498
723.37	21.569
723.68	19.028
724.00	25.610
724.32	20.988
724.63	16.183
724.95	26.446
725.27	20.175
725.58	22.414
725.90	23.810
726.22	22.509
726.53	18.631
726.85	16.863
727.16	18.797
727.48	21.538
727.80	16.803
728.11	21.008
728.43	21.074
728.74	17.969
729.06	22.727
729.38	16.342
729.69	18.898
730.01	20.472
730.32	18.327
730.64	21.612
730.96	22.761
731.27	21.071
731.59	20.257
731.90	16.871
732.22	18.098
732.53	21.523
732.85	21.141
733.16	20.290
733.48	19.164
733.80	13.879
734.11	18.621
734.43	19.728
734.74	19.881
735.06	19.436
735.37	21.101
735.69	17.742
736.00	21.212
736.32	22.185
736.63	13.103
736.95	18.841
737.26	20.861
737.58	19.424
737.89	18.280
738.21	16.541
738.52	21.154
738.83	23.047
739.15	18.376
739.46	24.597
739.78	15.035
740.09	14.336
740.41	19.580
740.72	21.898
741.04	16.270
741.35	21.645
741.66	18.056
741.98	18.571
742.29	22.066
742.61	27.273
742.92	25.234
743.23	14.912
743.55	19.820
743.86	23.556
744.18	20.476
744.49	25.123
744.80	17.259
745.12	16.495
745.43	29.146
745.74	21.359
746.06	18.049
746.37	25.551
746.68	24.378
747.00	19.895
747.31	18.269
747.62	25.806
747.94	18.341
748.25	22.326
748.56	20.952
748.88	9.239
749.19	26.291
749.50	23.529
749.82	29.333
750.13	22.467
750.44	19.512
750.75	18.400
751.07	21.429
751.38	17.712
751.69	14.122
752.01	19.231
752.32	17.121
752.63	16.923
752.94	16.270
753.26	19.130
753.57	22.768
753.88	15.517
754.19	17.012
754.51	22.656
754.82	16.996
755.13	21.399
755.44	16.942
755.75	19.753
756.07	16.466
756.38	16.016
756.69	20.578
757.00	13.240
757.31	21.812
757.63	19.003
757.94	17.341
758.25	18.023
758.56	19.137
758.87	17.898
759.18	14.000
759.50	21.708
759.81	17.153
760.12	14.527
760.43	21.036
760.74	19.375
761.05	21.348
761.36	15.868
761.67	18.639
761.99	18.065
762.30	20.290
762.61	26.415
762.92	22.422
763.23	20.379
763.54	16.444
763.85	25.316
764.16	18.776
764.47	19.492
764.78	20.225
765.10	18.345
765.41	18.065
765.72	20.126
766.03	12.367
766.34	17.669
766.65	19.838
766.96	20.000
767.27	21.354
767.58	16.279
767.89	18.710
768.20	22.699
768.51	15.301
768.82	15.676
769.13	14.000
769.44	11.842
769.75	17.749
770.06	19.266
770.37	17.840
770.68	19.271
770.99	18.812
771.30	19.417
771.61	16.667
771.92	22.078
772.23	17.290
772.54	15.426
772.85	14.201
773.16	21.341
773.47	19.880
773.78	23.626
774.09	20.000
774.39	24.074
774.70	18.121
775.01	21.014
775.32	18.657
775.63	13.223
775.94	29.323
776.25	15.714
776.56	29.508
776.87	24.779
777.18	23.009
777.48	19.091
777.79	20.000
778.10	18.349
778.41	15.254
778.72	29.752
779.03	17.910
779.34	24.812
779.65	21.569
779.95	21.739
780.26	14.286
780.57	10.345
780.88	27.778
781.19	3.030
781.50	5.600
781.80	18.954
782.11	20.513
782.42	16.265
782.73	13.869
783.04	26.351
783.34	23.485
783.65	20.155
783.96	26.016
784.27	11.966
784.57	24.390
784.88	20.325
785.19	21.053
785.50	20.619
785.81	11.429
786.11	21.569
786.42	8.182
786.73	18.018
787.04	27.723
787.34	23.810
787.65	19.048
787.96	23.529
788.26	21.622
788.57	29.839
788.88	17.969
789.19	20.513
789.49	16.807
789.80	21.368
790.11	24.779
790.41	22.222
790.72	24.528
791.03	4.167
791.33	31.579
791.64	22.581
791.95	9.333
792.25	20.000
792.56	17.073
792.87	17.347
793.17	28.947
793.48	0.000
793.79	5.634
794.09	17.722
794.40	23.404
794.70	14.953
795.01	11.404
795.32	17.273
795.62	14.286
795.93	26.804
796.23	5.495
796.54	26.316
796.85	17.808
797.15	19.444
797.46	24.658
797.76	23.944
798.07	13.750
798.37	17.647
798.68	30.000
798.99	24.286
799.29	19.737
799.60	15.000
799.90	8.333
800.21	15.625
800.51	28.571
800.82	29.508
801.12	7.018
801.43	8.451
801.73	6.780
802.04	18.033
802.34	12.727
802.65	-3.846
802.95	40.741
803.26	10.000
803.56	15.385
803.87	7.895
804.17	24.194
804.48	24.615
804.78	12.821
805.09	27.907
805.39	-12.500
805.70	5.660
806.00	54.386
806.30	20.270
806.61	29.412
806.91	28.395
807.22	18.667
807.52	19.403
807.83	4.839
808.13	26.984
808.43	18.182
808.74	16.667
809.04	18.868
809.35	17.808
809.65	5.263
809.95	30.882
810.26	33.333
810.56	14.000
810.86	6.122
811.17	2.857
811.47	34.615
811.77	9.677
812.08	-36.842
812.38	28.571
812.69	8.696
812.99	29.032
813.29	-9.524
813.59	-37.037
813.90	14.894
814.20	18.605
814.50	12.500
814.81	10.000
815.11	-12.195
815.41	20.000
815.72	51.429
816.02	5.556
816.32	35.897
816.62	27.027
816.93	0.000
817.23	8.696
817.53	14.706
817.84	44.118
818.14	6.250
818.44	-27.586
818.74	-9.677
819.04	22.222
819.35	6.667
819.65	12.000
819.95	13.333
820.25	24.000
820.56	15.789
820.86	12.500
821.16	29.787
821.46	20.690
821.76	-2.564
822.07	-10.000
822.37	27.907
822.67	23.333
822.97	8.108
823.27	21.622
823.57	68.000
823.88	45.946
824.18	-52.381
824.48	11.538
824.78	-46.154
825.08	34.783
825.38	12.500
825.69	0.000
825.99	-50.000
826.29	32.432
826.59	11.765
826.89	8.000
827.19	40.000
827.49	23.684
827.79	-3.125
828.09	3.333
828.39	8.696
828.70	3.448
829.00	24.138
829.30	11.111
829.60	50.000
829.90	0.000
830.20	-19.231
830.50	9.524
830.80	-32.143
831.10	23.077
831.40	19.048
831.70	14.706
832.00	45.833
832.30	57.895
832.60	6.250
832.90	-75.000
833.20	-35.294
833.50	33.333
833.80	6.667
834.10	50.000
834.40	58.333
834.70	66.667
835.00	34.615
835.30	-8.333
835.60	-3.448
835.90	-44.444
836.20	0.000
836.50	-16.667
836.80	22.857
837.10	74.286
837.40	41.176
837.70	-90.909
838.00	25.000
838.30	-6.250
838.60	19.048
838.90	30.000
839.19	21.739
839.49	13.043
839.79	-16.667
840.09	-8.696
840.39	13.636
840.69	43.750
840.99	52.632
841.29	-18.750
841.59	-42.857
841.88	-5.556
842.18	33.333
842.48	-11.765
842.78	55.172
843.08	7.143
843.38	-23.077
843.68	-144.444
843.97	-23.077
844.27	0.000
844.57	-280.000
844.87	72.000
845.17	100.000
845.47	-7.143
845.76	22.222
846.06	0.000
846.36	-250.000
846.66	0.000
846.96	15.789
847.25	37.500
847.55	16.667
847.85	73.333
848.15	-40.000
848.44	61.538
848.74	10.526
849.04	-33.333
849.34	0.000
849.63	-10.526
849.93	0.000
850.23	45.000
850.53	9.524
850.82	24.000
851.12	0.000
851.42	-450.000
851.71	50.000
852.01	-16.667
852.31	-41.176
852.61	33.333
852.90	23.810
853.20	16.667
853.50	5.556
853.79	5.263
854.09	0.000
854.39	14.286
854.68	4.348
854.98	-100.000
855.28	48.276
855.57	-25.000
855.87	35.000
856.17	-26.667
856.46	20.690
856.76	60.000
857.05	-41.176
857.35	-76.923
857.65	-9.091
857.94	40.741
858.24	-21.429
858.53	14.286
858.83	108.333
859.13	-66.667
859.42	33.333
859.72	-25.000
860.01	133.333
860.31	12.500
860.60	-160.000
860.90	-66.667
861.20	112.500
861.49	-42.857
861.79	-5.882
862.08	-300.000
862.38	-41.667
862.67	84.615
862.97	17.647
863.26	70.000
863.56	-11.765
863.85	200.000
864.15	-110.000
864.44	-46.154
864.74	65.000
865.03	-12.500
865.33	-33.333
865.62	52.941
865.92	50.000
866.21	-114.286
866.51	-41.667
866.80	400.000
867.10	166.667
867.39	70.588
867.69	43.478
867.98	128.571
868.27	100.000
868.57	-31.250
868.86	-9.091
869.16	-5.882
869.45	50.000
869.75	-71.429
870.04	700.000
870.33	125.000
870.63	240.000
870.92	-11.111
871.22	25.000
871.51	-36.364
871.80	0.000
872.10	20.000
>>>>>End Processed Spectral Data<<<<<
