SpectraSuite Data File
++++++++++++++++++++++++++++++++++++
Date: Wed May 13 16:09:17 PDT 2015
User: schluterlab
Dark Spectrum Present: Yes
Reference Spectrum Present: Yes
Number of Sampled Component Spectra: 1
Spectrometers: USB2E3373
Integration Time (usec): 3000 (USB2E3373)
Spectra Averaged: 3 (USB2E3373)
Boxcar Smoothing: 0 (USB2E3373)
Correct for Electrical Dark: No (USB2E3373)
Strobe/Lamp Enabled: No (USB2E3373)
Correct for Detector Non-linearity: No (USB2E3373)
Correct for Stray Light: No (USB2E3373)
Number of Pixels in Processed Spectrum: 2048
>>>>>Begin Processed Spectral Data<<<<<
178.53	0.000
178.91	-900.000
179.29	-950.000
179.67	-155.556
180.04	-800.000
180.42	2100.000
180.80	700.000
181.18	-600.000
181.56	471.429
181.94	0.000
182.31	-685.714
182.69	1100.000
183.07	-412.500
183.45	-388.889
183.83	409.091
184.20	-270.000
184.58	1400.000
184.96	4400.000
185.34	-600.000
185.72	-337.500
186.09	-1500.000
186.47	1400.000
186.85	1550.000
187.23	3800.000
187.61	-1266.667
187.98	875.000
188.36	363.636
188.74	445.455
189.12	-380.000
189.49	380.000
189.87	-3200.000
190.25	-650.000
190.63	307.143
191.00	300.000
191.38	783.333
191.76	-750.000
192.14	1100.000
192.51	412.500
192.89	583.333
193.27	562.500
193.65	-875.000
194.02	360.000
194.40	760.000
194.78	400.000
195.15	391.667
195.53	520.000
195.91	-1500.000
196.29	237.500
196.66	231.579
197.04	-290.000
197.42	0.000
197.79	510.000
198.17	-2600.000
198.55	357.143
198.92	462.500
199.30	700.000
199.68	0.000
200.05	277.778
200.43	500.000
200.81	2800.000
201.18	1000.000
201.56	-966.667
201.94	377.778
202.31	422.222
202.69	366.667
203.07	330.000
203.44	0.000
203.82	900.000
204.19	542.857
204.57	300.000
204.95	475.000
205.32	733.333
205.70	336.364
206.08	292.857
206.45	1850.000
206.83	275.000
207.20	666.667
207.58	420.000
207.96	227.778
208.33	550.000
208.71	-683.333
209.08	657.143
209.46	433.333
209.84	363.636
210.21	-1266.667
210.59	975.000
210.96	-312.500
211.34	2500.000
211.71	460.000
212.09	583.333
212.46	0.000
212.84	1566.667
213.22	775.000
213.59	-2500.000
213.97	416.667
214.34	528.571
214.72	481.818
215.09	780.000
215.47	-1600.000
215.84	-1600.000
216.22	1133.333
216.59	250.000
216.97	1000.000
217.34	336.364
217.72	-416.667
218.09	0.000
218.47	-3700.000
218.84	455.556
219.22	614.286
219.59	1400.000
219.97	-414.286
220.34	840.000
220.72	-1600.000
221.09	285.714
221.47	1125.000
221.84	-700.000
222.22	0.000
222.59	1150.000
222.97	-1900.000
223.34	920.000
223.72	361.538
224.09	800.000
224.46	1400.000
224.84	-3500.000
225.21	-860.000
225.59	-3000.000
225.96	500.000
226.34	240.000
226.71	1700.000
227.08	500.000
227.46	320.000
227.83	-875.000
228.21	-1450.000
228.58	433.333
228.95	-1950.000
229.33	-1950.000
229.70	1700.000
230.08	485.714
230.45	-500.000
230.82	375.000
231.20	600.000
231.57	500.000
231.95	375.000
232.32	213.636
232.69	309.091
233.07	514.286
233.44	215.385
233.81	-1100.000
234.19	236.842
234.56	391.667
234.93	316.667
235.31	445.455
235.68	323.077
236.05	278.571
236.43	172.727
236.80	300.000
237.17	4200.000
237.55	166.667
237.92	203.571
238.29	219.048
238.67	177.419
239.04	186.207
239.41	141.667
239.79	104.348
240.16	140.476
240.53	125.000
240.91	101.961
241.28	132.000
241.65	126.000
242.02	110.145
242.40	104.839
242.77	130.000
243.14	97.849
243.51	95.506
243.89	81.176
244.26	86.667
244.63	82.796
245.00	81.915
245.38	85.149
245.75	84.112
246.12	91.743
246.49	86.861
246.87	88.000
247.24	90.769
247.61	85.000
247.98	77.778
248.36	76.351
248.73	77.070
249.10	78.981
249.47	75.141
249.84	73.797
250.22	67.914
250.59	71.006
250.96	69.697
251.33	71.564
251.70	76.733
252.08	66.667
252.45	71.749
252.82	66.087
253.19	69.787
253.56	70.980
253.94	68.050
254.31	65.234
254.68	69.615
255.05	64.207
255.42	60.976
255.79	68.750
256.16	68.231
256.54	56.184
256.91	65.480
257.28	57.554
257.65	62.376
258.02	58.696
258.39	63.407
258.76	62.542
259.14	60.119
259.51	62.310
259.88	60.870
260.25	59.517
260.62	60.694
260.99	60.870
261.36	61.261
261.73	64.756
262.10	63.372
262.47	60.563
262.85	63.231
263.22	58.689
263.59	64.672
263.96	59.890
264.33	59.791
264.70	61.316
265.07	61.381
265.44	57.323
265.81	54.501
266.18	59.296
266.55	56.341
266.92	58.722
267.29	58.565
267.66	58.716
268.03	57.727
268.40	61.682
268.77	57.518
269.14	57.432
269.51	58.239
269.88	60.140
270.25	58.239
270.62	58.427
270.99	58.280
271.36	57.725
271.73	57.944
272.10	57.391
272.47	57.204
272.84	55.411
273.21	58.491
273.58	55.677
273.95	54.298
274.32	55.372
274.69	59.529
275.06	54.528
275.43	57.447
275.80	55.110
276.17	57.841
276.54	56.757
276.91	53.162
277.28	54.102
277.65	56.286
278.02	55.280
278.39	58.203
278.76	54.909
279.13	56.415
279.50	52.886
279.87	56.574
280.23	54.890
280.60	57.060
280.97	54.159
281.34	54.513
281.71	56.000
282.08	55.278
282.45	52.545
282.82	52.931
283.19	51.872
283.56	51.228
283.92	51.607
284.29	53.968
284.66	52.087
285.03	50.090
285.40	54.049
285.77	51.010
286.14	50.259
286.51	53.000
286.87	52.137
287.24	50.651
287.61	49.759
287.98	50.974
288.35	50.238
288.72	49.688
289.08	46.792
289.45	46.458
289.82	49.431
290.19	46.625
290.56	45.942
290.93	44.713
291.29	48.160
291.66	47.493
292.03	46.512
292.40	47.577
292.77	42.012
293.13	44.627
293.50	45.773
293.87	44.889
294.24	44.741
294.60	42.504
294.97	44.622
295.34	44.006
295.71	44.602
296.08	43.305
296.44	42.228
296.81	42.404
297.18	42.683
297.55	39.314
297.91	39.578
298.28	43.106
298.65	40.862
299.02	40.053
299.38	41.036
299.75	38.140
300.12	39.208
300.48	41.125
300.85	38.224
301.22	40.127
301.59	39.520
301.95	38.287
302.32	38.383
302.69	38.112
303.05	38.667
303.42	38.148
303.79	38.279
304.15	35.897
304.52	36.732
304.89	38.328
305.25	35.151
305.62	36.127
305.99	39.315
306.35	36.353
306.72	36.771
307.09	38.180
307.45	38.401
307.82	35.937
308.19	37.859
308.55	38.511
308.92	36.412
309.29	35.692
309.65	35.737
310.02	37.949
310.38	36.452
310.75	35.164
311.12	35.619
311.48	36.468
311.85	36.792
312.22	35.588
312.58	36.798
312.95	36.114
313.31	32.330
313.68	37.006
314.05	37.475
314.41	35.879
314.78	35.448
315.14	36.048
315.51	36.148
315.87	35.941
316.24	35.353
316.61	34.600
316.97	34.736
317.34	34.247
317.70	35.564
318.07	35.130
318.43	35.421
318.80	34.864
319.16	35.593
319.53	35.178
319.89	36.286
320.26	36.100
320.62	35.813
320.99	35.859
321.35	35.556
321.72	34.805
322.08	34.946
322.45	37.313
322.81	35.368
323.18	34.489
323.54	34.787
323.91	33.962
324.27	35.564
324.64	34.669
325.00	33.454
325.37	35.396
325.73	34.740
326.10	35.128
326.46	34.409
326.83	34.513
327.19	33.988
327.56	35.540
327.92	33.333
328.29	34.694
328.65	34.622
329.01	33.755
329.38	34.228
329.74	33.518
330.11	34.967
330.47	34.803
330.84	33.915
331.20	33.060
331.56	32.294
331.93	32.870
332.29	33.097
332.66	34.779
333.02	32.450
333.38	33.966
333.75	33.868
334.11	33.007
334.48	32.742
334.84	33.088
335.20	31.727
335.57	31.550
335.93	31.429
336.29	32.051
336.66	32.191
337.02	32.217
337.38	32.870
337.75	31.996
338.11	32.229
338.47	32.320
338.84	32.539
339.20	31.284
339.56	32.208
339.93	31.818
340.29	32.065
340.65	32.353
341.02	32.024
341.38	31.673
341.74	32.719
342.11	32.140
342.47	32.952
342.83	31.507
343.20	32.814
343.56	31.424
343.92	31.842
344.28	30.952
344.65	32.244
345.01	31.397
345.37	31.132
345.73	31.641
346.10	31.287
346.46	31.356
346.82	31.137
347.19	30.994
347.55	29.721
347.91	31.472
348.27	31.142
348.63	31.605
349.00	30.663
349.36	31.034
349.72	30.553
350.08	30.308
350.45	30.513
350.81	31.032
351.17	30.389
351.53	29.812
351.89	30.858
352.26	31.886
352.62	31.275
352.98	29.417
353.34	31.306
353.70	29.214
354.07	31.371
354.43	29.206
354.79	29.525
355.15	28.891
355.51	31.415
355.87	31.102
356.24	30.293
356.60	29.190
356.96	29.767
357.32	29.109
357.68	30.236
358.04	29.058
358.40	29.295
358.77	29.108
359.13	28.729
359.49	28.471
359.85	28.175
360.21	29.187
360.57	30.272
360.93	29.538
361.29	29.932
361.66	29.876
362.02	29.179
362.38	30.570
362.74	29.613
363.10	28.423
363.46	27.953
363.82	27.589
364.18	27.680
364.54	29.123
364.90	29.958
365.26	29.265
365.62	29.511
365.98	28.999
366.35	27.937
366.71	28.923
367.07	28.259
367.43	29.173
367.79	28.622
368.15	30.460
368.51	28.997
368.87	28.979
369.23	29.334
369.59	28.747
369.95	27.500
370.31	28.632
370.67	28.333
371.03	28.914
371.39	28.863
371.75	28.750
372.11	27.952
372.47	28.886
372.83	29.323
373.19	28.974
373.55	29.564
373.91	29.455
374.27	27.629
374.63	28.073
374.99	29.449
375.35	27.774
375.71	28.992
376.07	28.189
376.42	28.955
376.78	29.026
377.14	28.765
377.50	29.007
377.86	28.790
378.22	29.772
378.58	28.133
378.94	28.284
379.30	29.071
379.66	29.188
380.02	28.931
380.38	28.294
380.74	28.812
381.09	29.340
381.45	28.765
381.81	29.730
382.17	28.662
382.53	28.931
382.89	29.136
383.25	28.518
383.61	29.988
383.97	28.831
384.32	29.008
384.68	28.563
385.04	29.502
385.40	28.916
385.76	29.484
386.12	28.951
386.48	28.634
386.83	30.468
387.19	29.499
387.55	29.190
387.91	28.900
388.27	29.307
388.62	29.379
388.98	29.484
389.34	29.099
389.70	29.614
390.06	29.151
390.42	28.859
390.77	30.280
391.13	29.866
391.49	30.393
391.85	28.199
392.20	28.580
392.56	30.051
392.92	29.723
393.28	29.053
393.64	29.197
393.99	28.833
394.35	28.722
394.71	29.862
395.07	28.349
395.42	29.419
395.78	29.898
396.14	29.174
396.50	29.135
396.85	29.116
397.21	29.100
397.57	29.944
397.92	29.267
398.28	28.363
398.64	29.032
399.00	28.707
399.35	28.708
399.71	29.109
400.07	29.746
400.42	29.693
400.78	30.277
401.14	28.780
401.49	29.015
401.85	28.675
402.21	28.683
402.57	28.871
402.92	29.571
403.28	29.169
403.63	29.084
403.99	28.471
404.35	29.212
404.70	28.297
405.06	27.897
405.42	29.757
405.77	28.743
406.13	28.499
406.49	29.509
406.84	28.529
407.20	27.660
407.55	29.675
407.91	29.733
408.27	28.909
408.62	29.561
408.98	28.983
409.34	28.659
409.69	30.000
410.05	28.501
410.40	29.358
410.76	28.913
411.11	28.468
411.47	28.307
411.83	28.711
412.18	28.015
412.54	29.016
412.89	29.096
413.25	28.099
413.60	30.204
413.96	27.626
414.31	27.704
414.67	28.897
415.03	28.477
415.38	28.737
415.74	29.068
416.09	29.458
416.45	28.648
416.80	28.288
417.16	30.027
417.51	29.197
417.87	28.645
418.22	28.328
418.58	29.567
418.93	28.808
419.29	29.090
419.64	29.030
420.00	29.268
420.35	28.522
420.71	29.588
421.06	27.983
421.42	28.772
421.77	27.691
422.12	28.130
422.48	27.577
422.83	29.121
423.19	28.343
423.54	28.091
423.90	28.638
424.25	28.532
424.61	28.750
424.96	28.163
425.31	28.904
425.67	27.809
426.02	27.600
426.38	28.571
426.73	28.321
427.09	28.207
427.44	28.580
427.79	27.890
428.15	28.095
428.50	28.087
428.85	28.784
429.21	28.106
429.56	28.149
429.92	27.982
430.27	27.855
430.62	27.650
430.98	27.763
431.33	27.268
431.68	28.063
432.04	27.050
432.39	27.813
432.74	28.366
433.10	28.014
433.45	29.038
433.80	27.661
434.16	27.511
434.51	27.737
434.86	27.708
435.22	28.405
435.57	27.720
435.92	26.682
436.28	27.521
436.63	27.594
436.98	27.590
437.34	28.623
437.69	28.471
438.04	27.263
438.39	27.642
438.75	28.298
439.10	28.156
439.45	28.158
439.81	27.069
440.16	27.612
440.51	27.944
440.86	27.852
441.22	27.253
441.57	28.185
441.92	27.533
442.27	27.664
442.63	27.225
442.98	28.282
443.33	28.315
443.68	27.465
444.03	28.258
444.39	27.507
444.74	28.355
445.09	27.817
445.44	26.791
445.79	27.808
446.15	27.581
446.50	26.279
446.85	27.801
447.20	27.843
447.55	27.694
447.91	27.634
448.26	27.212
448.61	27.643
448.96	28.073
449.31	27.897
449.66	27.631
450.02	27.967
450.37	27.778
450.72	28.144
451.07	27.239
451.42	27.112
451.77	29.125
452.12	27.021
452.47	27.239
452.83	27.506
453.18	27.567
453.53	28.571
453.88	27.348
454.23	27.017
454.58	27.983
454.93	28.163
455.28	26.559
455.63	28.095
455.98	28.452
456.34	27.387
456.69	27.990
457.04	27.554
457.39	27.878
457.74	27.394
458.09	28.062
458.44	27.651
458.79	26.790
459.14	28.217
459.49	27.904
459.84	27.091
460.19	28.167
460.54	27.083
460.89	26.934
461.24	27.930
461.59	27.891
461.94	27.497
462.29	27.359
462.64	26.803
462.99	26.740
463.34	27.733
463.69	27.392
464.04	27.188
464.39	28.058
464.74	28.223
465.09	26.538
465.44	26.427
465.79	27.629
466.14	27.094
466.49	25.862
466.84	28.196
467.19	28.063
467.54	26.937
467.89	25.810
468.24	27.458
468.59	27.411
468.94	26.390
469.29	27.699
469.64	27.912
469.99	27.267
470.34	27.213
470.68	27.658
471.03	26.667
471.38	28.492
471.73	27.848
472.08	28.421
472.43	25.942
472.78	27.057
473.13	28.498
473.48	27.591
473.83	27.378
474.17	27.194
474.52	26.923
474.87	27.554
475.22	27.336
475.57	26.921
475.92	26.606
476.27	27.001
476.61	26.641
476.96	26.168
477.31	26.583
477.66	26.860
478.01	25.823
478.36	26.600
478.70	27.103
479.05	26.944
479.40	26.714
479.75	26.792
480.10	26.491
480.45	25.892
480.79	26.947
481.14	26.517
481.49	26.958
481.84	26.109
482.19	26.124
482.53	25.780
482.88	25.640
483.23	26.776
483.58	26.706
483.92	26.242
484.27	25.708
484.62	25.647
484.97	26.094
485.31	27.192
485.66	27.188
486.01	26.308
486.36	25.266
486.70	24.524
487.05	24.831
487.40	24.489
487.75	24.671
488.09	24.841
488.44	25.050
488.79	26.076
489.13	26.012
489.48	25.816
489.83	25.248
490.17	26.348
490.52	25.465
490.87	26.640
491.22	25.921
491.56	25.877
491.91	26.152
492.26	24.851
492.60	25.484
492.95	25.585
493.30	25.654
493.64	25.898
493.99	25.998
494.34	26.272
494.68	25.549
495.03	26.316
495.37	25.826
495.72	25.926
496.07	26.172
496.41	25.221
496.76	26.473
497.11	25.259
497.45	25.571
497.80	24.808
498.14	24.734
498.49	25.561
498.84	25.551
499.18	25.429
499.53	26.116
499.87	25.443
500.22	25.389
500.56	26.117
500.91	25.481
501.26	25.557
501.60	26.009
501.95	24.656
502.29	25.679
502.64	25.419
502.98	24.918
503.33	26.143
503.67	25.429
504.02	25.257
504.36	25.316
504.71	24.573
505.06	25.976
505.40	25.571
505.75	25.169
506.09	26.288
506.44	24.667
506.78	25.816
507.13	26.098
507.47	24.798
507.82	25.076
508.16	24.721
508.51	25.875
508.85	24.131
509.19	25.663
509.54	25.867
509.88	25.863
510.23	25.244
510.57	26.574
510.92	26.256
511.26	25.899
511.61	25.726
511.95	25.052
512.30	25.451
512.64	25.148
512.98	25.723
513.33	26.017
513.67	25.240
514.02	25.108
514.36	24.741
514.70	25.401
515.05	25.153
515.39	26.136
515.74	25.000
516.08	26.272
516.42	26.027
516.77	25.530
517.11	24.029
517.46	25.395
517.80	24.855
518.14	25.304
518.49	25.321
518.83	25.114
519.17	25.462
519.52	24.448
519.86	25.157
520.20	25.954
520.55	26.092
520.89	26.460
521.23	26.236
521.58	25.870
521.92	25.720
522.26	24.954
522.61	24.860
522.95	24.923
523.29	24.650
523.64	25.671
523.98	25.447
524.32	25.332
524.66	25.135
525.01	26.654
525.35	24.164
525.69	24.446
526.04	25.857
526.38	24.954
526.72	25.276
527.06	25.549
527.41	24.629
527.75	25.273
528.09	25.112
528.43	26.769
528.78	26.183
529.12	24.970
529.46	25.658
529.80	26.114
530.15	25.234
530.49	24.308
530.83	25.506
531.17	25.914
531.51	25.940
531.86	25.226
532.20	26.076
532.54	25.689
532.88	24.326
533.22	24.360
533.57	25.185
533.91	24.804
534.25	25.213
534.59	24.588
534.93	25.640
535.27	24.864
535.62	24.969
535.96	24.733
536.30	25.556
536.64	24.791
536.98	25.282
537.32	25.016
537.66	25.933
538.01	25.477
538.35	25.210
538.69	25.782
539.03	24.821
539.37	24.601
539.71	24.627
540.05	24.510
540.39	26.047
540.73	24.709
541.07	25.892
541.42	24.984
541.76	24.903
542.10	25.291
542.44	24.967
542.78	26.021
543.12	25.336
543.46	25.639
543.80	25.960
544.14	25.096
544.48	25.143
544.82	25.208
545.16	24.268
545.50	24.614
545.84	24.395
546.18	24.983
546.52	25.189
546.86	25.361
547.20	24.949
547.54	24.850
547.88	25.255
548.22	25.405
548.56	24.717
548.90	24.200
549.24	24.646
549.58	25.239
549.92	25.549
550.26	25.213
550.60	24.827
550.94	25.070
551.28	24.799
551.62	24.515
551.96	24.982
552.30	25.939
552.64	25.896
552.98	26.102
553.32	24.477
553.66	25.085
554.00	26.012
554.34	25.328
554.68	26.180
555.02	24.824
555.36	24.356
555.69	25.169
556.03	24.832
556.37	24.557
556.71	24.420
557.05	25.070
557.39	25.052
557.73	24.700
558.07	25.163
558.41	24.819
558.75	24.908
559.08	25.802
559.42	25.246
559.76	24.779
560.10	25.268
560.44	26.415
560.78	25.017
561.12	25.198
561.45	25.228
561.79	25.115
562.13	26.023
562.47	25.342
562.81	24.965
563.15	25.619
563.48	24.801
563.82	24.788
564.16	24.853
564.50	23.958
564.84	24.463
565.17	25.676
565.51	26.006
565.85	25.127
566.19	24.671
566.52	24.953
566.86	24.292
567.20	24.823
567.54	25.228
567.88	24.552
568.21	25.132
568.55	25.025
568.89	24.416
569.23	24.733
569.56	24.858
569.90	25.019
570.24	25.081
570.57	24.923
570.91	24.111
571.25	24.892
571.59	25.037
571.92	24.338
572.26	24.610
572.60	24.505
572.93	24.408
573.27	24.845
573.61	24.372
573.95	24.987
574.28	24.648
574.62	24.150
574.96	24.182
575.29	23.860
575.63	24.187
575.97	23.822
576.30	24.562
576.64	23.932
576.98	23.870
577.31	24.492
577.65	24.604
577.98	24.628
578.32	24.345
578.66	24.528
578.99	23.990
579.33	23.893
579.67	24.155
580.00	24.383
580.34	23.944
580.67	24.486
581.01	24.961
581.35	24.524
581.68	24.772
582.02	24.191
582.35	24.340
582.69	24.332
583.02	23.729
583.36	24.118
583.70	24.101
584.03	23.798
584.37	23.847
584.70	24.321
585.04	24.609
585.37	24.744
585.71	24.060
586.04	24.426
586.38	24.530
586.72	24.745
587.05	23.852
587.39	24.354
587.72	24.478
588.06	23.853
588.39	24.499
588.73	23.995
589.06	24.868
589.40	24.680
589.73	24.710
590.07	24.377
590.40	24.260
590.73	24.785
591.07	24.624
591.40	24.462
591.74	25.758
592.07	24.651
592.41	25.424
592.74	25.019
593.08	25.083
593.41	24.739
593.75	24.360
594.08	24.371
594.41	24.532
594.75	24.030
595.08	23.944
595.42	23.958
595.75	24.145
596.09	24.596
596.42	24.715
596.75	24.272
597.09	25.152
597.42	24.325
597.75	24.881
598.09	23.783
598.42	24.270
598.76	23.794
599.09	24.667
599.42	23.726
599.76	24.231
600.09	23.789
600.42	24.251
600.76	24.429
601.09	24.153
601.42	24.658
601.76	24.364
602.09	24.150
602.42	24.522
602.76	24.224
603.09	23.997
603.42	24.561
603.76	24.543
604.09	24.234
604.42	24.174
604.76	23.956
605.09	24.596
605.42	23.728
605.75	25.000
606.09	23.668
606.42	23.907
606.75	24.388
607.09	24.948
607.42	24.219
607.75	23.797
608.08	24.316
608.42	24.563
608.75	24.436
609.08	23.636
609.41	24.274
609.75	24.393
610.08	24.647
610.41	24.302
610.74	24.267
611.07	24.457
611.41	24.975
611.74	24.585
612.07	24.689
612.40	24.554
612.73	23.737
613.07	24.946
613.40	24.908
613.73	23.440
614.06	24.570
614.39	24.331
614.72	25.316
615.06	24.055
615.39	25.000
615.72	24.233
616.05	24.030
616.38	24.680
616.71	24.347
617.05	25.501
617.38	24.233
617.71	24.324
618.04	24.099
618.37	23.891
618.70	25.140
619.03	24.408
619.36	24.372
619.69	24.225
620.03	25.687
620.36	25.067
620.69	25.479
621.02	24.779
621.35	24.119
621.68	24.688
622.01	24.690
622.34	25.416
622.67	24.791
623.00	24.358
623.33	24.803
623.66	25.947
623.99	25.405
624.32	24.322
624.65	24.506
624.99	23.938
625.32	23.678
625.65	24.418
625.98	24.981
626.31	24.961
626.64	25.306
626.97	25.769
627.30	24.106
627.63	24.692
627.96	24.727
628.29	25.459
628.62	24.794
628.95	26.887
629.28	24.635
629.61	25.206
629.94	26.190
630.26	24.976
630.59	24.690
630.92	24.138
631.25	23.988
631.58	25.425
631.91	23.834
632.24	25.211
632.57	25.393
632.90	24.561
633.23	24.497
633.56	25.537
633.89	26.274
634.22	24.631
634.55	25.562
634.88	24.671
635.20	25.687
635.53	26.386
635.86	25.866
636.19	24.588
636.52	25.490
636.85	25.888
637.18	26.152
637.51	24.586
637.83	21.578
638.16	24.936
638.49	26.574
638.82	26.169
639.15	25.375
639.48	25.561
639.81	25.201
640.13	25.130
640.46	24.564
640.79	25.760
641.12	25.309
641.45	24.581
641.77	26.951
642.10	25.585
642.43	25.075
642.76	25.851
643.09	25.920
643.41	25.948
643.74	27.778
644.07	25.305
644.40	26.687
644.73	26.457
645.05	25.198
645.38	25.908
645.71	25.765
646.04	26.910
646.36	26.878
646.69	27.926
647.02	27.551
647.35	25.258
647.67	25.310
648.00	26.504
648.33	25.083
648.66	26.061
648.98	26.387
649.31	26.308
649.64	24.514
649.96	25.633
650.29	25.750
650.62	23.463
650.94	27.553
651.27	27.703
651.60	25.957
651.92	25.399
652.25	25.570
652.58	26.168
652.90	27.962
653.23	26.040
653.56	24.252
653.88	27.892
654.21	27.646
654.54	25.743
654.86	27.103
655.19	25.811
655.52	23.132
655.84	23.675
656.17	30.093
656.49	39.542
656.82	38.678
657.15	27.705
657.47	20.188
657.80	15.404
658.13	15.618
658.45	22.397
658.78	22.161
659.10	22.886
659.43	23.962
659.75	24.922
660.08	26.519
660.41	28.399
660.73	27.192
661.06	26.115
661.38	26.000
661.71	28.077
662.03	28.205
662.36	27.038
662.68	25.904
663.01	29.091
663.33	26.752
663.66	28.361
663.98	25.486
664.31	28.151
664.63	26.316
664.96	25.956
665.28	25.820
665.61	25.341
665.93	24.346
666.26	25.963
666.58	26.987
666.91	26.638
667.23	27.191
667.56	25.054
667.88	29.060
668.21	28.998
668.53	26.681
668.86	27.922
669.18	27.079
669.50	25.217
669.83	29.847
670.15	27.556
670.48	27.233
670.80	27.371
671.13	28.238
671.45	26.596
671.77	28.513
672.10	27.357
672.42	26.855
672.75	27.861
673.07	29.401
673.39	25.316
673.72	23.438
674.04	27.255
674.37	26.602
674.69	26.994
675.01	24.268
675.34	28.953
675.66	29.053
675.98	28.921
676.31	28.992
676.63	27.601
676.95	28.721
677.28	28.972
677.60	29.231
677.92	29.747
678.25	28.747
678.57	28.685
678.89	29.058
679.22	28.094
679.54	26.908
679.86	27.890
680.18	26.297
680.51	28.191
680.83	27.936
681.15	29.057
681.48	27.221
681.80	26.499
682.12	26.245
682.44	23.211
682.77	26.680
683.09	28.326
683.41	27.716
683.73	29.801
684.06	29.752
684.38	27.789
684.70	26.744
685.02	27.580
685.34	26.740
685.67	25.524
685.99	25.601
686.31	27.816
686.63	24.382
686.96	26.429
687.28	24.910
687.60	25.906
687.92	28.154
688.24	26.806
688.56	27.510
688.89	29.668
689.21	29.039
689.53	29.645
689.85	30.377
690.17	24.638
690.49	28.025
690.82	27.103
691.14	27.232
691.46	27.426
691.78	26.104
692.10	29.339
692.42	29.741
692.74	26.556
693.06	28.936
693.39	28.337
693.71	26.201
694.03	27.579
694.35	28.355
694.67	28.146
694.99	28.537
695.31	27.206
695.63	26.794
695.95	30.807
696.27	25.381
696.59	28.497
696.91	30.570
697.23	27.465
697.56	28.358
697.88	25.358
698.20	26.875
698.52	27.097
698.84	28.285
699.16	25.346
699.48	27.553
699.80	31.159
700.12	29.870
700.44	30.504
700.76	31.215
701.08	31.034
701.40	31.006
701.72	29.738
702.04	32.102
702.36	28.045
702.68	28.612
703.00	29.363
703.32	27.394
703.64	27.882
703.96	28.412
704.28	29.070
704.60	26.686
704.91	32.047
705.23	29.619
705.55	37.874
705.87	33.887
706.19	31.802
706.51	28.037
706.83	31.818
707.15	32.213
707.47	30.556
707.79	30.467
708.11	28.311
708.43	29.286
708.74	28.827
709.06	29.610
709.38	31.234
709.70	30.233
710.02	30.267
710.34	29.394
710.66	29.851
710.98	30.114
711.29	28.488
711.61	31.563
711.93	29.808
712.25	32.797
712.57	37.132
712.89	28.720
713.20	31.003
713.52	32.566
713.84	31.962
714.16	28.354
714.48	32.184
714.80	37.082
715.11	28.818
715.43	28.487
715.75	30.435
716.07	30.671
716.39	31.975
716.70	32.226
717.02	34.532
717.34	32.862
717.66	31.343
717.97	33.068
718.29	29.630
718.61	33.212
718.93	30.882
719.24	31.142
719.56	33.220
719.88	32.542
720.20	35.473
720.51	32.056
720.83	30.855
721.15	29.478
721.46	31.915
721.78	34.050
722.10	35.094
722.42	33.459
722.73	33.333
723.05	29.098
723.37	29.960
723.68	34.749
724.00	30.894
724.32	33.468
724.63	35.366
724.95	33.054
725.27	36.437
725.58	35.937
725.90	34.672
726.22	32.453
726.53	29.514
726.85	36.860
727.16	32.384
727.48	32.270
727.80	34.091
728.11	31.159
728.43	27.692
728.74	36.201
729.06	35.766
729.38	36.029
729.69	33.452
730.01	31.058
730.32	33.333
730.64	30.100
730.96	31.683
731.27	32.781
731.59	34.251
731.90	31.195
732.22	31.366
732.53	28.793
732.85	30.769
733.16	31.833
733.48	31.894
733.80	37.013
734.11	34.395
734.43	29.882
734.74	29.143
735.06	32.092
735.37	33.815
735.69	34.395
736.00	35.294
736.32	35.514
736.63	29.712
736.95	35.144
737.26	28.571
737.58	29.677
737.89	33.445
738.21	34.471
738.52	32.857
738.83	32.830
739.15	31.538
739.46	38.321
739.78	33.333
740.09	31.385
740.41	34.839
740.72	33.798
741.04	32.963
741.35	35.417
741.66	39.111
741.98	29.717
742.29	37.321
742.61	40.948
742.92	33.937
743.23	33.333
743.55	31.600
743.86	29.825
744.18	38.938
744.49	34.928
744.80	37.089
745.12	37.273
745.43	37.445
745.74	40.541
746.06	36.697
746.37	38.565
746.68	40.724
747.00	36.574
747.31	36.190
747.62	31.858
747.94	34.802
748.25	31.489
748.56	36.123
748.88	32.178
749.19	40.500
749.50	33.023
749.82	32.520
750.13	35.510
750.44	36.131
750.75	35.088
751.07	37.299
751.38	33.449
751.69	32.130
752.01	34.211
752.32	34.296
752.63	36.170
752.94	36.066
753.26	40.800
753.57	32.520
753.88	35.547
754.19	32.143
754.51	34.722
754.82	27.437
755.13	33.208
755.44	38.346
755.75	34.307
756.07	32.270
756.38	33.577
756.69	35.235
757.00	32.036
757.31	32.047
757.63	32.164
757.94	31.367
758.25	31.863
758.56	29.877
758.87	28.226
759.18	32.424
759.50	30.408
759.81	30.841
760.12	34.062
760.43	32.951
760.74	35.326
761.05	31.921
761.36	30.214
761.67	32.670
761.99	32.919
762.30	29.861
762.61	36.641
762.92	34.766
763.23	33.193
763.54	37.600
763.85	35.937
764.16	36.923
764.47	35.741
764.78	33.922
765.10	32.278
765.41	31.563
765.72	34.431
766.03	32.602
766.34	30.667
766.65	38.298
766.96	37.607
767.27	37.563
767.58	38.542
767.89	42.632
768.20	43.678
768.51	38.579
768.82	37.615
769.13	33.740
769.44	33.603
769.75	37.768
770.06	36.697
770.37	38.462
770.68	35.185
770.99	32.000
771.30	33.197
771.61	44.395
771.92	36.066
772.23	37.815
772.54	38.462
772.85	37.173
773.16	39.362
773.47	46.739
773.78	46.193
774.09	32.143
774.39	46.199
774.70	37.037
775.01	45.652
775.32	45.752
775.63	42.763
775.94	46.763
776.25	44.094
776.56	52.985
776.87	48.361
777.18	44.531
777.48	45.802
777.79	43.939
778.10	49.630
778.41	49.107
778.72	39.416
779.03	46.309
779.34	43.624
779.65	43.919
779.95	43.558
780.26	49.673
780.57	44.828
780.88	53.906
781.19	55.639
781.50	50.000
781.80	44.025
782.11	38.983
782.42	40.506
782.73	38.650
783.04	54.054
783.34	46.479
783.65	54.795
783.96	51.493
784.27	40.559
784.57	41.007
784.88	38.889
785.19	54.762
785.50	53.774
785.81	51.493
786.11	54.918
786.42	43.411
786.73	51.327
787.04	54.717
787.34	57.143
787.65	47.000
787.96	44.144
788.26	42.149
788.57	52.542
788.88	47.934
789.19	50.694
789.49	56.061
789.80	45.802
790.11	60.952
790.41	56.436
790.72	65.060
791.03	50.000
791.33	61.628
791.64	55.670
791.95	50.495
792.25	64.444
792.56	62.338
792.87	65.385
793.17	73.418
793.48	67.816
793.79	56.322
794.09	65.909
794.40	51.261
794.70	44.853
795.01	42.222
795.32	47.482
795.62	50.394
795.93	58.621
796.23	46.018
796.54	54.118
796.85	52.703
797.15	71.831
797.46	68.182
797.76	66.265
798.07	40.506
798.37	52.308
798.68	71.212
798.99	47.887
799.29	57.143
799.60	56.818
799.90	65.753
800.21	67.164
800.51	68.966
800.82	70.175
801.12	67.213
801.43	62.121
801.73	54.054
802.04	90.476
802.34	81.481
802.65	65.625
802.95	88.136
803.26	89.063
803.56	72.857
803.87	72.308
804.17	89.706
804.48	87.037
804.78	75.862
805.09	70.588
805.39	82.692
805.70	58.929
806.00	68.852
806.30	69.697
806.61	63.415
806.91	63.291
807.22	71.053
807.52	61.194
807.83	63.380
808.13	73.438
808.43	61.667
808.74	71.053
809.04	78.261
809.35	76.119
809.65	76.316
809.95	96.774
810.26	86.441
810.56	66.667
810.86	100.000
811.17	102.381
811.47	71.667
811.77	83.333
812.08	81.818
812.38	84.000
812.69	91.667
812.99	129.545
813.29	71.429
813.59	78.571
813.90	108.163
814.20	83.636
814.50	64.615
814.81	82.353
815.11	91.837
815.41	80.328
815.72	119.048
816.02	83.636
816.32	121.429
816.62	102.500
816.93	97.561
817.23	104.762
817.53	75.000
817.84	139.394
818.14	84.783
818.44	95.556
818.74	126.471
819.04	67.500
819.35	137.143
819.65	141.176
819.95	139.286
820.25	145.000
820.56	110.256
820.86	111.364
821.16	111.628
821.46	92.308
821.76	98.000
822.07	134.286
822.37	132.500
822.67	100.000
822.97	86.275
823.27	146.429
823.57	121.622
823.88	127.500
824.18	150.000
824.48	102.381
824.78	152.000
825.08	150.000
825.38	89.189
825.69	114.634
825.99	112.500
826.29	89.655
826.59	100.000
826.89	126.316
827.19	135.294
827.49	174.194
827.79	122.727
828.09	111.364
828.39	85.106
828.70	95.918
829.00	92.593
829.30	116.129
829.60	87.500
829.90	233.333
830.20	182.143
830.50	130.435
830.80	134.783
831.10	153.333
831.40	123.333
831.70	147.826
832.00	203.846
832.30	174.074
832.60	218.750
832.90	163.333
833.20	300.000
833.50	138.710
833.80	144.828
834.10	150.000
834.40	153.846
834.70	188.889
835.00	242.857
835.30	142.857
835.60	192.308
835.90	141.379
836.20	300.000
836.50	141.379
836.80	104.000
837.10	133.333
837.40	166.667
837.70	252.941
838.00	140.741
838.30	219.048
838.60	200.000
838.90	184.615
839.19	155.000
839.49	300.000
839.79	275.000
840.09	215.000
840.39	200.000
840.69	213.043
840.99	233.333
841.29	310.000
841.59	250.000
841.88	200.000
842.18	117.241
842.48	195.238
842.78	156.667
843.08	178.261
843.38	93.750
843.68	633.333
843.97	157.692
844.27	162.069
844.57	228.571
844.87	193.750
845.17	133.333
845.47	1066.667
845.76	288.889
846.06	258.824
846.36	300.000
846.66	257.143
846.96	175.000
847.25	254.545
847.55	309.091
847.85	204.348
848.15	300.000
848.44	278.571
848.74	211.111
849.04	252.941
849.34	410.000
849.63	189.474
849.93	290.909
850.23	600.000
850.53	364.286
850.82	1300.000
851.12	-2600.000
851.42	2800.000
851.71	130.000
852.01	-800.000
852.31	158.333
852.61	833.333
852.90	195.238
853.20	196.000
853.50	241.176
853.79	204.762
854.09	150.000
854.39	218.750
854.68	124.324
854.98	151.613
855.28	150.000
855.57	168.966
855.87	133.333
856.17	131.579
856.46	166.667
856.76	147.059
857.05	151.724
857.35	154.167
857.65	226.667
857.94	191.304
858.24	165.385
858.53	215.000
858.83	181.818
859.13	253.333
859.42	0.000
859.72	344.444
860.01	200.000
860.31	159.091
860.60	168.421
860.90	160.870
861.20	333.333
861.49	408.333
861.79	-3100.000
862.08	375.000
862.38	185.714
862.67	246.154
862.97	276.471
863.26	277.778
863.56	155.556
863.85	275.000
864.15	462.500
864.44	340.000
864.74	616.667
865.03	562.500
865.33	226.316
865.62	318.182
865.92	307.692
866.21	258.333
866.51	0.000
866.80	309.091
867.10	620.000
867.39	276.923
867.69	354.545
867.98	210.526
868.27	418.182
868.57	205.263
868.86	-3100.000
869.16	306.250
869.45	1650.000
869.75	-3200.000
870.04	275.000
870.33	285.714
870.63	725.000
870.92	1600.000
871.22	571.429
871.51	229.412
871.80	147.619
872.10	257.143
>>>>>End Processed Spectral Data<<<<<
