SpectraSuite Data File
++++++++++++++++++++++++++++++++++++
Date: Wed May 13 16:22:04 PDT 2015
User: schluterlab
Dark Spectrum Present: Yes
Reference Spectrum Present: Yes
Number of Sampled Component Spectra: 1
Spectrometers: USB2E3373
Integration Time (usec): 3000 (USB2E3373)
Spectra Averaged: 3 (USB2E3373)
Boxcar Smoothing: 0 (USB2E3373)
Correct for Electrical Dark: No (USB2E3373)
Strobe/Lamp Enabled: No (USB2E3373)
Correct for Detector Non-linearity: No (USB2E3373)
Correct for Stray Light: No (USB2E3373)
Number of Pixels in Processed Spectrum: 2048
>>>>>Begin Processed Spectral Data<<<<<
178.53	0.000
178.91	-1325.000
179.29	-1275.000
179.67	-194.444
180.04	-1075.000
180.42	2150.000
180.80	1020.000
181.18	-1050.000
181.56	571.429
181.94	0.000
182.31	-657.143
182.69	1433.333
183.07	-587.500
183.45	-466.667
183.83	481.818
184.20	-380.000
184.58	1850.000
184.96	4100.000
185.34	-820.000
185.72	-612.500
186.09	-1850.000
186.47	2750.000
186.85	2050.000
187.23	4500.000
187.61	-1100.000
187.98	1175.000
188.36	527.273
188.74	527.273
189.12	-960.000
189.49	580.000
189.87	-4500.000
190.25	-1050.000
190.63	357.143
191.00	346.154
191.38	833.333
191.76	-1200.000
192.14	1000.000
192.51	612.500
192.89	966.667
193.27	537.500
193.65	-1025.000
194.02	470.000
194.40	840.000
194.78	500.000
195.15	458.333
195.53	580.000
195.91	-1950.000
196.29	331.250
196.66	294.737
197.04	-330.000
197.42	0.000
197.79	610.000
198.17	-4600.000
198.55	628.571
198.92	575.000
199.30	760.000
199.68	0.000
200.05	277.778
200.43	685.714
200.81	4000.000
201.18	1466.667
201.56	-1433.333
201.94	555.556
202.31	577.778
202.69	366.667
203.07	530.000
203.44	0.000
203.82	1075.000
204.19	771.429
204.57	414.286
204.95	562.500
205.32	1500.000
205.70	418.182
206.08	392.857
206.45	2250.000
206.83	300.000
207.20	900.000
207.58	700.000
207.96	322.222
208.33	637.500
208.71	-683.333
209.08	657.143
209.46	555.556
209.84	409.091
210.21	-1600.000
210.59	1400.000
210.96	-462.500
211.34	2500.000
211.71	590.000
212.09	816.667
212.46	0.000
212.84	1366.667
213.22	1025.000
213.59	-3800.000
213.97	600.000
214.34	771.429
214.72	490.909
215.09	1000.000
215.47	-1850.000
215.84	-2250.000
216.22	1400.000
216.59	364.286
216.97	1100.000
217.34	436.364
217.72	-583.333
218.09	0.000
218.47	-4300.000
218.84	577.778
219.22	700.000
219.59	1600.000
219.97	-700.000
220.34	820.000
220.72	-1300.000
221.09	400.000
221.47	1300.000
221.84	-983.333
222.22	0.000
222.59	1125.000
222.97	-1750.000
223.34	1060.000
223.72	376.923
224.09	960.000
224.46	1900.000
224.84	-4100.000
225.21	-1020.000
225.59	-3800.000
225.96	550.000
226.34	250.000
226.71	2450.000
227.08	637.500
227.46	510.000
227.83	-1025.000
228.21	-2050.000
228.58	488.889
228.95	-1950.000
229.33	-2250.000
229.70	1433.333
230.08	828.571
230.45	-860.000
230.82	416.667
231.20	866.667
231.57	785.714
231.95	475.000
232.32	227.273
232.69	445.455
233.07	500.000
233.44	361.538
233.81	-1433.333
234.19	268.421
234.56	433.333
234.93	350.000
235.31	472.727
235.68	292.308
236.05	321.429
236.43	160.606
236.80	252.632
237.17	3000.000
237.55	200.000
237.92	185.714
238.29	200.000
238.67	122.581
239.04	151.724
239.41	125.000
239.79	115.217
240.16	126.190
240.53	120.455
240.91	98.039
241.28	96.000
241.65	78.000
242.02	75.362
242.40	59.677
242.77	70.000
243.14	65.591
243.51	67.416
243.89	61.176
244.26	60.000
244.63	49.462
245.00	59.574
245.38	63.366
245.75	46.729
246.12	44.037
246.49	47.445
246.87	47.200
247.24	47.692
247.61	45.714
247.98	40.523
248.36	33.108
248.73	37.580
249.10	35.032
249.47	36.158
249.84	37.968
250.22	29.947
250.59	32.544
250.96	35.859
251.33	33.175
251.70	37.624
252.08	27.143
252.45	32.735
252.82	24.783
253.19	34.894
253.56	28.235
253.94	33.195
254.31	30.469
254.68	30.385
255.05	28.413
255.42	28.455
255.79	26.103
256.16	28.520
256.54	25.795
256.91	24.199
257.28	24.820
257.65	24.752
258.02	24.224
258.39	22.713
258.76	23.077
259.14	25.298
259.51	24.012
259.88	21.118
260.25	24.169
260.62	24.277
260.99	21.739
261.36	25.826
261.73	24.069
262.10	21.221
262.47	23.380
262.85	22.563
263.22	18.234
263.59	23.077
263.96	18.956
264.33	21.671
264.70	21.316
265.07	23.018
265.44	16.919
265.81	19.708
266.18	20.101
266.55	22.683
266.92	21.376
267.29	21.296
267.66	20.183
268.03	22.045
268.40	19.393
268.77	17.900
269.14	19.820
269.51	20.542
269.88	21.911
270.25	18.059
270.62	20.225
270.99	21.075
271.36	19.742
271.73	20.093
272.10	16.739
272.47	20.430
272.84	19.264
273.21	20.335
273.58	19.651
273.95	16.562
274.32	19.835
274.69	18.630
275.06	16.142
275.43	20.000
275.80	16.633
276.17	18.941
276.54	17.879
276.91	18.972
277.28	16.406
277.65	19.342
278.02	15.321
278.39	20.312
278.76	18.000
279.13	19.057
279.50	18.063
279.87	17.729
280.23	18.164
280.60	18.956
280.97	15.896
281.34	17.345
281.71	17.636
282.08	19.578
282.45	16.909
282.82	19.005
283.19	15.152
283.56	16.842
283.92	18.613
284.29	16.049
284.66	16.152
285.03	15.913
285.40	16.021
285.77	16.162
286.14	16.408
286.51	17.667
286.87	16.752
287.24	16.775
287.61	14.607
287.98	15.422
288.35	16.006
288.72	15.421
289.08	14.085
289.45	13.839
289.82	15.285
290.19	15.699
290.56	13.476
290.93	14.350
291.29	14.877
291.66	14.897
292.03	15.843
292.40	16.153
292.77	15.976
293.13	14.328
293.50	13.411
293.87	14.963
294.24	12.444
294.60	12.664
294.97	15.262
295.34	14.951
295.71	14.062
296.08	13.533
296.44	14.168
296.81	13.738
297.18	13.686
297.55	11.346
297.91	13.456
298.28	14.056
298.65	14.621
299.02	13.834
299.38	11.687
299.75	11.321
300.12	11.750
300.48	12.500
300.85	13.317
301.22	11.338
301.59	12.753
301.95	12.594
302.32	12.580
302.69	12.067
303.05	13.818
303.42	11.605
303.79	12.344
304.15	10.606
304.52	12.167
304.89	11.847
305.25	12.065
305.62	12.005
305.99	12.397
306.35	12.081
306.72	11.771
307.09	12.098
307.45	11.712
307.82	10.379
308.19	12.252
308.55	12.729
308.92	11.386
309.29	10.454
309.65	11.665
310.02	11.734
310.38	11.183
310.75	11.932
311.12	11.771
311.48	12.017
311.85	12.369
312.22	11.446
312.58	11.435
312.95	13.200
313.31	10.680
313.68	11.123
314.05	13.905
314.41	11.960
314.78	11.782
315.14	11.519
315.51	12.049
315.87	12.772
316.24	12.512
316.61	13.060
316.97	12.231
317.34	10.665
317.70	13.098
318.07	12.512
318.43	13.112
318.80	13.402
319.16	13.653
319.53	12.758
319.89	14.000
320.26	14.300
320.62	13.988
320.99	14.848
321.35	14.444
321.72	16.016
322.08	14.906
322.45	16.119
322.81	15.891
323.18	15.800
323.54	16.327
323.91	16.321
324.27	16.157
324.64	15.284
325.00	15.780
325.37	16.197
325.73	16.966
326.10	16.152
326.46	17.115
326.83	18.292
327.19	16.823
327.56	17.160
327.92	18.198
328.29	19.432
328.65	18.324
329.01	16.877
329.38	18.686
329.74	17.452
330.11	18.096
330.47	18.549
330.84	19.853
331.20	17.577
331.56	18.624
331.93	17.778
332.29	18.012
332.66	19.912
333.02	18.921
333.38	18.609
333.75	19.162
334.11	20.552
334.48	18.634
334.84	20.129
335.20	19.182
335.57	19.311
335.93	18.750
336.29	18.681
336.66	19.928
337.02	18.371
337.38	19.815
337.75	17.291
338.11	20.054
338.47	20.074
338.84	19.615
339.20	18.165
339.56	20.164
339.93	18.636
340.29	19.293
340.65	19.162
341.02	19.634
341.38	19.484
341.74	18.333
342.11	19.563
342.47	19.471
342.83	19.264
343.20	19.394
343.56	19.966
343.92	19.035
344.28	18.963
344.65	19.347
345.01	18.266
345.37	18.611
345.73	19.459
346.10	19.693
346.46	18.644
346.82	19.357
347.19	18.797
347.55	18.883
347.91	20.388
348.27	19.145
348.63	19.147
349.00	18.042
349.36	19.458
349.72	18.444
350.08	18.071
350.45	18.959
350.81	19.009
351.17	19.692
351.53	19.328
351.89	18.317
352.26	19.653
352.62	19.888
352.98	18.882
353.34	18.981
353.70	18.740
354.07	20.242
354.43	17.937
354.79	18.584
355.15	19.074
355.51	19.664
355.87	19.429
356.24	20.114
356.60	18.444
356.96	19.389
357.32	19.787
357.68	19.764
358.04	18.923
358.40	19.398
358.77	19.640
359.13	17.995
359.49	19.137
359.85	18.175
360.21	19.298
360.57	20.545
360.93	18.923
361.29	19.501
361.66	19.272
362.02	19.627
362.38	18.859
362.74	18.824
363.10	19.097
363.46	18.635
363.82	19.879
364.18	20.191
364.54	20.877
364.90	20.042
365.26	19.706
365.62	20.453
365.98	19.138
366.35	18.123
366.71	20.246
367.07	19.738
367.43	19.811
367.79	20.628
368.15	19.899
368.51	20.422
368.87	20.628
369.23	20.117
369.59	20.637
369.95	20.221
370.31	20.584
370.67	20.435
371.03	20.449
371.39	20.262
371.75	20.809
372.11	19.630
372.47	20.674
372.83	21.254
373.19	20.376
373.55	20.325
373.91	22.828
374.27	20.687
374.63	19.855
374.99	21.186
375.35	20.656
375.71	20.699
376.07	21.056
376.42	20.633
376.78	21.471
377.14	20.556
377.50	21.656
377.86	21.210
378.22	21.681
378.58	20.865
378.94	21.559
379.30	21.247
379.66	21.637
380.02	22.543
380.38	22.465
380.74	21.849
381.09	21.577
381.45	22.250
381.81	22.236
382.17	23.503
382.53	22.516
382.89	22.531
383.25	22.389
383.61	23.482
383.97	23.139
384.32	22.957
384.68	22.862
385.04	22.618
385.40	22.724
385.76	23.649
386.12	23.316
386.48	23.348
386.83	23.926
387.19	24.242
387.55	23.810
387.91	22.793
388.27	23.421
388.62	23.970
388.98	23.587
389.34	23.780
389.70	23.728
390.06	24.208
390.42	24.060
390.77	23.728
391.13	24.250
391.49	23.921
391.85	23.997
392.20	22.965
392.56	23.737
392.92	24.132
393.28	22.899
393.64	24.041
393.99	24.557
394.35	24.380
394.71	24.153
395.07	24.112
395.42	24.660
395.78	23.155
396.14	24.333
396.50	25.313
396.85	24.539
397.21	24.168
397.57	24.427
397.92	24.038
398.28	24.047
398.64	23.835
399.00	23.447
399.35	23.012
399.71	23.206
400.07	24.364
400.42	24.601
400.78	23.824
401.14	24.268
401.49	23.582
401.85	23.775
402.21	24.251
402.57	24.738
402.92	24.023
403.28	24.672
403.63	24.072
403.99	24.268
404.35	24.061
404.70	24.640
405.06	23.413
405.42	24.017
405.77	24.343
406.13	23.871
406.49	24.128
406.84	24.335
407.20	22.636
407.55	23.612
407.91	24.267
408.27	24.442
408.62	24.142
408.98	23.897
409.34	24.477
409.69	23.161
410.05	24.040
410.40	25.260
410.76	23.238
411.11	23.643
411.47	23.323
411.83	23.946
412.18	23.500
412.54	23.786
412.89	23.976
413.25	24.144
413.60	24.460
413.96	23.376
414.31	23.694
414.67	24.208
415.03	23.444
415.38	23.905
415.74	23.408
416.09	25.278
416.45	23.159
416.80	23.463
417.16	24.866
417.51	23.424
417.87	23.186
418.22	23.849
418.58	23.693
418.93	23.710
419.29	23.488
419.64	24.433
420.00	23.049
420.35	23.362
420.71	24.268
421.06	23.807
421.42	23.860
421.77	23.991
422.12	23.358
422.48	22.396
422.83	23.063
423.19	22.983
423.54	22.809
423.90	23.478
424.25	23.506
424.61	23.333
424.96	23.324
425.31	23.256
425.67	22.753
426.02	22.571
426.38	23.443
426.73	22.586
427.09	23.951
427.44	23.289
427.79	23.289
428.15	23.036
428.50	23.640
428.85	23.897
429.21	22.087
429.56	23.224
429.92	22.245
430.27	22.592
430.62	23.041
430.98	22.366
431.33	22.887
431.68	22.775
432.04	22.524
432.39	22.102
432.74	23.279
433.10	23.147
433.45	22.449
433.80	22.894
434.16	22.436
434.51	22.737
434.86	23.147
435.22	21.957
435.57	23.161
435.92	22.528
436.28	23.962
436.63	23.731
436.98	22.438
437.34	23.315
437.69	23.571
438.04	22.822
438.39	22.507
438.75	23.068
439.10	22.905
439.45	22.609
439.81	22.719
440.16	22.530
440.51	23.023
440.86	22.814
441.22	22.692
441.57	22.611
441.92	22.006
442.27	22.605
442.63	21.380
442.98	22.761
443.33	22.989
443.68	22.664
444.03	22.011
444.39	21.616
444.74	21.266
445.09	22.318
445.44	21.815
445.79	21.475
446.15	22.181
446.50	21.648
446.85	21.634
447.20	22.081
447.55	22.669
447.91	22.008
448.26	22.092
448.61	22.442
448.96	22.647
449.31	22.553
449.66	22.397
450.02	22.563
450.37	21.259
450.72	22.109
451.07	22.364
451.42	21.337
451.77	22.901
452.12	21.767
452.47	22.388
452.83	21.678
453.18	21.822
453.53	21.521
453.88	21.737
454.23	22.176
454.58	22.471
454.93	22.823
455.28	21.696
455.63	21.663
455.98	23.155
456.34	22.927
456.69	22.417
457.04	22.229
457.39	21.975
457.74	21.474
458.09	21.392
458.44	22.463
458.79	21.475
459.14	21.840
459.49	21.891
459.84	21.828
460.19	21.332
460.54	21.354
460.89	21.942
461.24	21.919
461.59	22.313
461.94	21.393
462.29	22.552
462.64	21.698
462.99	20.950
463.34	22.067
463.69	21.388
464.04	21.681
464.39	21.739
464.74	21.450
465.09	21.110
465.44	21.551
465.79	20.694
466.14	21.346
466.49	20.968
466.84	22.008
467.19	21.485
467.54	21.250
467.89	20.768
468.24	21.291
468.59	21.734
468.94	20.831
469.29	22.044
469.64	21.888
469.99	21.177
470.34	21.004
470.68	22.198
471.03	21.565
471.38	22.029
471.73	22.585
472.08	22.697
472.43	20.415
472.78	21.856
473.13	20.539
473.48	21.536
473.83	21.524
474.17	20.100
474.52	21.154
474.87	20.957
475.22	20.894
475.57	20.097
475.92	20.234
476.27	20.800
476.61	21.015
476.96	20.836
477.31	19.519
477.66	20.460
478.01	20.439
478.36	20.360
478.70	19.834
479.05	20.288
479.40	20.266
479.75	20.234
480.10	20.278
480.45	20.086
480.79	19.494
481.14	19.667
481.49	19.934
481.84	19.982
482.19	19.945
482.53	19.404
482.88	19.311
483.23	19.346
483.58	19.609
483.92	19.494
484.27	18.693
484.62	19.612
484.97	19.235
485.31	19.281
485.66	18.240
486.01	17.318
486.36	16.629
486.70	16.124
487.05	17.028
487.40	18.029
487.75	18.675
488.09	18.805
488.44	19.046
488.79	19.421
489.13	18.946
489.48	19.290
489.83	18.947
490.17	18.764
490.52	18.733
490.87	19.222
491.22	18.781
491.56	18.405
491.91	19.823
492.26	18.925
492.60	19.032
492.95	18.662
493.30	18.411
493.64	18.945
493.99	18.570
494.34	18.825
494.68	19.780
495.03	19.502
495.37	18.986
495.72	19.834
496.07	19.722
496.41	18.319
496.76	18.646
497.11	18.910
497.45	18.584
497.80	18.762
498.14	17.633
498.49	18.585
498.84	19.319
499.18	18.571
499.53	18.424
499.87	18.826
500.22	18.700
500.56	19.029
500.91	19.087
501.26	19.014
501.60	18.605
501.95	18.973
502.29	18.135
502.64	18.156
502.98	18.747
503.33	18.327
503.67	18.747
504.02	18.616
504.36	18.811
504.71	18.661
505.06	19.181
505.40	17.939
505.75	17.936
506.09	17.930
506.44	18.451
506.78	18.169
507.13	18.829
507.47	18.788
507.82	19.200
508.16	18.744
508.51	18.163
508.85	18.620
509.19	18.367
509.54	19.031
509.88	18.959
510.23	18.509
510.57	19.556
510.92	18.332
511.26	18.602
511.61	18.776
511.95	18.580
512.30	17.444
512.64	18.861
512.98	18.864
513.33	18.790
513.67	18.943
514.02	18.236
514.36	18.788
514.70	18.871
515.05	18.461
515.39	18.732
515.74	18.750
516.08	19.955
516.42	18.979
516.77	18.841
517.11	17.592
517.46	19.074
517.80	19.164
518.14	18.529
518.49	19.137
518.83	18.807
519.17	18.418
519.52	19.072
519.86	18.597
520.20	18.844
520.55	19.569
520.89	19.526
521.23	19.662
521.58	18.848
521.92	18.861
522.26	18.060
522.61	19.502
522.95	19.521
523.29	19.051
523.64	19.451
523.98	18.484
524.32	19.300
524.66	19.122
525.01	18.689
525.35	19.517
525.69	18.842
526.04	18.879
526.38	19.402
526.72	18.405
527.06	19.335
527.41	18.441
527.75	19.614
528.09	19.139
528.43	18.802
528.78	18.931
529.12	18.364
529.46	19.228
529.80	18.874
530.15	18.816
530.49	18.831
530.83	18.734
531.17	19.191
531.51	19.715
531.86	19.097
532.20	19.752
532.54	19.795
532.88	19.384
533.22	18.426
533.57	18.827
533.91	18.663
534.25	18.712
534.59	18.914
534.93	18.203
535.27	18.467
535.62	18.803
535.96	17.954
536.30	18.945
536.64	19.253
536.98	18.912
537.32	18.038
537.66	19.133
538.01	18.631
538.35	19.263
538.69	19.336
539.03	17.674
539.37	18.786
539.71	17.952
540.05	18.235
540.39	18.339
540.73	17.982
541.07	18.689
541.42	18.265
541.76	18.258
542.10	18.952
542.44	18.411
542.78	19.236
543.12	18.106
543.46	18.623
543.80	18.673
544.14	17.972
544.48	18.159
544.82	18.281
545.16	18.217
545.50	17.609
545.84	17.944
546.18	17.778
546.52	18.995
546.86	17.526
547.20	18.813
547.54	17.769
547.88	18.495
548.22	17.372
548.56	17.547
548.90	17.222
549.24	17.912
549.58	18.349
549.92	19.162
550.26	19.460
550.60	17.497
550.94	18.380
551.28	17.337
551.62	18.548
551.96	16.912
552.30	18.020
552.64	18.594
552.98	17.966
553.32	18.004
553.66	18.269
554.00	18.737
554.34	16.563
554.68	17.740
555.02	17.489
555.36	17.745
555.69	17.253
556.03	18.304
556.37	18.349
556.71	18.486
557.05	18.207
557.39	18.684
557.73	17.925
558.07	18.274
558.41	17.873
558.75	17.046
559.08	18.345
559.42	18.367
559.76	18.382
560.10	16.916
560.44	16.911
560.78	16.966
561.12	17.810
561.45	17.666
561.79	17.271
562.13	17.773
562.47	17.828
562.81	17.503
563.15	17.659
563.48	17.241
563.82	17.743
564.16	17.332
564.50	16.797
564.84	17.257
565.17	16.731
565.51	17.636
565.85	17.195
566.19	17.220
566.52	17.036
566.86	17.239
567.20	17.099
567.54	16.495
567.88	15.861
568.21	16.614
568.55	15.571
568.89	16.294
569.23	15.865
569.56	15.223
569.90	15.094
570.24	14.998
570.57	14.927
570.91	14.447
571.25	14.299
571.59	14.227
571.92	13.911
572.26	14.096
572.60	14.324
572.93	14.333
573.27	14.641
573.61	14.489
573.95	14.393
574.28	14.045
574.62	13.557
574.96	13.620
575.29	13.628
575.63	13.796
575.97	13.903
576.30	14.657
576.64	13.596
576.98	13.831
577.31	13.586
577.65	13.529
577.98	13.510
578.32	13.026
578.66	13.648
578.99	13.878
579.33	13.725
579.67	13.233
580.00	13.762
580.34	14.048
580.67	13.968
581.01	13.740
581.35	13.745
581.68	13.260
582.02	12.856
582.35	13.183
582.69	13.057
583.02	13.078
583.36	13.627
583.70	13.811
584.03	14.342
584.37	14.150
584.70	14.107
585.04	13.894
585.37	13.467
585.71	13.534
586.04	13.675
586.38	13.819
586.72	14.333
587.05	13.447
587.39	13.483
587.72	13.605
588.06	13.607
588.39	13.855
588.73	14.491
589.06	14.366
589.40	14.512
589.73	14.256
590.07	13.986
590.40	14.213
590.73	14.871
591.07	14.815
591.40	15.099
591.74	15.541
592.07	15.271
592.41	15.254
592.74	14.532
593.08	13.857
593.41	14.141
593.75	13.585
594.08	14.080
594.41	14.422
594.75	13.900
595.08	14.352
595.42	14.221
595.75	13.640
596.09	14.946
596.42	14.931
596.75	14.816
597.09	15.628
597.42	14.418
597.75	14.360
598.09	15.522
598.42	14.734
598.76	14.674
599.09	13.569
599.42	14.265
599.76	14.129
600.09	13.807
600.42	13.806
600.76	13.821
601.09	14.244
601.42	13.851
601.76	14.118
602.09	14.664
602.42	14.132
602.76	14.672
603.09	14.555
603.42	14.096
603.76	14.253
604.09	14.075
604.42	14.227
604.76	15.183
605.09	14.723
605.42	14.365
605.75	14.487
606.09	13.989
606.42	14.548
606.75	14.102
607.09	14.902
607.42	14.078
607.75	14.008
608.08	14.329
608.42	14.747
608.75	14.472
609.08	14.246
609.41	14.612
609.75	15.007
610.08	15.221
610.41	14.060
610.74	14.333
611.07	14.625
611.41	14.720
611.74	15.334
612.07	14.959
612.40	15.268
612.73	15.684
613.07	14.978
613.40	15.692
613.73	14.893
614.06	14.785
614.39	15.732
614.72	15.158
615.06	15.494
615.39	14.331
615.72	14.980
616.05	14.088
616.38	15.008
616.71	15.558
617.05	15.901
617.38	16.055
617.71	14.474
618.04	15.385
618.37	15.257
618.70	15.557
619.03	16.842
619.36	17.447
619.69	16.056
620.03	16.690
620.36	15.642
620.69	16.438
621.02	16.003
621.35	16.523
621.68	16.199
622.01	17.337
622.34	16.415
622.67	16.806
623.00	16.801
623.33	15.797
623.66	17.012
623.99	15.979
624.32	16.191
624.65	15.678
624.99	15.864
625.32	15.641
625.65	16.003
625.98	17.525
626.31	16.563
626.64	17.306
626.97	16.791
627.30	16.874
627.63	17.719
627.96	16.148
628.29	17.060
628.62	18.573
628.95	19.623
629.28	18.613
629.61	18.882
629.94	18.190
630.26	17.827
630.59	17.255
630.92	17.529
631.25	18.756
631.58	18.418
631.91	18.458
632.24	16.983
632.57	18.153
632.90	18.202
633.23	20.246
633.56	19.548
633.89	19.366
634.22	18.729
634.55	20.592
634.88	20.240
635.20	19.713
635.53	19.759
635.86	20.050
636.19	20.353
636.52	18.800
636.85	17.297
637.18	17.512
637.51	20.095
637.83	18.002
638.16	19.309
638.49	21.033
638.82	20.101
639.15	20.625
639.48	20.948
639.81	20.643
640.13	20.052
640.46	19.732
640.79	19.022
641.12	20.633
641.45	20.391
641.77	21.502
642.10	19.444
642.43	20.120
642.76	20.433
643.09	21.779
643.41	20.789
643.74	20.988
644.07	20.732
644.40	21.012
644.73	22.677
645.05	22.979
645.38	21.011
645.71	22.866
646.04	21.761
646.36	22.871
646.69	22.575
647.02	20.918
647.35	22.509
647.67	21.416
648.00	23.577
648.33	20.462
648.66	19.091
648.98	20.540
649.31	19.283
649.64	21.973
649.96	20.119
650.29	21.801
650.62	19.417
650.94	22.204
651.27	23.480
651.60	20.965
651.92	20.607
652.25	19.055
652.58	20.717
652.90	21.485
653.23	21.418
653.56	22.520
653.88	21.236
654.21	20.221
654.54	19.637
654.86	20.561
655.19	19.730
655.52	12.971
655.84	9.607
656.17	11.939
656.49	16.037
656.82	16.653
657.15	12.941
657.47	10.064
657.80	7.787
658.13	8.353
658.45	12.785
658.78	13.068
659.10	14.138
659.43	14.534
659.75	15.543
660.08	17.278
660.41	18.343
660.73	21.474
661.06	22.771
661.38	24.000
661.71	23.269
662.03	23.866
662.36	21.074
662.68	23.092
663.01	22.626
663.33	23.992
663.66	23.109
663.98	20.086
664.31	22.689
664.63	23.482
664.96	21.529
665.28	21.311
665.61	22.417
665.93	21.328
666.26	22.312
666.58	20.084
666.91	26.850
667.23	22.472
667.56	23.542
667.88	24.573
668.21	26.226
668.53	23.861
668.86	22.944
669.18	24.307
669.50	23.696
669.83	26.797
670.15	25.333
670.48	22.876
670.80	24.353
671.13	25.690
671.45	22.128
671.77	26.273
672.10	21.072
672.42	21.025
672.75	20.564
673.07	20.775
673.39	20.253
673.72	21.875
674.04	21.176
674.37	20.777
674.69	21.881
675.01	22.594
675.34	25.462
675.66	25.895
675.98	24.236
676.31	23.109
676.63	23.142
676.95	22.851
677.28	22.897
677.60	23.077
677.92	25.105
678.25	22.998
678.57	23.506
678.89	23.046
679.22	23.183
679.54	21.565
679.86	22.936
680.18	20.930
680.51	22.163
680.83	23.665
681.15	22.453
681.48	22.684
681.80	21.470
682.12	22.222
682.44	18.375
682.77	22.811
683.09	23.820
683.41	23.947
683.73	21.854
684.06	23.967
684.38	22.114
684.70	20.930
685.02	21.576
685.34	20.513
685.67	18.706
685.99	21.306
686.31	21.672
686.63	19.965
686.96	22.857
687.28	22.924
687.60	18.297
687.92	21.207
688.24	21.103
688.56	22.892
688.89	21.577
689.21	25.109
689.53	22.965
689.85	22.395
690.17	19.876
690.49	25.902
690.82	22.897
691.14	22.991
691.46	21.097
691.78	21.486
692.10	23.347
692.42	23.353
692.74	18.257
693.06	23.191
693.39	23.614
693.71	23.581
694.03	23.158
694.35	21.645
694.67	21.968
694.99	24.878
695.31	24.265
695.63	24.880
695.95	24.205
696.27	22.843
696.59	24.611
696.91	26.166
697.23	20.892
697.56	22.175
697.88	21.472
698.20	21.458
698.52	23.441
698.84	26.726
699.16	21.659
699.48	27.316
699.80	25.604
700.12	27.013
700.44	24.934
700.76	22.099
701.08	27.586
701.40	26.816
701.72	28.863
702.04	28.693
702.36	24.079
702.68	26.912
703.00	27.424
703.32	23.936
703.64	26.005
703.96	26.184
704.28	27.035
704.60	26.979
704.91	25.816
705.23	28.152
705.55	29.900
705.87	34.219
706.19	28.269
706.51	28.972
706.83	28.182
707.15	26.331
707.47	25.758
707.79	23.342
708.11	23.516
708.43	22.857
708.74	21.684
709.06	24.416
709.38	26.247
709.70	27.907
710.02	28.487
710.34	22.424
710.66	27.761
710.98	24.432
711.29	27.616
711.61	31.858
711.93	25.321
712.25	29.582
712.57	29.044
712.89	32.180
713.20	29.787
713.52	28.289
713.84	24.051
714.16	27.134
714.48	24.425
714.80	30.395
715.11	26.225
715.43	24.926
715.75	26.667
716.07	27.157
716.39	28.527
716.70	29.568
717.02	30.935
717.34	32.155
717.66	31.716
717.97	31.076
718.29	31.481
718.61	29.927
718.93	31.618
719.24	25.952
719.56	24.407
719.88	30.508
720.20	30.405
720.51	26.132
720.83	34.572
721.15	28.358
721.46	30.851
721.78	29.391
722.10	29.811
722.42	31.203
722.73	28.464
723.05	33.607
723.37	26.316
723.68	31.274
724.00	26.829
724.32	31.452
724.63	34.959
724.95	30.126
725.27	29.555
725.58	36.719
725.90	32.482
726.22	31.321
726.53	27.431
726.85	26.280
727.16	28.114
727.48	27.305
727.80	27.652
728.11	29.348
728.43	26.538
728.74	29.749
729.06	31.752
729.38	30.147
729.69	29.893
730.01	30.034
730.32	29.514
730.64	28.094
730.96	24.422
731.27	30.464
731.59	30.581
731.90	24.490
732.22	24.534
732.53	21.362
732.85	26.923
733.16	24.759
733.48	25.914
733.80	25.649
734.11	27.389
734.43	25.740
734.74	23.143
735.06	20.344
735.37	26.879
735.69	20.382
736.00	28.431
736.32	30.841
736.63	25.240
736.95	25.559
737.26	20.748
737.58	26.774
737.89	26.421
738.21	28.328
738.52	25.000
738.83	29.811
739.15	30.769
739.46	30.292
739.78	29.861
740.09	27.385
740.41	25.484
740.72	26.481
741.04	29.259
741.35	24.167
741.66	32.889
741.98	29.717
742.29	34.928
742.61	39.224
742.92	32.579
743.23	28.632
743.55	31.200
743.86	35.526
744.18	36.726
744.49	32.536
744.80	34.742
745.12	40.455
745.43	33.040
745.74	31.532
746.06	35.780
746.37	36.771
746.68	32.127
747.00	35.648
747.31	37.143
747.62	30.531
747.94	32.599
748.25	29.362
748.56	37.004
748.88	35.644
749.19	39.000
749.50	32.558
749.82	31.707
750.13	32.653
750.44	30.657
750.75	26.667
751.07	32.476
751.38	28.223
751.69	32.130
752.01	23.308
752.32	28.520
752.63	30.142
752.94	28.689
753.26	34.400
753.57	27.642
753.88	34.375
754.19	27.143
754.51	29.167
754.82	26.354
755.13	30.943
755.44	28.195
755.75	27.372
756.07	28.014
756.38	27.737
756.69	26.510
757.00	25.749
757.31	27.300
757.63	23.684
757.94	24.933
758.25	23.039
758.56	22.222
758.87	22.043
759.18	27.273
759.50	29.154
759.81	26.791
760.12	24.062
760.43	24.928
760.74	26.087
761.05	25.141
761.36	23.529
761.67	26.420
761.99	25.776
762.30	30.208
762.61	30.534
762.92	33.203
763.23	33.613
763.54	34.800
763.85	31.250
764.16	29.231
764.47	27.757
764.78	26.148
765.10	23.734
765.41	27.434
765.72	23.054
766.03	25.078
766.34	26.667
766.65	33.191
766.96	31.197
767.27	38.071
767.58	39.062
767.89	40.526
768.20	33.908
768.51	29.949
768.82	31.651
769.13	27.642
769.44	33.198
769.75	31.330
770.06	27.064
770.37	38.009
770.68	35.648
770.99	29.778
771.30	27.049
771.61	33.184
771.92	30.738
772.23	34.454
772.54	33.846
772.85	35.602
773.16	37.234
773.47	40.217
773.78	42.132
774.09	39.881
774.39	45.614
774.70	41.975
775.01	52.174
775.32	46.405
775.63	46.711
775.94	49.640
776.25	45.669
776.56	52.985
776.87	50.000
777.18	50.000
777.48	48.855
777.79	50.758
778.10	49.630
778.41	41.964
778.72	45.985
779.03	38.255
779.34	43.624
779.65	36.486
779.95	41.718
780.26	49.673
780.57	46.207
780.88	57.813
781.19	50.376
781.50	46.622
781.80	38.365
782.11	37.288
782.42	36.709
782.73	36.810
783.04	43.919
783.34	49.296
783.65	45.205
783.96	46.269
784.27	44.056
784.57	39.568
784.88	36.111
785.19	58.730
785.50	50.943
785.81	49.254
786.11	50.820
786.42	48.837
786.73	53.982
787.04	55.660
787.34	47.321
787.65	61.000
787.96	47.748
788.26	46.281
788.57	54.237
788.88	56.198
789.19	50.694
789.49	49.242
789.80	40.458
790.11	65.714
790.41	64.356
790.72	77.108
791.03	61.957
791.33	63.953
791.64	58.763
791.95	60.396
792.25	57.778
792.56	66.234
792.87	76.923
793.17	81.013
793.48	71.264
793.79	63.218
794.09	64.773
794.40	47.899
794.70	56.618
795.01	40.000
795.32	47.482
795.62	48.819
795.93	60.345
796.23	48.673
796.54	62.353
796.85	68.919
797.15	95.775
797.46	74.242
797.76	68.675
798.07	70.886
798.37	63.077
798.68	72.727
798.99	80.282
799.29	72.727
799.60	71.591
799.90	84.932
800.21	91.045
800.51	82.759
800.82	101.754
801.12	93.443
801.43	81.818
801.73	83.784
802.04	87.302
802.34	80.247
802.65	84.375
802.95	89.831
803.26	96.875
803.56	71.429
803.87	66.154
804.17	86.765
804.48	103.704
804.78	87.931
805.09	72.059
805.39	90.385
805.70	82.143
806.00	83.607
806.30	71.212
806.61	75.610
806.91	68.354
807.22	76.316
807.52	59.701
807.83	81.690
808.13	82.813
808.43	88.333
808.74	73.684
809.04	78.261
809.35	91.045
809.65	86.842
809.95	101.613
810.26	93.220
810.56	92.063
810.86	127.273
811.17	140.476
811.47	108.333
811.77	96.296
812.08	110.909
812.38	104.000
812.69	130.556
812.99	125.000
813.29	100.000
813.59	88.095
813.90	134.694
814.20	100.000
814.50	95.385
814.81	100.000
815.11	100.000
815.41	98.361
815.72	133.333
816.02	94.545
816.32	119.048
816.62	95.000
816.93	126.829
817.23	140.476
817.53	125.000
817.84	145.455
818.14	152.174
818.44	93.333
818.74	155.882
819.04	110.000
819.35	142.857
819.65	170.588
819.95	132.143
820.25	175.000
820.56	153.846
820.86	118.182
821.16	127.907
821.46	123.077
821.76	122.000
822.07	140.000
822.37	145.000
822.67	136.364
822.97	100.000
823.27	178.571
823.57	135.135
823.88	147.500
824.18	186.667
824.48	133.333
824.78	156.000
825.08	175.000
825.38	148.649
825.69	112.195
825.99	183.333
826.29	189.655
826.59	118.421
826.89	136.842
827.19	150.000
827.49	177.419
827.79	129.545
828.09	104.545
828.39	125.532
828.70	108.163
829.00	155.556
829.30	129.032
829.60	110.000
829.90	266.667
830.20	157.143
830.50	182.609
830.80	165.217
831.10	173.333
831.40	140.000
831.70	195.652
832.00	196.154
832.30	214.815
832.60	300.000
832.90	190.000
833.20	421.429
833.50	190.323
833.80	175.862
834.10	153.125
834.40	215.385
834.70	300.000
835.00	228.571
835.30	151.429
835.60	246.154
835.90	175.862
836.20	328.571
836.50	186.207
836.80	168.000
837.10	172.222
837.40	204.762
837.70	305.882
838.00	177.778
838.30	195.238
838.60	257.143
838.90	192.308
839.19	215.000
839.49	314.286
839.79	280.000
840.09	230.000
840.39	238.095
840.69	260.870
840.99	272.222
841.29	460.000
841.59	291.667
841.88	331.250
842.18	168.966
842.48	266.667
842.78	173.333
843.08	213.043
843.38	184.375
843.68	783.333
843.97	242.308
844.27	203.448
844.57	257.143
844.87	331.250
845.17	207.407
845.47	1466.667
845.76	455.556
846.06	241.176
846.36	450.000
846.66	335.714
846.96	243.750
847.25	372.727
847.55	309.091
847.85	213.043
848.15	440.000
848.44	342.857
848.74	272.222
849.04	282.353
849.34	490.000
849.63	242.105
849.93	490.909
850.23	1060.000
850.53	371.429
850.82	2000.000
851.12	-3900.000
851.42	3000.000
851.71	220.000
852.01	-1166.667
852.31	237.500
852.61	1533.333
852.90	257.143
853.20	208.000
853.50	276.471
853.79	233.333
854.09	233.333
854.39	300.000
854.68	164.865
854.98	187.097
855.28	133.333
855.57	182.759
855.87	185.185
856.17	242.105
856.46	206.667
856.76	258.824
857.05	137.931
857.35	191.667
857.65	340.000
857.94	200.000
858.24	223.077
858.53	245.000
858.83	222.727
859.13	286.667
859.42	0.000
859.72	566.667
860.01	390.909
860.31	263.636
860.60	210.526
860.90	230.435
861.20	488.889
861.49	525.000
861.79	-4300.000
862.08	637.500
862.38	304.762
862.67	353.846
862.97	276.471
863.26	488.889
863.56	283.333
863.85	408.333
864.15	575.000
864.44	280.000
864.74	916.667
865.03	537.500
865.33	284.211
865.62	345.455
865.92	423.077
866.21	300.000
866.51	0.000
866.80	400.000
867.10	1140.000
867.39	376.923
867.69	454.545
867.98	252.632
868.27	427.273
868.57	294.737
868.86	-3000.000
869.16	331.250
869.45	2100.000
869.75	-3600.000
870.04	350.000
870.33	700.000
870.63	1000.000
870.92	2500.000
871.22	614.286
871.51	329.412
871.80	195.238
872.10	328.571
>>>>>End Processed Spectral Data<<<<<
