SpectraSuite Data File
++++++++++++++++++++++++++++++++++++
Date: Wed May 13 16:15:56 PDT 2015
User: schluterlab
Dark Spectrum Present: Yes
Reference Spectrum Present: Yes
Number of Sampled Component Spectra: 1
Spectrometers: USB2E3373
Integration Time (usec): 3000 (USB2E3373)
Spectra Averaged: 3 (USB2E3373)
Boxcar Smoothing: 0 (USB2E3373)
Correct for Electrical Dark: No (USB2E3373)
Strobe/Lamp Enabled: No (USB2E3373)
Correct for Detector Non-linearity: No (USB2E3373)
Correct for Stray Light: No (USB2E3373)
Number of Pixels in Processed Spectrum: 2048
>>>>>Begin Processed Spectral Data<<<<<
178.53	0.000
178.91	-1125.000
179.29	-1150.000
179.67	-177.778
180.04	-1175.000
180.42	2100.000
180.80	740.000
181.18	-825.000
181.56	557.143
181.94	0.000
182.31	-585.714
182.69	1266.667
183.07	-400.000
183.45	-433.333
183.83	381.818
184.20	-280.000
184.58	1550.000
184.96	4400.000
185.34	-520.000
185.72	-450.000
186.09	-1900.000
186.47	2400.000
186.85	2150.000
187.23	3900.000
187.61	-1066.667
187.98	1075.000
188.36	454.545
188.74	318.182
189.12	-800.000
189.49	440.000
189.87	-4700.000
190.25	-1075.000
190.63	321.429
191.00	300.000
191.38	800.000
191.76	-875.000
192.14	1150.000
192.51	450.000
192.89	800.000
193.27	537.500
193.65	-825.000
194.02	510.000
194.40	680.000
194.78	410.000
195.15	408.333
195.53	520.000
195.91	-1800.000
196.29	325.000
196.66	247.368
197.04	-360.000
197.42	0.000
197.79	550.000
198.17	-3700.000
198.55	628.571
198.92	662.500
199.30	680.000
199.68	0.000
200.05	316.667
200.43	671.429
200.81	3400.000
201.18	1366.667
201.56	-1433.333
201.94	477.778
202.31	422.222
202.69	450.000
203.07	470.000
203.44	0.000
203.82	925.000
204.19	628.571
204.57	357.143
204.95	525.000
205.32	1100.000
205.70	409.091
206.08	285.714
206.45	1850.000
206.83	287.500
207.20	683.333
207.58	580.000
207.96	288.889
208.33	550.000
208.71	-650.000
209.08	628.571
209.46	500.000
209.84	372.727
210.21	-1000.000
210.59	1200.000
210.96	-325.000
211.34	1950.000
211.71	430.000
212.09	466.667
212.46	0.000
212.84	1266.667
213.22	850.000
213.59	-3600.000
213.97	666.667
214.34	742.857
214.72	436.364
215.09	960.000
215.47	-1700.000
215.84	-2200.000
216.22	1433.333
216.59	271.429
216.97	750.000
217.34	327.273
217.72	-700.000
218.09	0.000
218.47	-3300.000
218.84	566.667
219.22	600.000
219.59	1400.000
219.97	-514.286
220.34	780.000
220.72	-1333.333
221.09	328.571
221.47	1100.000
221.84	-733.333
222.22	0.000
222.59	1075.000
222.97	-2250.000
223.34	900.000
223.72	361.538
224.09	1040.000
224.46	1800.000
224.84	-3900.000
225.21	-880.000
225.59	-3700.000
225.96	500.000
226.34	225.000
226.71	1950.000
227.08	637.500
227.46	390.000
227.83	-950.000
228.21	-1750.000
228.58	455.556
228.95	-2000.000
229.33	-1750.000
229.70	1466.667
230.08	685.714
230.45	-720.000
230.82	358.333
231.20	616.667
231.57	357.143
231.95	333.333
232.32	159.091
232.69	272.727
233.07	500.000
233.44	330.769
233.81	-1333.333
234.19	252.632
234.56	375.000
234.93	350.000
235.31	327.273
235.68	292.308
236.05	257.143
236.43	163.636
236.80	247.368
237.17	4500.000
237.55	242.857
237.92	178.571
238.29	214.286
238.67	180.645
239.04	175.862
239.41	127.778
239.79	136.957
240.16	152.381
240.53	134.091
240.91	121.569
241.28	118.000
241.65	100.000
242.02	102.899
242.40	95.161
242.77	108.333
243.14	81.720
243.51	83.146
243.89	72.941
244.26	78.889
244.63	83.871
245.00	68.085
245.38	89.109
245.75	76.636
246.12	71.560
246.49	72.993
246.87	86.400
247.24	72.308
247.61	66.429
247.98	65.359
248.36	65.541
248.73	66.242
249.10	64.968
249.47	65.537
249.84	68.449
250.22	63.102
250.59	59.763
250.96	65.152
251.33	62.085
251.70	62.376
252.08	59.048
252.45	56.054
252.82	53.043
253.19	58.723
253.56	56.078
253.94	57.676
254.31	61.328
254.68	56.154
255.05	56.827
255.42	58.537
255.79	55.515
256.16	56.679
256.54	51.237
256.91	54.448
257.28	54.676
257.65	51.485
258.02	54.658
258.39	50.789
258.76	51.171
259.14	50.298
259.51	52.280
259.88	46.894
260.25	54.985
260.62	52.312
260.99	50.932
261.36	52.553
261.73	52.436
262.10	49.419
262.47	49.859
262.85	50.975
263.22	48.433
263.59	51.282
263.96	47.527
264.33	49.347
264.70	49.211
265.07	46.803
265.44	45.455
265.81	44.769
266.18	47.236
266.55	47.561
266.92	51.597
267.29	47.685
267.66	49.541
268.03	46.364
268.40	47.196
268.77	50.358
269.14	45.946
269.51	46.501
269.88	48.718
270.25	45.372
270.62	47.191
270.99	46.022
271.36	44.206
271.73	49.065
272.10	47.174
272.47	47.957
272.84	43.074
273.21	45.912
273.58	43.886
273.95	46.122
274.32	42.562
274.69	46.039
275.06	44.882
275.43	44.468
275.80	46.693
276.17	43.992
276.54	45.530
276.91	45.850
277.28	44.141
277.65	46.035
278.02	45.135
278.39	44.531
278.76	44.000
279.13	42.264
279.50	44.507
279.87	45.817
280.23	44.311
280.60	41.779
280.97	44.547
281.34	43.186
281.71	42.909
282.08	47.217
282.45	42.182
282.82	44.227
283.19	42.068
283.56	41.754
283.92	42.978
284.29	43.915
284.66	44.102
285.03	42.315
285.40	41.373
285.77	43.266
286.14	41.796
286.51	43.167
286.87	40.513
287.24	42.182
287.61	38.684
287.98	42.370
288.35	40.412
288.72	39.408
289.08	39.750
289.45	40.033
289.82	39.024
290.19	40.031
290.56	37.366
290.93	38.520
291.29	38.804
291.66	38.201
292.03	40.698
292.40	38.179
292.77	35.651
293.13	38.060
293.50	37.609
293.87	38.074
294.24	36.444
294.60	34.352
294.97	35.029
295.34	36.671
295.71	35.085
296.08	34.615
296.44	34.113
296.81	35.799
297.18	35.501
297.55	32.586
297.91	34.301
298.28	36.011
298.65	34.204
299.02	34.519
299.38	33.997
299.75	32.210
300.12	33.206
300.48	32.375
300.85	31.443
301.22	32.866
301.59	32.576
301.95	32.494
302.32	32.863
302.69	32.019
303.05	32.485
303.42	31.358
303.79	31.710
304.15	29.720
304.52	31.518
304.89	32.753
305.25	29.814
305.62	30.351
305.99	33.294
306.35	30.425
306.72	29.933
307.09	31.188
307.45	30.743
307.82	30.692
308.19	32.892
308.55	31.499
308.92	31.042
309.29	29.884
309.65	31.601
310.02	30.867
310.38	30.000
310.75	30.623
311.12	30.194
311.48	31.034
311.85	31.656
312.22	29.865
312.58	31.601
312.95	32.735
313.31	29.515
313.68	30.873
314.05	31.065
314.41	31.759
314.78	31.521
315.14	31.877
315.51	31.720
315.87	31.386
316.24	31.281
316.61	30.409
316.97	32.387
317.34	31.507
317.70	32.505
318.07	31.761
318.43	33.757
318.80	32.615
319.16	33.710
319.53	32.552
319.89	32.286
320.26	33.500
320.62	32.540
320.99	31.212
321.35	32.222
321.72	35.626
322.08	34.847
322.45	35.423
322.81	35.078
323.18	35.067
323.54	34.045
323.91	35.943
324.27	35.182
324.64	35.042
325.00	33.724
325.37	34.668
325.73	35.368
326.10	34.245
326.46	35.305
326.83	35.720
327.19	36.550
327.56	35.017
327.92	36.395
328.29	36.202
328.65	36.004
329.01	35.560
329.38	36.078
329.74	36.011
330.11	36.475
330.47	36.364
330.84	36.949
331.20	34.791
331.56	36.972
331.93	36.481
332.29	35.581
332.66	36.106
333.02	38.391
333.38	36.947
333.75	35.829
334.11	37.900
334.48	34.960
334.84	37.316
335.20	37.909
335.57	36.718
335.93	36.071
336.29	36.630
336.66	36.880
337.02	34.932
337.38	36.667
337.75	36.275
338.11	36.437
338.47	38.398
338.84	37.947
339.20	36.422
339.56	36.679
339.93	35.909
340.29	35.326
340.65	37.611
341.02	36.562
341.38	35.943
341.74	35.702
342.11	35.808
342.47	36.828
342.83	35.445
343.20	36.623
343.56	36.647
343.92	36.316
344.28	36.565
344.65	36.543
345.01	36.111
345.37	34.648
345.73	36.971
346.10	36.573
346.46	37.203
346.82	34.761
347.19	35.840
347.55	36.207
347.91	36.165
348.27	36.647
348.63	36.706
349.00	35.680
349.36	35.057
349.72	36.167
350.08	34.927
350.45	37.185
350.81	36.231
351.17	36.791
351.53	35.299
351.89	35.726
352.26	35.754
352.62	37.370
352.98	37.277
353.34	36.730
353.70	35.516
354.07	35.887
354.43	36.270
354.79	34.835
355.15	35.036
355.51	37.250
355.87	36.245
356.24	36.319
356.60	35.525
356.96	37.892
357.32	37.122
357.68	37.559
358.04	36.263
358.40	37.055
358.77	36.541
359.13	36.148
359.49	37.020
359.85	35.079
360.21	35.726
360.57	38.288
360.93	37.769
361.29	36.886
361.66	35.449
362.02	36.791
362.38	37.262
362.74	35.491
363.10	36.714
363.46	37.051
363.82	37.188
364.18	36.050
364.54	38.484
364.90	37.110
365.26	37.426
365.62	37.984
365.98	36.596
366.35	37.822
366.71	38.395
367.07	37.145
367.43	38.897
367.79	37.687
368.15	40.014
368.51	36.555
368.87	37.973
369.23	37.747
369.59	38.523
369.95	38.750
370.31	36.325
370.67	37.754
371.03	38.652
371.39	38.994
371.75	38.529
372.11	37.198
372.47	39.370
372.83	39.697
373.19	38.439
373.55	40.133
373.91	40.574
374.27	37.113
374.63	39.564
374.99	39.619
375.35	39.358
375.71	39.068
376.07	39.575
376.42	41.265
376.78	40.490
377.14	40.773
377.50	40.530
377.86	39.894
378.22	41.087
378.58	39.599
378.94	38.906
379.30	40.712
379.66	41.180
380.02	41.339
380.38	42.137
380.74	41.116
381.09	41.565
381.45	43.085
381.81	42.813
382.17	43.694
382.53	42.893
382.89	43.025
383.25	43.715
383.61	42.937
383.97	42.714
384.32	43.481
384.68	42.937
385.04	43.516
385.40	42.786
385.76	43.120
386.12	44.171
386.48	44.808
386.83	44.965
387.19	45.702
387.55	44.898
387.91	45.103
388.27	45.371
388.62	45.175
388.98	45.025
389.34	45.932
389.70	45.064
390.06	46.705
390.42	46.109
390.77	46.692
391.13	46.713
391.49	45.685
391.85	46.340
392.20	46.309
392.56	47.348
392.92	45.968
393.28	45.266
393.64	46.403
393.99	46.610
394.35	46.960
394.71	46.236
395.07	45.732
395.42	47.651
395.78	46.819
396.14	46.307
396.50	49.123
396.85	47.934
397.21	47.102
397.57	46.311
397.92	48.017
398.28	46.861
398.64	47.073
399.00	47.342
399.35	46.475
399.71	48.032
400.07	47.073
400.42	47.055
400.78	48.673
401.14	47.500
401.49	47.821
401.85	47.005
402.21	46.647
402.57	46.268
402.92	47.541
403.28	48.345
403.63	47.649
403.99	48.408
404.35	48.303
404.70	47.542
405.06	46.418
405.42	47.099
405.77	47.257
406.13	47.856
406.49	47.901
406.84	47.194
407.20	48.522
407.55	48.819
407.91	49.467
408.27	48.500
408.62	47.200
408.98	48.039
409.34	47.663
409.69	48.581
410.05	48.203
410.40	48.440
410.76	47.730
411.11	47.708
411.47	47.157
411.83	47.770
412.18	47.866
412.54	47.945
412.89	47.711
413.25	47.580
413.60	48.548
413.96	47.055
414.31	46.841
414.67	48.796
415.03	49.404
415.38	47.938
415.74	48.296
416.09	48.988
416.45	47.590
416.80	48.777
417.16	48.056
417.51	48.839
417.87	47.399
418.22	48.707
418.58	47.902
418.93	47.543
419.29	48.568
419.64	48.489
420.00	46.829
420.35	47.536
420.71	48.775
421.06	47.912
421.42	47.368
421.77	48.094
422.12	47.445
422.48	47.167
422.83	47.991
423.19	47.127
423.54	47.533
423.90	47.594
424.25	48.353
424.61	48.810
424.96	48.571
425.31	47.065
425.67	46.348
426.02	47.143
426.38	48.230
426.73	48.332
427.09	47.903
427.44	47.556
427.79	47.154
428.15	47.738
428.50	47.045
428.85	48.331
429.21	46.825
429.56	47.486
429.92	47.307
430.27	47.319
430.62	46.441
430.98	46.653
431.33	47.216
431.68	47.487
432.04	47.551
432.39	48.601
432.74	47.756
433.10	48.727
433.45	48.805
433.80	47.561
434.16	47.222
434.51	46.632
434.86	47.149
435.22	47.860
435.57	49.058
435.92	48.098
436.28	48.339
436.63	47.461
436.98	47.338
437.34	49.195
437.69	48.425
438.04	48.229
438.39	47.940
438.75	47.008
439.10	47.374
439.45	48.170
439.81	49.063
440.16	48.052
440.51	48.155
440.86	48.755
441.22	47.998
441.57	47.771
441.92	47.185
442.27	47.740
442.63	46.288
442.98	49.408
443.33	47.065
443.68	46.980
444.03	48.219
444.39	47.907
444.74	47.511
445.09	47.224
445.44	47.786
445.79	46.561
446.15	47.380
446.50	47.442
446.85	47.482
447.20	47.221
447.55	48.241
447.91	47.932
448.26	47.858
448.61	47.484
448.96	48.283
449.31	48.538
449.66	47.721
450.02	46.072
450.37	46.429
450.72	47.208
451.07	45.948
451.42	46.626
451.77	48.385
452.12	46.074
452.47	45.833
452.83	47.611
453.18	47.433
453.53	47.495
453.88	46.840
454.23	48.057
454.58	47.971
454.93	48.887
455.28	47.444
455.63	46.905
455.98	48.810
456.34	47.550
456.69	47.339
457.04	48.173
457.39	46.756
457.74	47.301
458.09	46.578
458.44	47.491
458.79	45.336
459.14	47.348
459.49	46.760
459.84	46.925
460.19	46.494
460.54	46.296
460.89	46.407
461.24	47.298
461.59	48.460
461.94	46.979
462.29	47.715
462.64	48.373
462.99	47.105
463.34	46.800
463.69	46.779
464.04	46.493
464.39	46.261
464.74	47.296
465.09	46.622
465.44	44.709
465.79	46.700
466.14	44.554
466.49	46.274
466.84	46.118
467.19	46.288
467.54	47.062
467.89	46.399
468.24	46.190
468.59	46.947
468.94	46.365
469.29	47.044
469.64	47.390
469.99	46.279
470.34	46.433
470.68	47.055
471.03	46.122
471.38	46.838
471.73	46.369
472.08	47.500
472.43	46.294
472.78	46.215
473.13	47.304
473.48	46.380
473.83	45.488
474.17	44.991
474.52	46.464
474.87	46.527
475.22	46.140
475.57	44.868
475.92	45.406
476.27	45.152
476.61	45.229
476.96	46.069
477.31	45.317
477.66	46.554
478.01	45.896
478.36	45.531
478.70	44.600
479.05	46.699
479.40	45.036
479.75	45.247
480.10	44.483
480.45	43.646
480.79	45.007
481.14	45.205
481.49	45.183
481.84	44.810
482.19	45.525
482.53	44.725
482.88	44.672
483.23	45.234
483.58	45.450
483.92	45.127
484.27	44.314
484.62	45.129
484.97	44.501
485.31	45.240
485.66	42.822
486.01	41.489
486.36	40.493
486.70	40.904
487.05	42.084
487.40	43.744
487.75	44.825
488.09	46.406
488.44	47.165
488.79	46.546
489.13	46.371
489.48	47.023
489.83	45.706
490.17	45.199
490.52	43.446
490.87	44.505
491.22	43.656
491.56	43.964
491.91	44.486
492.26	43.087
492.60	43.871
492.95	43.545
493.30	44.019
493.64	43.304
493.99	43.408
494.34	43.987
494.68	43.727
495.03	43.562
495.37	43.788
495.72	44.883
496.07	44.733
496.41	42.434
496.76	43.799
497.11	43.314
497.45	43.503
497.80	43.810
498.14	43.865
498.49	44.585
498.84	44.199
499.18	44.381
499.53	43.780
499.87	42.731
500.22	43.853
500.56	45.194
500.91	42.981
501.26	43.670
501.60	44.661
501.95	43.355
502.29	44.142
502.64	43.622
502.98	43.852
503.33	42.916
503.67	43.759
504.02	43.545
504.36	43.566
504.71	44.113
505.06	43.711
505.40	43.607
505.75	43.346
506.09	43.294
506.44	44.055
506.78	43.741
507.13	44.472
507.47	44.192
507.82	45.593
508.16	44.174
508.51	44.444
508.85	44.389
509.19	43.980
509.54	44.337
509.88	44.049
510.23	43.342
510.57	44.582
510.92	44.692
511.26	43.474
511.61	44.139
511.95	42.745
512.30	44.168
512.64	44.116
512.98	44.962
513.33	44.111
513.67	43.490
514.02	43.506
514.36	45.385
514.70	44.272
515.05	43.447
515.39	44.644
515.74	44.257
516.08	45.780
516.42	44.562
516.77	45.151
517.11	43.396
517.46	44.639
517.80	46.167
518.14	43.949
518.49	45.391
518.83	44.545
519.17	44.284
519.52	45.557
519.86	44.894
520.20	44.913
520.55	45.183
520.89	45.681
521.23	45.899
521.58	45.498
521.92	45.989
522.26	44.478
522.61	45.670
522.95	45.427
523.29	45.770
523.64	45.366
523.98	45.471
524.32	44.331
524.66	46.061
525.01	44.730
525.35	45.105
525.69	44.766
526.04	45.607
526.38	45.333
526.72	45.644
527.06	45.763
527.41	44.802
527.75	46.945
528.09	46.179
528.43	45.252
528.78	45.298
529.12	43.939
529.46	44.152
529.80	46.040
530.15	44.611
530.49	43.446
530.83	45.570
531.17	46.540
531.51	46.887
531.86	46.323
532.20	46.610
532.54	45.420
532.88	45.892
533.22	43.535
533.57	45.370
533.91	44.913
534.25	45.504
534.59	45.272
534.93	45.033
535.27	45.202
535.62	44.689
535.96	45.135
536.30	45.455
536.64	45.589
536.98	46.317
537.32	44.832
537.66	46.333
538.01	46.017
538.35	45.960
538.69	45.948
539.03	44.250
539.37	43.450
539.71	42.903
540.05	45.098
540.39	46.047
540.73	43.596
541.07	45.425
541.42	44.749
541.76	45.097
542.10	45.537
542.44	45.563
542.78	46.640
543.12	43.826
543.46	44.262
543.80	45.283
544.14	43.902
544.48	45.016
544.82	44.644
545.16	44.828
545.50	43.638
545.84	45.632
546.18	44.781
546.52	46.593
546.86	45.430
547.20	45.853
547.54	45.090
547.88	45.217
548.22	43.711
548.56	45.157
548.90	43.406
549.24	44.781
549.58	44.679
549.92	45.055
550.26	45.028
550.60	43.707
550.94	45.141
551.28	45.062
551.62	45.363
551.96	43.439
552.30	46.007
552.64	44.422
552.98	45.017
553.32	44.572
553.66	44.990
554.00	45.161
554.34	43.616
554.68	46.137
555.02	45.346
555.36	44.816
555.69	44.114
556.03	44.549
556.37	43.861
556.71	44.611
557.05	45.028
557.39	44.227
557.73	43.049
558.07	45.540
558.41	44.284
558.75	45.408
559.08	45.041
559.42	45.956
559.76	44.853
560.10	45.610
560.44	43.676
560.78	43.646
561.12	43.470
561.45	43.677
561.79	43.441
562.13	44.601
562.47	44.126
562.81	44.142
563.15	44.080
563.48	44.164
563.82	44.488
564.16	43.754
564.50	43.359
564.84	43.047
565.17	43.308
565.51	43.898
565.85	44.036
566.19	43.331
566.52	43.699
566.86	42.917
567.20	43.809
567.54	43.208
567.88	42.586
568.21	43.333
568.55	42.467
568.89	42.802
569.23	41.578
569.56	41.012
569.90	40.792
570.24	41.084
570.57	41.108
570.91	40.433
571.25	40.334
571.59	40.707
571.92	40.179
572.26	40.670
572.60	40.210
572.93	40.060
573.27	40.964
573.61	40.620
573.95	40.775
574.28	40.201
574.62	39.723
574.96	39.785
575.29	39.573
575.63	40.117
575.97	40.328
576.30	40.467
576.64	40.409
576.98	41.031
577.31	40.388
577.65	40.586
577.98	39.867
578.32	39.853
578.66	39.853
578.99	40.516
579.33	40.184
579.67	39.966
580.00	40.638
580.34	40.721
580.67	40.321
581.01	40.342
581.35	40.335
581.68	39.520
582.02	38.744
582.35	39.204
582.69	39.056
583.02	39.736
583.36	40.535
583.70	41.658
584.03	41.353
584.37	41.634
584.70	41.170
585.04	40.484
585.37	39.748
585.71	40.179
586.04	39.816
586.38	40.047
586.72	40.735
587.05	40.043
587.39	39.763
587.72	40.479
588.06	40.422
588.39	40.439
588.73	40.129
589.06	41.134
589.40	40.842
589.73	41.992
590.07	40.819
590.40	41.030
590.73	42.116
591.07	42.287
591.40	42.767
591.74	41.861
592.07	41.405
592.41	40.926
592.74	40.824
593.08	39.207
593.41	39.544
593.75	37.976
594.08	38.820
594.41	40.262
594.75	40.037
595.08	39.800
595.42	40.280
595.75	39.850
596.09	40.969
596.42	40.864
596.75	41.537
597.09	41.126
597.42	40.936
597.75	40.535
598.09	41.478
598.42	40.765
598.76	40.130
599.09	39.491
599.42	39.192
599.76	40.410
600.09	39.490
600.42	38.897
600.76	38.607
601.09	39.454
601.42	40.563
601.76	39.810
602.09	40.474
602.42	40.764
602.76	41.193
603.09	40.519
603.42	40.062
603.76	39.329
604.09	39.395
604.42	40.726
604.76	40.953
605.09	40.454
605.42	40.316
605.75	39.859
606.09	39.528
606.42	40.539
606.75	40.066
607.09	39.724
607.42	39.581
607.75	39.451
608.08	39.166
608.42	40.385
608.75	40.216
609.08	40.426
609.41	41.837
609.75	40.353
610.08	41.376
610.41	39.060
610.74	40.114
611.07	41.304
611.41	40.579
611.74	40.925
612.07	41.874
612.40	41.920
612.73	40.211
613.07	41.433
613.40	41.074
613.73	39.958
614.06	40.968
614.39	41.059
614.72	40.000
615.06	39.758
615.39	40.287
615.72	40.184
616.05	39.607
616.38	39.633
616.71	41.568
617.05	41.225
617.38	40.710
617.71	41.321
618.04	42.849
618.37	40.745
618.70	41.319
619.03	41.645
619.36	41.141
619.69	43.310
620.03	42.102
620.36	41.444
620.69	42.534
621.02	42.847
621.35	42.443
621.68	41.511
622.01	41.176
622.34	41.982
622.67	41.673
623.00	40.572
623.33	40.529
623.66	41.458
623.99	42.931
624.32	41.013
624.65	41.384
624.99	39.448
625.32	40.912
625.65	42.149
625.98	40.584
626.31	41.524
626.64	42.939
626.97	43.973
627.30	42.893
627.63	43.560
627.96	42.473
628.29	43.920
628.62	43.275
628.95	45.094
629.28	43.157
629.61	42.988
629.94	42.857
630.26	42.040
630.59	42.707
630.92	42.816
631.25	42.547
631.58	42.843
631.91	43.813
632.24	43.038
632.57	42.288
632.90	43.969
633.23	43.624
633.56	45.198
633.89	45.187
634.22	43.246
634.55	44.260
634.88	43.114
635.20	45.878
635.53	45.663
635.86	44.059
636.19	43.882
636.52	42.791
636.85	42.726
637.18	41.935
637.51	43.026
637.83	42.787
638.16	44.629
638.49	44.962
638.82	45.386
639.15	44.625
639.48	45.761
639.81	45.308
640.13	44.792
640.46	44.430
640.79	44.650
641.12	43.191
641.45	44.413
641.77	47.275
642.10	46.053
642.43	43.243
642.76	44.737
643.09	46.012
643.41	44.613
643.74	49.537
644.07	42.683
644.40	47.546
644.73	45.669
645.05	46.276
645.38	44.708
645.71	44.444
646.04	48.837
646.36	46.411
646.69	45.987
647.02	45.748
647.35	47.251
647.67	45.664
648.00	45.528
648.33	44.554
648.66	44.091
648.98	47.526
649.31	42.900
649.64	42.451
649.96	44.858
650.29	43.602
650.62	45.307
650.94	45.381
651.27	48.311
651.60	48.087
651.92	44.089
652.25	44.463
652.58	44.393
652.90	46.603
653.23	41.602
653.56	44.409
653.88	47.227
654.21	44.708
654.54	44.389
654.86	43.614
655.19	40.676
655.52	32.277
655.84	29.259
656.17	36.622
656.49	51.048
656.82	53.650
657.15	42.224
657.47	32.493
657.80	25.235
658.13	27.474
658.45	42.344
658.78	43.839
659.10	46.697
659.43	49.489
659.75	51.050
660.08	53.797
660.41	57.076
660.73	54.257
661.06	48.885
661.38	52.000
661.71	50.192
662.03	48.915
662.36	42.942
662.68	46.586
663.01	48.687
663.33	47.558
663.66	46.008
663.98	46.868
664.31	47.479
664.63	45.749
664.96	42.254
665.28	46.721
665.61	47.173
665.93	46.278
666.26	46.653
666.58	48.954
666.91	49.471
667.23	48.315
667.56	47.516
667.88	47.222
668.21	47.335
668.53	47.505
668.86	44.805
669.18	48.401
669.50	48.043
669.83	48.584
670.15	49.111
670.48	46.405
670.80	48.922
671.13	45.648
671.45	45.532
671.77	44.807
672.10	44.177
672.42	43.463
672.75	41.294
673.07	45.951
673.39	44.665
673.72	45.312
674.04	48.235
674.37	45.049
674.69	45.603
675.01	46.234
675.34	48.460
675.66	47.158
675.98	45.010
676.31	44.958
676.63	47.771
676.95	44.864
677.28	46.963
677.60	44.615
677.92	47.679
678.25	45.585
678.57	43.825
678.89	45.090
679.22	43.811
679.54	46.374
679.86	43.853
680.18	44.723
680.51	45.745
680.83	45.018
681.15	46.226
681.48	44.991
681.80	47.002
682.12	45.211
682.44	43.327
682.77	44.603
683.09	48.712
683.41	47.672
683.73	48.565
684.06	45.661
684.38	45.401
684.70	44.380
685.02	42.777
685.34	43.590
685.67	41.084
685.99	41.924
686.31	41.638
686.63	40.989
686.96	44.464
687.28	42.780
687.60	42.029
687.92	42.048
688.24	44.487
688.56	45.783
688.89	46.888
689.21	48.690
689.53	47.182
689.85	45.676
690.17	43.892
690.49	46.921
690.82	46.262
691.14	44.420
691.46	44.726
691.78	43.976
692.10	46.281
692.42	43.912
692.74	42.946
693.06	46.596
693.39	44.764
693.71	44.541
694.03	46.316
694.35	46.104
694.67	43.707
694.99	50.976
695.31	43.137
695.63	43.541
695.95	47.922
696.27	48.223
696.59	48.964
696.91	47.927
697.23	42.958
697.56	44.776
697.88	38.855
698.20	42.083
698.52	45.161
698.84	47.884
699.16	43.779
699.48	42.518
699.80	47.585
700.12	48.571
700.44	46.950
700.76	47.790
701.08	44.540
701.40	46.648
701.72	48.980
702.04	48.864
702.36	47.592
702.68	46.742
703.00	45.706
703.32	45.745
703.64	45.576
703.96	48.189
704.28	47.384
704.60	46.921
704.91	51.039
705.23	48.387
705.55	52.824
705.87	53.156
706.19	49.117
706.51	49.844
706.83	52.121
707.15	47.339
707.47	44.192
707.79	44.963
708.11	42.009
708.43	47.619
708.74	44.643
709.06	48.571
709.38	48.556
709.70	47.965
710.02	48.071
710.34	52.424
710.66	45.970
710.98	47.159
711.29	47.674
711.61	46.313
711.93	46.795
712.25	50.161
712.57	52.574
712.89	52.249
713.20	48.632
713.52	50.000
713.84	43.354
714.16	45.122
714.48	44.253
714.80	50.456
715.11	46.974
715.43	45.697
715.75	48.696
716.07	49.521
716.39	46.395
716.70	49.834
717.02	51.439
717.34	48.410
717.66	50.746
717.97	54.582
718.29	53.333
718.61	50.365
718.93	50.000
719.24	49.481
719.56	45.085
719.88	50.169
720.20	49.324
720.51	51.916
720.83	53.532
721.15	53.358
721.46	47.163
721.78	50.179
722.10	52.075
722.42	51.128
722.73	49.438
723.05	47.541
723.37	51.417
723.68	47.490
724.00	50.000
724.32	50.806
724.63	52.846
724.95	53.138
725.27	53.441
725.58	55.469
725.90	52.920
726.22	48.302
726.53	50.000
726.85	50.171
727.16	49.466
727.48	47.518
727.80	50.000
728.11	48.913
728.43	48.462
728.74	49.462
729.06	48.540
729.38	50.368
729.69	47.331
730.01	46.758
730.32	50.000
730.64	47.157
730.96	44.554
731.27	51.325
731.59	45.872
731.90	42.857
732.22	44.410
732.53	43.653
732.85	46.154
733.16	45.016
733.48	43.854
733.80	49.026
734.11	47.771
734.43	43.491
734.74	40.857
735.06	42.120
735.37	49.711
735.69	45.223
736.00	49.346
736.32	47.352
736.63	50.799
736.95	48.243
737.26	41.837
737.58	45.161
737.89	44.482
738.21	44.369
738.52	48.929
738.83	46.415
739.15	49.231
739.46	50.365
739.78	49.653
740.09	45.538
740.41	47.419
740.72	45.645
741.04	48.148
741.35	49.583
741.66	52.444
741.98	51.415
742.29	54.545
742.61	48.707
742.92	50.226
743.23	54.274
743.55	56.800
743.86	49.123
744.18	55.752
744.49	55.981
744.80	51.174
745.12	55.909
745.43	48.018
745.74	55.405
746.06	55.046
746.37	52.915
746.68	56.561
747.00	58.333
747.31	55.714
747.62	46.460
747.94	50.220
748.25	45.532
748.56	55.507
748.88	53.960
749.19	55.500
749.50	52.093
749.82	51.220
750.13	50.204
750.44	45.985
750.75	48.421
751.07	46.624
751.38	48.432
751.69	47.653
752.01	47.744
752.32	46.570
752.63	48.582
752.94	51.639
753.26	52.400
753.57	48.780
753.88	51.953
754.19	46.071
754.51	47.222
754.82	40.433
755.13	50.189
755.44	51.880
755.75	49.270
756.07	46.809
756.38	44.161
756.69	47.651
757.00	40.419
757.31	39.763
757.63	42.690
757.94	41.555
758.25	38.971
758.56	40.000
758.87	41.935
759.18	48.485
759.50	42.947
759.81	44.548
760.12	43.438
760.43	42.693
760.74	44.293
761.05	43.503
761.36	43.850
761.67	44.602
761.99	40.683
762.30	45.486
762.61	49.618
762.92	45.703
763.23	48.319
763.54	46.400
763.85	45.312
764.16	48.462
764.47	46.388
764.78	49.117
765.10	43.038
765.41	42.478
765.72	44.311
766.03	45.455
766.34	45.000
766.65	54.468
766.96	50.427
767.27	57.360
767.58	55.208
767.89	54.737
768.20	58.046
768.51	52.792
768.82	46.789
769.13	45.528
769.44	45.749
769.75	47.639
770.06	43.119
770.37	50.226
770.68	52.315
770.99	49.333
771.30	42.623
771.61	55.157
771.92	47.951
772.23	48.319
772.54	53.333
772.85	54.450
773.16	57.979
773.47	54.891
773.78	54.315
774.09	55.357
774.39	57.310
774.70	56.790
775.01	60.145
775.32	59.477
775.63	70.395
775.94	60.432
776.25	68.504
776.56	67.910
776.87	62.295
777.18	68.750
777.48	70.992
777.79	64.394
778.10	59.259
778.41	75.000
778.72	53.285
779.03	61.074
779.34	58.389
779.65	60.135
779.95	57.669
780.26	58.170
780.57	62.069
780.88	68.750
781.19	60.902
781.50	64.189
781.80	57.233
782.11	52.542
782.42	58.228
782.73	52.761
783.04	57.432
783.34	63.380
783.65	65.753
783.96	64.925
784.27	54.545
784.57	55.396
784.88	55.556
785.19	73.810
785.50	66.038
785.81	67.164
786.11	63.934
786.42	58.915
786.73	68.142
787.04	70.755
787.34	61.607
787.65	74.000
787.96	65.766
788.26	71.901
788.57	66.949
788.88	65.289
789.19	60.417
789.49	65.909
789.80	67.176
790.11	78.095
790.41	89.109
790.72	61.446
791.03	80.435
791.33	76.744
791.64	72.165
791.95	77.228
792.25	74.444
792.56	96.104
792.87	82.051
793.17	87.342
793.48	67.816
793.79	80.460
794.09	84.091
794.40	66.387
794.70	59.559
795.01	60.000
795.32	50.360
795.62	62.205
795.93	76.724
796.23	67.257
796.54	74.118
796.85	75.676
797.15	95.775
797.46	104.545
797.76	85.542
798.07	70.886
798.37	89.231
798.68	90.909
798.99	83.099
799.29	80.519
799.60	75.000
799.90	98.630
800.21	85.075
800.51	91.379
800.82	94.737
801.12	95.082
801.43	100.000
801.73	77.027
802.04	93.651
802.34	81.481
802.65	85.938
802.95	113.559
803.26	121.875
803.56	84.286
803.87	90.769
804.17	92.647
804.48	144.444
804.78	108.621
805.09	86.765
805.39	84.615
805.70	85.714
806.00	108.197
806.30	87.879
806.61	89.024
806.91	79.747
807.22	69.737
807.52	80.597
807.83	94.366
808.13	106.250
808.43	96.667
808.74	78.947
809.04	94.203
809.35	101.493
809.65	77.632
809.95	109.677
810.26	105.085
810.56	92.063
810.86	120.455
811.17	133.333
811.47	110.000
811.77	105.556
812.08	100.000
812.38	106.000
812.69	161.111
812.99	136.364
813.29	106.122
813.59	95.238
813.90	128.571
814.20	96.364
814.50	78.462
814.81	97.059
815.11	110.204
815.41	106.557
815.72	121.429
816.02	103.636
816.32	126.190
816.62	120.000
816.93	121.951
817.23	126.190
817.53	97.727
817.84	166.667
818.14	123.913
818.44	108.889
818.74	138.235
819.04	147.500
819.35	131.429
819.65	167.647
819.95	178.571
820.25	170.000
820.56	146.154
820.86	136.364
821.16	141.860
821.46	143.590
821.76	122.000
822.07	142.857
822.37	145.000
822.67	127.273
822.97	123.529
823.27	175.000
823.57	121.622
823.88	152.500
824.18	150.000
824.48	130.952
824.78	140.000
825.08	208.333
825.38	135.135
825.69	146.341
825.99	233.333
826.29	172.414
826.59	142.105
826.89	142.105
827.19	144.118
827.49	183.871
827.79	131.818
828.09	120.455
828.39	97.872
828.70	100.000
829.00	151.852
829.30	158.065
829.60	127.500
829.90	266.667
830.20	196.429
830.50	165.217
830.80	186.957
831.10	140.000
831.40	220.000
831.70	182.609
832.00	173.077
832.30	155.556
832.60	268.750
832.90	190.000
833.20	364.286
833.50	177.419
833.80	172.414
834.10	159.375
834.40	176.923
834.70	272.222
835.00	271.429
835.30	137.143
835.60	200.000
835.90	186.207
836.20	335.714
836.50	165.517
836.80	160.000
837.10	177.778
837.40	209.524
837.70	217.647
838.00	181.481
838.30	228.571
838.60	247.619
838.90	196.154
839.19	240.000
839.49	307.143
839.79	225.000
840.09	235.000
840.39	242.857
840.69	204.348
840.99	238.889
841.29	450.000
841.59	233.333
841.88	293.750
842.18	131.034
842.48	223.810
842.78	140.000
843.08	234.783
843.38	181.250
843.68	600.000
843.97	192.308
844.27	182.759
844.57	228.571
844.87	306.250
845.17	188.889
845.47	1033.333
845.76	311.111
846.06	247.059
846.36	450.000
846.66	335.714
846.96	243.750
847.25	381.818
847.55	354.545
847.85	173.913
848.15	380.000
848.44	278.571
848.74	238.889
849.04	247.059
849.34	360.000
849.63	278.947
849.93	345.455
850.23	920.000
850.53	364.286
850.82	1650.000
851.12	-4300.000
851.42	3600.000
851.71	235.000
852.01	-1133.333
852.31	229.167
852.61	1333.333
852.90	257.143
853.20	204.000
853.50	276.471
853.79	200.000
854.09	175.000
854.39	325.000
854.68	135.135
854.98	161.290
855.28	150.000
855.57	196.552
855.87	192.593
856.17	194.737
856.46	233.333
856.76	229.412
857.05	210.345
857.35	175.000
857.65	226.667
857.94	186.957
858.24	238.462
858.53	220.000
858.83	204.545
859.13	286.667
859.42	0.000
859.72	411.111
860.01	409.091
860.31	218.182
860.60	236.842
860.90	182.609
861.20	488.889
861.49	425.000
861.79	-4600.000
862.08	562.500
862.38	228.571
862.67	253.846
862.97	335.294
863.26	533.333
863.56	222.222
863.85	316.667
864.15	575.000
864.44	306.667
864.74	700.000
865.03	475.000
865.33	226.316
865.62	300.000
865.92	284.615
866.21	383.333
866.51	0.000
866.80	400.000
867.10	1020.000
867.39	353.846
867.69	336.364
867.98	242.105
868.27	463.636
868.57	252.632
868.86	-3900.000
869.16	306.250
869.45	1850.000
869.75	-3300.000
870.04	375.000
870.33	571.429
870.63	650.000
870.92	2450.000
871.22	542.857
871.51	294.118
871.80	185.714
872.10	257.143
>>>>>End Processed Spectral Data<<<<<
