SpectraSuite Data File
++++++++++++++++++++++++++++++++++++
Date: Wed May 13 16:34:07 PDT 2015
User: schluterlab
Dark Spectrum Present: Yes
Reference Spectrum Present: Yes
Number of Sampled Component Spectra: 1
Spectrometers: USB2E3373
Integration Time (usec): 3000 (USB2E3373)
Spectra Averaged: 3 (USB2E3373)
Boxcar Smoothing: 0 (USB2E3373)
Correct for Electrical Dark: No (USB2E3373)
Strobe/Lamp Enabled: No (USB2E3373)
Correct for Detector Non-linearity: No (USB2E3373)
Correct for Stray Light: No (USB2E3373)
Number of Pixels in Processed Spectrum: 2048
>>>>>Begin Processed Spectral Data<<<<<
178.53	0.000
178.91	-1150.000
179.29	-1200.000
179.67	-150.000
180.04	-1250.000
180.42	2600.000
180.80	940.000
181.18	-1075.000
181.56	742.857
181.94	0.000
182.31	-514.286
182.69	1800.000
183.07	-537.500
183.45	-477.778
183.83	472.727
184.20	-350.000
184.58	1950.000
184.96	5300.000
185.34	-760.000
185.72	-662.500
186.09	-2300.000
186.47	2600.000
186.85	2150.000
187.23	4200.000
187.61	-1900.000
187.98	1350.000
188.36	481.818
188.74	481.818
189.12	-680.000
189.49	570.000
189.87	-3700.000
190.25	-1275.000
190.63	421.429
191.00	338.462
191.38	883.333
191.76	-1125.000
192.14	1225.000
192.51	575.000
192.89	883.333
193.27	612.500
193.65	-1225.000
194.02	520.000
194.40	980.000
194.78	490.000
195.15	483.333
195.53	660.000
195.91	-2000.000
196.29	312.500
196.66	294.737
197.04	-310.000
197.42	0.000
197.79	570.000
198.17	-5200.000
198.55	685.714
198.92	825.000
199.30	820.000
199.68	0.000
200.05	283.333
200.43	771.429
200.81	4400.000
201.18	1533.333
201.56	-1433.333
201.94	477.778
202.31	611.111
202.69	366.667
203.07	420.000
203.44	0.000
203.82	1200.000
204.19	657.143
204.57	421.429
204.95	612.500
205.32	1600.000
205.70	463.636
206.08	407.143
206.45	2250.000
206.83	356.250
207.20	916.667
207.58	800.000
207.96	311.111
208.33	700.000
208.71	-800.000
209.08	642.857
209.46	511.111
209.84	500.000
210.21	-1400.000
210.59	1150.000
210.96	-437.500
211.34	2450.000
211.71	610.000
212.09	750.000
212.46	0.000
212.84	1666.667
213.22	1200.000
213.59	-4100.000
213.97	816.667
214.34	728.571
214.72	654.545
215.09	780.000
215.47	-2000.000
215.84	-2200.000
216.22	1433.333
216.59	335.714
216.97	1225.000
217.34	500.000
217.72	-666.667
218.09	0.000
218.47	-3000.000
218.84	577.778
219.22	757.143
219.59	1266.667
219.97	-485.714
220.34	840.000
220.72	-1733.333
221.09	364.286
221.47	1425.000
221.84	-916.667
222.22	0.000
222.59	1275.000
222.97	-2750.000
223.34	1060.000
223.72	446.154
224.09	980.000
224.46	1350.000
224.84	-4500.000
225.21	-760.000
225.59	-4500.000
225.96	510.000
226.34	255.000
226.71	2700.000
227.08	750.000
227.46	570.000
227.83	-1025.000
228.21	-2250.000
228.58	644.444
228.95	-2500.000
229.33	-1850.000
229.70	1400.000
230.08	628.571
230.45	-520.000
230.82	416.667
231.20	833.333
231.57	500.000
231.95	416.667
232.32	254.545
232.69	490.909
233.07	657.143
233.44	292.308
233.81	-1433.333
234.19	289.474
234.56	475.000
234.93	383.333
235.31	427.273
235.68	384.615
236.05	335.714
236.43	203.030
236.80	252.632
237.17	4600.000
237.55	271.429
237.92	182.143
238.29	219.048
238.67	151.613
239.04	141.379
239.41	111.111
239.79	100.000
240.16	97.619
240.53	120.455
240.91	74.510
241.28	88.000
241.65	80.000
242.02	71.014
242.40	77.419
242.77	75.000
243.14	68.817
243.51	65.169
243.89	51.765
244.26	48.889
244.63	52.688
245.00	42.553
245.38	46.535
245.75	39.252
246.12	38.532
246.49	42.336
246.87	47.200
247.24	47.692
247.61	38.571
247.98	36.601
248.36	29.054
248.73	35.032
249.10	33.121
249.47	27.684
249.84	34.759
250.22	25.134
250.59	28.402
250.96	29.293
251.33	24.171
251.70	28.713
252.08	21.429
252.45	19.731
252.82	25.217
253.19	22.979
253.56	25.098
253.94	21.162
254.31	17.969
254.68	18.846
255.05	16.605
255.42	20.325
255.79	19.118
256.16	19.856
256.54	15.194
256.91	17.438
257.28	15.827
257.65	15.842
258.02	16.460
258.39	16.404
258.76	14.381
259.14	19.048
259.51	16.109
259.88	13.665
260.25	15.710
260.62	17.630
260.99	11.491
261.36	14.414
261.73	15.473
262.10	12.500
262.47	15.211
262.85	16.156
263.22	11.681
263.59	17.379
263.96	12.637
264.33	15.927
264.70	12.632
265.07	11.765
265.44	15.404
265.81	12.652
266.18	14.573
266.55	11.463
266.92	11.548
267.29	12.037
267.66	12.385
268.03	13.864
268.40	14.019
268.77	12.411
269.14	11.937
269.51	14.447
269.88	11.422
270.25	10.835
270.62	10.562
270.99	14.624
271.36	14.592
271.73	8.879
272.10	10.435
272.47	10.968
272.84	11.905
273.21	11.950
273.58	10.480
273.95	9.644
274.32	9.298
274.69	10.493
275.06	10.039
275.43	11.277
275.80	11.022
276.17	9.369
276.54	10.603
276.91	11.858
277.28	10.352
277.65	11.605
278.02	8.075
278.39	10.937
278.76	11.273
279.13	10.377
279.50	12.663
279.87	9.761
280.23	10.978
280.60	8.124
280.97	8.503
281.34	11.504
281.71	9.455
282.08	11.516
282.45	9.636
282.82	9.947
283.19	7.843
283.56	11.053
283.92	11.844
284.29	7.937
284.66	9.800
285.03	8.499
285.40	8.979
285.77	8.249
286.14	9.154
286.51	9.500
286.87	9.573
287.24	8.306
287.61	9.631
287.98	9.740
288.35	9.509
288.72	9.190
289.08	10.016
289.45	9.061
289.82	10.732
290.19	7.378
290.56	7.351
290.93	8.157
291.29	7.515
291.66	7.965
292.03	11.337
292.40	9.985
292.77	9.024
293.13	9.552
293.50	7.580
293.87	7.556
294.24	7.556
294.60	8.151
294.97	8.721
295.34	9.168
295.71	8.807
296.08	8.689
296.44	7.565
296.81	8.587
297.18	9.621
297.55	6.860
297.91	7.388
298.28	8.969
298.65	8.094
299.02	7.246
299.38	7.039
299.75	5.795
300.12	7.918
300.48	7.500
300.85	7.645
301.22	7.261
301.59	5.808
301.95	7.935
302.32	7.831
302.69	7.288
303.05	7.273
303.42	6.296
303.79	8.494
304.15	7.576
304.52	6.257
304.89	7.085
305.25	6.729
305.62	7.248
305.99	7.084
306.35	8.389
306.72	8.184
307.09	8.102
307.45	8.333
307.82	5.357
308.19	7.947
308.55	8.738
308.92	6.874
309.29	6.125
309.65	6.257
310.02	6.131
310.38	6.452
310.75	7.286
311.12	6.858
311.48	7.628
311.85	6.709
312.22	7.284
312.58	6.861
312.95	6.969
313.31	6.505
313.68	7.173
314.05	9.566
314.41	7.236
314.78	7.553
315.14	7.646
315.51	7.106
315.87	7.426
316.24	6.554
316.61	6.725
316.97	6.164
317.34	6.360
317.70	5.736
318.07	7.796
318.43	6.556
318.80	7.591
319.16	7.533
319.53	6.660
319.89	7.619
320.26	7.400
320.62	7.639
320.99	6.667
321.35	6.667
321.72	7.906
322.08	7.996
322.45	9.055
322.81	8.043
323.18	7.803
323.54	8.349
323.91	7.925
324.27	7.935
324.64	6.710
325.00	7.484
325.37	7.552
325.73	7.899
326.10	8.473
326.46	6.989
326.83	8.456
327.19	7.771
327.56	7.927
327.92	8.049
328.29	8.429
328.65	8.840
329.01	8.484
329.38	7.401
329.74	7.756
330.11	8.294
330.47	7.622
330.84	9.007
331.20	7.650
331.56	8.440
331.93	7.222
332.29	8.518
332.66	8.319
333.02	7.495
333.38	8.401
333.75	7.932
334.11	8.452
334.48	8.341
334.84	7.904
335.20	7.545
335.57	6.890
335.93	6.786
336.29	8.150
336.66	7.935
337.02	7.692
337.38	9.815
337.75	6.952
338.11	7.341
338.47	7.182
338.84	8.158
339.20	7.798
339.56	9.033
339.93	6.636
340.29	6.975
340.65	8.111
341.02	8.290
341.38	8.096
341.74	9.123
342.11	8.384
342.47	7.489
342.83	7.705
343.20	7.273
343.56	6.824
343.92	7.018
344.28	7.823
344.65	8.083
345.01	7.239
345.37	7.204
345.73	7.107
346.10	8.099
346.46	7.373
346.82	8.320
347.19	7.185
347.55	5.419
347.91	7.605
348.27	8.381
348.63	7.776
349.00	6.715
349.36	7.553
349.72	6.415
350.08	7.293
350.45	7.567
350.81	7.799
351.17	7.212
351.53	7.862
351.89	6.683
352.26	7.419
352.62	6.977
352.98	6.645
353.34	7.231
353.70	6.219
354.07	7.016
354.43	6.429
354.79	6.677
355.15	6.225
355.51	7.674
355.87	7.510
356.24	6.515
356.60	7.298
356.96	7.241
357.32	6.541
357.68	6.850
358.04	7.047
358.40	8.472
358.77	7.355
359.13	6.551
359.49	6.353
359.85	5.794
360.21	6.300
360.57	7.315
360.93	7.077
361.29	7.105
361.66	6.115
362.02	7.090
362.38	6.920
362.74	7.143
363.10	5.848
363.46	6.823
363.82	6.954
364.18	7.489
364.54	7.355
364.90	7.507
365.26	6.765
365.62	6.647
365.98	6.428
366.35	6.519
366.71	7.014
367.07	6.628
367.43	6.531
367.79	7.352
368.15	7.399
368.51	6.977
368.87	7.138
369.23	6.876
369.59	6.662
369.95	6.250
370.31	7.479
370.67	7.536
371.03	8.015
371.39	7.507
371.75	6.691
372.11	6.828
372.47	8.065
372.83	7.709
373.19	6.142
373.55	6.578
373.91	7.879
374.27	6.735
374.63	6.400
374.99	7.486
375.35	6.281
375.71	7.539
376.07	7.819
376.42	7.290
376.78	7.290
377.14	6.649
377.50	6.689
377.86	6.516
378.22	7.522
378.58	6.140
378.94	6.977
379.30	6.489
379.66	7.043
380.02	7.862
380.38	7.225
380.74	7.383
381.09	7.457
381.45	7.253
381.81	8.292
382.17	7.643
382.53	7.358
382.89	7.037
383.25	7.067
383.61	6.815
383.97	7.255
384.32	7.611
384.68	7.807
385.04	7.253
385.40	7.059
385.76	6.757
386.12	6.995
386.48	7.804
386.83	7.954
387.19	7.916
387.55	7.854
387.91	6.771
388.27	7.112
388.62	7.560
388.98	7.432
389.34	8.010
389.70	7.603
390.06	8.048
390.42	7.588
390.77	8.461
391.13	7.275
391.49	7.487
391.85	7.575
392.20	7.129
392.56	7.702
392.92	7.475
393.28	6.746
393.64	7.494
393.99	8.186
394.35	7.630
394.71	7.967
395.07	7.788
395.42	7.417
395.78	8.588
396.14	7.511
396.50	8.584
396.85	8.455
397.21	8.446
397.57	7.998
397.92	7.933
398.28	6.951
398.64	7.228
399.00	6.995
399.35	6.881
399.71	7.755
400.07	8.161
400.42	7.791
400.78	8.022
401.14	7.134
401.49	7.701
401.85	6.836
402.21	6.766
402.57	7.218
402.92	7.945
403.28	7.683
403.63	7.178
403.99	7.006
404.35	7.818
404.70	7.374
405.06	6.814
405.42	7.424
405.77	7.600
406.13	6.433
406.49	7.865
406.84	8.151
407.20	6.797
407.55	7.275
407.91	7.667
408.27	6.956
408.62	7.706
408.98	7.721
409.34	6.458
409.69	8.323
410.05	8.302
410.40	7.768
410.76	7.407
411.11	7.600
411.47	7.604
411.83	7.636
412.18	7.483
412.54	8.531
412.89	7.952
413.25	7.084
413.60	7.227
413.96	7.407
414.31	6.804
414.67	8.048
415.03	7.616
415.38	7.796
415.74	6.945
416.09	7.969
416.45	7.296
416.80	7.270
417.16	8.981
417.51	8.029
417.87	7.193
418.22	7.886
418.58	7.682
418.93	6.880
419.29	8.020
419.64	7.179
420.00	7.927
420.35	7.652
420.71	7.651
421.06	6.563
421.42	7.310
421.77	7.063
422.12	6.682
422.48	6.314
422.83	6.698
423.19	7.624
423.54	7.023
423.90	7.246
424.25	7.817
424.61	6.726
424.96	7.347
425.31	7.143
425.67	6.854
426.02	7.143
426.38	8.181
426.73	6.788
427.09	7.599
427.44	7.016
427.79	7.418
428.15	8.393
428.50	7.080
428.85	7.688
429.21	6.737
429.56	7.050
429.92	6.341
430.27	6.554
430.62	6.861
430.98	7.006
431.33	7.629
431.68	7.487
432.04	7.348
432.39	6.739
432.74	7.301
433.10	7.414
433.45	7.522
433.80	6.874
434.16	6.838
434.51	7.105
434.86	7.526
435.22	6.504
435.57	7.295
435.92	7.431
436.28	7.948
436.63	7.947
436.98	6.697
437.34	7.692
437.69	7.701
438.04	7.813
438.39	7.582
438.75	7.902
439.10	7.095
439.45	7.497
439.81	7.372
440.16	6.719
440.51	7.499
440.86	7.296
441.22	7.341
441.57	7.431
441.92	6.858
442.27	7.320
442.63	7.056
442.98	7.887
443.33	7.880
443.68	7.124
444.03	7.467
444.39	6.086
444.74	7.522
445.09	7.493
445.44	7.490
445.79	7.620
446.15	7.358
446.50	6.893
446.85	6.989
447.20	7.241
447.55	6.253
447.91	7.336
448.26	7.513
448.61	6.840
448.96	7.752
449.31	7.537
449.66	7.541
450.02	7.298
450.37	7.086
450.72	6.937
451.07	6.277
451.42	6.930
451.77	7.634
452.12	7.044
452.47	7.214
452.83	7.634
453.18	7.702
453.53	7.730
453.88	7.265
454.23	7.352
454.58	7.692
454.93	7.947
455.28	6.796
455.63	6.796
455.98	8.393
456.34	7.098
456.69	6.825
457.04	7.616
457.39	7.189
457.74	7.023
458.09	7.648
458.44	6.385
458.79	6.345
459.14	6.998
459.49	7.823
459.84	7.258
460.19	6.364
460.54	6.944
460.89	7.021
461.24	7.347
461.59	8.483
461.94	7.583
462.29	7.359
462.64	7.977
462.99	7.417
463.34	7.467
463.69	7.692
464.04	7.768
464.39	8.290
464.74	8.021
465.09	6.695
465.44	6.759
465.79	6.767
466.14	6.897
466.49	7.230
466.84	7.764
467.19	7.785
467.54	8.062
467.89	7.383
468.24	7.272
468.59	7.998
468.94	7.147
469.29	7.262
469.64	8.701
469.99	7.781
470.34	7.266
470.68	7.902
471.03	7.483
471.38	8.200
471.73	7.528
472.08	7.961
472.43	7.475
472.78	7.307
473.13	7.895
473.48	7.491
473.83	7.500
474.17	6.534
474.52	7.444
474.87	7.939
475.22	7.777
475.57	6.824
475.92	6.267
476.27	6.990
476.61	6.564
476.96	6.487
477.31	7.221
477.66	7.112
478.01	6.743
478.36	7.245
478.70	6.334
479.05	6.869
479.40	7.011
479.75	6.711
480.10	6.759
480.45	6.378
480.79	6.307
481.14	6.947
481.49	6.739
481.84	6.676
482.19	6.951
482.53	6.606
482.88	7.073
483.23	6.776
483.58	7.188
483.92	6.842
484.27	5.882
484.62	6.724
484.97	6.543
485.31	6.096
485.66	5.359
486.01	4.974
486.36	4.576
486.70	4.411
487.05	5.120
487.40	5.644
487.75	5.285
488.09	5.945
488.44	5.871
488.79	6.257
489.13	6.570
489.48	6.158
489.83	6.388
490.17	6.620
490.52	6.377
490.87	6.875
491.22	6.457
491.56	5.923
491.91	6.654
492.26	6.752
492.60	6.728
492.95	6.735
493.30	6.916
493.64	5.973
493.99	6.732
494.34	7.077
494.68	7.234
495.03	6.908
495.37	7.073
495.72	6.628
496.07	6.636
496.41	6.106
496.76	6.508
497.11	6.799
497.45	6.288
497.80	6.430
498.14	6.087
498.49	6.293
498.84	6.616
499.18	5.952
499.53	6.648
499.87	6.617
500.22	6.783
500.56	6.748
500.91	6.442
501.26	7.018
501.60	7.119
501.95	6.554
502.29	6.420
502.64	6.425
502.98	6.919
503.33	7.267
503.67	6.636
504.02	7.109
504.36	7.300
504.71	6.790
505.06	6.940
505.40	6.806
505.75	6.461
506.09	6.657
506.44	6.216
506.78	7.112
507.13	6.714
507.47	7.576
507.82	7.345
508.16	7.042
508.51	6.900
508.85	6.951
509.19	6.990
509.54	7.194
509.88	6.491
510.23	6.530
510.57	7.430
510.92	6.680
511.26	7.040
511.61	7.573
511.95	6.733
512.30	6.840
512.64	6.824
512.98	7.771
513.33	7.495
513.67	6.724
514.02	6.115
514.36	7.264
514.70	7.194
515.05	6.525
515.39	7.123
515.74	7.038
516.08	8.049
516.42	8.158
516.77	7.915
517.11	7.103
517.46	7.731
517.80	7.549
518.14	7.064
518.49	7.585
518.83	8.125
519.17	7.506
519.52	7.414
519.86	7.359
520.20	7.919
520.55	8.318
520.89	7.725
521.23	7.901
521.58	8.043
521.92	7.900
522.26	7.505
522.61	7.664
522.95	8.165
523.29	7.730
523.64	8.415
523.98	8.071
524.32	7.901
524.66	8.058
525.01	8.211
525.35	7.559
525.69	7.512
526.04	7.913
526.38	6.894
526.72	7.117
527.06	7.345
527.41	7.240
527.75	7.846
528.09	7.643
528.43	7.967
528.78	9.158
529.12	7.879
529.46	8.206
529.80	8.416
530.15	7.975
530.49	7.692
530.83	8.544
531.17	8.094
531.51	8.495
531.86	8.258
532.20	8.996
532.54	8.840
532.88	9.114
533.22	7.995
533.57	8.272
533.91	7.465
534.25	7.837
534.59	7.810
534.93	8.388
535.27	7.664
535.62	8.120
535.96	7.721
536.30	7.883
536.64	8.242
536.98	7.830
537.32	7.571
537.66	7.200
538.01	7.834
538.35	7.822
538.69	9.190
539.03	7.602
539.37	7.540
539.71	6.546
540.05	8.235
540.39	8.173
540.73	7.697
541.07	8.566
541.42	8.415
541.76	8.129
542.10	7.891
542.44	7.682
542.78	8.103
543.12	7.358
543.46	9.049
543.80	8.783
544.14	7.766
544.48	8.254
544.82	8.210
545.16	7.482
545.50	7.776
545.84	7.728
546.18	7.946
546.52	8.121
546.86	7.629
547.20	8.968
547.54	8.283
547.88	8.418
548.22	8.344
548.56	8.176
548.90	7.042
549.24	7.205
549.58	8.527
549.92	8.036
550.26	7.741
550.60	7.953
550.94	8.592
551.28	7.023
551.62	8.627
551.96	8.491
552.30	8.737
552.64	8.519
552.98	9.220
553.32	7.755
553.66	8.316
554.00	8.511
554.34	8.144
554.68	9.442
555.02	8.745
555.36	8.490
555.69	7.442
556.03	8.681
556.37	8.390
556.71	7.844
557.05	8.193
557.39	7.768
557.73	7.975
558.07	8.629
558.41	7.670
558.75	8.523
559.08	8.501
559.42	8.390
559.76	8.456
560.10	8.280
560.44	8.106
560.78	7.917
561.12	8.311
561.45	8.605
561.79	8.174
562.13	8.115
562.47	9.016
562.81	7.462
563.15	8.094
563.48	7.162
563.82	7.436
564.16	7.129
564.50	7.422
564.84	7.712
565.17	7.593
565.51	7.859
565.85	8.122
566.19	7.201
566.52	7.410
566.86	7.836
567.20	7.488
567.54	6.963
567.88	7.007
568.21	7.302
568.55	7.331
568.89	6.858
569.23	6.373
569.56	6.761
569.90	6.377
570.24	5.920
570.57	6.222
570.91	5.882
571.25	6.115
571.59	6.068
571.92	5.818
572.26	5.835
572.60	5.976
572.93	5.787
573.27	6.004
573.61	6.142
573.95	5.685
574.28	5.528
574.62	5.612
574.96	5.591
575.29	5.213
575.63	5.767
575.97	5.571
576.30	5.895
576.64	5.509
576.98	5.858
577.31	5.453
577.65	5.603
577.98	5.187
578.32	5.242
578.66	5.472
578.99	5.524
579.33	5.786
579.67	5.570
580.00	5.610
580.34	5.482
580.67	5.696
581.01	5.644
581.35	5.073
581.68	5.393
582.02	5.352
582.35	5.316
582.69	5.420
583.02	5.378
583.36	5.603
583.70	5.819
584.03	5.721
584.37	6.061
584.70	5.669
585.04	5.797
585.37	5.755
585.71	6.015
586.04	5.992
586.38	5.695
586.72	5.634
587.05	5.814
587.39	5.356
587.72	5.978
588.06	5.576
588.39	6.008
588.73	5.955
589.06	6.139
589.40	6.094
589.73	6.195
590.07	6.548
590.40	6.211
590.73	6.206
591.07	6.593
591.40	7.254
591.74	6.753
592.07	6.981
592.41	6.697
592.74	6.404
593.08	6.229
593.41	6.106
593.75	5.715
594.08	6.336
594.41	6.327
594.75	6.580
595.08	6.407
595.42	6.340
595.75	6.268
596.09	6.496
596.42	7.269
596.75	6.627
597.09	7.446
597.42	6.324
597.75	6.382
598.09	6.696
598.42	7.174
598.76	6.364
599.09	6.499
599.42	6.332
599.76	6.296
600.09	5.938
600.42	6.428
600.76	6.286
601.09	6.302
601.42	6.126
601.76	6.414
602.09	6.206
602.42	6.967
602.76	6.933
603.09	6.452
603.42	6.638
603.76	6.288
604.09	6.630
604.42	6.645
604.76	6.833
605.09	5.941
605.42	6.413
605.75	6.540
606.09	6.100
606.42	6.130
606.75	7.051
607.09	6.865
607.42	6.632
607.75	6.793
608.08	6.817
608.42	6.992
608.75	6.673
609.08	6.105
609.41	6.806
609.75	6.575
610.08	6.880
610.41	6.657
610.74	6.197
611.07	6.571
611.41	6.820
611.74	6.988
612.07	7.091
612.40	7.450
612.73	6.947
613.07	7.489
613.40	7.372
613.73	6.188
614.06	6.774
614.39	7.446
614.72	7.211
615.06	7.300
615.39	6.741
615.72	6.800
616.05	7.177
616.38	7.171
616.71	7.660
617.05	7.597
617.38	7.276
617.71	7.207
618.04	8.413
618.37	7.747
618.70	7.281
619.03	8.750
619.36	7.604
619.69	7.817
620.03	8.036
620.36	8.222
620.69	8.425
621.02	8.333
621.35	7.987
621.68	8.411
622.01	8.901
622.34	8.850
622.67	7.909
623.00	8.144
623.33	8.363
623.66	7.863
623.99	8.689
624.32	7.489
624.65	8.333
624.99	7.365
625.32	7.676
625.65	7.513
625.98	8.532
626.31	9.020
626.64	8.816
626.97	9.310
627.30	8.978
627.63	9.352
627.96	9.083
628.29	9.711
628.62	9.607
628.95	10.472
629.28	8.577
629.61	10.541
629.94	9.048
630.26	8.961
630.59	9.628
630.92	9.483
631.25	9.378
631.58	9.510
631.91	9.635
632.24	8.755
632.57	9.654
632.90	9.868
633.23	11.298
633.56	10.282
633.89	10.193
634.22	9.648
634.55	11.716
634.88	9.820
635.20	10.394
635.53	10.843
635.86	11.510
636.19	10.588
636.52	10.381
636.85	9.851
637.18	9.447
637.51	12.057
637.83	8.261
638.16	10.997
638.49	10.453
638.82	12.263
639.15	11.125
639.48	10.474
639.81	10.590
640.13	12.109
640.46	10.872
640.79	10.568
641.12	9.766
641.45	11.453
641.77	11.635
642.10	11.988
642.43	9.910
642.76	11.146
643.09	11.350
643.41	11.229
643.74	12.037
644.07	13.415
644.40	12.883
644.73	12.598
645.05	15.055
645.38	11.532
645.71	11.755
646.04	11.462
646.36	13.022
646.69	13.211
647.02	12.415
647.35	13.574
647.67	11.504
648.00	13.171
648.33	11.386
648.66	12.121
648.98	13.043
649.31	12.257
649.64	12.706
649.96	11.923
650.29	12.954
650.62	11.003
650.94	13.128
651.27	12.162
651.60	12.812
651.92	13.578
652.25	11.075
652.58	12.461
652.90	12.322
653.23	10.632
653.56	11.024
653.88	12.361
654.21	14.218
654.54	12.706
654.86	11.215
655.19	11.081
655.52	6.575
655.84	3.946
656.17	4.781
656.49	6.279
656.82	6.510
657.15	5.215
657.47	3.938
657.80	3.155
658.13	3.449
658.45	5.262
658.78	5.205
659.10	5.893
659.43	6.909
659.75	7.235
660.08	7.468
660.41	10.615
660.73	11.817
661.06	12.739
661.38	13.636
661.71	15.192
662.03	15.779
662.36	13.121
662.68	16.265
663.01	14.343
663.33	13.588
663.66	15.126
663.98	12.743
664.31	13.025
664.63	13.158
664.96	13.481
665.28	16.803
665.61	14.425
665.93	13.481
666.26	15.213
666.58	14.435
666.91	17.548
667.23	14.607
667.56	13.391
667.88	15.171
668.21	17.271
668.53	12.581
668.86	15.152
669.18	14.499
669.50	16.957
669.83	17.647
670.15	16.444
670.48	15.251
670.80	15.733
671.13	18.684
671.45	14.681
671.77	15.071
672.10	12.384
672.42	14.488
672.75	11.443
673.07	11.796
673.39	12.658
673.72	10.352
674.04	13.922
674.37	13.981
674.69	14.315
675.01	12.343
675.34	15.606
675.66	16.000
675.98	13.849
676.31	14.706
676.63	17.410
676.95	14.465
677.28	15.187
677.60	12.967
677.92	15.612
678.25	15.400
678.57	13.147
678.89	13.627
679.22	15.128
679.54	12.595
679.86	15.963
680.18	13.596
680.51	14.007
680.83	14.947
681.15	13.208
681.48	16.635
681.80	13.733
682.12	14.368
682.44	10.058
682.77	16.293
683.09	16.094
683.41	16.408
683.73	14.570
684.06	15.702
684.38	12.916
684.70	15.504
685.02	14.822
685.34	14.103
685.67	11.014
685.99	14.089
686.31	11.945
686.63	10.954
686.96	11.964
687.28	14.982
687.60	11.775
687.92	13.528
688.24	11.787
688.56	15.261
688.89	15.560
689.21	15.721
689.53	14.405
689.85	15.743
690.17	14.907
690.49	18.047
690.82	15.654
691.14	14.732
691.46	14.135
691.78	15.261
692.10	13.223
692.42	14.970
692.74	13.900
693.06	15.319
693.39	15.606
693.71	15.721
694.03	16.632
694.35	14.935
694.67	14.645
694.99	17.317
695.31	16.912
695.63	16.029
695.95	16.381
696.27	13.198
696.59	15.285
696.91	16.580
697.23	12.441
697.56	15.139
697.88	13.088
698.20	16.042
698.52	14.194
698.84	16.481
699.16	15.899
699.48	17.102
699.80	17.874
700.12	20.260
700.44	19.098
700.76	14.088
701.08	16.379
701.40	15.084
701.72	20.700
702.04	19.602
702.36	17.564
702.68	18.130
703.00	14.127
703.32	17.553
703.64	18.767
703.96	16.156
704.28	17.442
704.60	19.355
704.91	19.288
705.23	19.355
705.55	20.266
705.87	21.927
706.19	21.201
706.51	21.495
706.83	20.909
707.15	21.008
707.47	15.909
707.79	18.673
708.11	17.808
708.43	14.048
708.74	13.265
709.06	16.364
709.38	18.110
709.70	19.186
710.02	17.804
710.34	16.061
710.66	21.791
710.98	19.602
711.29	19.477
711.61	23.894
711.93	15.705
712.25	21.222
712.57	20.956
712.89	20.415
713.20	20.669
713.52	20.395
713.84	20.886
714.16	16.768
714.48	15.517
714.80	19.757
715.11	17.579
715.43	15.727
715.75	20.290
716.07	17.891
716.39	20.063
716.70	22.259
717.02	20.144
717.34	19.435
717.66	23.134
717.97	24.701
718.29	20.741
718.61	20.073
718.93	21.324
719.24	22.145
719.56	21.356
719.88	21.695
720.20	27.365
720.51	20.557
720.83	19.703
721.15	19.403
721.46	19.149
721.78	23.297
722.10	24.151
722.42	27.444
722.73	22.846
723.05	18.852
723.37	19.838
723.68	22.008
724.00	20.732
724.32	19.355
724.63	21.951
724.95	20.502
725.27	25.506
725.58	25.781
725.90	20.803
726.22	21.509
726.53	20.139
726.85	22.184
727.16	19.573
727.48	18.794
727.80	21.591
728.11	25.725
728.43	20.000
728.74	18.996
729.06	22.628
729.38	25.000
729.69	21.708
730.01	20.478
730.32	17.014
730.64	20.736
730.96	18.812
731.27	21.854
731.59	19.266
731.90	17.784
732.22	22.671
732.53	20.433
732.85	19.551
733.16	17.363
733.48	20.266
733.80	20.130
734.11	18.471
734.43	19.527
734.74	16.000
735.06	15.186
735.37	21.387
735.69	16.879
736.00	21.895
736.32	22.118
736.63	16.933
736.95	21.725
737.26	13.265
737.58	17.419
737.89	23.411
738.21	17.406
738.52	19.643
738.83	19.245
739.15	20.769
739.46	24.088
739.78	23.958
740.09	19.692
740.41	20.323
740.72	20.209
741.04	21.481
741.35	18.750
741.66	29.778
741.98	22.170
742.29	32.536
742.61	28.879
742.92	22.172
743.23	24.359
743.55	25.600
743.86	25.439
744.18	30.531
744.49	28.230
744.80	30.516
745.12	28.182
745.43	23.348
745.74	27.027
746.06	24.771
746.37	27.803
746.68	27.149
747.00	28.704
747.31	27.619
747.62	24.336
747.94	23.348
748.25	22.128
748.56	25.551
748.88	20.792
749.19	29.500
749.50	24.651
749.82	24.797
750.13	21.633
750.44	18.978
750.75	19.649
751.07	23.151
751.38	21.951
751.69	21.300
752.01	19.549
752.32	19.856
752.63	21.986
752.94	21.311
753.26	24.400
753.57	23.984
753.88	23.828
754.19	22.500
754.51	24.306
754.82	17.329
755.13	24.528
755.44	20.677
755.75	20.803
756.07	22.340
756.38	18.613
756.69	21.141
757.00	18.263
757.31	19.585
757.63	20.760
757.94	17.694
758.25	18.137
758.56	15.802
758.87	14.785
759.18	18.485
759.50	20.063
759.81	17.134
760.12	16.562
760.43	17.765
760.74	18.207
761.05	18.362
761.36	21.123
761.67	20.739
761.99	17.391
762.30	17.708
762.61	24.046
762.92	25.391
763.23	24.370
763.54	26.800
763.85	21.875
764.16	26.538
764.47	25.095
764.78	21.908
765.10	14.241
765.41	19.174
765.72	21.557
766.03	21.317
766.34	20.333
766.65	22.553
766.96	23.932
767.27	24.873
767.58	32.292
767.89	30.526
768.20	31.609
768.51	26.904
768.82	26.606
769.13	22.358
769.44	21.457
769.75	25.751
770.06	19.725
770.37	24.887
770.68	25.000
770.99	23.111
771.30	21.311
771.61	27.354
771.92	20.902
772.23	31.513
772.54	26.667
772.85	29.843
773.16	24.468
773.47	32.065
773.78	29.949
774.09	28.571
774.39	35.088
774.70	27.160
775.01	30.435
775.32	39.216
775.63	38.816
775.94	35.971
776.25	52.756
776.56	44.776
776.87	46.721
777.18	39.844
777.48	48.092
777.79	50.000
778.10	41.481
778.41	45.536
778.72	32.847
779.03	40.940
779.34	34.899
779.65	33.784
779.95	39.877
780.26	35.294
780.57	39.310
780.88	45.312
781.19	36.090
781.50	46.622
781.80	34.591
782.11	29.944
782.42	29.747
782.73	31.288
783.04	39.865
783.34	34.507
783.65	40.411
783.96	43.284
784.27	35.664
784.57	24.460
784.88	40.741
785.19	46.032
785.50	50.000
785.81	52.985
786.11	45.902
786.42	47.287
786.73	37.168
787.04	48.113
787.34	46.429
787.65	62.000
787.96	50.450
788.26	43.802
788.57	49.153
788.88	48.760
789.19	41.667
789.49	47.727
789.80	43.511
790.11	56.190
790.41	53.465
790.72	57.831
791.03	52.174
791.33	58.140
791.64	50.515
791.95	53.465
792.25	51.111
792.56	80.519
792.87	76.923
793.17	88.608
793.48	70.115
793.79	64.368
794.09	63.636
794.40	41.176
794.70	46.324
795.01	37.037
795.32	33.094
795.62	41.732
795.93	50.000
796.23	50.442
796.54	54.118
796.85	45.946
797.15	71.831
797.46	71.212
797.76	75.904
798.07	67.089
798.37	61.538
798.68	63.636
798.99	63.380
799.29	63.636
799.60	52.273
799.90	68.493
800.21	83.582
800.51	72.414
800.82	96.491
801.12	72.131
801.43	87.879
801.73	72.973
802.04	88.889
802.34	69.136
802.65	87.500
802.95	84.746
803.26	81.250
803.56	58.571
803.87	67.692
804.17	79.412
804.48	100.000
804.78	81.034
805.09	69.118
805.39	67.308
805.70	69.643
806.00	90.164
806.30	81.818
806.61	76.829
806.91	63.291
807.22	63.158
807.52	49.254
807.83	73.239
808.13	73.438
808.43	70.000
808.74	61.842
809.04	68.116
809.35	86.567
809.65	77.632
809.95	96.774
810.26	76.271
810.56	92.063
810.86	136.364
811.17	121.429
811.47	93.333
811.77	109.259
812.08	98.182
812.38	108.000
812.69	150.000
812.99	113.636
813.29	108.163
813.59	69.048
813.90	112.245
814.20	87.273
814.50	87.692
814.81	76.471
815.11	108.163
815.41	73.770
815.72	119.048
816.02	125.455
816.32	116.667
816.62	97.500
816.93	104.878
817.23	126.190
817.53	113.636
817.84	154.545
818.14	121.739
818.44	111.111
818.74	144.118
819.04	122.500
819.35	131.429
819.65	144.118
819.95	142.857
820.25	180.000
820.56	138.462
820.86	118.182
821.16	146.512
821.46	115.385
821.76	128.000
822.07	105.714
822.37	127.500
822.67	136.364
822.97	109.804
823.27	217.857
823.57	102.703
823.88	135.000
824.18	180.000
824.48	111.905
824.78	204.000
825.08	158.333
825.38	129.730
825.69	131.707
825.99	187.500
826.29	158.621
826.59	131.579
826.89	118.421
827.19	117.647
827.49	154.839
827.79	122.727
828.09	134.091
828.39	110.638
828.70	112.245
829.00	111.111
829.30	148.387
829.60	135.000
829.90	300.000
830.20	182.143
830.50	143.478
830.80	191.304
831.10	183.333
831.40	183.333
831.70	156.522
832.00	188.462
832.30	177.778
832.60	256.250
832.90	206.667
833.20	407.143
833.50	193.548
833.80	168.966
834.10	196.875
834.40	173.077
834.70	233.333
835.00	252.381
835.30	154.286
835.60	300.000
835.90	172.414
836.20	307.143
836.50	200.000
836.80	180.000
837.10	147.222
837.40	247.619
837.70	241.176
838.00	181.481
838.30	228.571
838.60	233.333
838.90	192.308
839.19	205.000
839.49	378.571
839.79	290.000
840.09	205.000
840.39	242.857
840.69	234.783
840.99	244.444
841.29	410.000
841.59	333.333
841.88	300.000
842.18	158.621
842.48	228.571
842.78	173.333
843.08	247.826
843.38	178.125
843.68	783.333
843.97	215.385
844.27	175.862
844.57	280.952
844.87	375.000
845.17	188.889
845.47	1466.667
845.76	444.444
846.06	294.118
846.36	487.500
846.66	335.714
846.96	268.750
847.25	354.545
847.55	272.727
847.85	234.783
848.15	370.000
848.44	307.143
848.74	233.333
849.04	311.765
849.34	500.000
849.63	257.895
849.93	372.727
850.23	900.000
850.53	400.000
850.82	1750.000
851.12	-3900.000
851.42	3100.000
851.71	280.000
852.01	-1133.333
852.31	245.833
852.61	1600.000
852.90	214.286
853.20	224.000
853.50	294.118
853.79	323.810
854.09	212.500
854.39	293.750
854.68	167.568
854.98	174.194
855.28	180.000
855.57	179.310
855.87	166.667
856.17	278.947
856.46	246.667
856.76	229.412
857.05	179.310
857.35	237.500
857.65	340.000
857.94	178.261
858.24	203.846
858.53	280.000
858.83	236.364
859.13	333.333
859.42	0.000
859.72	666.667
860.01	436.364
860.31	231.818
860.60	263.158
860.90	200.000
861.20	511.111
861.49	500.000
861.79	-4100.000
862.08	562.500
862.38	285.714
862.67	330.769
862.97	276.471
863.26	477.778
863.56	238.889
863.85	466.667
864.15	637.500
864.44	313.333
864.74	666.667
865.03	475.000
865.33	231.579
865.62	481.818
865.92	369.231
866.21	341.667
866.51	0.000
866.80	518.182
867.10	1000.000
867.39	500.000
867.69	454.545
867.98	310.526
868.27	454.545
868.57	247.368
868.86	-4400.000
869.16	293.750
869.45	1950.000
869.75	-4400.000
870.04	408.333
870.33	671.429
870.63	1025.000
870.92	2050.000
871.22	642.857
871.51	288.235
871.80	195.238
872.10	314.286
>>>>>End Processed Spectral Data<<<<<
