SpectraSuite Data File
++++++++++++++++++++++++++++++++++++
Date: Wed May 13 16:49:31 PDT 2015
User: schluterlab
Dark Spectrum Present: Yes
Reference Spectrum Present: Yes
Number of Sampled Component Spectra: 1
Spectrometers: USB2E3373
Integration Time (usec): 3000 (USB2E3373)
Spectra Averaged: 3 (USB2E3373)
Boxcar Smoothing: 0 (USB2E3373)
Correct for Electrical Dark: No (USB2E3373)
Strobe/Lamp Enabled: No (USB2E3373)
Correct for Detector Non-linearity: No (USB2E3373)
Correct for Stray Light: No (USB2E3373)
Number of Pixels in Processed Spectrum: 2048
>>>>>Begin Processed Spectral Data<<<<<
178.53	0.000
178.91	-1250.000
179.29	-1100.000
179.67	-233.333
180.04	-1250.000
180.42	2600.000
180.80	1020.000
181.18	-1025.000
181.56	742.857
181.94	0.000
182.31	-742.857
182.69	1566.667
183.07	-600.000
183.45	-533.333
183.83	472.727
184.20	-510.000
184.58	2600.000
184.96	5900.000
185.34	-860.000
185.72	-512.500
186.09	-2300.000
186.47	2250.000
186.85	2250.000
187.23	4300.000
187.61	-1300.000
187.98	1275.000
188.36	518.182
188.74	518.182
189.12	-800.000
189.49	520.000
189.87	-4400.000
190.25	-1150.000
190.63	371.429
191.00	446.154
191.38	883.333
191.76	-1125.000
192.14	1150.000
192.51	600.000
192.89	800.000
193.27	625.000
193.65	-1075.000
194.02	390.000
194.40	1000.000
194.78	410.000
195.15	516.667
195.53	660.000
195.91	-1750.000
196.29	381.250
196.66	310.526
197.04	-260.000
197.42	0.000
197.79	460.000
198.17	-4200.000
198.55	700.000
198.92	875.000
199.30	1040.000
199.68	0.000
200.05	316.667
200.43	714.286
200.81	3900.000
201.18	1333.333
201.56	-1266.667
201.94	533.333
202.31	644.444
202.69	441.667
203.07	640.000
203.44	0.000
203.82	1075.000
204.19	771.429
204.57	485.714
204.95	575.000
205.32	1366.667
205.70	527.273
206.08	378.571
206.45	2300.000
206.83	356.250
207.20	750.000
207.58	700.000
207.96	244.444
208.33	637.500
208.71	-950.000
209.08	771.429
209.46	666.667
209.84	509.091
210.21	-1700.000
210.59	1300.000
210.96	-425.000
211.34	2900.000
211.71	610.000
212.09	533.333
212.46	0.000
212.84	1533.333
213.22	1475.000
213.59	-4500.000
213.97	850.000
214.34	714.286
214.72	527.273
215.09	1160.000
215.47	-2100.000
215.84	-2800.000
216.22	1633.333
216.59	507.143
216.97	1550.000
217.34	463.636
217.72	-700.000
218.09	0.000
218.47	-4500.000
218.84	555.556
219.22	885.714
219.59	1666.667
219.97	-428.571
220.34	960.000
220.72	-1633.333
221.09	414.286
221.47	1575.000
221.84	-1050.000
222.22	0.000
222.59	1325.000
222.97	-2650.000
223.34	1140.000
223.72	400.000
224.09	960.000
224.46	1700.000
224.84	-5100.000
225.21	-900.000
225.59	-5100.000
225.96	560.000
226.34	320.000
226.71	2750.000
227.08	612.500
227.46	450.000
227.83	-1075.000
228.21	-2300.000
228.58	555.556
228.95	-2150.000
229.33	-2100.000
229.70	1700.000
230.08	842.857
230.45	-800.000
230.82	433.333
231.20	716.667
231.57	642.857
231.95	441.667
232.32	222.727
232.69	500.000
233.07	785.714
233.44	269.231
233.81	-1566.667
234.19	242.105
234.56	400.000
234.93	291.667
235.31	363.636
235.68	292.308
236.05	364.286
236.43	166.667
236.80	257.895
237.17	4800.000
237.55	233.333
237.92	214.286
238.29	204.762
238.67	161.290
239.04	200.000
239.41	161.111
239.79	100.000
240.16	154.762
240.53	131.818
240.91	68.627
241.28	116.000
241.65	92.000
242.02	91.304
242.40	96.774
242.77	81.667
243.14	64.516
243.51	83.146
243.89	75.294
244.26	61.111
244.63	61.290
245.00	52.128
245.38	45.545
245.75	60.748
246.12	52.294
246.49	58.394
246.87	53.600
247.24	45.385
247.61	43.571
247.98	42.484
248.36	43.243
248.73	38.217
249.10	45.223
249.47	39.548
249.84	44.385
250.22	36.364
250.59	31.361
250.96	39.899
251.33	39.336
251.70	40.594
252.08	35.238
252.45	32.735
252.82	31.304
253.19	29.787
253.56	30.588
253.94	30.290
254.31	33.203
254.68	34.231
255.05	28.413
255.42	27.236
255.79	27.206
256.16	29.242
256.54	25.442
256.91	28.826
257.28	25.540
257.65	27.063
258.02	27.019
258.39	27.445
258.76	25.084
259.14	23.810
259.51	25.836
259.88	27.640
260.25	25.076
260.62	24.855
260.99	26.087
261.36	25.225
261.73	22.063
262.10	23.837
262.47	25.070
262.85	25.070
263.22	21.937
263.59	26.496
263.96	22.802
264.33	22.977
264.70	25.000
265.07	23.274
265.44	24.242
265.81	19.465
266.18	19.849
266.55	20.488
266.92	20.639
267.29	22.685
267.66	21.789
268.03	20.909
268.40	21.028
268.77	20.048
269.14	19.369
269.51	24.379
269.88	21.445
270.25	22.348
270.62	17.528
270.99	20.430
271.36	20.386
271.73	17.523
272.10	21.304
272.47	22.796
272.84	20.779
273.21	23.899
273.58	18.341
273.95	19.497
274.32	22.314
274.69	19.272
275.06	20.079
275.43	21.489
275.80	20.240
276.17	19.959
276.54	19.543
276.91	20.158
277.28	17.383
277.65	19.729
278.02	17.805
278.39	19.531
278.76	19.273
279.13	20.000
279.50	17.877
279.87	18.725
280.23	19.960
280.60	17.795
280.97	17.930
281.34	17.876
281.71	20.727
282.08	20.345
282.45	16.545
282.82	19.538
283.19	16.043
283.56	17.719
283.92	20.643
284.29	17.284
284.66	17.786
285.03	17.541
285.40	17.254
285.77	18.855
286.14	17.098
286.51	17.667
286.87	18.120
287.24	17.101
287.61	17.657
287.98	17.045
288.35	17.750
288.72	17.757
289.08	18.779
289.45	16.639
289.82	19.512
290.19	16.484
290.56	15.773
290.93	15.559
291.29	17.945
291.66	16.372
292.03	19.041
292.40	19.090
292.77	15.680
293.13	17.612
293.50	17.347
293.87	16.148
294.24	16.741
294.60	15.429
294.97	15.552
295.34	19.464
295.71	17.756
296.08	16.667
296.44	15.681
296.81	16.380
297.18	16.531
297.55	13.061
297.91	16.491
298.28	17.269
298.65	16.188
299.02	16.996
299.38	17.397
299.75	14.960
300.12	15.964
300.48	17.500
300.85	16.400
301.22	15.669
301.59	14.899
301.95	14.987
302.32	16.560
302.69	15.890
303.05	15.152
303.42	15.432
303.79	16.874
304.15	14.452
304.52	15.527
304.89	15.331
305.25	14.733
305.62	16.648
305.99	16.529
306.35	15.324
306.72	16.816
307.09	16.870
307.45	16.892
307.82	15.179
308.19	16.115
308.55	17.476
308.92	16.649
309.29	15.523
309.65	15.907
310.02	16.068
310.38	16.022
310.75	16.579
311.12	16.172
311.48	17.241
311.85	17.610
312.22	18.002
312.58	16.216
312.95	17.846
313.31	16.214
313.68	17.256
314.05	18.836
314.41	16.683
314.78	16.918
315.14	17.279
315.51	18.332
315.87	18.119
316.24	17.577
316.61	16.959
316.97	16.634
317.34	17.319
317.70	17.878
318.07	17.517
318.43	19.080
318.80	19.119
319.16	17.608
319.53	17.824
319.89	18.476
320.26	19.800
320.62	19.544
320.99	18.889
321.35	18.586
321.72	19.302
322.08	20.237
322.45	20.000
322.81	21.027
323.18	22.447
323.54	20.315
323.91	20.660
324.27	22.180
324.64	20.130
325.00	21.100
325.37	21.656
325.73	22.083
326.10	20.918
326.46	21.864
326.83	22.692
327.19	22.801
327.56	22.387
327.92	21.872
328.29	23.602
328.65	24.770
329.01	23.105
329.38	23.589
329.74	22.438
330.11	23.374
330.47	23.875
330.84	24.449
331.20	23.133
331.56	23.119
331.93	23.426
332.29	23.780
332.66	23.540
333.02	24.132
333.38	24.481
333.75	24.421
334.11	24.199
334.48	23.425
334.84	24.449
335.20	24.182
335.57	23.481
335.93	23.750
336.29	22.253
336.66	24.076
337.02	23.258
337.38	24.167
337.75	23.619
338.11	23.456
338.47	22.836
338.84	24.656
339.20	22.661
339.56	23.905
339.93	23.091
340.29	23.188
340.65	24.064
341.02	24.695
341.38	24.555
341.74	23.860
342.11	23.668
342.47	23.789
342.83	22.517
343.20	23.723
343.56	22.578
343.92	21.667
344.28	23.299
344.65	22.528
345.01	23.064
345.37	24.185
345.73	23.435
346.10	23.274
346.46	23.729
346.82	24.876
347.19	22.891
347.55	23.399
347.91	23.301
348.27	24.404
348.63	25.167
349.00	22.977
349.36	22.742
349.72	23.095
350.08	22.204
350.45	23.027
350.81	22.827
351.17	23.825
351.53	22.850
351.89	23.597
352.26	22.731
352.62	23.496
352.98	23.744
353.34	23.747
353.70	22.095
354.07	23.629
354.43	22.540
354.79	23.572
355.15	23.065
355.51	24.141
355.87	23.673
356.24	23.697
356.60	23.176
356.96	23.170
357.32	23.876
357.68	24.094
358.04	23.990
358.40	23.595
358.77	24.491
359.13	23.204
359.49	24.000
359.85	22.857
360.21	24.721
360.57	23.580
360.93	23.692
361.29	23.961
361.66	23.452
362.02	24.254
362.38	23.650
362.74	23.958
363.10	23.834
363.46	23.404
363.82	23.810
364.18	24.449
364.54	25.780
364.90	24.717
365.26	23.456
365.62	24.543
365.98	23.156
366.35	23.782
366.71	24.801
367.07	24.108
367.43	24.383
367.79	24.411
368.15	25.431
368.51	24.201
368.87	24.982
369.23	24.726
369.59	24.765
369.95	24.191
370.31	23.932
370.67	24.203
371.03	25.243
371.39	25.437
371.75	25.441
372.11	25.605
372.47	25.073
372.83	26.297
373.19	24.566
373.55	25.721
373.91	25.700
374.27	24.605
374.63	25.600
374.99	25.847
375.35	24.285
375.71	26.251
376.07	26.612
376.42	26.341
376.78	26.839
377.14	26.526
377.50	26.556
377.86	26.596
378.22	27.054
378.58	26.566
378.94	26.713
379.30	27.036
379.66	27.094
380.02	26.413
380.38	25.987
380.74	28.031
381.09	26.956
381.45	27.966
381.81	27.580
382.17	28.217
382.53	26.981
382.89	28.210
383.25	27.892
383.61	28.686
383.97	28.580
384.32	28.509
384.68	28.191
385.04	28.396
385.40	28.111
385.76	28.133
386.12	29.404
386.48	29.075
386.83	29.314
387.19	29.685
387.55	29.004
387.91	29.988
388.27	28.571
388.62	29.441
388.98	28.747
389.34	30.601
389.70	29.552
390.06	30.482
390.42	30.674
390.77	29.326
391.13	30.185
391.49	31.662
391.85	30.045
392.20	30.599
392.56	29.798
392.92	30.253
393.28	30.118
393.64	30.815
393.99	29.933
394.35	29.529
394.71	30.615
395.07	30.156
395.42	30.841
395.78	31.552
396.14	31.099
396.50	31.266
396.85	32.104
397.21	30.086
397.57	31.804
397.92	30.469
398.28	30.886
398.64	30.765
399.00	30.946
399.35	30.231
399.71	31.481
400.07	31.047
400.42	31.350
400.78	31.182
401.14	30.732
401.49	31.881
401.85	30.490
402.21	30.299
402.57	31.771
402.92	30.706
403.28	32.167
403.63	32.302
403.99	32.357
404.35	31.636
404.70	31.175
405.06	31.858
405.42	33.001
405.77	31.486
406.13	30.982
406.49	31.875
406.84	32.014
407.20	31.383
407.55	31.908
407.91	32.933
408.27	33.057
408.62	32.450
408.98	31.618
409.34	32.165
409.69	33.806
410.05	32.714
410.40	33.394
410.76	32.019
411.11	32.449
411.47	32.204
411.83	32.682
412.18	32.529
412.54	32.877
412.89	32.349
413.25	31.523
413.60	31.748
413.96	31.694
414.31	31.652
414.67	32.446
415.03	32.318
415.38	32.796
415.74	32.026
416.09	32.462
416.45	32.062
416.80	32.254
417.16	33.579
417.51	33.776
417.87	32.241
418.22	34.385
418.58	33.570
418.93	32.862
419.29	33.036
419.64	32.935
420.00	32.073
420.35	32.464
420.71	32.995
421.06	31.683
421.42	33.275
421.77	33.072
422.12	31.836
422.48	32.650
422.83	33.430
423.19	32.928
423.54	33.198
423.90	32.928
424.25	31.937
424.61	32.024
424.96	32.945
425.31	33.112
425.67	31.966
426.02	32.286
426.38	33.578
426.73	31.890
427.09	32.948
427.44	32.777
427.79	32.720
428.15	33.631
428.50	32.534
428.85	33.492
429.21	32.413
429.56	32.297
429.92	32.864
430.27	31.927
430.62	32.565
430.98	33.005
431.33	31.959
431.68	32.199
432.04	32.535
432.39	33.752
432.74	33.573
433.10	32.541
433.45	33.236
433.80	33.315
434.16	33.013
434.51	32.579
434.86	33.067
435.22	33.241
435.57	34.103
435.92	32.651
436.28	34.223
436.63	33.830
436.98	33.887
437.34	32.737
437.69	33.897
438.04	32.715
438.39	32.179
438.75	33.120
439.10	33.464
439.45	33.353
439.81	32.749
440.16	32.806
440.51	33.861
440.86	33.700
441.22	32.759
441.57	33.227
441.92	32.549
442.27	33.800
442.63	32.965
442.98	33.690
443.33	33.696
443.68	33.299
444.03	32.552
444.39	32.035
444.74	32.738
445.09	32.237
445.44	33.078
445.79	32.954
446.15	33.192
446.50	32.526
446.85	33.402
447.20	33.707
447.55	33.836
447.91	33.039
448.26	32.944
448.61	33.013
448.96	33.499
449.31	34.533
449.66	33.427
450.02	32.981
450.37	32.710
450.72	32.318
451.07	32.724
451.42	32.766
451.77	33.294
452.12	33.141
452.47	33.147
452.83	32.925
453.18	33.068
453.53	34.694
453.88	32.723
454.23	33.652
454.58	34.949
454.93	34.266
455.28	33.915
455.63	34.163
455.98	34.345
456.34	33.606
456.69	34.815
457.04	33.684
457.39	33.431
457.74	34.010
458.09	33.295
458.44	33.067
458.79	32.375
459.14	33.126
459.49	34.326
459.84	32.521
460.19	32.292
460.54	32.118
460.89	33.790
461.24	34.183
461.59	33.585
461.94	32.799
462.29	34.065
462.64	34.525
462.99	32.791
463.34	34.667
463.69	33.646
464.04	33.681
464.39	33.797
464.74	32.858
465.09	32.992
465.44	32.798
465.79	32.494
466.14	33.498
466.49	33.204
466.84	34.209
467.19	33.675
467.54	33.625
467.89	33.313
468.24	33.159
468.59	34.310
468.94	33.476
469.29	33.098
469.64	34.337
469.99	34.168
470.34	33.686
470.68	34.626
471.03	34.014
471.38	34.399
471.73	34.577
472.08	33.553
472.43	33.229
472.78	32.785
473.13	33.633
473.48	33.208
473.83	33.476
474.17	33.043
474.52	33.933
474.87	34.267
475.22	33.314
475.57	32.563
475.92	33.192
476.27	32.638
476.61	32.874
476.96	32.930
477.31	32.601
477.66	33.096
478.01	32.985
478.36	33.316
478.70	32.814
479.05	32.801
479.40	32.907
479.75	33.554
480.10	32.853
480.45	32.413
480.79	32.537
481.14	32.681
481.49	32.701
481.84	32.327
482.19	32.349
482.53	33.165
482.88	32.713
483.23	32.897
483.58	32.894
483.92	32.709
484.27	31.983
484.62	32.198
484.97	31.770
485.31	32.260
485.66	30.703
486.01	28.832
486.36	27.715
486.70	27.562
487.05	28.394
487.40	29.571
487.75	30.066
488.09	30.604
488.44	31.755
488.79	32.043
489.13	32.200
489.48	32.055
489.83	32.154
490.17	32.617
490.52	31.621
490.87	32.791
491.22	31.833
491.56	30.524
491.91	31.829
492.26	31.649
492.60	31.613
492.95	31.618
493.30	31.916
493.64	31.451
493.99	31.848
494.34	32.054
494.68	32.555
495.03	33.036
495.37	32.527
495.72	32.456
496.07	32.204
496.41	31.062
496.76	32.674
497.11	32.103
497.45	32.464
497.80	32.006
498.14	31.304
498.49	31.854
498.84	31.927
499.18	31.571
499.53	32.146
499.87	31.827
500.22	31.465
500.56	32.524
500.91	32.837
501.26	32.622
501.60	32.843
501.95	31.531
502.29	31.959
502.64	31.611
502.98	31.697
503.33	30.941
503.67	31.369
504.02	31.665
504.36	31.820
504.71	31.510
505.06	31.855
505.40	31.842
505.75	32.690
506.09	31.050
506.44	31.968
506.78	32.440
507.13	31.600
507.47	32.374
507.82	33.131
508.16	32.016
508.51	32.319
508.85	32.075
509.19	32.296
509.54	31.786
509.88	32.664
510.23	32.339
510.57	33.437
510.92	32.833
511.26	32.374
511.61	32.780
511.95	31.942
512.30	32.291
512.64	32.241
512.98	33.280
513.33	33.351
513.67	31.697
514.02	32.035
514.36	32.332
514.70	32.485
515.05	33.129
515.39	32.866
515.74	33.164
516.08	33.259
516.42	32.963
516.77	33.668
517.11	32.408
517.46	32.393
517.80	32.985
518.14	32.774
518.49	32.905
518.83	33.693
519.17	33.083
519.52	33.503
519.86	32.402
520.20	33.757
520.55	34.231
520.89	34.124
521.23	33.353
521.58	33.914
521.92	33.497
522.26	33.252
522.61	34.891
522.95	33.702
523.29	33.962
523.64	33.232
523.98	33.888
524.32	33.776
524.66	34.336
525.01	33.333
525.35	33.643
525.69	32.882
526.04	33.520
526.38	34.899
526.72	32.883
527.06	33.019
527.41	32.921
527.75	34.277
528.09	34.425
528.43	34.736
528.78	34.358
529.12	32.909
529.46	34.476
529.80	34.035
530.15	34.766
530.49	32.369
530.83	33.608
531.17	33.812
531.51	34.501
531.86	32.323
532.20	33.572
532.54	34.593
532.88	35.109
533.22	32.917
533.57	32.654
533.91	33.052
534.25	31.956
534.59	33.252
534.93	32.302
535.27	32.046
535.62	32.479
535.96	34.024
536.30	32.867
536.64	33.290
536.98	34.506
537.32	33.772
537.66	32.933
538.01	33.904
538.35	33.807
538.69	33.823
539.03	32.489
539.37	32.652
539.71	32.275
540.05	34.118
540.39	33.422
540.73	32.665
541.07	33.615
541.42	33.986
541.76	33.806
542.10	33.571
542.44	33.377
542.78	33.992
543.12	32.374
543.46	33.246
543.80	32.986
544.14	32.478
544.48	32.508
544.82	32.328
545.16	33.702
545.50	32.969
545.84	33.669
546.18	34.074
546.52	33.586
546.86	33.883
547.20	33.581
547.54	33.467
547.88	33.673
548.22	32.503
548.56	33.082
548.90	32.010
549.24	33.131
549.58	34.038
549.92	33.860
550.26	33.097
550.60	32.503
550.94	33.592
551.28	33.577
551.62	33.573
551.96	32.632
552.30	33.720
552.64	33.807
552.98	33.966
553.32	32.839
553.66	33.674
554.00	33.219
554.34	33.402
554.68	34.120
555.02	33.780
555.36	33.125
555.69	32.679
556.03	33.715
556.37	32.810
556.71	32.538
557.05	33.193
557.39	32.610
557.73	33.522
558.07	34.590
558.41	33.864
558.75	33.137
559.08	33.706
559.42	33.787
559.76	33.897
560.10	33.191
560.44	33.194
560.78	32.269
561.12	33.575
561.45	33.507
561.79	32.828
562.13	31.321
562.47	34.016
562.81	33.752
563.15	32.375
563.48	32.759
563.82	32.681
564.16	33.094
564.50	32.227
564.84	32.491
565.17	31.467
565.51	31.885
565.85	33.058
566.19	32.373
566.52	32.552
566.86	31.826
567.20	31.958
567.54	31.336
567.88	31.668
568.21	31.799
568.55	30.940
568.89	30.447
569.23	30.214
569.56	29.393
569.90	29.623
570.24	28.418
570.57	28.970
570.91	28.022
571.25	27.857
571.59	27.865
571.92	27.448
572.26	27.787
572.60	28.318
572.93	28.156
573.27	28.571
573.61	27.554
573.95	28.346
574.28	26.533
574.62	27.284
574.96	27.049
575.29	26.528
575.63	27.160
575.97	27.415
576.30	27.456
576.64	27.192
576.98	26.860
577.31	27.010
577.65	26.927
577.98	26.940
578.32	26.350
578.66	26.457
578.99	26.432
579.33	27.257
579.67	27.122
580.00	26.924
580.34	26.887
580.67	26.873
581.01	27.254
581.35	26.672
581.68	26.725
582.02	26.168
582.35	25.967
582.69	26.227
583.02	26.575
583.36	27.023
583.70	27.797
584.03	27.482
584.37	28.011
584.70	27.821
585.04	27.495
585.37	27.586
585.71	27.091
586.04	27.205
586.38	27.351
586.72	27.534
587.05	27.167
587.39	26.992
587.72	27.261
588.06	27.134
588.39	27.435
588.73	27.691
589.06	28.451
589.40	28.552
589.73	28.652
590.07	28.719
590.40	28.827
590.73	28.728
591.07	29.385
591.40	29.186
591.74	30.390
592.07	29.407
592.41	29.558
592.74	28.427
593.08	28.015
593.41	27.903
593.75	27.171
594.08	27.456
594.41	28.031
594.75	28.355
595.08	27.989
595.42	28.932
595.75	27.778
596.09	28.502
596.42	28.802
596.75	28.493
597.09	29.351
597.42	28.541
597.75	29.194
598.09	29.217
598.42	29.038
598.76	28.172
599.09	27.936
599.42	27.984
599.76	28.075
600.09	27.286
600.42	27.684
600.76	27.607
601.09	28.452
601.42	28.463
601.76	28.235
602.09	28.696
602.42	28.463
602.76	28.658
603.09	29.032
603.42	27.958
603.76	27.515
604.09	28.228
604.42	28.781
604.76	28.596
605.09	28.091
605.42	28.046
605.75	28.684
606.09	28.142
606.42	28.484
606.75	29.034
607.09	28.715
607.42	28.541
607.75	28.481
608.08	27.964
608.42	29.673
608.75	28.674
609.08	28.076
609.41	28.796
609.75	28.728
610.08	29.123
610.41	28.212
610.74	28.855
611.07	29.496
611.41	29.048
611.74	30.216
612.07	30.072
612.40	29.958
612.73	29.632
613.07	29.310
613.40	29.910
613.73	29.051
614.06	29.032
614.39	29.523
614.72	29.158
615.06	29.044
615.39	28.662
615.72	28.323
616.05	29.240
616.38	29.683
616.71	30.523
617.05	30.801
617.38	30.066
617.71	30.090
618.04	30.108
618.37	29.687
618.70	30.554
619.03	31.447
619.36	31.840
619.69	30.845
620.03	31.937
620.36	31.417
620.69	31.712
621.02	31.785
621.35	32.106
621.68	31.854
622.01	31.192
622.34	31.316
622.67	33.080
623.00	31.621
623.33	31.165
623.66	30.951
623.99	31.517
624.32	30.243
624.65	30.508
624.99	29.391
625.32	31.137
625.65	32.006
625.98	32.206
626.31	31.960
626.64	34.041
626.97	33.832
627.30	32.253
627.63	32.978
627.96	32.969
628.29	32.896
628.62	33.669
628.95	34.340
629.28	33.759
629.61	33.639
629.94	34.095
630.26	33.937
630.59	32.793
630.92	32.759
631.25	33.366
631.58	33.534
631.91	34.077
632.24	33.966
632.57	34.627
632.90	36.294
633.23	35.011
633.56	35.028
633.89	35.447
634.22	35.301
634.55	36.213
634.88	35.928
635.20	34.767
635.53	35.904
635.86	35.520
636.19	35.765
636.52	35.063
636.85	34.937
637.18	32.488
637.51	36.879
637.83	33.909
638.16	36.317
638.49	35.894
638.82	36.283
639.15	36.500
639.48	36.160
639.81	38.070
640.13	36.979
640.46	37.315
640.79	35.139
641.12	36.314
641.45	35.335
641.77	36.819
642.10	36.696
642.43	36.336
642.76	37.771
643.09	39.417
643.41	38.240
643.74	39.969
644.07	39.177
644.40	40.951
644.73	38.740
645.05	39.778
645.38	37.283
645.71	37.842
646.04	40.199
646.36	38.731
646.69	38.796
647.02	39.796
647.35	38.316
647.67	39.115
648.00	37.561
648.33	37.789
648.66	36.212
648.98	38.831
649.31	34.828
649.64	36.323
649.96	35.768
650.29	38.231
650.62	38.350
650.94	36.629
651.27	38.176
651.60	39.434
651.92	36.262
652.25	37.785
652.58	38.785
652.90	36.809
653.23	32.974
653.56	39.528
653.88	38.352
654.21	38.073
654.54	39.439
654.86	37.072
655.19	33.243
655.52	23.311
655.84	20.129
656.17	26.136
656.49	35.460
656.82	36.581
657.15	27.799
657.47	21.258
657.80	16.507
658.13	17.245
658.45	26.444
658.78	26.664
659.10	28.277
659.43	30.599
659.75	31.800
660.08	35.633
660.41	39.479
660.73	38.501
661.06	37.898
661.38	40.364
661.71	39.038
662.03	41.420
662.36	39.761
662.68	39.960
663.01	40.606
663.33	40.764
663.66	42.437
663.98	41.469
664.31	40.336
664.63	38.057
664.96	37.022
665.28	39.959
665.61	39.571
665.93	39.638
666.26	39.757
666.58	39.958
666.91	40.803
667.23	43.820
667.56	39.525
667.88	40.385
668.21	39.446
668.53	39.046
668.86	42.641
669.18	42.004
669.50	41.304
669.83	42.266
670.15	44.000
670.48	39.216
670.80	41.379
671.13	39.490
671.45	38.723
671.77	40.122
672.10	38.447
672.42	34.982
672.75	36.153
673.07	38.028
673.39	37.071
673.72	37.891
674.04	37.059
674.37	37.087
674.69	36.401
675.01	39.540
675.34	42.710
675.66	40.211
675.98	39.308
676.31	39.706
676.63	39.278
676.95	40.881
677.28	40.187
677.60	37.802
677.92	42.616
678.25	42.094
678.57	40.637
678.89	40.882
679.22	36.542
679.54	39.313
679.86	38.532
680.18	35.063
680.51	38.298
680.83	36.833
681.15	38.868
681.48	38.752
681.80	36.944
682.12	35.632
682.44	37.911
682.77	37.882
683.09	40.129
683.41	40.798
683.73	41.943
684.06	38.636
684.38	35.616
684.70	37.403
685.02	36.773
685.34	35.531
685.67	33.392
685.99	35.223
686.31	36.519
686.63	32.155
686.96	35.179
687.28	38.628
687.60	35.870
687.92	37.843
688.24	37.833
688.56	37.952
688.89	39.212
689.21	40.830
689.53	37.787
689.85	41.907
690.17	38.095
690.49	37.792
690.82	38.318
691.14	34.821
691.46	35.021
691.78	36.145
692.10	39.463
692.42	37.725
692.74	36.515
693.06	36.596
693.39	38.809
693.71	38.428
694.03	39.158
694.35	37.879
694.67	35.927
694.99	41.951
695.31	37.500
695.63	41.866
695.95	37.408
696.27	37.563
696.59	39.378
696.91	40.933
697.23	35.446
697.56	36.461
697.88	35.174
698.20	37.917
698.52	33.548
698.84	40.089
699.16	35.484
699.48	37.530
699.80	40.580
700.12	44.675
700.44	42.175
700.76	41.713
701.08	41.954
701.40	41.620
701.72	44.606
702.04	42.330
702.36	37.394
702.68	40.227
703.00	39.058
703.32	39.362
703.64	42.895
703.96	39.276
704.28	42.151
704.60	41.935
704.91	40.356
705.23	39.296
705.55	48.173
705.87	42.193
706.19	42.756
706.51	45.483
706.83	41.818
707.15	42.577
707.47	38.131
707.79	42.998
708.11	38.813
708.43	36.905
708.74	39.286
709.06	43.377
709.38	41.207
709.70	43.895
710.02	41.840
710.34	39.394
710.66	42.090
710.98	39.205
711.29	38.081
711.61	43.658
711.93	39.103
712.25	45.338
712.57	45.588
712.89	40.484
713.20	44.985
713.52	42.105
713.84	39.873
714.16	40.549
714.48	41.092
714.80	43.161
715.11	38.905
715.43	40.356
715.75	39.710
716.07	40.895
716.39	42.947
716.70	42.857
717.02	41.367
717.34	42.049
717.66	43.284
717.97	48.606
718.29	42.222
718.61	46.715
718.93	44.485
719.24	43.253
719.56	39.322
719.88	45.763
720.20	46.622
720.51	42.160
720.83	46.468
721.15	42.537
721.46	43.617
721.78	48.029
722.10	46.415
722.42	45.113
722.73	41.948
723.05	43.852
723.37	46.559
723.68	45.174
724.00	43.496
724.32	43.145
724.63	47.561
724.95	44.351
725.27	45.344
725.58	43.359
725.90	42.336
726.22	45.283
726.53	40.625
726.85	41.980
727.16	45.552
727.48	45.390
727.80	41.667
728.11	43.116
728.43	43.077
728.74	38.351
729.06	46.350
729.38	45.221
729.69	41.637
730.01	35.495
730.32	37.500
730.64	42.809
730.96	38.284
731.27	37.417
731.59	39.755
731.90	39.359
732.22	37.888
732.53	37.771
732.85	38.782
733.16	39.871
733.48	39.203
733.80	41.883
734.11	41.720
734.43	38.166
734.74	36.571
735.06	36.390
735.37	40.173
735.69	40.446
736.00	44.118
736.32	41.121
736.63	39.936
736.95	38.658
737.26	36.395
737.58	36.774
737.89	43.144
738.21	41.297
738.52	38.571
738.83	39.245
739.15	35.769
739.46	43.796
739.78	40.625
740.09	39.385
740.41	39.355
740.72	37.282
741.04	41.852
741.35	45.000
741.66	49.333
741.98	45.283
742.29	47.368
742.61	46.552
742.92	43.891
743.23	46.154
743.55	41.200
743.86	43.860
744.18	44.248
744.49	48.325
744.80	50.235
745.12	54.091
745.43	47.137
745.74	47.297
746.06	50.459
746.37	41.256
746.68	49.774
747.00	44.444
747.31	53.810
747.62	43.363
747.94	44.493
748.25	37.447
748.56	49.780
748.88	46.040
749.19	51.000
749.50	47.442
749.82	43.496
750.13	37.551
750.44	39.416
750.75	39.649
751.07	42.765
751.38	43.902
751.69	41.877
752.01	38.346
752.32	37.906
752.63	42.908
752.94	38.934
753.26	46.400
753.57	36.585
753.88	43.359
754.19	41.786
754.51	43.056
754.82	32.852
755.13	44.151
755.44	40.602
755.75	40.511
756.07	39.007
756.38	38.321
756.69	37.584
757.00	38.922
757.31	37.092
757.63	33.626
757.94	32.172
758.25	34.804
758.56	34.321
758.87	34.677
759.18	36.061
759.50	39.185
759.81	33.956
760.12	36.250
760.43	37.822
760.74	33.967
761.05	35.593
761.36	36.096
761.67	36.364
761.99	35.404
762.30	42.708
762.61	41.985
762.92	38.672
763.23	39.496
763.54	41.600
763.85	40.625
764.16	40.769
764.47	43.346
764.78	34.276
765.10	36.076
765.41	34.513
765.72	37.725
766.03	33.229
766.34	34.333
766.65	40.000
766.96	44.872
767.27	46.193
767.58	49.479
767.89	49.474
768.20	49.425
768.51	38.579
768.82	46.330
769.13	38.211
769.44	41.296
769.75	43.348
770.06	37.615
770.37	47.964
770.68	42.130
770.99	46.667
771.30	38.934
771.61	43.946
771.92	40.164
772.23	47.479
772.54	52.308
772.85	55.497
773.16	52.660
773.47	50.000
773.78	44.670
774.09	47.619
774.39	54.971
774.70	51.852
775.01	56.522
775.32	58.170
775.63	60.526
775.94	58.273
776.25	63.780
776.56	64.179
776.87	59.836
777.18	60.938
777.48	67.939
777.79	59.091
778.10	62.963
778.41	71.429
778.72	56.204
779.03	61.745
779.34	50.336
779.65	50.000
779.95	58.282
780.26	54.248
780.57	55.172
780.88	68.750
781.19	54.135
781.50	54.054
781.80	47.799
782.11	49.153
782.42	50.633
782.73	47.853
783.04	52.703
783.34	59.859
783.65	62.329
783.96	67.910
784.27	55.245
784.57	56.835
784.88	55.556
785.19	64.286
785.50	63.208
785.81	61.940
786.11	69.672
786.42	64.341
786.73	61.947
787.04	70.755
787.34	66.964
787.65	66.000
787.96	63.063
788.26	59.504
788.57	72.034
788.88	63.636
789.19	55.556
789.49	57.576
789.80	60.305
790.11	80.000
790.41	75.248
790.72	62.651
791.03	82.609
791.33	66.279
791.64	78.351
791.95	67.327
792.25	76.667
792.56	80.519
792.87	92.308
793.17	102.532
793.48	73.563
793.79	87.356
794.09	67.045
794.40	63.866
794.70	52.941
795.01	51.852
795.32	56.835
795.62	62.205
795.93	60.345
796.23	61.947
796.54	78.824
796.85	64.865
797.15	100.000
797.46	90.909
797.76	85.542
798.07	79.747
798.37	98.462
798.68	93.939
798.99	78.873
799.29	85.714
799.60	79.545
799.90	100.000
800.21	91.045
800.51	93.103
800.82	100.000
801.12	103.279
801.43	90.909
801.73	77.027
802.04	95.238
802.34	90.123
802.65	103.125
802.95	106.780
803.26	114.063
803.56	87.143
803.87	93.846
804.17	104.412
804.48	94.444
804.78	81.034
805.09	94.118
805.39	111.538
805.70	105.357
806.00	98.361
806.30	98.485
806.61	76.829
806.91	73.418
807.22	65.789
807.52	82.090
807.83	90.141
808.13	96.875
808.43	106.667
808.74	72.368
809.04	98.551
809.35	104.478
809.65	81.579
809.95	111.290
810.26	98.305
810.56	93.651
810.86	134.091
811.17	147.619
811.47	103.333
811.77	111.111
812.08	90.909
812.38	110.000
812.69	161.111
812.99	154.545
813.29	114.286
813.59	114.286
813.90	138.776
814.20	118.182
814.50	87.692
814.81	92.647
815.11	104.082
815.41	88.525
815.72	150.000
816.02	121.818
816.32	126.190
816.62	102.500
816.93	129.268
817.23	123.810
817.53	140.909
817.84	163.636
818.14	147.826
818.44	108.889
818.74	182.353
819.04	145.000
819.35	120.000
819.65	173.529
819.95	164.286
820.25	165.000
820.56	158.974
820.86	127.273
821.16	153.488
821.46	130.769
821.76	120.000
822.07	162.857
822.37	152.500
822.67	154.545
822.97	111.765
823.27	210.714
823.57	154.054
823.88	140.000
824.18	203.333
824.48	145.238
824.78	192.000
825.08	191.667
825.38	159.459
825.69	129.268
825.99	212.500
826.29	182.759
826.59	152.632
826.89	147.368
827.19	144.118
827.49	183.871
827.79	127.273
828.09	127.273
828.39	125.532
828.70	126.531
829.00	162.963
829.30	145.161
829.60	130.000
829.90	326.667
830.20	175.000
830.50	200.000
830.80	247.826
831.10	210.000
831.40	180.000
831.70	200.000
832.00	188.462
832.30	162.963
832.60	287.500
832.90	210.000
833.20	350.000
833.50	174.194
833.80	217.241
834.10	196.875
834.40	226.923
834.70	261.111
835.00	252.381
835.30	177.143
835.60	330.769
835.90	210.345
836.20	335.714
836.50	168.966
836.80	176.000
837.10	177.778
837.40	280.952
837.70	329.412
838.00	196.296
838.30	233.333
838.60	247.619
838.90	215.385
839.19	260.000
839.49	407.143
839.79	325.000
840.09	270.000
840.39	261.905
840.69	252.174
840.99	272.222
841.29	500.000
841.59	341.667
841.88	362.500
842.18	162.069
842.48	271.429
842.78	180.000
843.08	252.174
843.38	190.625
843.68	933.333
843.97	215.385
844.27	206.897
844.57	300.000
844.87	368.750
845.17	222.222
845.47	1366.667
845.76	533.333
846.06	311.765
846.36	450.000
846.66	428.571
846.96	268.750
847.25	345.455
847.55	400.000
847.85	239.130
848.15	500.000
848.44	328.571
848.74	288.889
849.04	288.235
849.34	520.000
849.63	231.579
849.93	390.909
850.23	1000.000
850.53	414.286
850.82	2350.000
851.12	-4700.000
851.42	4600.000
851.71	245.000
852.01	-1466.667
852.31	279.167
852.61	1533.333
852.90	266.667
853.20	232.000
853.50	305.882
853.79	271.429
854.09	225.000
854.39	306.250
854.68	156.757
854.98	187.097
855.28	190.000
855.57	189.655
855.87	211.111
856.17	247.368
856.46	253.333
856.76	235.294
857.05	227.586
857.35	212.500
857.65	340.000
857.94	243.478
858.24	253.846
858.53	265.000
858.83	218.182
859.13	373.333
859.42	0.000
859.72	588.889
860.01	472.727
860.31	222.727
860.60	278.947
860.90	217.391
861.20	622.222
861.49	516.667
861.79	-4100.000
862.08	687.500
862.38	247.619
862.67	369.231
862.97	317.647
863.26	488.889
863.56	305.556
863.85	441.667
864.15	625.000
864.44	340.000
864.74	900.000
865.03	700.000
865.33	289.474
865.62	445.455
865.92	353.846
866.21	408.333
866.51	0.000
866.80	427.273
867.10	820.000
867.39	476.923
867.69	454.545
867.98	268.421
868.27	436.364
868.57	294.737
868.86	-3500.000
869.16	325.000
869.45	1900.000
869.75	-4700.000
870.04	458.333
870.33	671.429
870.63	1050.000
870.92	2550.000
871.22	728.571
871.51	358.824
871.80	223.810
872.10	435.714
>>>>>End Processed Spectral Data<<<<<
