SpectraSuite Data File
++++++++++++++++++++++++++++++++++++
Date: Wed May 13 16:24:32 PDT 2015
User: schluterlab
Dark Spectrum Present: Yes
Reference Spectrum Present: Yes
Number of Sampled Component Spectra: 1
Spectrometers: USB2E3373
Integration Time (usec): 3000 (USB2E3373)
Spectra Averaged: 3 (USB2E3373)
Boxcar Smoothing: 0 (USB2E3373)
Correct for Electrical Dark: No (USB2E3373)
Strobe/Lamp Enabled: No (USB2E3373)
Correct for Detector Non-linearity: No (USB2E3373)
Correct for Stray Light: No (USB2E3373)
Number of Pixels in Processed Spectrum: 2048
>>>>>Begin Processed Spectral Data<<<<<
178.53	0.000
178.91	-1075.000
179.29	-1250.000
179.67	-183.333
180.04	-1200.000
180.42	2450.000
180.80	860.000
181.18	-875.000
181.56	814.286
181.94	0.000
182.31	-642.857
182.69	1733.333
183.07	-525.000
183.45	-433.333
183.83	481.818
184.20	-300.000
184.58	2150.000
184.96	4200.000
185.34	-940.000
185.72	-687.500
186.09	-2600.000
186.47	1900.000
186.85	2600.000
187.23	4800.000
187.61	-1600.000
187.98	1075.000
188.36	609.091
188.74	518.182
189.12	-920.000
189.49	570.000
189.87	-4100.000
190.25	-975.000
190.63	335.714
191.00	415.385
191.38	683.333
191.76	-1050.000
192.14	1125.000
192.51	712.500
192.89	916.667
193.27	487.500
193.65	-1000.000
194.02	520.000
194.40	740.000
194.78	440.000
195.15	525.000
195.53	570.000
195.91	-1650.000
196.29	300.000
196.66	321.053
197.04	-320.000
197.42	0.000
197.79	700.000
198.17	-5000.000
198.55	728.571
198.92	675.000
199.30	1060.000
199.68	0.000
200.05	355.556
200.43	714.286
200.81	4400.000
201.18	1533.333
201.56	-1366.667
201.94	588.889
202.31	577.778
202.69	475.000
203.07	490.000
203.44	0.000
203.82	1250.000
204.19	814.286
204.57	392.857
204.95	512.500
205.32	1700.000
205.70	518.182
206.08	364.286
206.45	2150.000
206.83	406.250
207.20	916.667
207.58	640.000
207.96	305.556
208.33	662.500
208.71	-766.667
209.08	671.429
209.46	600.000
209.84	436.364
210.21	-1300.000
210.59	1475.000
210.96	-362.500
211.34	2550.000
211.71	540.000
212.09	800.000
212.46	0.000
212.84	1766.667
213.22	1350.000
213.59	-4100.000
213.97	916.667
214.34	657.143
214.72	563.636
215.09	880.000
215.47	-1600.000
215.84	-2550.000
216.22	1866.667
216.59	357.143
216.97	1375.000
217.34	436.364
217.72	-750.000
218.09	0.000
218.47	-4900.000
218.84	633.333
219.22	728.571
219.59	1733.333
219.97	-614.286
220.34	1020.000
220.72	-1833.333
221.09	378.571
221.47	1400.000
221.84	-750.000
222.22	0.000
222.59	1400.000
222.97	-1900.000
223.34	1060.000
223.72	453.846
224.09	1100.000
224.46	1650.000
224.84	-3900.000
225.21	-840.000
225.59	-4400.000
225.96	630.000
226.34	285.000
226.71	2800.000
227.08	687.500
227.46	360.000
227.83	-975.000
228.21	-1500.000
228.58	611.111
228.95	-2600.000
229.33	-1600.000
229.70	1533.333
230.08	671.429
230.45	-840.000
230.82	383.333
231.20	750.000
231.57	657.143
231.95	425.000
232.32	222.727
232.69	318.182
233.07	614.286
233.44	300.000
233.81	-1533.333
234.19	231.579
234.56	408.333
234.93	383.333
235.31	418.182
235.68	284.615
236.05	335.714
236.43	178.788
236.80	231.579
237.17	4900.000
237.55	200.000
237.92	175.000
238.29	228.571
238.67	154.839
239.04	137.931
239.41	147.222
239.79	97.826
240.16	104.762
240.53	120.455
240.91	82.353
241.28	98.000
241.65	72.000
242.02	84.058
242.40	83.871
242.77	71.667
243.14	45.161
243.51	60.674
243.89	55.294
244.26	38.889
244.63	45.161
245.00	37.234
245.38	32.673
245.75	30.841
246.12	35.780
246.49	43.796
246.87	38.400
247.24	38.462
247.61	34.286
247.98	26.797
248.36	29.054
248.73	24.841
249.10	33.121
249.47	28.249
249.84	31.551
250.22	27.807
250.59	28.402
250.96	26.263
251.33	26.066
251.70	26.238
252.08	23.333
252.45	21.973
252.82	20.000
253.19	18.723
253.56	21.176
253.94	22.407
254.31	21.094
254.68	18.077
255.05	19.188
255.42	17.073
255.79	16.912
256.16	20.939
256.54	16.254
256.91	17.794
257.28	10.791
257.65	16.172
258.02	17.702
258.39	16.719
258.76	14.047
259.14	16.964
259.51	13.982
259.88	16.770
260.25	15.408
260.62	14.162
260.99	13.665
261.36	16.216
261.73	13.181
262.10	14.244
262.47	12.676
262.85	16.156
263.22	12.251
263.59	13.105
263.96	14.011
264.33	15.405
264.70	14.474
265.07	14.578
265.44	13.131
265.81	9.732
266.18	10.553
266.55	11.951
266.92	11.057
267.29	14.583
267.66	13.303
268.03	12.045
268.40	12.850
268.77	8.115
269.14	11.712
269.51	12.641
269.88	11.422
270.25	11.287
270.62	11.685
270.99	12.688
271.36	13.090
271.73	7.477
272.10	10.652
272.47	11.183
272.84	10.173
273.21	12.788
273.58	10.699
273.95	9.853
274.32	10.124
274.69	9.208
275.06	9.449
275.43	12.128
275.80	9.419
276.17	9.776
276.54	10.603
276.91	7.115
277.28	10.156
277.65	10.832
278.02	8.903
278.39	11.523
278.76	10.364
279.13	10.566
279.50	11.359
279.87	10.359
280.23	11.178
280.60	10.832
280.97	8.133
281.34	11.150
281.71	10.545
282.08	9.021
282.45	8.727
282.82	8.703
283.19	5.348
283.56	9.825
283.92	9.306
284.29	8.995
284.66	9.619
285.03	6.510
285.40	7.923
285.77	6.902
286.14	8.808
286.51	9.000
286.87	10.085
287.24	8.306
287.61	7.705
287.98	9.091
288.35	9.350
288.72	8.567
289.08	8.138
289.45	7.249
289.82	11.220
290.19	7.378
290.56	7.810
290.93	6.042
291.29	7.055
291.66	8.997
292.03	9.012
292.40	8.517
292.77	5.178
293.13	6.119
293.50	7.726
293.87	8.000
294.24	7.704
294.60	5.822
294.97	7.558
295.34	8.463
295.71	7.670
296.08	5.983
296.44	6.740
296.81	5.945
297.18	6.369
297.55	4.485
297.91	5.409
298.28	6.426
298.65	8.094
299.02	6.851
299.38	6.109
299.75	4.987
300.12	4.598
300.48	6.375
300.85	6.165
301.22	4.968
301.59	5.051
301.95	5.038
302.32	5.648
302.69	6.332
303.05	6.424
303.42	5.309
303.79	5.776
304.15	5.711
304.52	4.403
304.89	5.226
305.25	6.729
305.62	6.002
305.99	5.903
306.35	5.481
306.72	5.045
307.09	5.216
307.45	6.081
307.82	5.022
308.19	5.960
308.55	5.717
308.92	5.048
309.29	4.752
309.65	5.726
310.02	5.074
310.38	5.484
310.75	5.597
311.12	4.811
311.48	5.538
311.85	6.499
312.22	5.723
312.58	5.198
312.95	6.653
313.31	5.146
313.68	5.717
314.05	7.396
314.41	5.327
314.78	4.632
315.14	4.866
315.51	5.149
315.87	5.941
316.24	5.660
316.61	5.945
316.97	4.892
317.34	4.110
317.70	4.780
318.07	5.390
318.43	4.305
318.80	5.155
319.16	4.708
319.53	4.690
319.89	5.714
320.26	6.900
320.62	6.052
320.99	5.354
321.35	6.263
321.72	6.468
322.08	5.528
322.45	6.567
322.81	6.589
323.18	6.647
323.54	6.122
323.91	7.170
324.27	5.545
324.64	4.660
325.00	6.673
325.37	6.642
325.73	7.720
326.10	6.355
326.46	6.631
326.83	6.644
327.19	5.465
327.56	6.359
327.92	5.862
328.29	6.744
328.65	5.985
329.01	6.588
329.38	6.383
329.74	6.741
330.11	6.503
330.47	6.336
330.84	7.813
331.20	6.648
331.56	7.798
331.93	6.019
332.29	6.389
332.66	6.195
333.02	5.210
333.38	6.865
333.75	6.417
334.11	6.940
334.48	6.389
334.84	6.526
335.20	6.818
335.57	5.530
335.93	6.250
336.29	7.234
336.66	6.041
337.02	5.882
337.38	6.667
337.75	6.774
338.11	6.625
338.47	6.722
338.84	6.233
339.20	5.963
339.56	6.843
339.93	6.091
340.29	5.797
340.65	6.328
341.02	7.068
341.38	6.495
341.74	5.614
342.11	6.026
342.47	6.696
342.83	7.021
343.20	6.234
343.56	5.897
343.92	4.912
344.28	6.037
344.65	6.449
345.01	5.724
345.37	5.317
345.73	6.768
346.10	5.456
346.46	6.102
346.82	5.766
347.19	5.681
347.55	4.269
347.91	6.311
348.27	6.327
348.63	6.355
349.00	6.392
349.36	5.419
349.72	6.175
350.08	5.429
350.45	6.835
350.81	5.686
351.17	6.645
351.53	5.324
351.89	4.785
352.26	7.419
352.62	6.095
352.98	5.592
353.34	6.491
353.70	5.074
354.07	5.645
354.43	5.397
354.79	5.068
355.15	6.145
355.51	6.635
355.87	4.816
356.24	5.293
356.60	5.132
356.96	6.114
357.32	5.233
357.68	5.827
358.04	5.226
358.40	6.176
358.77	7.590
359.13	5.051
359.49	5.882
359.85	4.683
360.21	4.864
360.57	5.992
360.93	6.308
361.29	5.896
361.66	5.263
362.02	5.746
362.38	4.943
362.74	6.027
363.10	4.515
363.46	4.622
363.82	5.442
364.18	5.653
364.54	6.315
364.90	5.737
365.26	4.706
365.62	5.186
365.98	4.456
366.35	4.513
366.71	5.495
367.07	4.370
367.43	5.588
367.79	6.210
368.15	6.106
368.51	5.160
368.87	5.639
369.23	4.901
369.59	6.010
369.95	4.485
370.31	5.627
370.67	5.217
371.03	5.843
371.39	5.685
371.75	4.706
372.11	5.548
372.47	5.718
372.83	5.692
373.19	4.624
373.55	4.582
373.91	5.817
374.27	5.155
374.63	4.582
374.99	5.650
375.35	4.536
375.71	5.072
376.07	5.761
376.42	5.089
376.78	5.169
377.14	4.885
377.50	5.232
377.86	4.987
378.22	5.057
378.58	4.699
378.94	5.405
379.30	4.262
379.66	5.076
380.02	5.283
380.38	4.372
380.74	4.382
381.09	5.012
381.45	5.163
381.81	5.405
382.17	5.478
382.53	5.094
382.89	5.185
383.25	4.378
383.61	5.204
383.97	4.753
384.32	4.803
384.68	4.957
385.04	4.917
385.40	4.768
385.76	4.975
386.12	5.376
386.48	6.293
386.83	5.581
387.19	5.628
387.55	5.566
387.91	4.595
388.27	4.905
388.62	5.470
388.98	4.545
389.34	5.757
389.70	4.966
390.06	5.196
390.42	4.994
390.77	5.662
391.13	5.424
391.49	5.647
391.85	4.965
392.20	3.659
392.56	4.924
392.92	4.944
393.28	3.787
393.64	5.276
393.99	5.315
394.35	5.025
394.71	5.395
395.07	4.548
395.42	5.439
395.78	5.025
396.14	5.897
396.50	5.702
396.85	4.959
397.21	4.871
397.57	5.518
397.92	5.529
398.28	4.316
398.64	5.735
399.00	4.701
399.35	4.061
399.71	4.919
400.07	5.263
400.42	4.969
400.78	5.368
401.14	5.183
401.49	4.597
401.85	4.598
402.21	4.012
402.57	4.874
402.92	4.981
403.28	4.997
403.63	4.827
403.99	4.331
404.35	5.636
404.70	4.856
405.06	4.659
405.42	5.178
405.77	4.971
406.13	4.628
406.49	5.441
406.84	5.080
407.20	5.024
407.55	4.914
407.91	5.200
408.27	4.340
408.62	5.418
408.98	5.331
409.34	4.367
409.69	5.355
410.05	5.514
410.40	5.321
410.76	5.078
411.11	5.428
411.47	5.367
411.83	5.498
412.18	4.824
412.54	5.044
412.89	5.422
413.25	4.664
413.60	5.497
413.96	5.404
414.31	5.468
414.67	5.006
415.03	5.298
415.38	4.510
415.74	4.823
416.09	5.225
416.45	5.288
416.80	5.089
417.16	5.496
417.51	5.773
417.87	5.395
418.22	4.984
418.58	5.810
418.93	5.160
419.29	5.602
419.64	5.290
420.00	5.488
420.35	5.507
420.71	5.559
421.06	5.131
421.42	4.912
421.77	4.765
422.12	4.380
422.48	4.371
422.83	4.892
423.19	5.525
423.54	4.991
423.90	5.797
424.25	4.913
424.61	4.762
424.96	5.131
425.31	4.928
425.67	5.056
426.02	5.600
426.38	5.617
426.73	5.266
427.09	5.410
427.44	5.578
427.79	4.945
428.15	5.536
428.50	5.032
428.85	5.244
429.21	4.583
429.56	4.769
429.92	4.781
430.27	4.816
430.62	5.376
430.98	5.708
431.33	5.567
431.68	5.707
432.04	5.431
432.39	4.969
432.74	5.506
433.10	5.093
433.45	5.889
433.80	4.712
434.16	5.609
434.51	5.421
434.86	6.214
435.22	5.170
435.57	5.046
435.92	4.154
436.28	5.279
436.63	6.457
436.98	4.923
437.34	5.665
437.69	5.426
438.04	5.115
438.39	5.134
438.75	6.159
439.10	5.084
439.45	5.667
439.81	4.773
440.16	5.251
440.51	5.624
440.86	5.269
441.22	4.839
441.57	5.679
441.92	5.681
442.27	5.544
442.63	5.161
442.98	5.859
443.33	5.924
443.68	5.318
444.03	5.173
444.39	4.966
444.74	5.357
445.09	5.175
445.44	5.413
445.79	5.542
446.15	6.088
446.50	4.900
446.85	5.344
447.20	5.558
447.55	5.304
447.91	5.350
448.26	5.175
448.61	5.596
448.96	6.478
449.31	5.849
449.66	5.402
450.02	4.680
450.37	5.045
450.72	5.527
451.07	5.302
451.42	6.201
451.77	5.344
452.12	5.485
452.47	5.784
452.83	4.429
453.18	5.746
453.53	5.999
453.88	4.962
454.23	6.157
454.58	6.844
454.93	6.103
455.28	5.050
455.63	5.340
455.98	7.024
456.34	6.219
456.69	5.448
457.04	5.573
457.39	5.611
457.74	5.049
458.09	5.693
458.44	5.815
458.79	4.772
459.14	5.418
459.49	5.721
459.84	5.319
460.19	5.893
460.54	5.556
460.89	5.485
461.24	5.464
461.59	7.147
461.94	5.734
462.29	5.697
462.64	5.871
462.99	5.595
463.34	6.467
463.69	5.441
464.04	6.029
464.39	5.797
464.74	6.239
465.09	5.428
465.44	5.319
465.79	5.481
466.14	5.857
466.49	4.727
466.84	6.421
467.19	6.457
467.54	5.938
467.89	5.882
468.24	5.934
468.59	5.800
468.94	5.376
469.29	5.848
469.64	6.961
469.99	6.225
470.34	5.680
470.68	5.532
471.03	6.327
471.38	6.463
471.73	6.329
472.08	6.513
472.43	5.653
472.78	6.386
473.13	5.969
473.48	5.993
473.83	6.220
474.17	5.787
474.52	5.893
474.87	6.246
475.22	5.920
475.57	5.696
475.92	5.098
476.27	5.524
476.61	5.405
476.96	5.223
477.31	5.390
477.66	4.705
478.01	5.384
478.36	5.817
478.70	4.777
479.05	5.644
479.40	5.015
479.75	5.440
480.10	4.970
480.45	4.950
480.79	5.208
481.14	5.186
481.49	5.458
481.84	5.075
482.19	5.316
482.53	5.046
482.88	4.933
483.23	5.374
483.58	5.232
483.92	4.967
484.27	4.314
484.62	4.957
484.97	4.572
485.31	4.760
485.66	3.933
486.01	3.464
486.36	3.319
486.70	3.386
487.05	3.541
487.40	3.805
487.75	4.080
488.09	3.943
488.44	3.836
488.79	4.665
489.13	4.775
489.48	4.486
489.83	4.834
490.17	4.516
490.52	4.694
490.87	4.704
491.22	5.184
491.56	4.692
491.91	5.351
492.26	5.053
492.60	5.253
492.95	4.443
493.30	4.626
493.64	4.620
493.99	5.153
494.34	4.995
494.68	5.082
495.03	5.357
495.37	5.026
495.72	4.581
496.07	5.151
496.41	4.823
496.76	4.705
497.11	4.908
497.45	4.518
497.80	4.798
498.14	4.589
498.49	4.244
498.84	4.794
499.18	5.476
499.53	4.416
499.87	5.126
500.22	5.087
500.56	5.388
500.91	4.712
501.26	4.931
501.60	5.268
501.95	4.675
502.29	4.827
502.64	5.447
502.98	4.628
503.33	5.027
503.67	4.780
504.02	5.379
504.36	5.475
504.71	4.983
505.06	5.012
505.40	5.153
505.75	5.014
506.09	5.005
506.44	5.427
506.78	4.968
507.13	4.493
507.47	5.101
507.82	5.319
508.16	5.370
508.51	5.124
508.85	5.065
509.19	4.745
509.54	5.459
509.88	5.152
510.23	5.193
510.57	5.366
510.92	5.282
511.26	5.396
511.61	5.498
511.95	5.010
512.30	4.984
512.64	5.588
512.98	6.056
513.33	5.835
513.67	5.496
514.02	5.574
514.36	6.008
514.70	5.645
515.05	4.685
515.39	5.552
515.74	5.631
516.08	6.037
516.42	6.160
516.77	5.574
517.11	5.438
517.46	5.926
517.80	5.691
518.14	5.732
518.49	5.368
518.83	5.739
519.17	6.062
519.52	5.886
519.86	6.332
520.20	6.532
520.55	5.446
520.89	6.326
521.23	6.092
521.58	6.182
521.92	6.124
522.26	5.613
522.61	5.732
522.95	6.077
523.29	6.391
523.64	6.646
523.98	5.607
524.32	6.031
524.66	5.953
525.01	6.066
525.35	5.948
525.69	5.727
526.04	5.919
526.38	6.101
526.72	6.196
527.06	7.031
527.41	5.631
527.75	6.559
528.09	6.808
528.43	6.310
528.78	7.130
529.12	5.879
529.46	6.307
529.80	5.879
530.15	6.604
530.49	5.662
530.83	6.519
531.17	6.723
531.51	6.550
531.86	6.774
532.20	6.780
532.54	7.431
532.88	6.354
533.22	6.309
533.57	5.741
533.91	6.382
534.25	6.318
534.59	6.467
534.93	6.484
535.27	6.276
535.62	6.227
535.96	6.529
536.30	6.103
536.64	5.731
536.98	6.967
537.32	6.254
537.66	6.867
538.01	6.386
538.35	6.981
538.69	6.509
539.03	5.653
539.37	5.815
539.71	5.314
540.05	6.275
540.39	6.246
540.73	6.792
541.07	7.463
541.42	6.784
541.76	6.774
542.10	6.662
542.44	5.828
542.78	7.312
543.12	5.950
543.46	6.230
543.80	7.157
544.14	5.969
544.48	6.286
544.82	6.094
545.16	6.051
545.50	6.427
545.84	5.511
546.18	6.465
546.52	6.469
546.86	6.667
547.20	7.215
547.54	6.814
547.88	7.717
548.22	6.413
548.56	6.730
548.90	5.762
549.24	6.532
549.58	6.753
549.92	6.319
550.26	6.889
550.60	7.261
550.94	7.042
551.28	5.413
551.62	6.470
551.96	6.877
552.30	6.894
552.64	6.423
552.98	6.441
553.32	6.945
553.66	7.498
554.00	7.344
554.34	6.970
554.68	7.368
555.02	6.559
555.36	7.237
555.69	6.225
556.03	6.460
556.37	6.207
556.71	6.889
557.05	6.933
557.39	7.558
557.73	6.493
558.07	7.252
558.41	6.585
558.75	6.319
559.08	7.383
559.42	6.349
559.76	6.838
560.10	7.352
560.44	6.639
560.78	6.321
561.12	6.794
561.45	6.845
561.79	6.987
562.13	6.237
562.47	7.309
562.81	6.764
563.15	7.425
563.48	7.294
563.82	6.067
564.16	6.017
564.50	5.534
564.84	6.511
565.17	5.727
565.51	6.518
565.85	7.170
566.19	5.761
566.52	5.826
566.86	6.028
567.20	7.017
567.54	6.393
567.88	5.758
568.21	6.190
568.55	5.207
568.89	5.496
569.23	5.169
569.56	5.587
569.90	4.906
570.24	5.059
570.57	4.794
570.91	4.428
571.25	4.324
571.59	4.477
571.92	4.435
572.26	4.362
572.60	4.535
572.93	5.037
573.27	4.496
573.61	4.606
573.95	4.548
574.28	4.146
574.62	4.203
574.96	4.277
575.29	4.413
575.63	4.294
575.97	4.426
576.30	4.647
576.64	4.170
576.98	4.035
577.31	4.090
577.65	4.126
577.98	3.920
578.32	4.071
578.66	4.256
578.99	4.154
579.33	4.188
579.67	4.135
580.00	4.100
580.34	3.939
580.67	4.231
581.01	4.475
581.35	4.091
581.68	4.315
582.02	3.743
582.35	3.797
582.69	3.847
583.02	3.829
583.36	4.289
583.70	4.196
584.03	4.258
584.37	4.506
584.70	4.232
585.04	4.525
585.37	4.450
585.71	4.417
586.04	4.252
586.38	4.206
586.72	4.584
587.05	4.075
587.39	4.274
587.72	4.483
588.06	4.562
588.39	4.417
588.73	4.312
589.06	4.986
589.40	4.478
589.73	4.893
590.07	4.769
590.40	4.932
590.73	4.879
591.07	5.495
591.40	5.483
591.74	5.541
592.07	5.366
592.41	5.333
592.74	4.944
593.08	4.997
593.41	5.125
593.75	4.809
594.08	4.459
594.41	5.090
594.75	5.323
595.08	4.975
595.42	4.869
595.75	4.594
596.09	4.994
596.42	5.697
596.75	5.361
597.09	5.844
597.42	4.975
597.75	5.520
598.09	5.652
598.42	5.498
598.76	4.945
599.09	4.599
599.42	4.985
599.76	5.307
600.09	4.845
600.42	4.821
600.76	4.714
601.09	5.064
601.42	5.175
601.76	5.161
602.09	4.980
602.42	5.454
602.76	5.320
603.09	5.271
603.42	5.623
603.76	5.183
604.09	5.157
604.42	5.300
604.76	6.369
605.09	5.374
605.42	5.729
605.75	5.132
606.09	4.880
606.42	4.659
606.75	5.226
607.09	5.693
607.42	4.664
607.75	5.316
608.08	4.776
608.42	5.513
608.75	5.050
609.08	5.643
609.41	5.569
609.75	5.669
610.08	6.221
610.41	5.214
610.74	5.061
611.07	5.188
611.41	5.447
611.74	5.732
612.07	5.694
612.40	6.139
612.73	5.526
613.07	5.873
613.40	5.424
613.73	5.401
614.06	5.645
614.39	6.450
614.72	5.842
615.06	6.250
615.39	5.096
615.72	5.828
616.05	5.582
616.38	6.059
616.71	5.760
617.05	5.713
617.38	6.434
617.71	5.886
618.04	6.310
618.37	6.091
618.70	6.347
619.03	7.434
619.36	6.314
619.69	6.268
620.03	6.731
620.36	6.885
620.69	6.301
621.02	6.490
621.35	6.735
621.68	6.698
622.01	7.895
622.34	7.262
622.67	6.464
623.00	6.676
623.33	6.576
623.66	6.719
623.99	6.480
624.32	7.347
624.65	6.921
624.99	5.170
625.32	6.083
625.65	6.687
625.98	6.995
626.31	7.465
626.64	7.102
626.97	7.066
627.30	6.983
627.63	7.137
627.96	7.065
628.29	6.124
628.62	8.051
628.95	7.736
629.28	7.573
629.61	8.066
629.94	7.048
630.26	7.340
630.59	7.531
630.92	7.375
631.25	7.897
631.58	7.908
631.91	8.316
632.24	7.068
632.57	8.709
632.90	8.114
633.23	8.277
633.56	9.718
633.89	9.173
634.22	8.513
634.55	9.231
634.88	8.263
635.20	8.483
635.53	9.277
635.86	8.540
636.19	8.471
636.52	8.304
636.85	9.507
637.18	7.719
637.51	9.693
637.83	7.152
638.16	9.463
638.49	9.068
638.82	9.987
639.15	9.500
639.48	9.726
639.81	9.249
640.13	9.375
640.46	9.664
640.79	9.511
641.12	8.666
641.45	9.078
641.77	10.015
642.10	11.696
642.43	9.760
642.76	10.372
643.09	9.969
643.41	11.229
643.74	11.265
644.07	9.604
644.40	11.043
644.73	11.181
645.05	12.044
645.38	10.742
645.71	10.628
646.04	11.794
646.36	10.518
646.69	11.204
647.02	10.884
647.35	11.512
647.67	10.265
648.00	11.382
648.33	10.726
648.66	11.515
648.98	12.144
649.31	9.417
649.64	10.463
649.96	9.240
650.29	11.848
650.62	11.327
650.94	11.669
651.27	13.345
651.60	11.148
651.92	11.661
652.25	8.632
652.58	12.150
652.90	11.690
653.23	9.553
653.56	9.449
653.88	11.886
654.21	12.006
654.54	10.561
654.86	10.748
655.19	9.189
655.52	4.722
655.84	3.198
656.17	3.532
656.49	4.709
656.82	4.728
657.15	3.774
657.47	2.885
657.80	2.528
658.13	2.565
658.45	3.666
658.78	4.107
659.10	4.308
659.43	4.833
659.75	5.226
660.08	5.380
660.41	8.566
660.73	9.276
661.06	11.624
661.38	11.636
661.71	11.538
662.03	13.609
662.36	10.934
662.68	11.245
663.01	13.939
663.33	12.314
663.66	12.815
663.98	11.663
664.31	12.395
664.63	12.753
664.96	10.865
665.28	12.910
665.61	12.086
665.93	13.481
666.26	9.533
666.58	11.506
666.91	13.953
667.23	14.157
667.56	12.311
667.88	12.821
668.21	14.286
668.53	14.967
668.86	11.905
669.18	14.286
669.50	11.739
669.83	16.340
670.15	12.667
670.48	11.983
670.80	13.578
671.13	13.163
671.45	11.489
671.77	10.998
672.10	14.048
672.42	10.777
672.75	12.604
673.07	10.035
673.39	11.031
673.72	9.375
674.04	12.941
674.37	12.621
674.69	11.452
675.01	11.088
675.34	14.784
675.66	14.105
675.98	13.238
676.31	14.286
676.63	11.253
676.95	14.885
677.28	10.748
677.60	14.505
677.92	14.557
678.25	12.936
678.57	13.745
678.89	11.623
679.22	12.377
679.54	13.168
679.86	12.294
680.18	10.197
680.51	11.525
680.83	12.989
681.15	11.698
681.48	12.098
681.80	11.412
682.12	11.494
682.44	10.638
682.77	12.424
683.09	13.734
683.41	11.752
683.73	13.245
684.06	12.190
684.38	11.742
684.70	14.147
685.02	13.508
685.34	12.637
685.67	9.790
685.99	9.450
686.31	11.263
686.63	8.304
686.96	8.750
687.28	11.913
687.60	11.413
687.92	13.346
688.24	11.787
688.56	13.052
688.89	13.693
689.21	13.755
689.53	13.570
689.85	13.747
690.17	10.559
690.49	14.650
690.82	11.916
691.14	11.161
691.46	13.502
691.78	12.249
692.10	11.570
692.42	13.573
692.74	12.241
693.06	14.255
693.39	13.552
693.71	12.664
694.03	13.263
694.35	14.935
694.67	12.128
694.99	14.878
695.31	12.010
695.63	15.311
695.95	14.670
696.27	11.675
696.59	14.508
696.91	17.098
697.23	13.615
697.56	11.514
697.88	10.020
698.20	12.708
698.52	12.043
698.84	12.918
699.16	14.286
699.48	15.677
699.80	14.251
700.12	15.844
700.44	12.467
700.76	14.917
701.08	14.943
701.40	14.804
701.72	18.659
702.04	20.170
702.36	14.164
702.68	16.714
703.00	14.958
703.32	12.766
703.64	16.354
703.96	15.320
704.28	15.698
704.60	19.062
704.91	16.617
705.23	16.716
705.55	17.940
705.87	23.920
706.19	14.488
706.51	19.003
706.83	17.576
707.15	17.087
707.47	15.657
707.79	16.216
708.11	16.210
708.43	15.476
708.74	14.031
709.06	16.883
709.38	14.961
709.70	16.860
710.02	17.211
710.34	14.848
710.66	20.000
710.98	19.034
711.29	17.733
711.61	22.714
711.93	14.103
712.25	18.971
712.57	17.647
712.89	17.647
713.20	18.845
713.52	17.434
713.84	17.722
714.16	16.768
714.48	14.943
714.80	18.845
715.11	15.274
715.43	15.727
715.75	17.391
716.07	17.891
716.39	14.734
716.70	22.259
717.02	18.345
717.34	22.615
717.66	20.896
717.97	19.124
718.29	21.111
718.61	18.248
718.93	19.118
719.24	19.377
719.56	20.678
719.88	19.661
720.20	19.595
720.51	20.906
720.83	23.420
721.15	20.149
721.46	21.631
721.78	23.297
722.10	18.113
722.42	19.925
722.73	22.846
723.05	18.852
723.37	20.648
723.68	19.305
724.00	20.732
724.32	18.548
724.63	18.293
724.95	23.849
725.27	24.696
725.58	24.219
725.90	23.358
726.22	20.000
726.53	20.486
726.85	20.819
727.16	18.149
727.48	18.085
727.80	20.076
728.11	18.841
728.43	20.000
728.74	18.638
729.06	21.168
729.38	24.632
729.69	19.573
730.01	15.017
730.32	17.708
730.64	18.729
730.96	13.861
731.27	17.550
731.59	16.820
731.90	15.743
732.22	17.391
732.53	16.099
732.85	21.154
733.16	17.363
733.48	16.611
733.80	17.532
734.11	17.197
734.43	17.751
734.74	16.571
735.06	15.473
735.37	18.497
735.69	14.013
736.00	15.686
736.32	17.757
736.63	13.738
736.95	16.613
737.26	10.544
737.58	12.581
737.89	18.729
738.21	16.724
738.52	22.857
738.83	16.226
739.15	18.077
739.46	19.708
739.78	18.750
740.09	20.615
740.41	20.645
740.72	16.725
741.04	23.333
741.35	21.250
741.66	24.444
741.98	24.057
742.29	27.751
742.61	27.586
742.92	21.267
743.23	20.513
743.55	24.800
743.86	21.491
744.18	31.416
744.49	23.445
744.80	27.230
745.12	26.818
745.43	26.872
745.74	23.874
746.06	22.936
746.37	26.009
746.68	25.792
747.00	24.537
747.31	23.333
747.62	18.142
747.94	22.907
748.25	20.426
748.56	27.313
748.88	27.228
749.19	31.500
749.50	20.930
749.82	21.545
750.13	19.592
750.44	20.073
750.75	16.140
751.07	21.222
751.38	19.512
751.69	19.134
752.01	18.045
752.32	19.495
752.63	20.567
752.94	22.131
753.26	23.200
753.57	21.545
753.88	25.781
754.19	18.929
754.51	21.181
754.82	15.884
755.13	21.887
755.44	18.421
755.75	20.438
756.07	18.794
756.38	16.058
756.69	18.121
757.00	16.467
757.31	18.398
757.63	12.865
757.94	17.426
758.25	16.422
758.56	15.556
758.87	15.323
759.18	17.576
759.50	15.987
759.81	18.692
760.12	15.937
760.43	17.192
760.74	15.489
761.05	17.514
761.36	13.636
761.67	16.477
761.99	17.081
762.30	16.319
762.61	15.267
762.92	19.141
763.23	22.269
763.54	21.600
763.85	19.531
764.16	20.769
764.47	22.053
764.78	15.548
765.10	17.089
765.41	18.289
765.72	18.563
766.03	16.928
766.34	16.333
766.65	22.128
766.96	22.650
767.27	27.411
767.58	31.250
767.89	28.421
768.20	28.736
768.51	25.888
768.82	23.853
769.13	20.732
769.44	18.623
769.75	18.455
770.06	16.972
770.37	23.077
770.68	25.463
770.99	20.889
771.30	16.393
771.61	19.731
771.92	22.131
772.23	24.370
772.54	25.128
772.85	26.702
773.16	28.723
773.47	25.000
773.78	26.396
774.09	23.810
774.39	37.427
774.70	25.926
775.01	36.957
775.32	36.601
775.63	30.921
775.94	30.935
776.25	37.795
776.56	41.791
776.87	33.607
777.18	31.250
777.48	39.695
777.79	33.333
778.10	40.000
778.41	41.964
778.72	31.387
779.03	32.215
779.34	33.557
779.65	33.108
779.95	32.515
780.26	32.680
780.57	31.724
780.88	44.531
781.19	33.083
781.50	39.189
781.80	38.994
782.11	29.944
782.42	34.177
782.73	35.583
783.04	34.459
783.34	38.028
783.65	47.260
783.96	41.791
784.27	34.266
784.57	37.410
784.88	28.704
785.19	46.825
785.50	42.453
785.81	51.493
786.11	47.541
786.42	35.659
786.73	38.053
787.04	48.113
787.34	42.857
787.65	47.000
787.96	48.649
788.26	47.107
788.57	51.695
788.88	37.190
789.19	36.111
789.49	49.242
789.80	46.565
790.11	48.571
790.41	48.515
790.72	42.169
791.03	57.609
791.33	56.977
791.64	52.577
791.95	59.406
792.25	53.333
792.56	55.844
792.87	65.385
793.17	65.823
793.48	54.023
793.79	60.920
794.09	51.136
794.40	51.261
794.70	46.324
795.01	31.111
795.32	40.288
795.62	47.244
795.93	44.828
796.23	34.513
796.54	52.941
796.85	56.757
797.15	69.014
797.46	62.121
797.76	63.855
798.07	65.823
798.37	50.769
798.68	68.182
798.99	66.197
799.29	72.727
799.60	56.818
799.90	61.644
800.21	82.090
800.51	70.690
800.82	82.456
801.12	77.049
801.43	93.939
801.73	60.811
802.04	77.778
802.34	79.012
802.65	67.188
802.95	98.305
803.26	78.125
803.56	68.571
803.87	81.538
804.17	60.294
804.48	98.148
804.78	82.759
805.09	67.647
805.39	80.769
805.70	82.143
806.00	73.770
806.30	50.000
806.61	60.976
806.91	53.165
807.22	57.895
807.52	61.194
807.83	69.014
808.13	76.563
808.43	78.333
808.74	56.579
809.04	72.464
809.35	59.701
809.65	78.947
809.95	111.290
810.26	79.661
810.56	92.063
810.86	104.545
811.17	140.476
811.47	75.000
811.77	81.481
812.08	90.909
812.38	96.000
812.69	116.667
812.99	113.636
813.29	112.245
813.59	78.571
813.90	100.000
814.20	92.727
814.50	69.231
814.81	86.765
815.11	95.918
815.41	72.131
815.72	121.429
816.02	100.000
816.32	111.905
816.62	87.500
816.93	109.756
817.23	95.238
817.53	109.091
817.84	139.394
818.14	117.391
818.44	113.333
818.74	152.941
819.04	117.500
819.35	134.286
819.65	152.941
819.95	125.000
820.25	155.000
820.56	123.077
820.86	138.636
821.16	113.953
821.46	120.513
821.76	116.000
822.07	151.429
822.37	140.000
822.67	100.000
822.97	88.235
823.27	160.714
823.57	94.595
823.88	137.500
824.18	190.000
824.48	109.524
824.78	152.000
825.08	129.167
825.38	143.243
825.69	134.146
825.99	158.333
826.29	127.586
826.59	121.053
826.89	163.158
827.19	161.765
827.49	174.194
827.79	147.727
828.09	106.818
828.39	102.128
828.70	100.000
829.00	144.444
829.30	138.710
829.60	105.000
829.90	286.667
830.20	153.571
830.50	156.522
830.80	178.261
831.10	153.333
831.40	143.333
831.70	139.130
832.00	180.769
832.30	174.074
832.60	268.750
832.90	200.000
833.20	307.143
833.50	167.742
833.80	172.414
834.10	178.125
834.40	200.000
834.70	250.000
835.00	233.333
835.30	171.429
835.60	284.615
835.90	162.069
836.20	264.286
836.50	168.966
836.80	164.000
837.10	152.778
837.40	242.857
837.70	252.941
838.00	203.704
838.30	204.762
838.60	300.000
838.90	203.846
839.19	215.000
839.49	314.286
839.79	310.000
840.09	270.000
840.39	271.429
840.69	243.478
840.99	227.778
841.29	430.000
841.59	283.333
841.88	306.250
842.18	175.862
842.48	257.143
842.78	183.333
843.08	243.478
843.38	178.125
843.68	833.333
843.97	226.923
844.27	189.655
844.57	261.905
844.87	350.000
845.17	237.037
845.47	1300.000
845.76	455.556
846.06	264.706
846.36	462.500
846.66	328.571
846.96	306.250
847.25	390.909
847.55	318.182
847.85	282.609
848.15	410.000
848.44	314.286
848.74	261.111
849.04	264.706
849.34	590.000
849.63	242.105
849.93	418.182
850.23	880.000
850.53	357.143
850.82	2200.000
851.12	-3200.000
851.42	4900.000
851.71	235.000
852.01	-1300.000
852.31	233.333
852.61	1733.333
852.90	271.429
853.20	228.000
853.50	294.118
853.79	242.857
854.09	195.833
854.39	343.750
854.68	172.973
854.98	161.290
855.28	160.000
855.57	179.310
855.87	229.630
856.17	200.000
856.46	246.667
856.76	247.059
857.05	186.207
857.35	220.833
857.65	246.667
857.94	200.000
858.24	207.692
858.53	310.000
858.83	186.364
859.13	320.000
859.42	0.000
859.72	500.000
860.01	409.091
860.31	213.636
860.60	252.632
860.90	200.000
861.20	633.333
861.49	391.667
861.79	-4400.000
862.08	512.500
862.38	228.571
862.67	330.769
862.97	300.000
863.26	500.000
863.56	244.444
863.85	400.000
864.15	575.000
864.44	340.000
864.74	633.333
865.03	675.000
865.33	289.474
865.62	418.182
865.92	346.154
866.21	333.333
866.51	0.000
866.80	490.909
867.10	960.000
867.39	407.692
867.69	518.182
867.98	284.211
868.27	500.000
868.57	331.579
868.86	-4200.000
869.16	343.750
869.45	2100.000
869.75	-4100.000
870.04	450.000
870.33	600.000
870.63	825.000
870.92	2350.000
871.22	685.714
871.51	323.529
871.80	261.905
872.10	357.143
>>>>>End Processed Spectral Data<<<<<
