SpectraSuite Data File
++++++++++++++++++++++++++++++++++++
Date: Wed May 13 16:34:35 PDT 2015
User: schluterlab
Dark Spectrum Present: Yes
Reference Spectrum Present: Yes
Number of Sampled Component Spectra: 1
Spectrometers: USB2E3373
Integration Time (usec): 3000 (USB2E3373)
Spectra Averaged: 3 (USB2E3373)
Boxcar Smoothing: 0 (USB2E3373)
Correct for Electrical Dark: No (USB2E3373)
Strobe/Lamp Enabled: No (USB2E3373)
Correct for Detector Non-linearity: No (USB2E3373)
Correct for Stray Light: No (USB2E3373)
Number of Pixels in Processed Spectrum: 2048
>>>>>Begin Processed Spectral Data<<<<<
178.53	0.000
178.91	-1175.000
179.29	-1375.000
179.67	-233.333
180.04	-1175.000
180.42	2300.000
180.80	980.000
181.18	-925.000
181.56	657.143
181.94	0.000
182.31	-728.571
182.69	1666.667
183.07	-550.000
183.45	-466.667
183.83	563.636
184.20	-380.000
184.58	2150.000
184.96	6300.000
185.34	-920.000
185.72	-500.000
186.09	-1850.000
186.47	2550.000
186.85	2350.000
187.23	4800.000
187.61	-1600.000
187.98	1350.000
188.36	409.091
188.74	472.727
189.12	-660.000
189.49	480.000
189.87	-4600.000
190.25	-1300.000
190.63	464.286
191.00	392.308
191.38	883.333
191.76	-1025.000
192.14	1300.000
192.51	562.500
192.89	916.667
193.27	600.000
193.65	-1050.000
194.02	580.000
194.40	820.000
194.78	570.000
195.15	491.667
195.53	680.000
195.91	-1600.000
196.29	331.250
196.66	321.053
197.04	-280.000
197.42	0.000
197.79	550.000
198.17	-4100.000
198.55	728.571
198.92	600.000
199.30	1000.000
199.68	0.000
200.05	333.333
200.43	728.571
200.81	4700.000
201.18	2000.000
201.56	-1300.000
201.94	522.222
202.31	522.222
202.69	408.333
203.07	550.000
203.44	0.000
203.82	1125.000
204.19	742.857
204.57	414.286
204.95	600.000
205.32	1366.667
205.70	454.545
206.08	307.143
206.45	2250.000
206.83	381.250
207.20	783.333
207.58	840.000
207.96	283.333
208.33	725.000
208.71	-800.000
209.08	814.286
209.46	588.889
209.84	463.636
210.21	-1366.667
210.59	1550.000
210.96	-462.500
211.34	2300.000
211.71	570.000
212.09	733.333
212.46	0.000
212.84	1733.333
213.22	1075.000
213.59	-4600.000
213.97	916.667
214.34	771.429
214.72	645.455
215.09	980.000
215.47	-2100.000
215.84	-2300.000
216.22	1833.333
216.59	371.429
216.97	1150.000
217.34	427.273
217.72	-733.333
218.09	0.000
218.47	-4400.000
218.84	722.222
219.22	700.000
219.59	1466.667
219.97	-471.429
220.34	1080.000
220.72	-1600.000
221.09	292.857
221.47	1400.000
221.84	-783.333
222.22	0.000
222.59	1225.000
222.97	-2350.000
223.34	1160.000
223.72	400.000
224.09	960.000
224.46	2100.000
224.84	-5600.000
225.21	-1240.000
225.59	-4800.000
225.96	670.000
226.34	250.000
226.71	2400.000
227.08	650.000
227.46	530.000
227.83	-1175.000
228.21	-1950.000
228.58	688.889
228.95	-2500.000
229.33	-2200.000
229.70	1666.667
230.08	800.000
230.45	-840.000
230.82	400.000
231.20	766.667
231.57	685.714
231.95	425.000
232.32	236.364
232.69	390.909
233.07	600.000
233.44	392.308
233.81	-1733.333
234.19	242.105
234.56	466.667
234.93	375.000
235.31	345.455
235.68	346.154
236.05	364.286
236.43	163.636
236.80	294.737
237.17	3500.000
237.55	214.286
237.92	239.286
238.29	209.524
238.67	170.968
239.04	186.207
239.41	152.778
239.79	130.435
240.16	138.095
240.53	156.818
240.91	105.882
241.28	98.000
241.65	94.000
242.02	105.797
242.40	83.871
242.77	83.333
243.14	86.022
243.51	83.146
243.89	74.118
244.26	66.667
244.63	66.667
245.00	61.702
245.38	63.366
245.75	58.879
246.12	45.872
246.49	56.204
246.87	61.600
247.24	60.000
247.61	53.571
247.98	47.059
248.36	51.351
248.73	49.682
249.10	50.955
249.47	45.198
249.84	47.059
250.22	42.246
250.59	42.604
250.96	44.949
251.33	40.758
251.70	44.059
252.08	42.857
252.45	37.220
252.82	36.087
253.19	40.000
253.56	39.608
253.94	36.515
254.31	37.891
254.68	39.615
255.05	38.745
255.42	36.179
255.79	37.868
256.16	41.155
256.54	29.682
256.91	34.875
257.28	31.295
257.65	32.673
258.02	33.851
258.39	33.754
258.76	33.779
259.14	34.226
259.51	32.219
259.88	30.124
260.25	35.650
260.62	32.370
260.99	32.609
261.36	28.829
261.73	29.513
262.10	29.360
262.47	34.085
262.85	30.641
263.22	31.054
263.59	32.479
263.96	29.945
264.33	30.026
264.70	30.263
265.07	32.225
265.44	28.535
265.81	27.494
266.18	30.151
266.55	30.000
266.92	30.221
267.29	29.398
267.66	30.505
268.03	29.773
268.40	28.738
268.77	27.924
269.14	28.378
269.51	29.120
269.88	29.371
270.25	28.668
270.62	26.966
270.99	28.172
271.36	28.755
271.73	27.103
272.10	27.391
272.47	29.032
272.84	28.139
273.21	28.931
273.58	27.511
273.95	27.044
274.32	24.380
274.69	27.409
275.06	25.394
275.43	28.298
275.80	26.653
276.17	25.458
276.54	28.690
276.91	28.458
277.28	26.953
277.65	25.919
278.02	25.466
278.39	28.125
278.76	25.273
279.13	27.736
279.50	25.512
279.87	25.697
280.23	24.351
280.60	26.306
280.97	24.030
281.34	27.788
281.71	24.545
282.08	25.720
282.45	24.727
282.82	26.643
283.19	21.390
283.56	25.088
283.92	24.196
284.29	25.220
284.66	25.953
285.03	23.689
285.40	23.768
285.77	24.074
286.14	23.834
286.51	24.667
286.87	25.641
287.24	23.941
287.61	23.274
287.98	23.701
288.35	22.345
288.72	24.766
289.08	23.631
289.45	24.217
289.82	23.089
290.19	20.565
290.56	22.971
290.93	20.393
291.29	22.086
291.66	21.386
292.03	22.529
292.40	23.348
292.77	20.562
293.13	21.493
293.50	23.178
293.87	20.741
294.24	20.000
294.60	19.942
294.97	20.785
295.34	21.580
295.71	19.034
296.08	20.085
296.44	20.495
296.81	18.890
297.18	20.596
297.55	18.865
297.91	19.261
298.28	19.545
298.65	18.668
299.02	18.972
299.38	19.124
299.75	16.307
300.12	19.285
300.48	19.250
300.85	18.742
301.22	18.854
301.59	18.434
301.95	19.270
302.32	16.303
302.69	19.116
303.05	18.061
303.42	17.654
303.79	19.706
304.15	15.734
304.52	17.613
304.89	17.770
305.25	18.910
305.62	17.894
305.99	18.300
306.35	17.673
306.72	18.274
307.09	17.425
307.45	17.905
307.82	17.299
308.19	18.543
308.55	18.123
308.92	16.864
309.29	16.051
309.65	16.967
310.02	17.442
310.38	18.387
310.75	18.585
311.12	17.400
311.48	17.555
311.85	18.868
312.22	18.210
312.58	17.983
312.95	18.163
313.31	16.796
313.68	19.231
314.05	18.442
314.41	18.291
314.78	17.925
315.14	18.471
315.51	18.744
315.87	18.317
316.24	18.371
316.61	18.226
316.97	18.297
317.34	19.667
317.70	20.172
318.07	20.597
318.43	20.059
318.80	20.150
319.16	21.375
319.53	19.700
319.89	20.190
320.26	22.600
320.62	20.635
320.99	22.626
321.35	22.525
321.72	20.945
322.08	23.001
322.45	23.483
322.81	23.353
323.18	23.892
323.54	22.913
323.91	24.245
324.27	23.136
324.64	23.579
325.00	23.715
325.37	25.387
325.73	25.494
326.10	25.066
326.46	25.269
326.83	26.143
327.19	25.448
327.56	26.220
327.92	26.422
328.29	27.950
328.65	26.888
329.01	26.715
329.38	27.475
329.74	26.962
330.11	28.087
330.47	27.273
330.84	28.309
331.20	26.958
331.56	28.165
331.93	28.889
332.29	27.862
332.66	29.204
333.02	27.971
333.38	27.010
333.75	28.164
334.11	28.915
334.48	28.217
334.84	29.596
335.20	28.182
335.57	27.833
335.93	26.964
336.29	27.930
336.66	28.855
337.02	28.326
337.38	29.815
337.75	28.699
338.11	27.395
338.47	29.558
338.84	29.239
339.20	27.339
339.56	30.018
339.93	28.091
340.29	27.989
340.65	28.610
341.02	30.192
341.38	29.270
341.74	27.807
342.11	28.734
342.47	28.899
342.83	28.253
343.20	29.091
343.56	28.307
343.92	28.421
344.28	28.997
344.65	29.837
345.01	28.367
345.37	27.787
345.73	28.257
346.10	28.645
346.46	28.729
346.82	27.842
347.19	29.407
347.55	28.736
347.91	28.641
348.27	29.006
348.63	27.592
349.00	28.641
349.36	28.243
349.72	28.308
350.08	28.120
350.45	29.699
350.81	28.513
351.17	29.092
351.53	27.846
351.89	27.888
352.26	28.414
352.62	27.987
352.98	29.173
353.34	28.841
353.70	29.133
354.07	28.145
354.43	27.937
354.79	28.640
355.15	28.252
355.51	29.257
355.87	30.449
356.24	29.316
356.60	28.869
356.96	30.249
357.32	28.700
357.68	29.370
358.04	29.375
358.40	28.187
358.77	30.203
359.13	29.440
359.49	29.490
359.85	29.048
360.21	30.223
360.57	30.272
360.93	29.769
361.29	30.008
361.66	30.341
362.02	30.821
362.38	30.418
362.74	29.241
363.10	30.052
363.46	30.301
363.82	28.874
364.18	30.837
364.54	30.684
364.90	31.516
365.26	30.882
365.62	30.752
365.98	30.314
366.35	29.226
366.71	30.947
367.07	31.610
367.43	31.205
367.79	31.049
368.15	31.968
368.51	30.378
368.87	32.049
369.23	31.895
369.59	32.151
369.95	30.956
370.31	31.481
370.67	31.884
371.03	32.060
371.39	33.017
371.75	32.353
372.11	31.935
372.47	34.238
372.83	32.853
373.19	31.575
373.55	32.816
373.91	33.873
374.27	32.784
374.63	33.818
374.99	33.545
375.35	33.008
375.71	33.105
376.07	34.156
376.42	34.182
376.78	34.394
377.14	32.972
377.50	35.099
377.86	32.979
378.22	34.134
378.58	33.647
378.94	33.815
379.30	34.860
379.66	34.835
380.02	35.811
380.38	35.094
380.74	35.954
381.09	34.841
381.45	36.693
381.81	36.486
382.17	36.688
382.53	37.736
382.89	36.728
383.25	37.336
383.61	37.918
383.97	36.273
384.32	37.991
384.68	37.608
385.04	37.246
385.40	37.090
385.76	36.794
386.12	37.500
386.48	37.823
386.83	38.999
387.19	38.528
387.55	38.590
387.91	38.755
388.27	38.688
388.62	39.521
388.98	38.698
389.34	39.487
389.70	38.933
390.06	39.797
390.42	39.494
390.77	39.885
391.13	41.161
391.49	40.926
391.85	40.165
392.20	40.126
392.56	41.098
392.92	40.141
393.28	40.296
393.64	40.228
393.99	40.623
394.35	40.757
394.71	40.527
395.07	40.872
395.42	40.977
395.78	40.967
396.14	40.348
396.50	42.043
396.85	41.322
397.21	40.136
397.57	41.414
397.92	41.707
398.28	41.256
398.64	40.562
399.00	41.298
399.35	40.496
399.71	41.204
400.07	41.987
400.42	42.209
400.78	43.124
401.14	41.646
401.49	42.448
401.85	42.166
402.21	41.796
402.57	42.505
402.92	43.443
403.28	42.536
403.63	42.389
403.99	41.975
404.35	41.394
404.70	42.086
405.06	42.167
405.42	42.545
405.77	42.343
406.13	40.971
406.49	42.756
406.84	42.528
407.20	42.021
407.55	42.693
407.91	43.733
408.27	43.140
408.62	43.167
408.98	42.647
409.34	42.620
409.69	43.097
410.05	42.441
410.40	43.119
410.76	41.637
411.11	43.245
411.47	42.236
411.83	42.761
412.18	42.672
412.54	42.341
412.89	42.289
413.25	42.385
413.60	43.916
413.96	41.773
414.31	42.224
414.67	42.966
415.03	42.781
415.38	44.008
415.74	42.508
416.09	44.219
416.45	42.838
416.80	42.829
417.16	43.231
417.51	44.194
417.87	42.967
418.22	42.965
418.58	44.545
418.93	42.936
419.29	43.475
419.64	44.144
420.00	42.866
420.35	43.362
420.71	44.591
421.06	43.138
421.42	43.333
421.77	43.386
422.12	42.223
422.48	42.742
422.83	43.681
423.19	43.039
423.54	44.225
423.90	43.014
424.25	43.439
424.61	42.679
424.96	44.373
425.31	43.189
425.67	42.247
426.02	44.343
426.38	44.261
426.73	44.061
427.09	44.559
427.44	44.508
427.79	44.278
428.15	44.048
428.50	44.002
428.85	43.683
429.21	43.070
429.56	43.183
429.92	42.828
430.27	43.396
430.62	43.472
430.98	44.110
431.33	43.711
431.68	44.084
432.04	43.237
432.39	44.089
432.74	43.866
433.10	44.256
433.45	45.073
433.80	44.069
434.16	44.177
434.51	42.842
434.86	43.900
435.22	44.024
435.57	44.073
435.92	43.417
436.28	46.026
436.63	44.702
436.98	44.362
437.34	43.888
437.69	44.924
438.04	44.463
438.39	45.075
438.75	43.696
439.10	44.413
439.45	44.687
439.81	44.592
440.16	43.874
440.51	44.230
440.86	44.470
441.22	43.993
441.57	43.843
441.92	44.882
442.27	44.080
442.63	43.655
442.98	44.958
443.33	43.587
443.68	44.502
444.03	44.412
444.39	44.158
444.74	45.022
445.09	44.744
445.44	45.216
445.79	44.582
446.15	44.521
446.50	44.103
446.85	45.015
447.20	44.059
447.55	45.840
447.91	44.457
448.26	45.353
448.61	44.658
448.96	45.626
449.31	44.207
449.66	44.288
450.02	44.011
450.37	44.955
450.72	45.008
451.07	42.962
451.42	43.830
451.77	44.510
452.12	44.169
452.47	44.465
452.83	44.464
453.18	44.377
453.53	46.506
453.88	45.304
454.23	46.145
454.58	45.669
454.93	45.137
455.28	45.075
455.63	44.478
455.98	44.702
456.34	44.912
456.69	45.398
457.04	45.820
457.39	45.237
457.74	43.993
458.09	45.658
458.44	43.957
458.79	43.818
459.14	45.542
459.49	45.359
459.84	44.598
460.19	42.899
460.54	43.403
460.89	44.487
461.24	44.991
461.59	45.206
461.94	43.958
462.29	44.866
462.64	44.671
462.99	43.656
463.34	44.733
463.69	45.216
464.04	44.870
464.39	43.768
464.74	44.326
465.09	44.029
465.44	43.823
465.79	44.016
466.14	44.007
466.49	43.103
466.84	43.257
467.19	43.030
467.54	44.688
467.89	43.517
468.24	43.863
468.59	44.628
468.94	44.166
469.29	45.244
469.64	44.779
469.99	45.061
470.34	44.650
470.68	44.971
471.03	44.830
471.38	46.004
471.73	43.837
472.08	45.789
472.43	44.472
472.78	44.174
473.13	43.902
473.48	45.194
473.83	44.451
474.17	43.186
474.52	44.107
474.87	44.892
475.22	44.515
475.57	43.256
475.92	42.698
476.27	44.138
476.61	43.409
476.96	42.056
477.31	43.223
477.66	43.381
478.01	42.865
478.36	43.310
478.70	42.991
479.05	42.865
479.40	44.012
479.75	44.281
480.10	42.942
480.45	41.932
480.79	42.618
481.14	43.249
481.49	43.047
481.84	42.524
482.19	43.026
482.53	42.248
482.88	42.764
483.23	42.757
483.58	42.084
483.92	42.315
484.27	41.438
484.62	41.250
484.97	41.545
485.31	42.021
485.66	41.544
486.01	39.738
486.36	37.496
486.70	36.805
487.05	38.408
487.40	39.530
487.75	39.129
488.09	40.552
488.44	40.460
488.79	41.917
489.13	41.788
489.48	41.558
489.83	40.785
490.17	42.832
490.52	42.383
490.87	40.977
491.22	41.610
491.56	41.230
491.91	41.508
492.26	40.836
492.60	41.613
492.95	40.926
493.30	40.280
493.64	40.737
493.99	41.504
494.34	40.611
494.68	41.346
495.03	41.306
495.37	41.368
495.72	41.131
496.07	41.810
496.41	40.310
496.76	40.545
497.11	40.747
497.45	41.081
497.80	41.123
498.14	41.353
498.49	40.683
498.84	41.179
499.18	40.667
499.53	41.263
499.87	40.634
500.22	41.262
500.56	41.359
500.91	40.625
501.26	40.019
501.60	41.955
501.95	40.009
502.29	41.518
502.64	40.503
502.98	40.626
503.33	39.671
503.67	40.139
504.02	40.225
504.36	40.431
504.71	39.766
505.06	41.205
505.40	40.836
505.75	39.971
506.09	40.185
506.44	41.194
506.78	40.088
507.13	40.384
507.47	40.808
507.82	41.033
508.16	41.135
508.51	40.994
508.85	40.218
509.19	40.306
509.54	40.765
509.88	40.340
510.23	40.514
510.57	41.280
510.92	40.342
511.26	39.466
511.61	40.820
511.95	40.814
512.30	40.138
512.64	40.140
512.98	40.675
513.33	41.006
513.67	40.448
514.02	40.206
514.36	41.180
514.70	40.786
515.05	39.989
515.39	41.167
515.74	39.752
516.08	40.637
516.42	41.121
516.77	41.416
517.11	39.900
517.46	40.688
517.80	41.870
518.14	40.243
518.49	41.424
518.83	39.489
519.17	40.185
519.52	40.577
519.86	40.901
520.20	41.561
520.55	42.370
520.89	41.849
521.23	42.340
521.58	39.796
521.92	40.968
522.26	39.658
522.61	40.374
522.95	40.516
523.29	41.935
523.64	39.817
523.98	41.343
524.32	40.893
524.66	41.130
525.01	40.686
525.35	40.830
525.69	40.517
526.04	39.502
526.38	39.841
526.72	40.123
527.06	40.364
527.41	38.057
527.75	40.836
528.09	40.527
528.43	40.982
528.78	40.504
529.12	39.939
529.46	41.335
529.80	40.285
530.15	41.246
530.49	38.154
530.83	39.620
531.17	40.796
531.51	41.180
531.86	40.452
532.20	41.265
532.54	40.038
532.88	40.116
533.22	39.475
533.57	39.444
533.91	39.133
534.25	39.793
534.59	38.377
534.93	38.251
535.27	39.167
535.62	38.706
535.96	39.862
536.30	38.144
536.64	38.828
536.98	39.748
537.32	39.368
537.66	38.867
538.01	40.290
538.35	39.237
538.69	39.311
539.03	38.207
539.37	38.403
539.71	37.784
540.05	39.869
540.39	38.339
540.73	38.098
541.07	38.027
541.42	39.596
541.76	39.806
542.10	39.780
542.44	38.609
542.78	38.603
543.12	38.260
543.46	39.410
543.80	37.541
544.14	37.805
544.48	38.667
544.82	37.909
545.16	38.452
545.50	37.596
545.84	39.315
546.18	37.980
546.52	39.092
546.86	38.763
547.20	38.368
547.54	37.341
547.88	38.712
548.22	37.049
548.56	38.050
548.90	38.220
549.24	38.316
549.58	37.381
549.92	38.118
550.26	38.849
550.60	36.653
550.94	39.225
551.28	37.527
551.62	38.246
551.96	38.316
552.30	38.089
552.64	38.675
552.98	37.966
553.32	37.424
553.66	38.309
554.00	37.817
554.34	38.095
554.68	38.984
555.02	38.152
555.36	38.065
555.69	37.754
556.03	37.416
556.37	37.040
556.71	37.108
557.05	37.115
557.39	37.439
557.73	37.474
558.07	38.724
558.41	36.975
558.75	37.252
559.08	38.628
559.42	38.473
559.76	38.824
560.10	37.330
560.44	36.408
560.78	37.126
561.12	37.665
561.45	38.201
561.79	37.508
562.13	36.955
562.47	36.680
562.81	38.773
563.15	37.860
563.48	35.411
563.82	36.725
564.16	36.298
564.50	36.849
564.84	35.398
565.17	35.457
565.51	36.102
565.85	35.787
566.19	35.880
566.52	37.112
566.86	36.106
567.20	36.321
567.54	35.559
567.88	34.221
568.21	36.138
568.55	34.681
568.89	34.679
569.23	34.581
569.56	33.117
569.90	33.245
570.24	32.652
570.57	32.030
570.91	31.545
571.25	31.532
571.59	31.635
571.92	31.365
572.26	31.485
572.60	31.532
572.93	31.334
573.27	31.529
573.61	31.267
573.95	31.395
574.28	31.307
574.62	31.050
574.96	30.562
575.29	30.820
575.63	30.640
575.97	30.695
576.30	31.360
576.64	30.174
576.98	30.263
577.31	30.522
577.65	30.771
577.98	30.418
578.32	29.527
578.66	30.084
578.99	30.016
579.33	30.114
579.67	30.455
580.00	30.640
580.34	30.470
580.67	30.158
581.01	31.100
581.35	30.006
581.68	30.017
582.02	29.124
582.35	29.458
582.69	29.828
583.02	29.964
583.36	29.952
583.70	30.819
584.03	30.199
584.37	31.067
584.70	30.852
585.04	30.357
585.37	29.776
585.71	29.911
586.04	30.297
586.38	30.355
586.72	30.765
587.05	30.617
587.39	30.580
587.72	30.353
588.06	30.256
588.39	30.316
588.73	30.625
589.06	31.349
589.40	31.818
589.73	31.362
590.07	31.601
590.40	31.092
590.73	32.123
591.07	32.234
591.40	32.265
591.74	32.771
592.07	32.199
592.41	31.170
592.74	31.199
593.08	30.713
593.41	30.655
593.75	30.044
594.08	30.707
594.41	29.940
594.75	30.795
595.08	30.780
595.42	31.068
595.75	29.808
596.09	30.642
596.42	31.552
596.75	32.123
597.09	32.251
597.42	31.282
597.75	31.177
598.09	31.217
598.42	31.572
598.76	31.617
599.09	30.179
599.42	30.167
599.76	30.820
600.09	29.545
600.42	29.912
600.76	29.893
601.09	30.419
601.42	30.594
601.76	30.398
602.09	29.644
602.42	30.454
602.76	31.479
603.09	30.409
603.42	30.574
603.76	29.954
604.09	29.740
604.42	30.289
604.76	31.168
605.09	30.494
605.42	30.398
605.75	30.919
606.09	30.378
606.42	30.282
606.75	29.905
607.09	30.682
607.42	30.039
607.75	29.536
608.08	29.961
608.42	31.242
608.75	30.252
609.08	30.620
609.41	30.795
609.75	30.729
610.08	31.527
610.41	30.866
610.74	30.605
611.07	31.423
611.41	31.207
611.74	31.674
612.07	30.642
612.40	31.584
612.73	30.421
613.07	31.843
613.40	31.490
613.73	30.729
614.06	31.452
614.39	30.729
614.72	30.421
615.06	30.987
615.39	30.626
615.72	30.624
616.05	29.878
616.38	31.406
616.71	32.126
617.05	31.684
617.38	31.690
617.71	31.351
618.04	32.151
618.37	31.106
618.70	31.861
619.03	32.237
619.36	32.383
619.69	31.831
620.03	33.173
620.36	33.021
620.69	33.630
621.02	33.702
621.35	32.263
621.68	32.788
622.01	32.895
622.34	32.224
622.67	31.711
623.00	31.034
623.33	31.665
623.66	32.952
623.99	33.063
624.32	31.526
624.65	31.921
624.99	31.161
625.32	31.137
625.65	31.255
625.98	33.897
626.31	33.515
626.64	33.633
626.97	33.915
627.30	33.001
627.63	33.470
627.96	33.558
628.29	33.858
628.62	34.950
628.95	34.528
629.28	33.029
629.61	33.731
629.94	36.095
630.26	34.128
630.59	33.270
630.92	34.291
631.25	34.946
631.58	33.133
631.91	34.280
632.24	34.810
632.57	34.942
632.90	35.746
633.23	35.011
633.56	35.593
633.89	35.447
634.22	35.528
634.55	37.041
634.88	34.132
635.20	36.559
635.53	35.904
635.86	36.757
636.19	34.706
636.52	34.717
636.85	34.364
637.18	35.714
637.51	35.225
637.83	34.895
638.16	35.038
638.49	36.146
638.82	36.915
639.15	35.250
639.48	37.406
639.81	38.204
640.13	36.589
640.46	35.302
640.79	35.535
641.12	34.388
641.45	35.475
641.77	38.292
642.10	38.158
642.43	35.886
642.76	37.461
643.09	36.656
643.41	37.481
643.74	38.735
644.07	39.177
644.40	37.117
644.73	40.157
645.05	39.461
645.38	36.809
645.71	38.003
646.04	38.372
646.36	42.070
646.69	38.963
647.02	39.286
647.35	39.519
647.67	40.177
648.00	38.374
648.33	35.974
648.66	37.424
648.98	35.682
649.31	37.070
649.64	36.472
649.96	35.768
650.29	36.651
650.62	37.702
650.94	38.898
651.27	38.007
651.60	35.441
651.92	36.581
652.25	34.691
652.58	36.293
652.90	36.019
653.23	36.055
653.56	35.591
653.88	38.193
654.21	37.283
654.54	34.983
654.86	35.826
655.19	33.649
655.52	23.909
655.84	21.483
656.17	27.392
656.49	37.505
656.82	37.888
657.15	28.706
657.47	21.113
657.80	16.702
658.13	17.116
658.45	26.045
658.78	25.763
659.10	27.405
659.43	29.306
659.75	30.728
660.08	32.975
660.41	37.803
660.73	38.374
661.06	37.261
661.38	40.364
661.71	40.192
662.03	41.815
662.36	37.972
662.68	38.956
663.01	37.778
663.33	37.792
663.66	38.866
663.98	40.605
664.31	39.286
664.63	37.449
664.96	37.626
665.28	40.369
665.61	37.622
665.93	38.632
666.26	36.308
666.58	36.611
666.91	41.649
667.23	41.573
667.56	37.581
667.88	39.957
668.21	39.232
668.53	39.913
668.86	41.558
669.18	42.217
669.50	39.348
669.83	43.137
670.15	40.667
670.48	38.344
670.80	36.853
671.13	40.127
671.45	39.149
671.77	38.900
672.10	35.305
672.42	35.512
672.75	35.987
673.07	36.268
673.39	34.901
673.72	38.086
674.04	36.078
674.37	36.699
674.69	36.401
675.01	38.075
675.34	40.657
675.66	41.684
675.98	38.086
676.31	40.756
676.63	38.641
676.95	39.413
677.28	37.850
677.60	38.022
677.92	41.139
678.25	37.577
678.57	38.247
678.89	37.475
679.22	36.542
679.54	37.214
679.86	35.229
680.18	36.136
680.51	36.879
680.83	36.833
681.15	35.660
681.48	38.941
681.80	35.977
682.12	35.824
682.44	35.783
682.77	37.271
683.09	39.485
683.41	40.798
683.73	38.631
684.06	37.397
684.38	36.595
684.70	36.628
685.02	37.711
685.34	36.813
685.67	33.566
685.99	33.677
686.31	35.154
686.63	34.099
686.96	35.357
687.28	36.643
687.60	34.964
687.92	36.197
688.24	34.981
688.56	38.153
688.89	37.344
689.21	37.991
689.53	38.622
689.85	39.246
690.17	36.025
690.49	37.792
690.82	38.551
691.14	37.277
691.46	33.122
691.78	36.747
692.10	38.017
692.42	38.523
692.74	35.062
693.06	37.234
693.39	37.372
693.71	36.463
694.03	34.737
694.35	34.416
694.67	37.529
694.99	38.780
695.31	38.971
695.63	37.799
695.95	39.364
696.27	39.340
696.59	36.010
696.91	40.155
697.23	36.150
697.56	37.740
697.88	32.924
698.20	34.167
698.52	35.699
698.84	36.303
699.16	39.171
699.48	35.867
699.80	37.440
700.12	41.558
700.44	40.584
700.76	40.608
701.08	42.816
701.40	42.458
701.72	41.108
702.04	42.614
702.36	37.677
702.68	40.227
703.00	38.227
703.32	39.628
703.64	38.606
703.96	37.047
704.28	40.698
704.60	41.349
704.91	43.620
705.23	42.522
705.55	43.189
705.87	43.854
706.19	45.230
706.51	44.548
706.83	42.727
707.15	43.137
707.47	39.646
707.79	37.838
708.11	36.758
708.43	37.143
708.74	39.541
709.06	40.779
709.38	38.583
709.70	40.988
710.02	40.059
710.34	39.091
710.66	42.687
710.98	40.625
711.29	38.081
711.61	42.773
711.93	38.782
712.25	41.479
712.57	48.162
712.89	39.100
713.20	40.426
713.52	45.724
713.84	42.089
714.16	41.768
714.48	39.368
714.80	43.161
715.11	40.634
715.43	39.763
715.75	35.652
716.07	38.339
716.39	37.304
716.70	43.854
717.02	46.763
717.34	40.283
717.66	44.030
717.97	48.606
718.29	44.444
718.61	43.066
718.93	44.118
719.24	42.215
719.56	42.034
719.88	45.085
720.20	44.932
720.51	42.509
720.83	43.494
721.15	41.045
721.46	42.553
721.78	44.086
722.10	41.509
722.42	43.609
722.73	40.075
723.05	45.902
723.37	40.891
723.68	47.876
724.00	45.122
724.32	40.323
724.63	44.715
724.95	47.699
725.27	45.749
725.58	50.391
725.90	45.255
726.22	43.019
726.53	41.319
726.85	39.249
727.16	46.263
727.48	41.489
727.80	43.182
728.11	41.667
728.43	42.308
728.74	40.860
729.06	44.891
729.38	45.221
729.69	41.993
730.01	39.249
730.32	39.931
730.64	41.472
730.96	36.304
731.27	41.391
731.59	37.615
731.90	39.359
732.22	36.646
732.53	38.080
732.85	41.026
733.16	38.907
733.48	44.518
733.80	39.610
734.11	40.764
734.43	41.124
734.74	36.571
735.06	37.249
735.37	40.173
735.69	38.854
736.00	39.216
736.32	42.056
736.63	38.339
736.95	39.617
737.26	31.973
737.58	34.194
737.89	39.799
738.21	40.273
738.52	41.071
738.83	42.642
739.15	41.154
739.46	40.146
739.78	43.403
740.09	37.538
740.41	43.226
740.72	35.889
741.04	37.407
741.35	46.667
741.66	46.667
741.98	47.642
742.29	52.632
742.61	46.983
742.92	46.606
743.23	44.017
743.55	43.200
743.86	44.737
744.18	45.133
744.49	46.411
744.80	51.643
745.12	51.818
745.43	44.934
745.74	45.946
746.06	52.294
746.37	45.740
746.68	46.154
747.00	43.981
747.31	50.952
747.62	49.558
747.94	42.731
748.25	44.681
748.56	47.137
748.88	48.020
749.19	55.000
749.50	47.442
749.82	41.057
750.13	44.082
750.44	41.241
750.75	45.614
751.07	41.801
751.38	43.206
751.69	41.877
752.01	44.737
752.32	38.628
752.63	42.908
752.94	40.574
753.26	46.000
753.57	41.057
753.88	44.922
754.19	40.357
754.51	42.708
754.82	37.545
755.13	41.887
755.44	42.481
755.75	44.161
756.07	37.943
756.38	37.226
756.69	41.275
757.00	36.527
757.31	35.905
757.63	36.842
757.94	36.461
758.25	33.824
758.56	31.605
758.87	31.183
759.18	40.000
759.50	33.856
759.81	36.137
760.12	36.875
760.43	39.255
760.74	33.424
761.05	38.983
761.36	36.096
761.67	37.216
761.99	31.677
762.30	40.625
762.61	43.893
762.92	39.844
763.23	35.714
763.54	43.200
763.85	44.141
764.16	46.154
764.47	44.106
764.78	35.689
765.10	34.810
765.41	40.118
765.72	35.030
766.03	37.304
766.34	36.667
766.65	45.106
766.96	46.581
767.27	52.284
767.58	55.208
767.89	54.211
768.20	52.874
768.51	46.193
768.82	47.248
769.13	41.463
769.44	44.130
769.75	44.206
770.06	40.826
770.37	45.249
770.68	44.907
770.99	39.111
771.30	40.164
771.61	48.430
771.92	38.934
772.23	42.857
772.54	49.744
772.85	52.356
773.16	45.213
773.47	49.457
773.78	53.299
774.09	50.000
774.39	56.725
774.70	54.938
775.01	63.768
775.32	64.052
775.63	59.211
775.94	55.396
776.25	71.654
776.56	64.925
776.87	62.295
777.18	63.281
777.48	63.359
777.79	57.576
778.10	60.000
778.41	64.286
778.72	43.796
779.03	54.362
779.34	51.007
779.65	54.054
779.95	49.693
780.26	58.170
780.57	57.241
780.88	63.281
781.19	63.910
781.50	54.730
781.80	52.201
782.11	49.718
782.42	50.633
782.73	45.399
783.04	58.108
783.34	57.042
783.65	63.014
783.96	61.940
784.27	60.140
784.57	53.957
784.88	62.037
785.19	71.429
785.50	61.321
785.81	61.940
786.11	67.213
786.42	56.589
786.73	67.257
787.04	59.434
787.34	69.643
787.65	70.000
787.96	59.459
788.26	52.893
788.57	69.492
788.88	59.504
789.19	61.806
789.49	68.939
789.80	51.145
790.11	76.190
790.41	88.119
790.72	72.289
791.03	76.087
791.33	80.233
791.64	68.041
791.95	78.218
792.25	72.222
792.56	67.532
792.87	89.744
793.17	94.937
793.48	89.655
793.79	77.011
794.09	77.273
794.40	59.664
794.70	62.500
795.01	57.778
795.32	57.554
795.62	59.055
795.93	59.483
796.23	62.832
796.54	69.412
796.85	87.838
797.15	91.549
797.46	84.848
797.76	86.747
798.07	82.278
798.37	90.769
798.68	95.455
798.99	78.873
799.29	88.312
799.60	76.136
799.90	86.301
800.21	89.552
800.51	110.345
800.82	114.035
801.12	101.639
801.43	104.545
801.73	93.243
802.04	106.349
802.34	83.951
802.65	110.938
802.95	105.085
803.26	98.438
803.56	85.714
803.87	90.769
804.17	89.706
804.48	118.519
804.78	100.000
805.09	95.588
805.39	117.308
805.70	92.857
806.00	109.836
806.30	95.455
806.61	68.293
806.91	73.418
807.22	77.632
807.52	92.537
807.83	88.732
808.13	101.563
808.43	113.333
808.74	77.632
809.04	95.652
809.35	95.522
809.65	93.421
809.95	117.742
810.26	91.525
810.56	95.238
810.86	152.273
811.17	147.619
811.47	118.333
811.77	103.704
812.08	114.545
812.38	130.000
812.69	150.000
812.99	152.273
813.29	136.735
813.59	102.381
813.90	116.327
814.20	114.545
814.50	93.846
814.81	95.588
815.11	116.327
815.41	86.885
815.72	133.333
816.02	120.000
816.32	145.238
816.62	135.000
816.93	107.317
817.23	147.619
817.53	111.364
817.84	163.636
818.14	115.217
818.44	124.444
818.74	152.941
819.04	145.000
819.35	148.571
819.65	179.412
819.95	200.000
820.25	195.000
820.56	164.103
820.86	143.182
821.16	146.512
821.46	135.897
821.76	126.000
822.07	145.714
822.37	170.000
822.67	148.485
822.97	109.804
823.27	178.571
823.57	148.649
823.88	130.000
824.18	173.333
824.48	157.143
824.78	172.000
825.08	225.000
825.38	162.162
825.69	148.780
825.99	233.333
826.29	162.069
826.59	173.684
826.89	136.842
827.19	164.706
827.49	193.548
827.79	145.455
828.09	138.636
828.39	119.149
828.70	124.490
829.00	162.963
829.30	183.871
829.60	135.000
829.90	340.000
830.20	175.000
830.50	200.000
830.80	234.783
831.10	200.000
831.40	176.667
831.70	191.304
832.00	257.692
832.30	192.593
832.60	250.000
832.90	206.667
833.20	371.429
833.50	170.968
833.80	186.207
834.10	187.500
834.40	253.846
834.70	283.333
835.00	309.524
835.30	168.571
835.60	246.154
835.90	182.759
836.20	407.143
836.50	210.345
836.80	160.000
837.10	169.444
837.40	266.667
837.70	300.000
838.00	207.407
838.30	261.905
838.60	319.048
838.90	215.385
839.19	245.000
839.49	428.571
839.79	290.000
840.09	285.000
840.39	247.619
840.69	230.435
840.99	288.889
841.29	530.000
841.59	308.333
841.88	306.250
842.18	196.552
842.48	304.762
842.78	203.333
843.08	234.783
843.38	165.625
843.68	783.333
843.97	200.000
844.27	193.103
844.57	319.048
844.87	393.750
845.17	211.111
845.47	1700.000
845.76	400.000
846.06	352.941
846.36	437.500
846.66	385.714
846.96	281.250
847.25	454.545
847.55	390.909
847.85	204.348
848.15	410.000
848.44	328.571
848.74	272.222
849.04	288.235
849.34	530.000
849.63	247.368
849.93	409.091
850.23	880.000
850.53	385.714
850.82	2000.000
851.12	-3400.000
851.42	4300.000
851.71	250.000
852.01	-1133.333
852.31	208.333
852.61	1766.667
852.90	242.857
853.20	228.000
853.50	282.353
853.79	271.429
854.09	191.667
854.39	375.000
854.68	191.892
854.98	177.419
855.28	156.667
855.57	227.586
855.87	203.704
856.17	247.368
856.46	240.000
856.76	276.471
857.05	193.103
857.35	216.667
857.65	346.667
857.94	239.130
858.24	238.462
858.53	280.000
858.83	250.000
859.13	353.333
859.42	0.000
859.72	644.444
860.01	390.909
860.31	250.000
860.60	231.579
860.90	213.043
861.20	444.444
861.49	516.667
861.79	-4500.000
862.08	562.500
862.38	328.571
862.67	353.846
862.97	347.059
863.26	522.222
863.56	294.444
863.85	408.333
864.15	550.000
864.44	346.667
864.74	766.667
865.03	587.500
865.33	347.368
865.62	563.636
865.92	430.769
866.21	408.333
866.51	0.000
866.80	400.000
867.10	1080.000
867.39	384.615
867.69	472.727
867.98	294.737
868.27	481.818
868.57	315.789
868.86	-4600.000
869.16	368.750
869.45	2200.000
869.75	-4100.000
870.04	416.667
870.33	728.571
870.63	900.000
870.92	2600.000
871.22	800.000
871.51	282.353
871.80	200.000
872.10	342.857
>>>>>End Processed Spectral Data<<<<<
