SpectraSuite Data File
++++++++++++++++++++++++++++++++++++
Date: Wed May 13 16:03:04 PDT 2015
User: schluterlab
Dark Spectrum Present: Yes
Reference Spectrum Present: Yes
Number of Sampled Component Spectra: 1
Spectrometers: USB2E3373
Integration Time (usec): 3000 (USB2E3373)
Spectra Averaged: 3 (USB2E3373)
Boxcar Smoothing: 0 (USB2E3373)
Correct for Electrical Dark: No (USB2E3373)
Strobe/Lamp Enabled: No (USB2E3373)
Correct for Detector Non-linearity: No (USB2E3373)
Correct for Stray Light: No (USB2E3373)
Number of Pixels in Processed Spectrum: 2048
>>>>>Begin Processed Spectral Data<<<<<
178.53	0.000
178.91	-600.000
179.29	-775.000
179.67	-16.667
180.04	-525.000
180.42	1350.000
180.80	360.000
181.18	-325.000
181.56	157.143
181.94	0.000
182.31	-228.571
182.69	766.667
183.07	-112.500
183.45	-155.556
183.83	254.545
184.20	-140.000
184.58	950.000
184.96	2400.000
185.34	-280.000
185.72	-75.000
186.09	-850.000
186.47	850.000
186.85	500.000
187.23	1300.000
187.61	-466.667
187.98	725.000
188.36	272.727
188.74	218.182
189.12	-480.000
189.49	270.000
189.87	-2600.000
190.25	-475.000
190.63	257.143
191.00	161.538
191.38	316.667
191.76	-325.000
192.14	675.000
192.51	287.500
192.89	433.333
193.27	262.500
193.65	-650.000
194.02	330.000
194.40	360.000
194.78	260.000
195.15	225.000
195.53	290.000
195.91	-100.000
196.29	143.750
196.66	121.053
197.04	-60.000
197.42	0.000
197.79	280.000
198.17	-2500.000
198.55	314.286
198.92	350.000
199.30	300.000
199.68	0.000
200.05	138.889
200.43	357.143
200.81	1200.000
201.18	600.000
201.56	-766.667
201.94	255.556
202.31	255.556
202.69	141.667
203.07	70.000
203.44	0.000
203.82	575.000
204.19	400.000
204.57	264.286
204.95	262.500
205.32	366.667
205.70	145.455
206.08	157.143
206.45	500.000
206.83	225.000
207.20	433.333
207.58	260.000
207.96	172.222
208.33	300.000
208.71	-316.667
209.08	414.286
209.46	266.667
209.84	236.364
210.21	-666.667
210.59	575.000
210.96	-187.500
211.34	800.000
211.71	220.000
212.09	316.667
212.46	0.000
212.84	833.333
213.22	600.000
213.59	-1200.000
213.97	350.000
214.34	271.429
214.72	327.273
215.09	480.000
215.47	-650.000
215.84	-600.000
216.22	833.333
216.59	200.000
216.97	575.000
217.34	127.273
217.72	-166.667
218.09	0.000
218.47	-1800.000
218.84	311.111
219.22	314.286
219.59	566.667
219.97	-257.143
220.34	540.000
220.72	-433.333
221.09	214.286
221.47	775.000
221.84	-333.333
222.22	0.000
222.59	550.000
222.97	-900.000
223.34	660.000
223.72	192.308
224.09	500.000
224.46	1000.000
224.84	-2900.000
225.21	-460.000
225.59	-2400.000
225.96	420.000
226.34	190.000
226.71	950.000
227.08	287.500
227.46	180.000
227.83	-200.000
228.21	-450.000
228.58	266.667
228.95	-500.000
229.33	-700.000
229.70	633.333
230.08	342.857
230.45	-160.000
230.82	116.667
231.20	350.000
231.57	228.571
231.95	241.667
232.32	127.273
232.69	90.909
233.07	157.143
233.44	100.000
233.81	-566.667
234.19	178.947
234.56	183.333
234.93	108.333
235.31	172.727
235.68	76.923
236.05	142.857
236.43	60.606
236.80	94.737
237.17	2000.000
237.55	80.952
237.92	107.143
238.29	114.286
238.67	83.871
239.04	100.000
239.41	38.889
239.79	47.826
240.16	66.667
240.53	84.091
240.91	23.529
241.28	58.000
241.65	48.000
242.02	47.826
242.40	45.161
242.77	36.667
243.14	34.409
243.51	37.079
243.89	29.412
244.26	24.444
244.63	34.409
245.00	14.894
245.38	17.822
245.75	29.907
246.12	19.266
246.49	37.956
246.87	32.000
247.24	24.615
247.61	24.286
247.98	22.876
248.36	14.865
248.73	19.745
249.10	22.930
249.47	22.599
249.84	22.995
250.22	17.112
250.59	19.527
250.96	23.737
251.33	22.749
251.70	20.297
252.08	21.429
252.45	17.040
252.82	18.696
253.19	17.447
253.56	16.863
253.94	21.992
254.31	17.187
254.68	16.154
255.05	18.450
255.42	15.854
255.79	16.176
256.16	18.773
256.54	13.781
256.91	19.929
257.28	13.669
257.65	15.842
258.02	18.012
258.39	15.142
258.76	13.378
259.14	18.155
259.51	17.021
259.88	13.354
260.25	14.502
260.62	15.318
260.99	14.907
261.36	14.715
261.73	17.479
262.10	11.919
262.47	14.085
262.85	15.042
263.22	11.396
263.59	14.815
263.96	14.560
264.33	14.621
264.70	13.421
265.07	14.322
265.44	14.899
265.81	12.409
266.18	13.317
266.55	14.146
266.92	10.565
267.29	12.963
267.66	12.156
268.03	13.409
268.40	15.421
268.77	10.263
269.14	11.712
269.51	13.544
269.88	13.287
270.25	15.350
270.62	11.685
270.99	12.903
271.36	16.309
271.73	11.449
272.10	12.826
272.47	11.828
272.84	13.853
273.21	15.094
273.58	11.572
273.95	11.950
274.32	10.331
274.69	13.062
275.06	10.827
275.43	11.277
275.80	12.024
276.17	12.016
276.54	15.177
276.91	11.265
277.28	13.867
277.65	13.346
278.02	9.524
278.39	16.406
278.76	13.091
279.13	13.208
279.50	13.594
279.87	11.952
280.23	11.577
280.60	12.766
280.97	12.569
281.34	11.858
281.71	13.273
282.08	13.244
282.45	10.182
282.82	12.433
283.19	10.339
283.56	11.404
283.92	13.029
284.29	13.051
284.66	10.526
285.03	11.573
285.40	11.796
285.77	11.953
286.14	12.435
286.51	13.167
286.87	13.675
287.24	12.866
287.61	12.360
287.98	14.610
288.35	10.460
288.72	12.305
289.08	13.615
289.45	11.862
289.82	12.358
290.19	10.675
290.56	11.026
290.93	10.725
291.29	11.810
291.66	13.274
292.03	13.372
292.40	13.216
292.77	10.651
293.13	11.493
293.50	12.682
293.87	12.444
294.24	10.815
294.60	10.189
294.97	11.337
295.34	12.694
295.71	13.494
296.08	10.399
296.44	12.517
296.81	11.361
297.18	12.602
297.55	9.103
297.91	11.873
298.28	12.182
298.65	12.663
299.02	12.121
299.38	12.218
299.75	11.725
300.12	11.622
300.48	11.375
300.85	11.961
301.22	10.955
301.59	11.111
301.95	11.461
302.32	13.607
302.69	11.470
303.05	11.515
303.42	10.988
303.79	12.118
304.15	12.587
304.52	11.472
304.89	11.498
305.25	10.905
305.62	12.005
305.99	11.452
306.35	11.633
306.72	13.229
307.09	12.875
307.45	13.514
307.82	10.491
308.19	12.583
308.55	12.298
308.92	11.386
309.29	11.510
309.65	12.937
310.02	12.156
310.38	11.183
310.75	11.616
311.12	11.464
311.48	12.644
311.85	13.522
312.22	13.215
312.58	12.890
312.95	13.200
313.31	11.845
313.68	12.578
314.05	13.708
314.41	13.065
314.78	12.991
315.14	12.016
315.51	13.903
315.87	11.980
316.24	11.817
316.61	12.281
316.97	12.524
317.34	12.427
317.70	15.010
318.07	12.127
318.43	13.601
318.80	14.058
319.16	14.407
319.53	13.133
319.89	13.143
320.26	14.000
320.62	13.690
320.99	13.636
321.35	13.434
321.72	14.990
322.08	15.992
322.45	15.025
322.81	16.182
323.18	16.378
323.54	15.306
323.91	16.321
324.27	15.392
324.64	15.657
325.00	14.878
325.37	16.106
325.73	16.517
326.10	15.799
326.46	16.219
326.83	17.601
327.19	16.311
327.56	16.202
327.92	16.448
328.29	17.657
328.65	17.311
329.01	17.599
329.38	16.466
329.74	17.636
330.11	16.965
330.47	18.182
330.84	17.647
331.20	15.938
331.56	18.440
331.93	16.204
332.29	16.681
332.66	17.611
333.02	18.099
333.38	17.164
333.75	18.806
334.11	18.149
334.48	18.367
334.84	17.739
335.20	16.909
335.57	17.316
335.93	16.429
336.29	17.766
336.66	16.952
337.02	16.290
337.38	17.500
337.75	16.488
338.11	15.936
338.47	16.759
338.84	16.590
339.20	16.789
339.56	18.066
339.93	16.818
340.29	15.851
340.65	16.221
341.02	17.452
341.38	16.993
341.74	17.281
342.11	16.157
342.47	16.211
342.83	16.438
343.20	18.095
343.56	16.765
343.92	16.404
344.28	16.582
344.65	17.111
345.01	16.330
345.37	15.523
345.73	17.259
346.10	16.539
346.46	17.627
346.82	17.545
347.19	15.622
347.55	15.928
347.91	16.828
348.27	17.502
348.63	16.221
349.00	16.262
349.36	16.667
349.72	16.279
350.08	16.126
350.45	16.762
350.81	16.734
351.17	16.856
351.53	16.052
351.89	16.502
352.26	17.285
352.62	16.840
352.98	16.532
353.34	16.516
353.70	16.039
354.07	18.548
354.43	17.063
354.79	15.929
355.15	16.121
355.51	17.426
355.87	17.469
356.24	15.961
356.60	16.680
356.96	16.895
357.32	17.334
357.68	17.402
358.04	17.102
358.40	16.785
358.77	17.449
359.13	16.338
359.49	18.353
359.85	15.159
360.21	16.108
360.57	16.887
360.93	17.615
361.29	16.856
361.66	16.099
362.02	17.164
362.38	16.958
362.74	16.443
363.10	16.358
363.46	16.214
363.82	16.402
364.18	17.254
364.54	16.939
364.90	16.289
365.26	17.279
365.62	17.020
365.98	16.801
366.35	16.619
366.71	17.643
367.07	17.407
367.43	17.997
367.79	17.416
368.15	18.822
368.51	17.587
368.87	17.345
369.23	17.045
369.59	17.451
369.95	16.397
370.31	17.165
370.67	17.681
371.03	18.352
371.39	18.076
371.75	17.279
372.11	17.070
372.47	18.548
372.83	18.516
373.19	17.124
373.55	18.995
373.91	19.514
374.27	17.251
374.63	17.745
374.99	19.492
375.35	17.725
375.71	17.889
376.07	18.793
376.42	18.019
376.78	19.019
377.14	18.860
377.50	18.808
377.86	17.287
378.22	19.343
378.58	17.920
378.94	17.788
379.30	18.257
379.66	19.924
380.02	18.428
380.38	18.761
380.74	18.968
381.09	19.621
381.45	19.668
381.81	19.595
382.17	19.745
382.53	19.308
382.89	19.630
383.25	19.575
383.61	20.570
383.97	20.325
384.32	20.711
384.68	19.207
385.04	20.037
385.40	20.372
385.76	19.840
386.12	20.142
386.48	20.705
386.83	20.398
387.19	21.212
387.55	20.470
387.91	19.468
388.27	19.681
388.62	20.529
388.98	19.779
389.34	20.338
389.70	20.601
390.06	20.215
390.42	21.466
390.77	20.738
391.13	21.442
391.49	21.637
391.85	19.796
392.20	21.199
392.56	20.581
392.92	21.366
393.28	19.645
393.64	20.743
393.99	21.136
394.35	21.030
394.71	21.330
395.07	20.436
395.42	20.952
395.78	21.310
396.14	20.857
396.50	21.366
396.85	20.407
397.21	20.530
397.57	21.079
397.92	21.635
398.28	20.011
398.64	21.505
399.00	20.985
399.35	21.038
399.71	21.181
400.07	21.467
400.42	21.288
400.78	21.653
401.14	20.854
401.49	22.567
401.85	20.569
402.21	20.539
402.57	21.098
402.92	20.555
403.28	21.487
403.63	20.730
403.99	20.191
404.35	20.788
404.70	20.324
405.06	19.744
405.42	21.959
405.77	20.229
406.13	19.695
406.49	20.343
406.84	20.319
407.20	20.213
407.55	20.676
407.91	20.733
408.27	20.549
408.62	20.349
408.98	20.343
409.34	20.849
409.69	20.645
410.05	20.880
410.40	19.939
410.76	20.729
411.11	21.110
411.47	20.319
411.83	20.220
412.18	20.037
412.54	20.672
412.89	19.819
413.25	20.661
413.60	20.630
413.96	20.097
414.31	20.474
414.67	20.786
415.03	19.338
415.38	20.941
415.74	20.000
416.09	20.509
416.45	19.411
416.80	19.299
417.16	21.649
417.51	20.239
417.87	19.910
418.22	20.379
418.58	21.110
418.93	20.332
419.29	21.260
419.64	20.844
420.00	20.671
420.35	20.522
420.71	20.442
421.06	20.525
421.42	20.936
421.77	19.675
422.12	19.876
422.48	18.726
422.83	20.734
423.19	20.110
423.54	19.791
423.90	20.174
424.25	20.156
424.61	20.060
424.96	19.942
425.31	19.601
425.67	19.944
426.02	20.400
426.38	21.123
426.73	20.246
427.09	20.304
427.44	19.896
427.79	20.069
428.15	19.762
428.50	19.953
428.85	20.143
429.21	19.547
429.56	19.699
429.92	20.030
430.27	19.315
430.62	19.406
430.98	20.083
431.33	19.536
431.68	20.314
432.04	20.128
432.39	20.046
432.74	21.125
433.10	20.260
433.45	20.233
433.80	19.180
434.16	19.338
434.51	20.000
434.86	20.125
435.22	20.067
435.57	19.939
435.92	19.661
436.28	20.819
436.63	20.751
436.98	19.748
437.34	20.095
437.69	19.778
438.04	19.674
438.39	19.582
438.75	20.569
439.10	19.888
439.45	20.425
439.81	19.335
440.16	19.368
440.51	20.211
440.86	20.151
441.22	19.132
441.57	20.648
441.92	20.880
442.27	19.160
442.63	19.168
442.98	20.225
443.33	19.511
443.68	20.237
444.03	19.424
444.39	19.766
444.74	20.022
445.09	20.162
445.44	20.011
445.79	19.000
446.15	20.011
446.50	19.548
446.85	19.116
447.20	20.143
447.55	20.826
447.91	20.077
448.26	19.644
448.61	19.220
448.96	20.543
449.31	20.022
449.66	19.752
450.02	19.109
450.37	19.331
450.72	19.346
451.07	19.561
451.42	19.574
451.77	20.317
452.12	20.035
452.47	19.341
452.83	19.988
453.18	19.315
453.53	19.728
453.88	19.256
454.23	19.665
454.58	20.351
454.93	20.470
455.28	19.140
455.63	20.146
455.98	20.476
456.34	19.535
456.69	20.852
457.04	18.638
457.39	19.755
457.74	19.211
458.09	19.954
458.44	19.612
458.79	19.035
459.14	19.300
459.49	19.790
459.84	19.557
460.19	19.564
460.54	19.213
460.89	19.967
461.24	19.733
461.59	20.860
461.94	18.619
462.29	19.941
462.64	19.592
462.99	19.063
463.34	20.200
463.69	20.325
464.04	19.942
464.39	19.478
464.74	19.727
465.09	19.300
465.44	19.058
465.79	19.183
466.14	18.829
466.49	19.633
466.84	20.257
467.19	19.493
467.54	19.188
467.89	19.988
468.24	19.372
468.59	20.269
468.94	18.937
469.29	19.473
469.64	20.281
469.99	19.689
470.34	18.824
470.68	20.330
471.03	19.184
471.38	19.458
471.73	19.787
472.08	18.882
472.43	19.912
472.78	19.684
473.13	20.475
473.48	19.663
473.83	19.634
474.17	18.793
474.52	19.293
474.87	19.615
475.22	19.153
475.57	18.431
475.92	18.906
476.27	18.771
476.61	19.912
476.96	19.351
477.31	18.995
477.66	19.858
478.01	19.237
478.36	20.254
478.70	18.484
479.05	19.116
479.40	19.038
479.75	19.115
480.10	19.185
480.45	18.801
480.79	18.777
481.14	19.325
481.49	18.889
481.84	19.387
482.19	19.037
482.53	18.945
482.88	19.497
483.23	19.065
483.58	19.472
483.92	19.166
484.27	18.780
484.62	18.922
484.97	18.486
485.31	18.151
485.66	17.355
486.01	17.115
486.36	16.210
486.70	16.471
487.05	16.960
487.40	17.901
487.75	17.853
488.09	18.653
488.44	18.546
488.79	19.096
489.13	18.946
489.48	18.679
489.83	18.386
490.17	19.071
490.52	18.689
490.87	18.272
491.22	18.508
491.56	18.314
491.91	18.288
492.26	18.741
492.60	18.249
492.95	17.914
493.30	18.131
493.64	18.572
493.99	18.013
494.34	18.733
494.68	18.636
495.03	18.374
495.37	18.474
495.72	18.713
496.07	17.958
496.41	17.389
496.76	18.250
497.11	18.325
497.45	18.398
497.80	18.762
498.14	18.019
498.49	17.902
498.84	18.360
499.18	19.048
499.53	19.136
499.87	18.360
500.22	18.747
500.56	18.641
500.91	18.413
501.26	18.729
501.60	18.842
501.95	18.286
502.29	18.463
502.64	17.970
502.98	17.859
503.33	18.921
503.67	18.515
504.02	18.288
504.36	17.969
504.71	18.906
505.06	18.120
505.40	18.765
505.75	18.129
506.09	18.367
506.44	18.352
506.78	19.143
507.13	19.132
507.47	19.242
507.82	18.744
508.16	18.744
508.51	18.163
508.85	18.371
509.19	18.469
509.54	18.418
509.88	18.959
510.23	18.509
510.57	19.866
510.92	18.229
511.26	18.962
511.61	19.554
511.95	18.058
512.30	18.611
512.64	18.807
512.98	18.917
513.33	18.951
513.67	18.730
514.02	18.831
514.36	19.443
514.70	19.148
515.05	19.520
515.39	19.013
515.74	19.088
516.08	19.452
516.42	19.756
516.77	19.788
517.11	18.701
517.46	20.203
517.80	19.803
518.14	18.992
518.49	19.545
518.83	19.886
519.17	18.938
519.52	19.751
519.86	19.909
520.20	19.827
520.55	19.509
520.89	20.195
521.23	19.843
521.58	19.508
521.92	20.576
522.26	19.402
522.61	20.000
522.95	18.969
523.29	19.781
523.64	20.366
523.98	19.778
524.32	20.084
524.66	19.242
525.01	19.301
525.35	19.517
525.69	18.042
526.04	20.125
526.38	19.707
526.72	19.325
527.06	20.276
527.41	18.379
527.75	19.614
528.09	19.717
528.43	20.013
528.78	19.545
529.12	20.545
529.46	19.351
529.80	20.050
530.15	20.249
530.49	19.877
530.83	20.316
531.17	19.974
531.51	20.623
531.86	20.581
532.20	20.469
532.54	20.436
532.88	19.641
533.22	18.988
533.57	19.074
533.91	19.205
534.25	18.834
534.59	19.402
534.93	18.501
535.27	19.252
535.62	19.658
535.96	18.958
536.30	19.008
536.64	19.961
536.98	20.372
537.32	19.882
537.66	19.533
538.01	19.092
538.35	20.103
538.69	21.187
539.03	19.753
539.37	17.572
539.71	18.989
540.05	20.065
540.39	18.937
540.73	18.435
541.07	19.598
541.42	19.439
541.76	19.806
542.10	19.276
542.44	18.874
542.78	20.487
543.12	18.874
543.46	20.262
543.80	19.714
544.14	18.614
544.48	19.429
544.82	18.730
545.16	19.453
545.50	18.895
545.84	18.952
546.18	19.259
546.52	19.477
546.86	19.588
547.20	19.016
547.54	19.572
547.88	20.217
548.22	18.991
548.56	18.994
548.90	20.166
549.24	18.519
549.58	20.123
549.92	18.613
550.26	20.526
550.60	19.295
550.94	19.437
551.28	18.288
551.62	19.482
551.96	19.368
552.30	20.000
552.64	19.540
552.98	20.407
553.32	19.218
553.66	19.087
554.00	18.806
554.34	19.531
554.68	18.956
555.02	19.746
555.36	19.624
555.69	18.742
556.03	19.246
556.37	19.100
556.71	18.076
557.05	18.347
557.39	19.104
557.73	18.843
558.07	19.652
558.41	18.886
558.75	19.691
559.08	19.612
559.42	19.652
559.76	19.853
560.10	19.058
560.44	19.217
560.78	18.829
561.12	18.799
561.45	18.970
561.79	18.260
562.13	18.981
562.47	18.716
562.81	18.550
563.15	19.197
563.48	19.430
563.82	18.526
564.16	18.901
564.50	17.773
564.84	18.205
565.17	18.726
565.51	18.658
565.85	18.338
566.19	18.535
566.52	19.253
566.86	18.264
567.20	19.281
567.54	18.379
567.88	17.979
568.21	18.095
568.55	18.301
568.89	18.191
569.23	18.494
569.56	17.368
569.90	17.057
570.24	16.649
570.57	17.409
570.91	16.936
571.25	16.770
571.59	16.524
571.92	16.244
572.26	17.187
572.60	17.327
572.93	16.732
573.27	17.036
573.61	17.420
573.95	16.822
574.28	16.407
574.62	16.424
574.96	16.249
575.29	16.198
575.63	16.819
575.97	16.298
576.30	16.888
576.64	16.957
576.98	16.578
577.31	16.428
577.65	16.395
577.98	16.345
578.32	16.144
578.66	15.975
578.99	16.709
579.33	16.582
579.67	16.395
580.00	16.231
580.34	16.682
580.67	16.474
581.01	16.685
581.35	16.404
581.68	16.087
582.02	15.987
582.35	16.347
582.69	16.487
583.02	15.966
583.36	17.039
583.70	16.883
584.03	17.137
584.37	17.523
584.70	16.954
585.04	16.781
585.37	16.938
585.71	17.011
586.04	16.912
586.38	17.503
586.72	16.874
587.05	16.925
587.39	16.702
587.72	17.186
588.06	16.782
588.39	17.394
588.73	17.190
589.06	17.389
589.40	17.037
589.73	17.705
590.07	17.865
590.40	17.209
590.73	17.642
591.07	17.460
591.40	18.726
591.74	18.528
592.07	17.147
592.41	18.148
592.74	17.116
593.08	17.155
593.41	17.305
593.75	16.896
594.08	16.728
594.41	17.321
594.75	17.412
595.08	17.359
595.42	17.373
595.75	17.521
596.09	18.213
596.42	18.468
596.75	18.024
597.09	18.658
597.42	17.327
597.75	17.896
598.09	18.217
598.42	16.667
598.76	17.795
599.09	17.370
599.42	17.467
599.76	17.460
600.09	16.794
600.42	16.947
600.76	16.893
601.09	17.304
601.42	17.047
601.76	17.533
602.09	17.431
602.42	18.193
602.76	18.017
603.09	17.939
603.42	17.845
603.76	17.530
604.09	16.945
604.42	17.163
604.76	17.841
605.09	17.912
605.42	18.170
605.75	17.550
606.09	17.609
606.42	18.104
606.75	18.042
607.09	17.832
607.42	17.886
607.75	17.806
608.08	17.803
608.42	17.795
608.75	18.395
609.08	17.854
609.41	18.182
609.75	18.437
610.08	17.955
610.41	17.179
610.74	17.833
611.07	18.231
611.41	17.272
611.74	18.653
612.07	18.168
612.40	18.416
612.73	17.632
613.07	19.019
613.40	18.641
613.73	18.144
614.06	18.280
614.39	18.301
614.72	18.579
615.06	18.277
615.39	17.834
615.72	18.252
616.05	17.544
616.38	18.621
616.71	19.002
617.05	18.846
617.38	17.859
617.71	18.258
618.04	19.351
618.37	18.569
618.70	20.100
619.03	19.737
619.36	19.280
619.69	19.085
620.03	20.398
620.36	18.917
620.69	19.589
621.02	19.322
621.35	18.716
621.68	18.069
622.01	18.963
622.34	19.516
622.67	18.327
623.00	17.975
623.33	19.014
623.66	19.943
623.99	18.336
624.32	19.401
624.65	17.797
624.99	18.626
625.32	17.813
625.65	19.609
625.98	19.754
626.31	19.285
626.64	19.837
626.97	19.368
627.30	18.454
627.63	20.591
627.96	19.765
628.29	18.373
628.62	20.037
628.95	22.358
629.28	20.438
629.61	20.623
629.94	20.095
630.26	19.638
630.59	21.163
630.92	19.540
631.25	18.657
631.58	19.319
631.91	19.878
632.24	20.253
632.57	21.616
632.90	20.395
633.23	21.029
633.56	20.678
633.89	20.612
634.22	20.431
634.55	21.420
634.88	21.078
635.20	21.625
635.53	21.325
635.86	21.040
636.19	21.412
636.52	19.954
636.85	19.129
637.18	20.161
637.51	21.277
637.83	19.482
638.16	20.972
638.49	20.403
638.82	21.239
639.15	20.625
639.48	21.072
639.81	21.582
640.13	22.135
640.46	20.134
640.79	21.532
641.12	18.707
641.45	21.089
641.77	21.060
642.10	21.345
642.43	19.369
642.76	21.827
643.09	21.319
643.41	21.244
643.74	22.685
644.07	20.732
644.40	20.706
644.73	21.732
645.05	23.138
645.38	21.169
645.71	20.934
646.04	23.256
646.36	24.040
646.69	20.569
647.02	21.599
647.35	22.680
647.67	21.947
648.00	22.927
648.33	22.937
648.66	20.758
648.98	21.289
649.31	20.030
649.64	22.123
649.96	20.268
650.29	20.537
650.62	20.388
650.94	21.880
651.27	21.959
651.60	23.960
651.92	22.684
652.25	19.218
652.58	20.561
652.90	23.065
653.23	20.185
653.56	19.528
653.88	21.078
654.21	22.117
654.54	21.452
654.86	20.561
655.19	19.865
655.52	16.079
655.84	13.127
656.17	16.668
656.49	22.486
656.82	22.899
657.15	17.681
657.47	13.416
657.80	10.442
658.13	11.037
658.45	16.888
658.78	17.175
659.10	18.288
659.43	19.435
659.75	19.741
660.08	20.633
660.41	22.998
660.73	23.380
661.06	20.382
661.38	22.182
661.71	22.692
662.03	23.669
662.36	19.881
662.68	23.695
663.01	22.828
663.33	23.567
663.66	23.529
663.98	22.678
664.31	21.218
664.63	21.457
664.96	20.523
665.28	22.131
665.61	19.688
665.93	21.328
666.26	19.473
666.58	20.921
666.91	26.638
667.23	22.921
667.56	19.870
667.88	23.291
668.21	23.667
668.53	24.512
668.86	21.212
669.18	22.814
669.50	22.391
669.83	24.183
670.15	23.333
670.48	23.094
670.80	21.336
671.13	20.594
671.45	21.064
671.77	22.200
672.10	21.811
672.42	21.025
672.75	20.730
673.07	18.310
673.39	19.892
673.72	19.922
674.04	23.333
674.37	21.748
674.69	20.859
675.01	20.921
675.34	24.435
675.66	26.105
675.98	23.218
676.31	24.580
676.63	22.081
676.95	22.222
677.28	21.262
677.60	18.901
677.92	21.308
678.25	21.561
678.57	21.315
678.89	21.042
679.22	19.057
679.54	20.611
679.86	22.202
680.18	20.215
680.51	20.035
680.83	20.819
681.15	22.453
681.48	21.928
681.80	22.050
682.12	21.456
682.44	19.729
682.77	23.218
683.09	23.176
683.41	21.508
683.73	22.737
684.06	23.140
684.38	22.701
684.70	20.155
685.02	22.702
685.34	20.696
685.67	18.531
685.99	19.416
686.31	18.430
686.63	18.198
686.96	18.214
687.28	19.856
687.60	20.290
687.92	21.024
688.24	21.673
688.56	20.884
688.89	21.992
689.21	23.581
689.53	21.503
689.85	22.838
690.17	20.911
690.49	22.505
690.82	18.224
691.14	18.527
691.46	18.565
691.78	19.478
692.10	21.694
692.42	22.156
692.74	20.332
693.06	21.277
693.39	22.177
693.71	20.961
694.03	20.842
694.35	20.779
694.67	19.222
694.99	19.756
695.31	20.588
695.63	19.378
695.95	22.983
696.27	20.051
696.59	18.653
696.91	22.280
697.23	17.371
697.56	22.601
697.88	17.178
698.20	19.583
698.52	21.290
698.84	20.713
699.16	19.124
699.48	21.853
699.80	20.531
700.12	24.156
700.44	22.281
700.76	23.481
701.08	20.402
701.40	24.022
701.72	23.615
702.04	25.284
702.36	20.680
702.68	22.380
703.00	23.823
703.32	23.138
703.64	21.984
703.96	21.448
704.28	22.674
704.60	21.701
704.91	22.552
705.23	21.701
705.55	24.917
705.87	24.585
706.19	20.495
706.51	19.626
706.83	21.515
707.15	25.210
707.47	20.455
707.79	23.096
708.11	21.461
708.43	20.476
708.74	20.408
709.06	23.377
709.38	23.360
709.70	24.419
710.02	24.036
710.34	19.394
710.66	25.373
710.98	21.875
711.29	19.767
711.61	24.484
711.93	23.077
712.25	25.402
712.57	20.956
712.89	25.260
713.20	23.708
713.52	26.316
713.84	20.570
714.16	19.512
714.48	22.414
714.80	23.100
715.11	23.055
715.43	15.727
715.75	23.768
716.07	22.364
716.39	19.436
716.70	21.262
717.02	22.302
717.34	24.382
717.66	20.522
717.97	26.693
718.29	23.333
718.61	24.088
718.93	28.309
719.24	19.377
719.56	22.034
719.88	23.051
720.20	21.284
720.51	18.815
720.83	22.305
721.15	21.642
721.46	23.759
721.78	24.731
722.10	22.642
722.42	21.429
722.73	21.348
723.05	20.082
723.37	21.457
723.68	24.710
724.00	21.138
724.32	25.403
724.63	19.919
724.95	20.921
725.27	21.457
725.58	24.219
725.90	24.088
726.22	18.113
726.53	22.569
726.85	20.819
727.16	24.199
727.48	22.695
727.80	18.182
728.11	21.377
728.43	15.000
728.74	19.713
729.06	22.993
729.38	26.838
729.69	25.979
730.01	19.454
730.32	18.750
730.64	23.077
730.96	16.832
731.27	21.854
731.59	23.242
731.90	21.866
732.22	20.186
732.53	19.814
732.85	24.679
733.16	21.865
733.48	21.262
733.80	19.805
734.11	20.382
734.43	20.710
734.74	19.714
735.06	21.203
735.37	23.121
735.69	18.790
736.00	19.935
736.32	23.053
736.63	18.211
736.95	23.003
737.26	14.626
737.58	17.742
737.89	20.067
738.21	28.328
738.52	18.571
738.83	19.245
739.15	21.538
739.46	22.993
739.78	19.792
740.09	22.462
740.41	18.710
740.72	16.028
741.04	19.259
741.35	22.500
741.66	27.111
741.98	23.113
742.29	27.273
742.61	26.724
742.92	23.982
743.23	19.658
743.55	22.800
743.86	20.614
744.18	24.336
744.49	23.445
744.80	25.352
745.12	29.545
745.43	22.907
745.74	21.171
746.06	19.725
746.37	25.112
746.68	22.172
747.00	23.148
747.31	22.381
747.62	21.239
747.94	20.705
748.25	20.000
748.56	27.313
748.88	21.287
749.19	30.000
749.50	23.256
749.82	21.951
750.13	18.367
750.44	23.358
750.75	22.456
751.07	24.116
751.38	21.254
751.69	18.773
752.01	22.556
752.32	20.217
752.63	24.468
752.94	20.902
753.26	24.800
753.57	18.699
753.88	22.656
754.19	20.357
754.51	23.611
754.82	18.412
755.13	24.528
755.44	21.805
755.75	18.978
756.07	18.794
756.38	20.438
756.69	17.785
757.00	19.162
757.31	19.881
757.63	19.298
757.94	17.694
758.25	17.892
758.56	15.062
758.87	16.398
759.18	18.788
759.50	17.868
759.81	20.872
760.12	15.937
760.43	20.630
760.74	19.022
761.05	19.209
761.36	17.647
761.67	22.159
761.99	20.497
762.30	19.444
762.61	22.137
762.92	22.266
763.23	18.908
763.54	23.200
763.85	19.141
764.16	21.154
764.47	22.814
764.78	18.728
765.10	18.038
765.41	20.059
765.72	18.862
766.03	20.063
766.34	19.667
766.65	24.681
766.96	23.504
767.27	28.934
767.58	20.312
767.89	25.789
768.20	20.690
768.51	25.888
768.82	25.688
769.13	18.293
769.44	23.482
769.75	19.313
770.06	20.642
770.37	22.172
770.68	21.759
770.99	21.778
771.30	18.443
771.61	22.422
771.92	22.131
772.23	26.050
772.54	24.103
772.85	24.084
773.16	21.809
773.47	26.630
773.78	29.949
774.09	25.595
774.39	28.070
774.70	34.568
775.01	30.435
775.32	28.758
775.63	30.263
775.94	23.741
776.25	22.047
776.56	23.881
776.87	22.951
777.18	28.906
777.48	36.641
777.79	27.273
778.10	32.593
778.41	34.821
778.72	21.898
779.03	28.859
779.34	24.161
779.65	26.351
779.95	24.540
780.26	35.294
780.57	24.828
780.88	22.656
781.19	29.323
781.50	31.757
781.80	23.899
782.11	24.859
782.42	20.253
782.73	19.018
783.04	29.730
783.34	26.056
783.65	32.192
783.96	32.090
784.27	27.972
784.57	20.144
784.88	13.889
785.19	28.571
785.50	29.245
785.81	32.090
786.11	36.885
786.42	27.907
786.73	26.549
787.04	34.906
787.34	33.036
787.65	25.000
787.96	36.937
788.26	27.273
788.57	37.288
788.88	35.537
789.19	36.111
789.49	33.333
789.80	32.061
790.11	46.667
790.41	43.564
790.72	30.120
791.03	34.783
791.33	30.233
791.64	35.052
791.95	33.663
792.25	22.222
792.56	32.468
792.87	44.872
793.17	48.101
793.48	32.184
793.79	41.379
794.09	29.545
794.40	36.134
794.70	30.882
795.01	22.222
795.32	22.302
795.62	28.346
795.93	31.897
796.23	22.124
796.54	31.765
796.85	40.541
797.15	54.930
797.46	25.758
797.76	40.964
798.07	41.772
798.37	24.615
798.68	34.848
798.99	21.127
799.29	46.753
799.60	29.545
799.90	35.616
800.21	43.284
800.51	55.172
800.82	43.860
801.12	42.623
801.43	59.091
801.73	27.027
802.04	46.032
802.34	54.321
802.65	56.250
802.95	49.153
803.26	56.250
803.56	37.143
803.87	38.462
804.17	25.000
804.48	59.259
804.78	41.379
805.09	45.588
805.39	44.231
805.70	42.857
806.00	62.295
806.30	22.727
806.61	37.805
806.91	30.380
807.22	32.895
807.52	4.478
807.83	52.113
808.13	32.812
808.43	50.000
808.74	42.105
809.04	37.681
809.35	46.269
809.65	38.158
809.95	61.290
810.26	49.153
810.56	41.270
810.86	63.636
811.17	66.667
811.47	63.333
811.77	51.852
812.08	70.909
812.38	62.000
812.69	80.556
812.99	97.727
813.29	57.143
813.59	9.524
813.90	65.306
814.20	38.182
814.50	53.846
814.81	52.941
815.11	48.980
815.41	47.541
815.72	71.429
816.02	47.273
816.32	52.381
816.62	57.500
816.93	58.537
817.23	69.048
817.53	52.273
817.84	63.636
818.14	50.000
818.44	62.222
818.74	76.471
819.04	47.500
819.35	94.286
819.65	50.000
819.95	78.571
820.25	60.000
820.56	87.179
820.86	59.091
821.16	72.093
821.46	53.846
821.76	72.000
822.07	60.000
822.37	57.500
822.67	66.667
822.97	43.137
823.27	103.571
823.57	70.270
823.88	92.500
824.18	83.333
824.48	100.000
824.78	76.000
825.08	58.333
825.38	81.081
825.69	46.341
825.99	95.833
826.29	89.655
826.59	68.421
826.89	68.421
827.19	67.647
827.49	74.194
827.79	52.273
828.09	54.545
828.39	63.830
828.70	69.388
829.00	40.741
829.30	45.161
829.60	45.000
829.90	113.333
830.20	67.857
830.50	95.652
830.80	34.783
831.10	90.000
831.40	90.000
831.70	95.652
832.00	111.538
832.30	59.259
832.60	143.750
832.90	106.667
833.20	164.286
833.50	106.452
833.80	79.310
834.10	78.125
834.40	111.538
834.70	116.667
835.00	152.381
835.30	80.000
835.60	76.923
835.90	72.414
836.20	78.571
836.50	96.552
836.80	76.000
837.10	72.222
837.40	95.238
837.70	100.000
838.00	66.667
838.30	71.429
838.60	147.619
838.90	100.000
839.19	80.000
839.49	171.429
839.79	115.000
840.09	100.000
840.39	100.000
840.69	165.217
840.99	116.667
841.29	190.000
841.59	125.000
841.88	156.250
842.18	55.172
842.48	104.762
842.78	120.000
843.08	86.957
843.38	78.125
843.68	316.667
843.97	80.769
844.27	68.966
844.57	133.333
844.87	181.250
845.17	85.185
845.47	533.333
845.76	177.778
846.06	152.941
846.36	37.500
846.66	107.143
846.96	75.000
847.25	90.909
847.55	181.818
847.85	126.087
848.15	170.000
848.44	135.714
848.74	105.556
849.04	117.647
849.34	200.000
849.63	121.053
849.93	100.000
850.23	340.000
850.53	200.000
850.82	1150.000
851.12	-1400.000
851.42	1100.000
851.71	145.000
852.01	-333.333
852.31	116.667
852.61	700.000
852.90	133.333
853.20	72.000
853.50	147.059
853.79	119.048
854.09	95.833
854.39	118.750
854.68	86.486
854.98	87.097
855.28	53.333
855.57	110.345
855.87	88.889
856.17	110.526
856.46	40.000
856.76	147.059
857.05	89.655
857.35	158.333
857.65	160.000
857.94	65.217
858.24	96.154
858.53	155.000
858.83	150.000
859.13	106.667
859.42	0.000
859.72	177.778
860.01	136.364
860.31	140.909
860.60	110.526
860.90	126.087
861.20	277.778
861.49	308.333
861.79	-1600.000
862.08	262.500
862.38	133.333
862.67	107.692
862.97	164.706
863.26	222.222
863.56	88.889
863.85	166.667
864.15	225.000
864.44	173.333
864.74	400.000
865.03	175.000
865.33	178.947
865.62	190.909
865.92	146.154
866.21	125.000
866.51	0.000
866.80	145.455
867.10	480.000
867.39	161.538
867.69	145.455
867.98	84.211
868.27	154.545
868.57	110.526
868.86	-1300.000
869.16	150.000
869.45	750.000
869.75	-1500.000
870.04	133.333
870.33	142.857
870.63	575.000
870.92	1050.000
871.22	342.857
871.51	241.176
871.80	90.476
872.10	257.143
>>>>>End Processed Spectral Data<<<<<
