SpectraSuite Data File
++++++++++++++++++++++++++++++++++++
Date: Wed May 13 16:17:42 PDT 2015
User: schluterlab
Dark Spectrum Present: Yes
Reference Spectrum Present: Yes
Number of Sampled Component Spectra: 1
Spectrometers: USB2E3373
Integration Time (usec): 3000 (USB2E3373)
Spectra Averaged: 3 (USB2E3373)
Boxcar Smoothing: 0 (USB2E3373)
Correct for Electrical Dark: No (USB2E3373)
Strobe/Lamp Enabled: No (USB2E3373)
Correct for Detector Non-linearity: No (USB2E3373)
Correct for Stray Light: No (USB2E3373)
Number of Pixels in Processed Spectrum: 2048
>>>>>Begin Processed Spectral Data<<<<<
178.53	0.000
178.91	-1000.000
179.29	-1075.000
179.67	-222.222
180.04	-1100.000
180.42	1900.000
180.80	680.000
181.18	-675.000
181.56	585.714
181.94	0.000
182.31	-585.714
182.69	1466.667
183.07	-537.500
183.45	-355.556
183.83	381.818
184.20	-370.000
184.58	1500.000
184.96	4700.000
185.34	-680.000
185.72	-487.500
186.09	-1950.000
186.47	1800.000
186.85	1950.000
187.23	4900.000
187.61	-1133.333
187.98	1125.000
188.36	409.091
188.74	390.909
189.12	-520.000
189.49	500.000
189.87	-3100.000
190.25	-875.000
190.63	328.571
191.00	323.077
191.38	600.000
191.76	-975.000
192.14	950.000
192.51	587.500
192.89	850.000
193.27	500.000
193.65	-1100.000
194.02	430.000
194.40	740.000
194.78	530.000
195.15	433.333
195.53	440.000
195.91	-1500.000
196.29	287.500
196.66	273.684
197.04	-340.000
197.42	0.000
197.79	470.000
198.17	-2700.000
198.55	657.143
198.92	600.000
199.30	860.000
199.68	0.000
200.05	277.778
200.43	657.143
200.81	3900.000
201.18	1433.333
201.56	-1033.333
201.94	500.000
202.31	511.111
202.69	341.667
203.07	450.000
203.44	0.000
203.82	1025.000
204.19	600.000
204.57	314.286
204.95	587.500
205.32	1333.333
205.70	409.091
206.08	285.714
206.45	2000.000
206.83	293.750
207.20	800.000
207.58	720.000
207.96	288.889
208.33	512.500
208.71	-800.000
209.08	671.429
209.46	455.556
209.84	336.364
210.21	-1133.333
210.59	925.000
210.96	-400.000
211.34	2000.000
211.71	420.000
212.09	716.667
212.46	0.000
212.84	1566.667
213.22	1150.000
213.59	-4000.000
213.97	633.333
214.34	757.143
214.72	490.909
215.09	740.000
215.47	-1950.000
215.84	-2250.000
216.22	1433.333
216.59	314.286
216.97	975.000
217.34	300.000
217.72	-550.000
218.09	0.000
218.47	-4500.000
218.84	533.333
219.22	514.286
219.59	1466.667
219.97	-542.857
220.34	820.000
220.72	-1200.000
221.09	392.857
221.47	1200.000
221.84	-700.000
222.22	0.000
222.59	1350.000
222.97	-1900.000
223.34	860.000
223.72	307.692
224.09	840.000
224.46	1950.000
224.84	-3400.000
225.21	-780.000
225.59	-3500.000
225.96	380.000
226.34	230.000
226.71	2200.000
227.08	500.000
227.46	480.000
227.83	-850.000
228.21	-2050.000
228.58	522.222
228.95	-1650.000
229.33	-1800.000
229.70	1133.333
230.08	700.000
230.45	-580.000
230.82	408.333
231.20	516.667
231.57	457.143
231.95	408.333
232.32	209.091
232.69	272.727
233.07	485.714
233.44	284.615
233.81	-1166.667
234.19	257.895
234.56	350.000
234.93	300.000
235.31	327.273
235.68	200.000
236.05	264.286
236.43	121.212
236.80	210.526
237.17	2600.000
237.55	171.429
237.92	178.571
238.29	157.143
238.67	132.258
239.04	131.034
239.41	116.667
239.79	63.043
240.16	97.619
240.53	95.455
240.91	62.745
241.28	66.000
241.65	74.000
242.02	71.014
242.40	59.677
242.77	63.333
243.14	51.613
243.51	53.933
243.89	52.941
244.26	44.444
244.63	37.634
245.00	43.617
245.38	37.624
245.75	33.645
246.12	24.771
246.49	34.307
246.87	37.600
247.24	33.846
247.61	32.857
247.98	33.333
248.36	25.000
248.73	27.389
249.10	27.389
249.47	20.904
249.84	26.738
250.22	20.321
250.59	20.118
250.96	22.222
251.33	21.801
251.70	27.723
252.08	19.048
252.45	17.040
252.82	16.087
253.19	20.426
253.56	17.647
253.94	19.917
254.31	18.750
254.68	17.692
255.05	18.081
255.42	15.854
255.79	16.176
256.16	16.968
256.54	16.608
256.91	17.438
257.28	12.590
257.65	15.512
258.02	16.460
258.39	15.142
258.76	13.712
259.14	13.690
259.51	12.766
259.88	10.559
260.25	15.106
260.62	15.607
260.99	10.559
261.36	15.315
261.73	10.315
262.10	11.919
262.47	14.085
262.85	13.092
263.22	10.256
263.59	15.100
263.96	11.813
264.33	14.099
264.70	10.789
265.07	13.811
265.44	10.354
265.81	8.759
266.18	10.804
266.55	6.829
266.92	8.600
267.29	11.806
267.66	9.174
268.03	10.909
268.40	9.579
268.77	9.069
269.14	10.360
269.51	9.255
269.88	10.723
270.25	11.061
270.62	9.213
270.99	11.828
271.36	9.871
271.73	7.243
272.10	8.696
272.47	9.677
272.84	8.658
273.21	10.063
273.58	7.205
273.95	9.644
274.32	9.711
274.69	8.565
275.06	9.055
275.43	11.702
275.80	10.421
276.17	8.554
276.54	8.316
276.91	6.917
277.28	7.422
277.65	9.091
278.02	6.832
278.39	10.156
278.76	8.909
279.13	9.245
279.50	9.497
279.87	8.367
280.23	8.583
280.60	8.511
280.97	6.839
281.34	9.558
281.71	10.364
282.08	8.445
282.45	8.364
282.82	7.815
283.19	7.308
283.56	6.667
283.92	10.491
284.29	7.937
284.66	7.078
285.03	6.691
285.40	6.866
285.77	6.397
286.14	6.736
286.51	10.167
286.87	7.350
287.24	7.166
287.61	8.989
287.98	7.143
288.35	7.132
288.72	7.477
289.08	7.199
289.45	6.755
289.82	7.642
290.19	5.651
290.56	7.351
290.93	5.589
291.29	6.748
291.66	7.670
292.03	9.157
292.40	7.342
292.77	6.657
293.13	7.910
293.50	6.851
293.87	8.000
294.24	5.037
294.60	3.930
294.97	6.541
295.34	7.475
295.71	6.392
296.08	6.125
296.44	5.502
296.81	6.209
297.18	7.182
297.55	4.222
297.91	5.013
298.28	6.158
298.65	7.311
299.02	5.929
299.38	4.781
299.75	4.852
300.12	5.236
300.48	6.000
300.85	6.042
301.22	5.096
301.59	4.924
301.95	6.045
302.32	5.648
302.69	5.974
303.05	5.091
303.42	5.556
303.79	6.342
304.15	4.079
304.52	5.562
304.89	5.110
305.25	6.729
305.62	5.663
305.99	6.730
306.35	5.257
306.72	7.063
307.09	5.660
307.45	6.757
307.82	4.911
308.19	6.071
308.55	6.472
308.92	5.585
309.29	5.280
309.65	4.348
310.02	6.554
310.38	5.806
310.75	5.069
311.12	6.755
311.48	6.688
311.85	5.556
312.22	5.827
312.58	5.613
312.95	6.019
313.31	5.534
313.68	5.613
314.05	7.002
314.41	6.633
314.78	6.546
315.14	5.660
315.51	6.797
315.87	7.525
316.24	6.554
316.61	6.823
316.97	6.164
317.34	5.969
317.70	7.457
318.07	6.064
318.43	7.045
318.80	7.779
319.16	7.345
319.53	6.754
319.89	9.048
320.26	8.600
320.62	7.440
320.99	8.889
321.35	7.980
321.72	8.522
322.08	10.069
322.45	9.751
322.81	8.915
323.18	10.501
323.54	9.091
323.91	10.000
324.27	9.751
324.64	8.574
325.00	8.206
325.37	9.736
325.73	11.580
326.10	10.238
326.46	9.677
326.83	11.044
327.19	12.212
327.56	10.976
327.92	11.461
328.29	11.713
328.65	11.050
329.01	11.823
329.38	11.748
329.74	12.188
330.11	12.535
330.47	13.499
330.84	13.879
331.20	12.933
331.56	12.936
331.93	13.056
332.29	13.487
332.66	14.248
333.02	13.803
333.38	13.369
333.75	14.528
334.11	13.434
334.48	13.398
334.84	14.154
335.20	13.909
335.57	12.965
335.93	14.554
336.29	14.194
336.66	14.157
337.02	14.389
337.38	13.426
337.75	13.102
338.11	14.414
338.47	11.971
338.84	15.674
339.20	11.835
339.56	13.777
339.93	12.909
340.29	13.496
340.65	13.369
341.02	14.485
341.38	14.413
341.74	13.158
342.11	13.974
342.47	13.568
342.83	12.072
343.20	13.853
343.56	13.311
343.92	12.982
344.28	12.500
344.65	14.015
345.01	12.290
345.37	12.521
345.73	13.621
346.10	12.958
346.46	14.153
346.82	12.685
347.19	13.200
347.55	12.972
347.91	13.592
348.27	13.804
348.63	12.709
349.00	12.540
349.36	12.644
349.72	13.071
350.08	12.723
350.45	13.100
350.81	12.673
351.17	12.075
351.53	12.695
351.89	11.881
352.26	13.891
352.62	12.670
352.98	13.128
353.34	13.065
353.70	12.111
354.07	12.419
354.43	12.222
354.79	12.389
355.15	13.168
355.51	13.269
355.87	12.408
356.24	12.866
356.60	12.350
356.96	13.113
357.32	12.674
357.68	12.205
358.04	12.510
358.40	13.381
358.77	12.676
359.13	11.050
359.49	11.529
359.85	10.873
360.21	11.483
360.57	13.152
360.93	12.538
361.29	11.943
361.66	11.068
362.02	12.015
362.38	11.787
362.74	11.310
363.10	11.473
363.46	11.812
363.82	11.640
364.18	11.968
364.54	12.259
364.90	12.535
365.26	11.765
365.62	12.418
365.98	11.322
366.35	10.602
366.71	12.220
367.07	11.289
367.43	12.337
367.79	12.705
368.15	13.003
368.51	11.483
368.87	12.420
369.23	13.094
369.59	11.513
369.95	11.544
370.31	12.536
370.67	10.942
371.03	12.060
371.39	12.682
371.75	11.838
372.11	12.162
372.47	12.757
372.83	12.320
373.19	12.066
373.55	11.752
373.91	12.592
374.27	11.959
374.63	11.127
374.99	12.782
375.35	11.445
375.71	11.720
376.07	13.306
376.42	12.311
376.78	13.784
377.14	11.669
377.50	12.384
377.86	11.636
378.22	12.516
378.58	11.341
378.94	12.131
379.30	12.087
379.66	11.992
380.02	12.531
380.38	11.111
380.74	11.765
381.09	11.614
381.45	11.862
381.81	12.654
382.17	11.911
382.53	11.950
382.89	12.778
383.25	11.945
383.61	12.515
383.97	12.258
384.32	12.477
384.68	11.338
385.04	11.371
385.40	10.650
385.76	11.794
386.12	12.047
386.48	13.027
386.83	12.380
387.19	13.111
387.55	13.420
387.91	11.790
388.27	12.078
388.62	13.030
388.98	12.285
389.34	12.891
389.70	11.956
390.06	13.498
390.42	11.414
390.77	12.405
391.13	13.019
391.49	12.310
391.85	11.903
392.20	11.356
392.56	11.806
392.92	12.478
393.28	11.006
393.64	11.331
393.99	12.462
394.35	11.911
394.71	12.484
395.07	11.963
395.42	13.041
395.78	11.896
396.14	12.353
396.50	13.033
396.85	12.015
397.21	11.406
397.57	12.027
397.92	12.200
398.28	11.379
398.64	12.186
399.00	12.087
399.35	11.619
399.71	12.269
400.07	12.419
400.42	12.147
400.78	12.244
401.14	11.646
401.49	12.358
401.85	11.131
402.21	11.078
402.57	12.461
402.92	11.917
403.28	12.305
403.63	11.262
403.99	11.401
404.35	12.364
404.70	11.091
405.06	11.182
405.42	11.853
405.77	11.943
406.13	11.569
406.49	10.704
406.84	10.809
407.20	10.993
407.55	11.104
407.91	11.000
408.27	10.530
408.62	11.680
408.98	10.784
409.34	11.501
409.69	11.806
410.05	10.595
410.40	11.254
410.76	11.529
411.11	11.218
411.47	11.502
411.83	11.973
412.18	11.317
412.54	10.959
412.89	11.446
413.25	12.338
413.60	11.180
413.96	11.233
414.31	11.968
414.67	11.470
415.03	11.457
415.38	12.178
415.74	11.511
416.09	11.430
416.45	12.383
416.80	11.236
417.16	12.064
417.51	11.214
417.87	11.753
418.22	11.861
418.58	13.170
418.93	11.118
419.29	12.285
419.64	11.461
420.00	12.073
420.35	12.290
420.71	12.194
421.06	11.814
421.42	11.462
421.77	11.883
422.12	10.837
422.48	11.117
422.83	11.299
423.19	12.320
423.54	11.898
423.90	11.942
424.25	12.284
424.61	11.429
424.96	11.837
425.31	12.569
425.67	11.798
426.02	11.771
426.38	12.759
426.73	11.586
427.09	11.672
427.44	11.788
427.79	11.041
428.15	12.381
428.50	11.937
428.85	11.859
429.21	11.264
429.56	11.820
429.92	11.777
430.27	11.172
430.62	11.367
430.98	11.936
431.33	11.804
431.68	12.042
432.04	12.034
432.39	12.107
432.74	12.208
433.10	12.337
433.45	12.362
433.80	11.530
434.16	12.126
434.51	11.526
434.86	13.227
435.22	12.007
435.57	13.252
435.92	12.054
436.28	12.633
436.63	12.914
436.98	11.963
437.34	12.701
437.69	12.427
438.04	12.029
438.39	12.060
438.75	12.609
439.10	11.955
439.45	12.633
439.81	12.326
440.16	13.156
440.51	12.478
440.86	12.681
441.22	12.236
441.57	12.527
441.92	12.385
442.27	12.971
442.63	11.901
442.98	12.620
443.33	12.446
443.68	12.390
444.03	12.982
444.39	12.074
444.74	12.284
445.09	12.668
445.44	12.575
445.79	12.667
446.15	13.340
446.50	13.032
446.85	12.744
447.20	12.545
447.55	13.121
447.91	12.741
448.26	12.799
448.61	12.606
448.96	13.566
449.31	12.430
449.66	12.662
450.02	13.315
450.37	12.358
450.72	13.029
451.07	13.102
451.42	12.340
451.77	13.212
452.12	13.279
452.47	12.624
452.83	13.287
453.18	13.570
453.53	14.100
453.88	12.522
454.23	13.449
454.58	13.325
454.93	13.668
455.28	12.344
455.63	12.985
455.98	13.690
456.34	12.877
456.69	12.837
457.04	13.313
457.39	13.735
457.74	13.581
458.09	13.283
458.44	13.227
458.79	13.286
459.14	13.149
459.49	13.135
459.84	12.576
460.19	13.141
460.54	13.368
460.89	13.439
461.24	13.358
461.59	14.468
461.94	13.317
462.29	13.887
462.64	13.082
462.99	12.752
463.34	14.267
463.69	14.071
464.04	13.275
464.39	13.043
464.74	13.725
465.09	13.812
465.44	12.742
465.79	12.975
466.14	12.753
466.49	13.348
466.84	14.011
467.19	13.458
467.54	13.938
467.89	13.565
468.24	13.903
468.59	14.591
468.94	13.317
469.29	13.625
469.64	14.926
469.99	13.735
470.34	13.672
470.68	13.937
471.03	14.422
471.38	14.315
471.73	13.724
472.08	13.618
472.43	13.756
472.78	13.891
473.13	13.864
473.48	13.920
473.83	13.720
474.17	14.001
474.52	13.772
474.87	13.835
475.22	13.755
475.57	13.111
475.92	13.117
476.27	13.247
476.61	13.624
476.96	13.579
477.31	13.762
477.66	13.786
478.01	12.912
478.36	13.696
478.70	13.032
479.05	12.939
479.40	13.971
479.75	12.608
480.10	12.376
480.45	12.708
480.79	13.235
481.14	14.041
481.49	13.336
481.84	12.574
482.19	13.403
482.53	12.890
482.88	12.936
483.23	13.318
483.58	13.922
483.92	13.215
484.27	12.767
484.62	12.888
484.97	12.337
485.31	12.877
485.66	12.144
486.01	11.422
486.36	11.199
486.70	10.908
487.05	11.186
487.40	11.542
487.75	12.021
488.09	12.284
488.44	12.141
488.79	13.165
489.13	13.140
489.48	12.928
489.83	12.473
490.17	12.977
490.52	12.666
490.87	13.207
491.22	12.915
491.56	12.528
491.91	12.936
492.26	13.000
492.60	12.350
492.95	12.862
493.30	12.804
493.64	12.646
493.99	13.092
494.34	12.812
494.68	13.462
495.03	13.816
495.37	13.262
495.72	13.255
496.07	13.503
496.41	12.522
496.76	12.313
497.11	13.057
497.45	13.461
497.80	12.860
498.14	12.657
498.49	12.537
498.84	13.423
499.18	12.762
499.53	12.441
499.87	12.954
500.22	13.566
500.56	13.204
500.91	13.125
501.26	12.565
501.60	13.194
501.95	12.557
502.29	12.699
502.64	13.268
502.98	12.763
503.33	12.751
503.67	12.993
504.02	12.816
504.36	12.307
504.71	13.190
505.06	13.349
505.40	12.980
505.75	12.247
506.09	12.877
506.44	13.271
506.78	12.567
507.13	12.771
507.47	13.434
507.82	13.374
508.16	13.273
508.51	13.343
508.85	13.158
509.19	12.551
509.54	12.857
509.88	12.931
510.23	12.802
510.57	13.622
510.92	13.309
511.26	12.693
511.61	12.915
511.95	12.370
512.30	11.930
512.64	12.843
512.98	13.237
513.33	13.437
513.67	12.914
514.02	13.095
514.36	12.671
514.70	12.839
515.05	13.107
515.39	13.292
515.74	13.063
516.08	13.359
516.42	13.541
516.77	13.434
517.11	12.542
517.46	13.093
517.80	12.544
518.14	12.218
518.49	12.894
518.83	13.750
519.17	12.644
519.52	13.016
519.86	13.006
520.20	13.295
520.55	13.285
520.89	13.504
521.23	14.053
521.58	13.145
521.92	14.207
522.26	12.325
522.61	12.835
522.95	13.137
523.29	13.025
523.64	12.805
523.98	13.062
524.32	13.450
524.66	13.049
525.01	13.542
525.35	12.825
525.69	12.931
526.04	13.396
526.38	13.240
526.72	12.577
527.06	13.559
527.41	11.696
527.75	13.891
528.09	12.717
528.43	13.257
528.78	12.907
529.12	12.303
529.46	13.043
529.80	13.119
530.15	13.458
530.49	13.538
530.83	12.785
531.17	13.381
531.51	13.359
531.86	12.903
532.20	13.820
532.54	13.517
532.88	12.452
533.22	11.930
533.57	13.086
533.91	12.824
534.25	13.001
534.59	12.508
534.93	12.909
535.27	12.010
535.62	12.821
535.96	12.618
536.30	11.888
536.64	13.458
536.98	12.475
537.32	12.508
537.66	12.400
538.01	13.035
538.35	12.993
538.69	12.125
539.03	11.891
539.37	12.204
539.71	11.860
540.05	12.484
540.39	11.296
540.73	12.290
541.07	12.589
541.42	12.003
541.76	12.968
542.10	12.225
542.44	11.523
542.78	12.582
543.12	12.220
543.46	12.459
543.80	12.817
544.14	11.617
544.48	11.810
544.82	11.353
545.16	12.882
545.50	12.211
545.84	12.500
546.18	13.199
546.52	11.975
546.86	12.027
547.20	12.475
547.54	12.492
547.88	13.393
548.22	12.329
548.56	11.887
548.90	11.204
549.24	10.842
549.58	12.210
549.92	12.225
550.26	11.861
550.60	11.826
550.94	12.183
551.28	12.217
551.62	12.006
551.96	11.789
552.30	11.809
552.64	12.238
552.98	13.153
553.32	11.800
553.66	12.270
554.00	11.805
554.34	12.491
554.68	12.732
555.02	11.354
555.36	11.691
555.69	12.246
556.03	11.911
556.37	11.801
556.71	10.846
557.05	12.745
557.39	10.567
557.73	11.856
558.07	12.038
558.41	11.360
558.75	11.683
559.08	12.528
559.42	12.169
559.76	12.868
560.10	12.491
560.44	11.391
560.78	10.978
561.12	11.478
561.45	11.864
561.79	11.404
562.13	11.804
562.47	11.749
562.81	11.227
563.15	11.304
563.48	11.936
563.82	11.416
564.16	11.707
564.50	10.612
564.84	10.872
565.17	10.425
565.51	11.054
565.85	10.787
566.19	10.520
566.52	11.400
566.86	10.187
567.20	11.616
567.54	11.244
567.88	10.158
568.21	10.952
568.55	10.212
568.89	9.874
569.23	9.581
569.56	9.636
569.90	9.849
570.24	9.688
570.57	9.623
570.91	8.468
571.25	9.203
571.59	9.072
571.92	9.188
572.26	8.925
572.60	8.979
572.93	9.055
573.27	9.287
573.61	9.296
573.95	9.096
574.28	8.744
574.62	8.746
574.96	8.817
575.29	8.584
575.63	8.892
575.97	8.487
576.30	9.002
576.64	8.592
576.98	8.386
577.31	8.364
577.65	8.339
577.98	8.544
578.32	8.280
578.66	8.616
578.99	8.400
579.33	8.739
579.67	8.465
580.00	8.487
580.34	8.757
580.67	8.414
581.01	8.837
581.35	8.182
581.68	8.146
582.02	7.819
582.35	7.993
582.69	8.205
583.02	8.307
583.36	8.347
583.70	8.941
584.03	8.751
584.37	9.012
584.70	8.412
585.04	8.635
585.37	8.481
585.71	8.741
586.04	8.456
586.38	8.699
586.72	8.920
587.05	8.503
587.39	8.206
587.72	8.451
588.06	8.511
588.39	8.477
588.73	8.155
589.06	8.757
589.40	8.485
589.73	9.257
590.07	9.466
590.40	8.769
590.73	8.977
591.07	9.198
591.40	9.363
591.74	9.697
592.07	9.468
592.41	9.219
592.74	8.839
593.08	8.461
593.41	8.447
593.75	8.682
594.08	8.716
594.41	8.484
594.75	8.540
595.08	8.876
595.42	8.441
595.75	7.835
596.09	9.050
596.42	9.509
596.75	9.413
597.09	9.913
597.42	9.022
597.75	8.668
598.09	9.043
598.42	8.333
598.76	8.512
599.09	8.172
599.42	8.224
599.76	8.529
600.09	8.634
600.42	8.473
600.76	8.214
601.09	7.978
601.42	8.219
601.76	8.918
602.09	9.051
602.42	8.798
602.76	9.190
603.09	8.497
603.42	8.551
603.76	8.460
604.09	8.298
604.42	8.806
604.76	8.688
605.09	8.694
605.42	8.722
605.75	8.361
606.09	8.459
606.42	8.459
606.75	9.042
607.09	9.000
607.42	8.387
607.75	8.270
608.08	8.597
608.42	9.054
608.75	8.837
609.08	8.603
609.41	8.520
609.75	8.718
610.08	9.237
610.41	8.287
610.74	9.082
611.07	9.387
611.41	8.881
611.74	8.949
612.07	9.472
612.40	9.339
612.73	8.842
613.07	9.213
613.40	9.689
613.73	8.810
614.06	8.817
614.39	9.491
614.72	9.263
615.06	8.929
615.39	8.333
615.72	8.742
616.05	8.985
616.38	8.783
616.71	9.264
617.05	9.658
617.38	9.140
617.71	8.228
618.04	9.555
618.37	9.225
618.70	10.143
619.03	9.474
619.36	9.776
619.69	10.493
620.03	10.302
620.36	10.094
620.69	10.205
621.02	10.103
621.35	9.632
621.68	9.813
622.01	9.752
622.34	10.666
622.67	9.125
623.00	9.464
623.33	9.221
623.66	10.365
623.99	10.162
624.32	9.415
624.65	9.181
624.99	8.569
625.32	9.486
625.65	9.692
625.98	10.223
626.31	9.798
626.64	10.204
626.97	10.806
627.30	8.894
627.63	10.418
627.96	10.429
628.29	9.361
628.62	11.070
628.95	11.509
629.28	10.858
629.61	11.641
629.94	10.476
630.26	9.438
630.59	9.724
630.92	9.770
631.25	10.069
631.58	11.512
631.91	10.142
632.24	10.759
632.57	11.018
632.90	11.513
633.23	10.291
633.56	11.864
633.89	12.005
634.22	12.032
634.55	11.479
634.88	11.257
635.20	12.067
635.53	11.687
635.86	10.644
636.19	11.765
636.52	10.957
636.85	10.882
637.18	10.599
637.51	11.939
637.83	8.261
638.16	12.404
638.49	11.461
638.82	12.642
639.15	10.875
639.48	12.095
639.81	12.064
640.13	13.542
640.46	12.081
640.79	11.757
641.12	11.692
641.45	10.754
641.77	11.340
642.10	12.281
642.43	12.462
642.76	13.622
643.09	11.963
643.41	14.112
643.74	12.654
644.07	13.262
644.40	12.270
644.73	13.701
645.05	14.263
645.38	13.112
645.71	12.238
646.04	12.791
646.36	15.025
646.69	13.880
647.02	14.626
647.35	14.261
647.67	11.327
648.00	13.984
648.33	11.386
648.66	12.879
648.98	12.594
649.31	10.613
649.64	12.706
649.96	12.668
650.29	12.006
650.62	12.136
650.94	12.156
651.27	13.514
651.60	13.311
651.92	13.419
652.25	11.726
652.58	11.215
652.90	12.954
653.23	12.327
653.56	12.913
653.88	12.995
654.21	12.480
654.54	10.891
654.86	14.174
655.19	12.027
655.52	7.113
655.84	5.300
656.17	6.292
656.49	8.655
656.82	8.869
657.15	6.810
657.47	5.210
657.80	4.199
658.13	4.495
658.45	6.953
658.78	6.875
659.10	7.558
659.43	7.760
659.75	8.709
660.08	9.051
660.41	11.918
660.73	13.469
661.06	11.465
661.38	14.000
661.71	16.538
662.03	14.398
662.36	12.724
662.68	14.056
663.01	12.525
663.33	12.951
663.66	14.286
663.98	13.175
664.31	13.025
664.63	13.765
664.96	12.877
665.28	14.344
665.61	12.476
665.93	14.085
666.26	13.590
666.58	13.180
666.91	17.759
667.23	14.157
667.56	12.311
667.88	14.530
668.21	14.712
668.53	12.581
668.86	14.069
669.18	18.124
669.50	15.870
669.83	16.993
670.15	15.111
670.48	14.379
670.80	14.224
671.13	14.225
671.45	14.681
671.77	14.664
672.10	14.048
672.42	13.958
672.75	12.106
673.07	11.620
673.39	11.935
673.72	13.281
674.04	14.314
674.37	12.427
674.69	12.065
675.01	12.552
675.34	16.838
675.66	16.421
675.98	15.886
676.31	14.706
676.63	15.499
676.95	14.885
677.28	14.486
677.60	13.626
677.92	15.190
678.25	14.784
678.57	14.143
678.89	14.028
679.22	12.574
679.54	14.504
679.86	12.294
680.18	13.059
680.51	13.830
680.83	14.769
681.15	12.830
681.48	14.178
681.80	14.894
682.12	13.602
682.44	11.992
682.77	16.293
683.09	15.021
683.41	14.412
683.73	13.245
684.06	17.562
684.38	13.307
684.70	12.984
685.02	12.946
685.34	12.637
685.67	10.490
685.99	12.543
686.31	12.116
686.63	10.247
686.96	13.393
687.28	12.274
687.60	11.232
687.92	12.980
688.24	12.167
688.56	13.454
688.89	13.693
689.21	16.157
689.53	14.405
689.85	15.521
690.17	12.215
690.49	14.862
690.82	15.421
691.14	11.607
691.46	14.768
691.78	13.253
692.10	13.430
692.42	15.369
692.74	10.581
693.06	13.404
693.39	15.811
693.71	14.410
694.03	15.789
694.35	13.203
694.67	12.128
694.99	15.610
695.31	14.216
695.63	14.593
695.95	14.914
696.27	12.944
696.59	14.508
696.91	16.580
697.23	11.268
697.56	13.006
697.88	12.065
698.20	11.875
698.52	14.624
698.84	13.808
699.16	14.977
699.48	14.964
699.80	14.976
700.12	17.143
700.44	14.854
700.76	15.193
701.08	16.379
701.40	16.201
701.72	16.910
702.04	21.307
702.36	14.731
702.68	15.581
703.00	15.512
703.32	15.957
703.64	15.818
703.96	13.928
704.28	15.698
704.60	17.302
704.91	18.101
705.23	17.302
705.55	19.601
705.87	21.262
706.19	17.314
706.51	19.938
706.83	16.970
707.15	19.328
707.47	14.899
707.79	15.971
708.11	16.210
708.43	15.476
708.74	13.265
709.06	17.922
709.38	14.436
709.70	17.733
710.02	20.772
710.34	16.970
710.66	20.597
710.98	19.034
711.29	15.698
711.61	21.534
711.93	14.744
712.25	20.579
712.57	13.603
712.89	14.879
713.20	18.541
713.52	20.066
713.84	17.405
714.16	14.939
714.48	17.529
714.80	18.845
715.11	20.461
715.43	17.804
715.75	15.362
716.07	15.655
716.39	16.928
716.70	21.262
717.02	20.504
717.34	19.435
717.66	21.269
717.97	19.522
718.29	20.741
718.61	19.708
718.93	22.426
719.24	18.685
719.56	19.322
719.88	17.288
720.20	23.986
720.51	17.073
720.83	17.844
721.15	17.164
721.46	19.149
721.78	21.147
722.10	21.132
722.42	19.173
722.73	20.225
723.05	18.033
723.37	15.789
723.68	22.394
724.00	19.512
724.32	23.387
724.63	21.138
724.95	16.736
725.27	18.623
725.58	18.359
725.90	21.898
726.22	20.377
726.53	17.708
726.85	18.771
727.16	16.726
727.48	23.759
727.80	20.833
728.11	18.478
728.43	16.154
728.74	18.280
729.06	23.723
729.38	21.691
729.69	16.370
730.01	13.993
730.32	19.792
730.64	18.395
730.96	17.162
731.27	18.212
731.59	15.596
731.90	18.076
732.22	14.907
732.53	18.576
732.85	19.551
733.16	15.113
733.48	16.611
733.80	19.805
734.11	19.745
734.43	18.935
734.74	16.286
735.06	15.186
735.37	18.497
735.69	16.879
736.00	18.301
736.32	16.511
736.63	16.294
736.95	19.489
737.26	15.646
737.58	18.387
737.89	15.719
738.21	21.843
738.52	21.071
738.83	18.491
739.15	18.846
739.46	20.803
739.78	17.361
740.09	18.154
740.41	18.387
740.72	16.725
741.04	21.111
741.35	16.250
741.66	23.111
741.98	19.811
742.29	24.402
742.61	28.879
742.92	19.457
743.23	17.949
743.55	20.800
743.86	23.684
744.18	25.221
744.49	24.402
744.80	26.291
745.12	22.273
745.43	21.145
745.74	24.775
746.06	21.560
746.37	25.561
746.68	24.434
747.00	24.074
747.31	26.667
747.62	20.354
747.94	20.264
748.25	16.170
748.56	23.348
748.88	19.307
749.19	24.500
749.50	19.535
749.82	19.512
750.13	15.510
750.44	21.533
750.75	18.246
751.07	20.579
751.38	20.557
751.69	15.523
752.01	19.173
752.32	20.578
752.63	18.440
752.94	19.262
753.26	19.600
753.57	18.699
753.88	21.094
754.19	19.286
754.51	18.750
754.82	15.523
755.13	20.000
755.44	16.165
755.75	17.153
756.07	17.021
756.38	15.328
756.69	19.463
757.00	16.467
757.31	17.507
757.63	13.743
757.94	14.477
758.25	14.951
758.56	14.321
758.87	14.785
759.18	15.455
759.50	14.420
759.81	14.953
760.12	15.937
760.43	19.198
760.74	13.859
761.05	16.102
761.36	14.706
761.67	15.625
761.99	15.839
762.30	19.097
762.61	19.084
762.92	23.828
763.23	20.588
763.54	24.400
763.85	19.531
764.16	27.308
764.47	17.871
764.78	16.608
765.10	12.975
765.41	15.929
765.72	17.066
766.03	16.614
766.34	15.667
766.65	24.255
766.96	24.359
767.27	26.904
767.58	27.604
767.89	30.526
768.20	25.862
768.51	26.904
768.82	24.312
769.13	21.138
769.44	19.838
769.75	20.601
770.06	15.138
770.37	21.719
770.68	18.981
770.99	20.000
771.30	20.902
771.61	25.561
771.92	22.131
772.23	22.689
772.54	24.615
772.85	29.319
773.16	27.660
773.47	30.435
773.78	35.025
774.09	30.952
774.39	27.485
774.70	27.778
775.01	38.406
775.32	30.719
775.63	36.184
775.94	28.777
776.25	36.220
776.56	35.075
776.87	27.869
777.18	35.156
777.48	37.405
777.79	34.848
778.10	40.000
778.41	33.036
778.72	29.927
779.03	34.899
779.34	28.859
779.65	30.405
779.95	28.834
780.26	34.641
780.57	35.862
780.88	36.719
781.19	34.586
781.50	28.378
781.80	30.818
782.11	23.729
782.42	24.051
782.73	24.540
783.04	29.730
783.34	31.690
783.65	37.671
783.96	41.791
784.27	30.070
784.57	23.741
784.88	32.407
785.19	50.000
785.50	35.849
785.81	39.552
786.11	41.803
786.42	37.984
786.73	38.053
787.04	35.849
787.34	34.821
787.65	32.000
787.96	42.342
788.26	33.058
788.57	37.288
788.88	38.017
789.19	39.583
789.49	43.182
789.80	32.061
790.11	46.667
790.41	43.564
790.72	50.602
791.03	51.087
791.33	48.837
791.64	34.021
791.95	45.545
792.25	55.556
792.56	58.442
792.87	57.692
793.17	50.633
793.48	48.276
793.79	54.023
794.09	45.455
794.40	42.017
794.70	46.324
795.01	36.296
795.32	33.813
795.62	33.858
795.93	43.103
796.23	42.478
796.54	45.882
796.85	50.000
797.15	64.789
797.46	46.970
797.76	66.265
798.07	54.430
798.37	58.462
798.68	75.758
798.99	50.704
799.29	46.753
799.60	51.136
799.90	68.493
800.21	68.657
800.51	63.793
800.82	75.439
801.12	75.410
801.43	77.273
801.73	55.405
802.04	71.429
802.34	69.136
802.65	70.312
802.95	66.102
803.26	76.562
803.56	50.000
803.87	58.462
804.17	72.059
804.48	109.259
804.78	65.517
805.09	72.059
805.39	71.154
805.70	71.429
806.00	63.934
806.30	43.939
806.61	57.317
806.91	53.165
807.22	60.526
807.52	38.806
807.83	61.972
808.13	60.937
808.43	76.667
808.74	51.316
809.04	65.217
809.35	77.612
809.65	61.842
809.95	82.258
810.26	69.492
810.56	74.603
810.86	90.909
811.17	104.762
811.47	81.667
811.77	81.481
812.08	89.091
812.38	92.000
812.69	105.556
812.99	109.091
813.29	102.041
813.59	69.048
813.90	95.918
814.20	90.909
814.50	61.538
814.81	70.588
815.11	81.633
815.41	72.131
815.72	111.905
816.02	103.636
816.32	90.476
816.62	70.000
816.93	104.878
817.23	111.905
817.53	111.364
817.84	103.030
818.14	104.348
818.44	97.778
818.74	108.824
819.04	107.500
819.35	105.714
819.65	132.353
819.95	78.571
820.25	140.000
820.56	87.179
820.86	109.091
821.16	93.023
821.46	89.744
821.76	100.000
822.07	117.143
822.37	127.500
822.67	106.061
822.97	88.235
823.27	142.857
823.57	124.324
823.88	110.000
824.18	170.000
824.48	130.952
824.78	172.000
825.08	125.000
825.38	124.324
825.69	85.366
825.99	158.333
826.29	134.483
826.59	94.737
826.89	113.158
827.19	141.176
827.49	141.935
827.79	122.727
828.09	84.091
828.39	82.979
828.70	106.122
829.00	125.926
829.30	103.226
829.60	97.500
829.90	200.000
830.20	142.857
830.50	126.087
830.80	165.217
831.10	163.333
831.40	143.333
831.70	156.522
832.00	188.462
832.30	137.037
832.60	218.750
832.90	186.667
833.20	278.571
833.50	170.968
833.80	134.483
834.10	150.000
834.40	188.462
834.70	233.333
835.00	214.286
835.30	162.857
835.60	184.615
835.90	134.483
836.20	257.143
836.50	155.172
836.80	152.000
837.10	147.222
837.40	176.190
837.70	235.294
838.00	188.889
838.30	195.238
838.60	238.095
838.90	150.000
839.19	200.000
839.49	314.286
839.79	240.000
840.09	200.000
840.39	214.286
840.69	208.696
840.99	216.667
841.29	270.000
841.59	300.000
841.88	243.750
842.18	168.966
842.48	166.667
842.78	130.000
843.08	182.609
843.38	159.375
843.68	666.667
843.97	169.231
844.27	165.517
844.57	223.810
844.87	256.250
845.17	162.963
845.47	1066.667
845.76	366.667
846.06	194.118
846.36	387.500
846.66	335.714
846.96	218.750
847.25	336.364
847.55	300.000
847.85	191.304
848.15	340.000
848.44	271.429
848.74	183.333
849.04	176.471
849.34	400.000
849.63	215.789
849.93	418.182
850.23	780.000
850.53	292.857
850.82	1600.000
851.12	-3200.000
851.42	3500.000
851.71	210.000
852.01	-966.667
852.31	200.000
852.61	1400.000
852.90	176.190
853.20	208.000
853.50	305.882
853.79	233.333
854.09	220.833
854.39	256.250
854.68	135.135
854.98	158.065
855.28	153.333
855.57	165.517
855.87	155.556
856.17	200.000
856.46	146.667
856.76	205.882
857.05	175.862
857.35	170.833
857.65	320.000
857.94	147.826
858.24	161.538
858.53	230.000
858.83	177.273
859.13	200.000
859.42	0.000
859.72	366.667
860.01	381.818
860.31	204.545
860.60	247.368
860.90	213.043
861.20	477.778
861.49	400.000
861.79	-3700.000
862.08	562.500
862.38	247.619
862.67	207.692
862.97	294.118
863.26	466.667
863.56	194.444
863.85	208.333
864.15	487.500
864.44	326.667
864.74	650.000
865.03	537.500
865.33	231.579
865.62	390.909
865.92	315.385
866.21	350.000
866.51	0.000
866.80	363.636
867.10	840.000
867.39	400.000
867.69	400.000
867.98	278.947
868.27	427.273
868.57	252.632
868.86	-2800.000
869.16	287.500
869.45	1450.000
869.75	-3100.000
870.04	341.667
870.33	600.000
870.63	500.000
870.92	2150.000
871.22	614.286
871.51	305.882
871.80	223.810
872.10	285.714
>>>>>End Processed Spectral Data<<<<<
