SpectraSuite Data File
++++++++++++++++++++++++++++++++++++
Date: Wed May 13 16:00:12 PDT 2015
User: schluterlab
Dark Spectrum Present: Yes
Reference Spectrum Present: Yes
Number of Sampled Component Spectra: 1
Spectrometers: USB2E3373
Integration Time (usec): 3000 (USB2E3373)
Spectra Averaged: 3 (USB2E3373)
Boxcar Smoothing: 0 (USB2E3373)
Correct for Electrical Dark: No (USB2E3373)
Strobe/Lamp Enabled: No (USB2E3373)
Correct for Detector Non-linearity: No (USB2E3373)
Correct for Stray Light: No (USB2E3373)
Number of Pixels in Processed Spectrum: 2048
>>>>>Begin Processed Spectral Data<<<<<
178.53	0.000
178.91	-450.000
179.29	-450.000
179.67	-16.667
180.04	-450.000
180.42	750.000
180.80	380.000
181.18	-375.000
181.56	185.714
181.94	0.000
182.31	-14.286
182.69	366.667
183.07	-187.500
183.45	-44.444
183.83	218.182
184.20	-20.000
184.58	750.000
184.96	2400.000
185.34	-180.000
185.72	-150.000
186.09	-600.000
186.47	850.000
186.85	800.000
187.23	1100.000
187.61	-566.667
187.98	550.000
188.36	272.727
188.74	100.000
189.12	-100.000
189.49	170.000
189.87	-1800.000
190.25	-350.000
190.63	135.714
191.00	76.923
191.38	116.667
191.76	-250.000
192.14	475.000
192.51	212.500
192.89	483.333
193.27	162.500
193.65	-150.000
194.02	170.000
194.40	240.000
194.78	210.000
195.15	291.667
195.53	260.000
195.91	-450.000
196.29	181.250
196.66	163.158
197.04	40.000
197.42	0.000
197.79	260.000
198.17	200.000
198.55	142.857
198.92	300.000
199.30	180.000
199.68	0.000
200.05	116.667
200.43	285.714
200.81	1000.000
201.18	600.000
201.56	-400.000
201.94	166.667
202.31	244.444
202.69	150.000
203.07	120.000
203.44	0.000
203.82	325.000
204.19	242.857
204.57	150.000
204.95	187.500
205.32	200.000
205.70	181.818
206.08	142.857
206.45	1150.000
206.83	156.250
207.20	400.000
207.58	0.000
207.96	138.889
208.33	337.500
208.71	-100.000
209.08	271.429
209.46	200.000
209.84	154.545
210.21	-233.333
210.59	600.000
210.96	-62.500
211.34	1100.000
211.71	190.000
212.09	166.667
212.46	0.000
212.84	133.333
213.22	550.000
213.59	-500.000
213.97	350.000
214.34	171.429
214.72	209.091
215.09	240.000
215.47	-300.000
215.84	-900.000
216.22	466.667
216.59	78.571
216.97	425.000
217.34	100.000
217.72	-50.000
218.09	0.000
218.47	-700.000
218.84	233.333
219.22	228.571
219.59	433.333
219.97	-71.429
220.34	220.000
220.72	-566.667
221.09	142.857
221.47	675.000
221.84	-216.667
222.22	0.000
222.59	550.000
222.97	-900.000
223.34	520.000
223.72	123.077
224.09	480.000
224.46	450.000
224.84	-1400.000
225.21	-280.000
225.59	-1400.000
225.96	240.000
226.34	165.000
226.71	750.000
227.08	225.000
227.46	140.000
227.83	-25.000
228.21	-300.000
228.58	355.556
228.95	-450.000
229.33	-500.000
229.70	566.667
230.08	328.571
230.45	-100.000
230.82	175.000
231.20	133.333
231.57	185.714
231.95	175.000
232.32	81.818
232.69	100.000
233.07	242.857
233.44	46.154
233.81	-633.333
234.19	121.053
234.56	100.000
234.93	58.333
235.31	54.545
235.68	-15.385
236.05	71.429
236.43	69.697
236.80	36.842
237.17	1300.000
237.55	61.905
237.92	82.143
238.29	71.429
238.67	35.484
239.04	96.552
239.41	91.667
239.79	52.174
240.16	78.571
240.53	54.545
240.91	27.451
241.28	38.000
241.65	30.000
242.02	47.826
242.40	41.935
242.77	55.000
243.14	37.634
243.51	51.685
243.89	28.235
244.26	43.333
244.63	31.183
245.00	32.979
245.38	41.584
245.75	36.449
246.12	25.688
246.49	38.686
246.87	35.200
247.24	40.769
247.61	33.571
247.98	35.294
248.36	25.000
248.73	22.930
249.10	31.847
249.47	33.898
249.84	31.551
250.22	27.807
250.59	32.544
250.96	33.333
251.33	29.384
251.70	29.208
252.08	30.952
252.45	26.906
252.82	28.696
253.19	34.043
253.56	29.412
253.94	31.535
254.31	31.641
254.68	30.769
255.05	29.889
255.42	30.081
255.79	28.309
256.16	27.437
256.54	29.682
256.91	25.623
257.28	24.101
257.65	26.073
258.02	27.640
258.39	28.076
258.76	25.753
259.14	25.298
259.51	26.444
259.88	25.466
260.25	29.003
260.62	24.277
260.99	25.155
261.36	25.225
261.73	26.934
262.10	24.419
262.47	27.606
262.85	25.627
263.22	23.077
263.59	28.775
263.96	23.901
264.33	28.982
264.70	28.684
265.07	27.110
265.44	23.232
265.81	23.844
266.18	24.372
266.55	24.878
266.92	24.816
267.29	25.926
267.66	25.459
268.03	23.409
268.40	23.131
268.77	23.628
269.14	23.198
269.51	26.862
269.88	24.476
270.25	23.251
270.62	25.169
270.99	26.022
271.36	24.464
271.73	19.626
272.10	23.913
272.47	24.946
272.84	24.459
273.21	23.480
273.58	23.144
273.95	21.384
274.32	22.727
274.69	24.197
275.06	21.457
275.43	26.170
275.80	22.645
276.17	23.422
276.54	23.077
276.91	25.296
277.28	21.289
277.65	22.437
278.02	21.739
278.39	26.172
278.76	25.091
279.13	22.453
279.50	23.650
279.87	23.108
280.23	24.152
280.60	24.178
280.97	22.921
281.34	22.124
281.71	25.455
282.08	24.376
282.45	22.364
282.82	22.202
283.19	23.173
283.56	24.912
283.92	25.550
284.29	22.575
284.66	24.138
285.03	21.157
285.40	21.831
285.77	22.391
286.14	19.862
286.51	21.667
286.87	23.248
287.24	21.336
287.61	21.188
287.98	22.727
288.35	21.553
288.72	21.340
289.08	20.814
289.45	20.758
289.82	20.325
290.19	21.664
290.56	20.827
290.93	20.091
291.29	19.479
291.66	19.617
292.03	20.930
292.40	20.852
292.77	18.787
293.13	18.657
293.50	20.408
293.87	18.815
294.24	17.333
294.60	17.758
294.97	19.041
295.34	19.464
295.71	19.318
296.08	19.516
296.44	18.569
296.81	18.230
297.18	18.293
297.55	16.227
297.91	16.887
298.28	19.277
298.65	19.582
299.02	20.290
299.38	16.733
299.75	15.229
300.12	18.008
300.48	18.250
300.85	17.016
301.22	18.726
301.59	16.288
301.95	17.380
302.32	18.357
302.69	17.204
303.05	16.121
303.42	16.049
303.79	17.327
304.15	16.434
304.52	15.643
304.89	15.796
305.25	16.937
305.62	16.988
305.99	16.411
306.35	15.324
306.72	17.937
307.09	17.314
307.45	18.581
307.82	16.741
308.19	18.322
308.55	17.260
308.92	18.153
309.29	16.262
309.65	16.649
310.02	16.702
310.38	17.742
310.75	16.579
311.12	18.731
311.48	18.391
311.85	18.973
312.22	17.482
312.58	18.503
312.95	17.423
313.31	17.864
313.68	18.295
314.05	20.020
314.41	18.492
314.78	19.335
315.14	20.556
315.51	20.391
315.87	20.000
316.24	20.159
316.61	20.175
316.97	19.569
317.34	18.885
317.70	20.554
318.07	21.078
318.43	21.624
318.80	21.743
319.16	21.940
319.53	21.201
319.89	22.190
320.26	22.800
320.62	22.321
320.99	22.121
321.35	22.121
321.72	23.922
322.08	24.580
322.45	24.677
322.81	24.806
323.18	25.241
323.54	24.861
323.91	26.415
324.27	24.857
324.64	26.188
325.00	26.060
325.37	27.571
325.73	27.738
326.10	28.597
326.46	27.330
326.83	29.336
327.19	27.839
327.56	28.136
327.92	28.959
328.29	30.257
328.65	30.110
329.01	29.964
329.38	31.175
329.74	30.563
330.11	31.291
330.47	30.946
330.84	31.893
331.20	31.785
331.56	30.917
331.93	32.315
332.29	30.612
332.66	32.655
333.02	30.073
333.38	32.430
333.75	31.105
334.11	31.495
334.48	32.209
334.84	31.985
335.20	31.273
335.57	30.372
335.93	30.536
336.29	31.410
336.66	32.281
337.02	31.041
337.38	31.852
337.75	31.373
338.11	30.886
338.47	31.860
338.84	32.539
339.20	31.193
339.56	32.026
339.93	31.545
340.29	31.884
340.65	32.264
341.02	32.112
341.38	33.007
341.74	31.491
342.11	33.275
342.47	32.335
342.83	32.791
343.20	33.074
343.56	31.340
343.92	31.842
344.28	31.293
344.65	33.534
345.01	32.576
345.37	32.075
345.73	33.672
346.10	32.822
346.46	32.373
346.82	33.114
347.19	32.164
347.55	33.826
347.91	33.252
348.27	34.758
348.63	32.860
349.00	31.877
349.36	33.580
349.72	33.039
350.08	32.415
350.45	33.930
350.81	33.550
351.17	33.468
351.53	33.088
351.89	33.581
352.26	34.728
352.62	33.681
352.98	33.306
353.34	34.511
353.70	33.879
354.07	34.113
354.43	33.095
354.79	33.146
355.15	34.796
355.51	35.012
355.87	35.265
356.24	34.365
356.60	33.280
356.96	34.272
357.32	33.769
357.68	35.197
358.04	34.442
358.40	35.234
358.77	34.977
359.13	34.333
359.49	34.588
359.85	34.365
360.21	34.689
360.57	35.486
360.93	34.846
361.29	36.357
361.66	33.591
362.02	36.418
362.38	36.350
362.74	36.086
363.10	35.159
363.46	35.583
363.82	36.810
364.18	35.463
364.54	36.627
364.90	35.269
365.26	36.985
365.62	36.888
365.98	36.304
366.35	34.312
366.71	36.804
367.07	36.781
367.43	37.736
367.79	36.545
368.15	37.500
368.51	37.355
368.87	37.687
369.23	37.381
369.59	37.944
369.95	37.647
370.31	39.031
370.67	38.188
371.03	39.625
371.39	38.411
371.75	37.868
372.11	38.407
372.47	39.516
372.83	40.490
373.19	38.367
373.55	39.985
373.91	41.384
374.27	39.175
374.63	39.636
374.99	41.384
375.35	40.056
375.71	40.987
376.07	40.878
376.42	41.884
376.78	42.081
377.14	41.113
377.50	41.722
377.86	40.957
378.22	42.604
378.58	41.291
378.94	40.792
379.30	43.193
379.66	44.162
380.02	42.813
380.38	43.352
380.74	43.517
381.09	45.049
381.45	43.085
381.81	44.595
382.17	43.694
382.53	44.277
382.89	45.123
383.25	45.091
383.61	45.725
383.97	46.154
384.32	45.103
384.68	44.981
385.04	45.974
385.40	44.334
385.76	46.192
386.12	46.114
386.48	47.514
386.83	46.825
387.19	48.052
387.55	46.630
387.91	47.037
388.27	46.658
388.62	48.125
388.98	46.806
389.34	48.123
389.70	46.720
390.06	48.733
390.42	49.546
390.77	47.901
391.13	49.968
391.49	48.668
391.85	48.631
392.20	47.634
392.56	49.495
392.92	49.088
393.28	49.941
393.64	49.161
393.99	49.297
394.35	49.566
394.71	48.118
395.07	48.910
395.42	48.826
395.78	49.682
396.14	49.224
396.50	50.752
396.85	51.176
397.21	48.767
397.57	50.093
397.92	49.459
398.28	50.673
398.64	50.000
399.00	50.308
399.35	49.746
399.71	51.389
400.07	51.508
400.42	50.920
400.78	50.060
401.14	51.585
401.49	51.224
401.85	51.543
402.21	51.198
402.57	50.031
402.92	51.576
403.28	52.280
403.63	51.856
403.99	51.720
404.35	50.788
404.70	50.659
405.06	50.670
405.42	50.530
405.77	51.086
406.13	51.749
406.49	51.626
406.84	51.388
407.20	50.887
407.55	51.755
407.91	52.533
408.27	51.755
408.62	51.174
408.98	51.225
409.34	51.046
409.69	52.323
410.05	50.991
410.40	52.783
410.76	51.434
411.11	50.483
411.47	52.396
411.83	51.436
412.18	50.835
412.54	52.615
412.89	52.410
413.25	51.653
413.60	51.884
413.96	51.427
414.31	51.458
414.67	51.267
415.03	52.848
415.38	51.933
415.74	52.283
416.09	51.862
416.45	51.071
416.80	51.751
417.16	53.418
417.51	52.887
417.87	51.830
418.22	51.987
418.58	53.002
418.93	52.826
419.29	52.642
419.64	52.267
420.00	51.890
420.35	51.826
420.71	52.959
421.06	52.267
421.42	52.398
421.77	53.195
422.12	51.544
422.48	52.078
422.83	53.291
423.19	51.823
423.54	52.815
423.90	51.942
424.25	52.596
424.61	52.619
424.96	52.187
425.31	51.495
425.67	51.124
426.02	51.771
426.38	53.663
426.73	52.779
427.09	53.070
427.44	52.214
427.79	52.444
428.15	52.262
428.50	53.365
428.85	52.861
429.21	53.175
429.56	52.722
429.92	52.843
430.27	51.539
430.62	51.459
430.98	52.517
431.33	52.062
431.68	52.408
432.04	51.331
432.39	53.341
432.74	52.543
433.10	52.122
433.45	52.362
433.80	52.993
434.16	52.244
434.51	52.053
434.86	52.623
435.22	51.807
435.57	52.219
435.92	53.365
436.28	53.559
436.63	52.428
436.98	52.318
437.34	53.488
437.69	53.384
438.04	53.288
438.39	53.851
438.75	53.457
439.10	52.961
439.45	52.893
439.81	53.474
440.16	51.892
440.51	52.900
440.86	53.735
441.22	52.836
441.57	52.972
441.92	53.634
442.27	53.821
442.63	53.133
442.98	53.634
443.33	52.989
443.68	53.846
444.03	53.538
444.39	51.996
444.74	52.543
445.09	53.477
445.44	51.996
445.79	52.697
446.15	51.615
446.50	52.504
446.85	54.111
447.20	53.697
447.55	54.104
447.91	51.682
448.26	53.033
448.61	52.742
448.96	52.713
449.31	54.837
449.66	53.630
450.02	52.479
450.37	52.608
450.72	53.187
451.07	52.346
451.42	52.523
451.77	54.140
452.12	53.118
452.47	52.239
452.83	53.904
453.18	53.790
453.53	53.370
453.88	52.806
454.23	53.019
454.58	54.088
454.93	54.609
455.28	52.993
455.63	53.398
455.98	53.869
456.34	52.324
456.69	53.475
457.04	53.994
457.39	53.419
457.74	51.712
458.09	53.249
458.44	53.535
458.79	52.603
459.14	54.345
459.49	52.773
459.84	52.964
460.19	53.388
460.54	51.505
460.89	52.770
461.24	52.763
461.59	54.155
461.94	52.959
462.29	53.412
462.64	51.691
462.99	51.334
463.34	51.933
463.69	53.033
464.04	52.812
464.39	52.580
464.74	52.704
465.09	52.292
465.44	52.410
465.79	52.237
466.14	51.834
466.49	51.724
466.84	53.065
467.19	51.841
467.54	53.250
467.89	51.561
468.24	53.287
468.59	53.419
468.94	51.252
469.29	51.350
469.64	51.807
469.99	53.248
470.34	52.246
470.68	53.807
471.03	51.497
471.38	53.440
471.73	51.832
472.08	53.026
472.43	52.764
472.78	52.798
473.13	52.760
473.48	52.622
473.83	51.646
474.17	50.840
474.52	52.667
474.87	52.131
475.22	51.422
475.57	50.188
475.92	51.673
476.27	51.297
476.61	52.124
476.96	51.237
477.31	50.863
477.66	52.243
478.01	51.072
478.36	52.247
478.70	50.571
479.05	51.864
479.40	51.535
479.75	51.347
480.10	50.845
480.45	49.691
480.79	49.833
481.14	51.174
481.49	51.685
481.84	51.120
482.19	51.068
482.53	51.468
482.88	50.768
483.23	50.327
483.58	50.728
483.92	50.797
484.27	49.673
484.62	50.388
484.97	50.138
485.31	50.822
485.66	49.336
486.01	48.434
486.36	47.228
486.70	45.864
487.05	46.752
487.40	47.855
487.75	47.864
488.09	47.983
488.44	47.799
488.79	50.054
489.13	49.427
489.48	48.532
489.83	49.504
490.17	50.110
490.52	49.203
490.87	49.751
491.22	48.840
491.56	49.339
491.91	50.256
492.26	48.002
492.60	48.848
492.95	48.737
493.30	48.598
493.64	49.650
493.99	49.164
494.34	49.306
494.68	50.412
495.03	49.436
495.37	48.441
495.72	50.097
496.07	48.863
496.41	47.743
496.76	49.077
497.11	48.357
497.45	49.138
497.80	48.800
498.14	48.551
498.49	49.220
498.84	48.226
499.18	49.381
499.53	49.763
499.87	48.136
500.22	47.763
500.56	49.854
500.91	47.981
501.26	48.459
501.60	50.119
501.95	47.938
502.29	49.297
502.64	49.395
502.98	49.275
503.33	48.126
503.67	48.585
504.02	48.971
504.36	49.041
504.71	49.096
505.06	48.145
505.40	48.128
505.75	47.734
506.09	48.056
506.44	48.495
506.78	47.930
507.13	49.016
507.47	48.586
507.82	49.240
508.16	49.139
508.51	48.503
508.85	48.064
509.19	48.112
509.54	48.622
509.88	48.635
510.23	48.843
510.57	49.381
510.92	48.421
511.26	48.253
511.61	48.651
511.95	47.912
512.30	47.879
512.64	49.490
512.98	48.714
513.33	48.340
513.67	48.346
514.02	48.214
514.36	49.263
514.70	49.198
515.05	48.466
515.39	48.289
515.74	49.099
516.08	49.469
516.42	48.280
516.77	49.387
517.11	48.113
517.46	48.646
517.80	49.884
518.14	48.523
518.49	48.658
518.83	48.011
519.17	48.268
519.52	48.444
519.86	48.032
520.20	49.133
520.55	49.791
520.89	48.783
521.23	50.362
521.58	48.860
521.92	48.622
522.26	48.688
522.61	49.283
522.95	47.575
523.29	48.631
523.64	48.476
523.98	49.784
524.32	48.552
524.66	48.346
525.01	49.020
525.35	48.327
525.69	48.214
526.04	47.913
526.38	48.810
526.72	48.037
527.06	48.336
527.41	46.225
527.75	49.325
528.09	48.876
528.43	47.355
528.78	48.248
529.12	47.455
529.46	48.928
529.80	48.948
530.15	48.349
530.49	46.892
530.83	48.038
531.17	49.674
531.51	49.092
531.86	48.129
532.20	48.044
532.54	48.495
532.88	47.882
533.22	45.472
533.57	46.852
533.91	46.960
534.25	46.841
534.59	47.712
534.93	45.985
535.27	46.530
535.62	46.276
535.96	47.018
536.30	46.472
536.64	46.619
536.98	46.914
537.32	46.215
537.66	46.600
538.01	47.334
538.35	46.865
538.69	47.288
539.03	46.979
539.37	45.815
539.71	45.107
540.05	45.556
540.39	46.379
540.73	46.701
541.07	46.463
541.42	47.880
541.76	47.032
542.10	46.184
542.44	46.358
542.78	45.982
543.12	44.530
543.46	45.705
543.80	45.673
544.14	44.737
544.48	46.476
544.82	44.708
545.16	45.478
545.50	44.666
545.84	44.825
546.18	46.061
546.52	46.111
546.86	45.223
547.20	45.786
547.54	46.092
547.88	44.834
548.22	44.521
548.56	44.403
548.90	43.790
549.24	45.791
549.58	45.566
549.92	44.437
550.26	46.094
550.60	44.606
550.94	45.141
551.28	45.355
551.62	46.010
551.96	44.772
552.30	45.051
552.64	45.098
552.98	44.542
553.32	43.898
553.66	44.581
554.00	44.612
554.34	43.892
554.68	44.778
555.02	44.499
555.36	45.581
555.69	43.437
556.03	43.742
556.37	43.724
556.71	43.383
557.05	44.048
557.39	43.597
557.73	44.248
558.07	44.888
558.41	44.501
558.75	44.453
559.08	43.475
559.42	44.520
559.76	43.015
560.10	44.040
560.44	42.907
560.78	42.914
561.12	42.744
561.45	43.155
561.79	43.111
562.13	42.924
562.47	43.852
562.81	43.584
563.15	42.274
563.48	43.700
563.82	42.401
564.16	42.577
564.50	41.992
564.84	42.920
565.17	41.892
565.51	42.173
565.85	42.195
566.19	42.267
566.52	43.382
566.86	41.772
567.20	42.276
567.54	42.352
567.88	41.608
568.21	41.376
568.55	41.153
568.89	40.710
569.23	40.018
569.56	39.352
569.90	39.849
570.24	39.110
570.57	38.456
570.91	38.526
571.25	38.141
571.59	38.144
571.92	37.759
572.26	37.233
572.60	37.808
572.93	37.601
573.27	37.267
573.61	37.521
573.95	37.183
574.28	37.186
574.62	36.589
574.96	36.679
575.29	36.251
575.63	36.408
575.97	36.267
576.30	36.989
576.64	36.518
576.98	36.145
577.31	36.691
577.65	36.612
577.98	36.711
578.32	35.921
578.66	35.744
578.99	36.110
579.33	36.069
579.67	35.271
580.00	36.466
580.34	36.141
580.67	36.114
581.01	35.777
581.35	35.958
581.68	36.731
582.02	35.805
582.35	35.606
582.69	35.399
583.02	35.342
583.36	35.947
583.70	35.639
584.03	35.763
584.37	35.758
584.70	36.050
585.04	35.543
585.37	35.718
585.71	35.244
586.04	35.178
586.38	35.867
586.72	36.730
587.05	35.778
587.39	35.462
587.72	35.455
588.06	35.859
588.39	35.309
588.73	35.729
589.06	35.525
589.40	35.623
589.73	36.184
590.07	36.157
590.40	35.659
590.73	36.300
591.07	37.444
591.40	36.440
591.74	38.398
592.07	36.955
592.41	36.048
592.74	36.629
593.08	35.743
593.41	35.432
593.75	34.447
594.08	35.199
594.41	35.454
594.75	35.527
595.08	35.827
595.42	35.797
595.75	35.256
596.09	36.162
596.42	36.031
596.75	35.627
597.09	35.844
597.42	35.750
597.75	34.843
598.09	36.087
598.42	36.082
598.76	35.630
599.09	35.918
599.42	34.753
599.76	34.846
600.09	34.608
600.42	34.514
600.76	34.643
601.09	34.718
601.42	34.741
601.76	34.763
602.09	34.032
602.42	35.390
602.76	35.389
603.09	35.523
603.42	35.103
603.76	34.566
604.09	35.324
604.42	34.896
604.76	34.964
605.09	34.600
605.42	34.758
605.75	36.010
606.09	34.038
606.42	34.982
606.75	33.969
607.09	34.491
607.42	35.259
607.75	33.586
608.08	34.303
608.42	34.290
608.75	34.806
609.08	34.413
609.41	34.983
609.75	34.921
610.08	35.391
610.41	34.311
610.74	34.437
611.07	35.030
611.41	34.298
611.74	34.992
612.07	36.077
612.40	35.572
612.73	33.684
613.07	35.722
613.40	36.124
613.73	34.452
614.06	34.140
614.39	35.501
614.72	34.895
615.06	35.032
615.39	35.350
615.72	34.611
616.05	33.812
616.38	35.631
616.71	36.283
617.05	35.395
617.38	35.358
617.71	34.775
618.04	35.817
618.37	35.245
618.70	35.532
619.03	35.724
619.36	35.642
619.69	35.282
620.03	36.195
620.36	36.163
620.69	35.890
621.02	36.283
621.35	36.335
621.68	35.981
622.01	36.223
622.34	36.460
622.67	38.099
623.00	35.290
623.33	35.740
623.66	35.954
623.99	37.334
624.32	36.020
624.65	35.311
624.99	34.844
625.32	35.119
625.65	36.589
625.98	35.742
626.31	36.314
626.64	36.408
626.97	36.492
627.30	36.409
627.63	37.982
627.96	36.249
628.29	37.095
628.62	37.511
628.95	40.000
629.28	37.591
629.61	39.688
629.94	38.571
630.26	37.655
630.59	35.939
630.92	36.398
631.25	36.723
631.58	36.637
631.91	36.917
632.24	37.236
632.57	37.461
632.90	38.377
633.23	37.025
633.56	39.774
633.89	38.505
634.22	37.457
634.55	38.580
634.88	38.922
635.20	38.471
635.53	39.036
635.86	38.738
636.19	39.059
636.52	38.293
636.85	36.999
637.18	36.751
637.51	39.125
637.83	35.512
638.16	38.363
638.49	39.043
638.82	39.317
639.15	40.125
639.48	38.778
639.81	39.544
640.13	39.323
640.46	39.463
640.79	37.781
641.12	35.901
641.45	37.989
641.77	40.059
642.10	37.573
642.43	38.438
642.76	39.164
643.09	40.644
643.41	40.516
643.74	40.895
644.07	40.244
644.40	40.031
644.73	40.157
645.05	38.986
645.38	36.177
645.71	38.808
646.04	39.369
646.36	42.404
646.69	41.304
647.02	38.946
647.35	39.347
647.67	38.407
648.00	39.350
648.33	38.614
648.66	37.424
648.98	38.531
649.31	38.266
649.64	37.967
649.96	35.768
650.29	38.389
650.62	36.893
650.94	40.032
651.27	39.189
651.60	40.765
651.92	36.581
652.25	38.111
652.58	38.474
652.90	38.705
653.23	38.213
653.56	37.165
653.88	39.937
654.21	36.809
654.54	38.284
654.86	39.097
655.19	34.730
655.52	29.169
655.84	27.853
656.17	34.143
656.49	44.896
656.82	43.609
657.15	32.412
657.47	24.007
657.80	18.348
658.13	18.732
658.45	27.508
658.78	27.916
659.10	28.462
659.43	28.965
659.75	30.639
660.08	31.835
660.41	36.127
660.73	36.976
661.06	35.669
661.38	38.000
661.71	39.231
662.03	40.434
662.36	38.370
662.68	39.157
663.01	38.788
663.33	39.066
663.66	36.345
663.98	38.877
664.31	38.655
664.63	37.449
664.96	38.833
665.28	40.164
665.61	37.817
665.93	39.034
666.26	38.742
666.58	36.611
666.91	40.169
667.23	40.225
667.56	38.877
667.88	41.026
668.21	37.527
668.53	34.273
668.86	39.394
669.18	37.953
669.50	39.348
669.83	42.919
670.15	40.889
670.48	38.344
670.80	38.578
671.13	40.127
671.45	35.532
671.77	37.475
672.10	37.523
672.42	39.929
672.75	36.650
673.07	35.739
673.39	35.262
673.72	35.156
674.04	36.078
674.37	37.476
674.69	37.219
675.01	36.192
675.34	36.140
675.66	38.737
675.98	37.678
676.31	39.286
676.63	36.943
676.95	36.897
677.28	39.252
677.60	36.923
677.92	39.662
678.25	37.988
678.57	37.052
678.89	36.473
679.22	36.346
679.54	36.450
679.86	36.881
680.18	34.347
680.51	33.865
680.83	34.875
681.15	35.849
681.48	36.862
681.80	35.783
682.12	36.398
682.44	33.849
682.77	35.845
683.09	40.343
683.41	37.916
683.73	36.865
684.06	36.777
684.38	37.378
684.70	35.078
685.02	35.272
685.34	36.630
685.67	33.392
685.99	34.708
686.31	34.642
686.63	32.509
686.96	33.036
687.28	31.949
687.60	33.333
687.92	33.821
688.24	32.129
688.56	35.542
688.89	35.892
689.21	36.463
689.53	35.699
689.85	39.911
690.17	35.404
690.49	36.518
690.82	37.850
691.14	34.375
691.46	33.966
691.78	35.542
692.10	36.157
692.42	31.936
692.74	33.610
693.06	35.106
693.39	36.550
693.71	33.188
694.03	33.684
694.35	33.983
694.67	34.783
694.99	37.317
695.31	35.294
695.63	36.603
695.95	36.430
696.27	33.756
696.59	33.161
696.91	36.788
697.23	31.455
697.56	38.593
697.88	33.129
698.20	33.125
698.52	37.419
698.84	35.189
699.16	33.410
699.48	37.530
699.80	31.401
700.12	36.104
700.44	38.196
700.76	36.464
701.08	35.057
701.40	34.358
701.72	39.359
702.04	40.625
702.36	33.428
702.68	33.428
703.00	40.166
703.32	31.915
703.64	32.976
703.96	36.212
704.28	34.593
704.60	36.657
704.91	37.982
705.23	35.777
705.55	37.209
705.87	38.870
706.19	39.223
706.51	38.006
706.83	35.758
707.15	36.134
707.47	32.828
707.79	36.364
708.11	35.160
708.43	33.810
708.74	31.378
709.06	35.584
709.38	32.808
709.70	34.593
710.02	36.202
710.34	35.758
710.66	37.015
710.98	36.648
711.29	36.337
711.61	37.758
711.93	37.179
712.25	43.408
712.57	38.603
712.89	35.640
713.20	36.170
713.52	36.513
713.84	34.177
714.16	34.756
714.48	33.333
714.80	40.426
715.11	32.565
715.43	33.828
715.75	31.594
716.07	35.783
716.39	35.423
716.70	38.538
717.02	36.331
717.34	37.809
717.66	37.313
717.97	36.653
718.29	40.741
718.61	34.307
718.93	38.971
719.24	37.370
719.56	32.542
719.88	36.271
720.20	36.149
720.51	36.934
720.83	41.264
721.15	32.463
721.46	29.787
721.78	32.616
722.10	34.717
722.42	39.850
722.73	34.831
723.05	35.656
723.37	29.555
723.68	35.521
724.00	34.959
724.32	41.935
724.63	31.301
724.95	31.381
725.27	37.247
725.58	40.234
725.90	36.861
726.22	33.585
726.53	34.375
726.85	36.177
727.16	37.367
727.48	35.816
727.80	36.364
728.11	30.797
728.43	33.846
728.74	29.032
729.06	37.226
729.38	37.868
729.69	34.164
730.01	32.423
730.32	30.208
730.64	34.448
730.96	32.343
731.27	33.444
731.59	35.474
731.90	32.362
732.22	32.609
732.53	31.579
732.85	30.449
733.16	32.154
733.48	31.229
733.80	31.169
734.11	32.166
734.43	31.361
734.74	30.571
735.06	30.946
735.37	35.549
735.69	31.529
736.00	34.641
736.32	36.760
736.63	31.310
736.95	35.783
737.26	31.973
737.58	30.645
737.89	33.110
738.21	34.130
738.52	31.429
738.83	29.811
739.15	29.231
739.46	35.766
739.78	33.681
740.09	32.923
740.41	32.903
740.72	32.404
741.04	32.593
741.35	30.417
741.66	34.222
741.98	33.491
742.29	35.885
742.61	44.397
742.92	30.317
743.23	35.470
743.55	34.000
743.86	36.404
744.18	39.823
744.49	39.713
744.80	43.192
745.12	43.182
745.43	39.648
745.74	37.387
746.06	37.156
746.37	40.359
746.68	35.747
747.00	34.722
747.31	35.238
747.62	33.628
747.94	33.921
748.25	33.617
748.56	43.172
748.88	35.149
749.19	43.000
749.50	32.558
749.82	30.488
750.13	29.796
750.44	27.372
750.75	33.684
751.07	35.691
751.38	34.495
751.69	33.574
752.01	31.579
752.32	33.574
752.63	32.624
752.94	31.967
753.26	34.400
753.57	27.642
753.88	28.906
754.19	31.786
754.51	32.292
754.82	33.574
755.13	35.472
755.44	29.699
755.75	29.562
756.07	30.851
756.38	32.117
756.69	32.550
757.00	26.946
757.31	28.783
757.63	28.070
757.94	29.223
758.25	30.637
758.56	29.136
758.87	27.151
759.18	30.303
759.50	31.034
759.81	28.660
760.12	26.250
760.43	29.513
760.74	28.804
761.05	30.508
761.36	28.610
761.67	30.682
761.99	31.677
762.30	33.681
762.61	31.679
762.92	30.078
763.23	33.613
763.54	34.800
763.85	28.906
764.16	34.231
764.47	34.601
764.78	33.216
765.10	30.696
765.41	30.383
765.72	31.737
766.03	28.840
766.34	30.000
766.65	34.894
766.96	26.068
767.27	34.518
767.58	31.771
767.89	33.158
768.20	35.057
768.51	32.995
768.82	39.908
769.13	31.707
769.44	32.389
769.75	39.056
770.06	27.982
770.37	31.674
770.68	28.241
770.99	28.889
771.30	29.918
771.61	29.148
771.92	33.607
772.23	34.874
772.54	30.769
772.85	35.079
773.16	38.830
773.47	38.587
773.78	39.086
774.09	30.952
774.39	37.427
774.70	35.802
775.01	34.058
775.32	43.137
775.63	39.474
775.94	33.094
776.25	41.732
776.56	42.537
776.87	41.803
777.18	39.062
777.48	45.802
777.79	46.212
778.10	34.815
778.41	41.071
778.72	32.117
779.03	41.611
779.34	36.242
779.65	31.757
779.95	36.196
780.26	42.484
780.57	40.690
780.88	36.719
781.19	47.368
781.50	41.892
781.80	37.107
782.11	33.898
782.42	24.051
782.73	36.196
783.04	37.838
783.34	38.732
783.65	41.781
783.96	38.060
784.27	34.965
784.57	25.899
784.88	27.778
785.19	42.063
785.50	36.792
785.81	36.567
786.11	46.721
786.42	45.736
786.73	34.513
787.04	40.566
787.34	45.536
787.65	41.000
787.96	34.234
788.26	39.669
788.57	46.610
788.88	42.975
789.19	36.111
789.49	41.667
789.80	33.588
790.11	47.619
790.41	55.446
790.72	31.325
791.03	44.565
791.33	50.000
791.64	32.990
791.95	52.475
792.25	47.778
792.56	48.052
792.87	44.872
793.17	58.228
793.48	40.230
793.79	44.828
794.09	42.045
794.40	42.857
794.70	35.294
795.01	35.556
795.32	29.496
795.62	44.882
795.93	35.345
796.23	42.478
796.54	28.235
796.85	32.432
797.15	57.746
797.46	53.030
797.76	44.578
798.07	50.633
798.37	41.538
798.68	34.848
798.99	29.577
799.29	45.455
799.60	38.636
799.90	50.685
800.21	40.299
800.51	37.931
800.82	57.895
801.12	37.705
801.43	46.970
801.73	40.541
802.04	44.444
802.34	37.037
802.65	46.875
802.95	54.237
803.26	60.938
803.56	38.571
803.87	47.692
804.17	51.471
804.48	66.667
804.78	39.655
805.09	52.941
805.39	48.077
805.70	35.714
806.00	60.656
806.30	48.485
806.61	36.585
806.91	31.646
807.22	38.158
807.52	34.328
807.83	49.296
808.13	48.438
808.43	56.667
808.74	46.053
809.04	37.681
809.35	46.269
809.65	46.053
809.95	48.387
810.26	49.153
810.56	39.683
810.86	47.727
811.17	64.286
811.47	63.333
811.77	50.000
812.08	58.182
812.38	56.000
812.69	86.111
812.99	77.273
813.29	55.102
813.59	52.381
813.90	57.143
814.20	40.000
814.50	58.462
814.81	61.765
815.11	34.694
815.41	55.738
815.72	76.190
816.02	60.000
816.32	40.476
816.62	42.500
816.93	41.463
817.23	38.095
817.53	65.909
817.84	103.030
818.14	47.826
818.44	35.556
818.74	76.471
819.04	62.500
819.35	65.714
819.65	76.471
819.95	64.286
820.25	-20.000
820.56	64.103
820.86	88.636
821.16	72.093
821.46	51.282
821.76	62.000
822.07	62.857
822.37	55.000
822.67	60.606
822.97	47.059
823.27	100.000
823.57	94.595
823.88	75.000
824.18	123.333
824.48	78.571
824.78	80.000
825.08	75.000
825.38	37.838
825.69	41.463
825.99	87.500
826.29	55.172
826.59	63.158
826.89	60.526
827.19	76.471
827.49	87.097
827.79	50.000
828.09	54.545
828.39	55.319
828.70	48.980
829.00	14.815
829.30	67.742
829.60	57.500
829.90	120.000
830.20	75.000
830.50	4.348
830.80	56.522
831.10	86.667
831.40	66.667
831.70	56.522
832.00	73.077
832.30	74.074
832.60	100.000
832.90	113.333
833.20	157.143
833.50	96.774
833.80	65.517
834.10	87.500
834.40	96.154
834.70	105.556
835.00	104.762
835.30	65.714
835.60	69.231
835.90	62.069
836.20	21.429
836.50	55.172
836.80	60.000
837.10	100.000
837.40	80.952
837.70	117.647
838.00	85.185
838.30	80.952
838.60	142.857
838.90	107.692
839.19	45.000
839.49	200.000
839.79	160.000
840.09	90.000
840.39	104.762
840.69	82.609
840.99	100.000
841.29	120.000
841.59	8.333
841.88	93.750
842.18	68.966
842.48	80.952
842.78	103.333
843.08	126.087
843.38	68.750
843.68	283.333
843.97	100.000
844.27	82.759
844.57	171.429
844.87	187.500
845.17	81.481
845.47	433.333
845.76	144.444
846.06	129.412
846.36	62.500
846.66	128.571
846.96	56.250
847.25	54.545
847.55	81.818
847.85	169.565
848.15	200.000
848.44	114.286
848.74	77.778
849.04	117.647
849.34	270.000
849.63	47.368
849.93	100.000
850.23	300.000
850.53	157.143
850.82	500.000
851.12	200.000
851.42	1300.000
851.71	110.000
852.01	33.333
852.31	79.167
852.61	600.000
852.90	85.714
853.20	120.000
853.50	105.882
853.79	109.524
854.09	62.500
854.39	137.500
854.68	81.081
854.98	70.968
855.28	60.000
855.57	82.759
855.87	74.074
856.17	68.421
856.46	33.333
856.76	129.412
857.05	86.207
857.35	75.000
857.65	160.000
857.94	78.261
858.24	88.462
858.53	130.000
858.83	95.455
859.13	146.667
859.42	0.000
859.72	122.222
860.01	90.909
860.31	86.364
860.60	84.211
860.90	91.304
861.20	177.778
861.49	183.333
861.79	-1300.000
862.08	125.000
862.38	90.476
862.67	123.077
862.97	123.529
863.26	155.556
863.56	88.889
863.85	50.000
864.15	187.500
864.44	193.333
864.74	233.333
865.03	287.500
865.33	131.579
865.62	136.364
865.92	146.154
866.21	16.667
866.51	0.000
866.80	118.182
867.10	400.000
867.39	146.154
867.69	136.364
867.98	68.421
868.27	72.727
868.57	136.842
868.86	-600.000
869.16	137.500
869.45	300.000
869.75	-1000.000
870.04	158.333
870.33	228.571
870.63	275.000
870.92	550.000
871.22	285.714
871.51	105.882
871.80	33.333
872.10	157.143
>>>>>End Processed Spectral Data<<<<<
