SpectraSuite Data File
++++++++++++++++++++++++++++++++++++
Date: Wed May 13 16:07:30 PDT 2015
User: schluterlab
Dark Spectrum Present: Yes
Reference Spectrum Present: Yes
Number of Sampled Component Spectra: 1
Spectrometers: USB2E3373
Integration Time (usec): 3000 (USB2E3373)
Spectra Averaged: 3 (USB2E3373)
Boxcar Smoothing: 0 (USB2E3373)
Correct for Electrical Dark: No (USB2E3373)
Strobe/Lamp Enabled: No (USB2E3373)
Correct for Detector Non-linearity: No (USB2E3373)
Correct for Stray Light: No (USB2E3373)
Number of Pixels in Processed Spectrum: 2048
>>>>>Begin Processed Spectral Data<<<<<
178.53	0.000
178.91	-900.000
179.29	-1200.000
179.67	-144.444
180.04	-775.000
180.42	2050.000
180.80	580.000
181.18	-675.000
181.56	414.286
181.94	0.000
182.31	-400.000
182.69	1266.667
183.07	-275.000
183.45	-377.778
183.83	400.000
184.20	-220.000
184.58	1150.000
184.96	3200.000
185.34	-580.000
185.72	-312.500
186.09	-1450.000
186.47	1750.000
186.85	1650.000
187.23	3300.000
187.61	-1233.333
187.98	1075.000
188.36	300.000
188.74	354.545
189.12	-800.000
189.49	420.000
189.87	-3700.000
190.25	-825.000
190.63	307.143
191.00	207.692
191.38	566.667
191.76	-675.000
192.14	850.000
192.51	475.000
192.89	600.000
193.27	412.500
193.65	-800.000
194.02	360.000
194.40	640.000
194.78	390.000
195.15	316.667
195.53	490.000
195.91	-1450.000
196.29	231.250
196.66	226.316
197.04	-70.000
197.42	0.000
197.79	460.000
198.17	-3000.000
198.55	457.143
198.92	487.500
199.30	560.000
199.68	0.000
200.05	227.778
200.43	614.286
200.81	3100.000
201.18	1066.667
201.56	-1233.333
201.94	322.222
202.31	377.778
202.69	258.333
203.07	360.000
203.44	0.000
203.82	675.000
204.19	457.143
204.57	314.286
204.95	387.500
205.32	900.000
205.70	381.818
206.08	214.286
206.45	1500.000
206.83	306.250
207.20	633.333
207.58	400.000
207.96	255.556
208.33	625.000
208.71	-616.667
209.08	457.143
209.46	388.889
209.84	254.545
210.21	-866.667
210.59	750.000
210.96	-250.000
211.34	1950.000
211.71	460.000
212.09	466.667
212.46	0.000
212.84	800.000
213.22	900.000
213.59	-2700.000
213.97	550.000
214.34	542.857
214.72	363.636
215.09	700.000
215.47	-1300.000
215.84	-1600.000
216.22	800.000
216.59	235.714
216.97	775.000
217.34	345.455
217.72	-533.333
218.09	0.000
218.47	-2600.000
218.84	411.111
219.22	557.143
219.59	1033.333
219.97	-442.857
220.34	620.000
220.72	-1200.000
221.09	242.857
221.47	1300.000
221.84	-550.000
222.22	0.000
222.59	850.000
222.97	-900.000
223.34	580.000
223.72	300.000
224.09	780.000
224.46	1450.000
224.84	-2400.000
225.21	-700.000
225.59	-3600.000
225.96	320.000
226.34	205.000
226.71	1400.000
227.08	362.500
227.46	380.000
227.83	-725.000
228.21	-1150.000
228.58	433.333
228.95	-1300.000
229.33	-850.000
229.70	966.667
230.08	528.571
230.45	-360.000
230.82	416.667
231.20	466.667
231.57	514.286
231.95	283.333
232.32	181.818
232.69	290.909
233.07	442.857
233.44	238.462
233.81	-1100.000
234.19	189.474
234.56	300.000
234.93	325.000
235.31	281.818
235.68	215.385
236.05	285.714
236.43	160.606
236.80	189.474
237.17	3300.000
237.55	171.429
237.92	167.857
238.29	176.190
238.67	138.710
239.04	141.379
239.41	97.222
239.79	78.261
240.16	78.571
240.53	104.545
240.91	84.314
241.28	76.000
241.65	84.000
242.02	76.812
242.40	69.355
242.77	73.333
243.14	59.140
243.51	58.427
243.89	64.706
244.26	51.111
244.63	43.011
245.00	42.553
245.38	58.416
245.75	52.336
246.12	38.532
246.49	56.934
246.87	46.400
247.24	58.462
247.61	47.143
247.98	36.601
248.36	36.486
248.73	44.586
249.10	42.038
249.47	42.938
249.84	47.594
250.22	38.503
250.59	40.828
250.96	41.414
251.33	36.967
251.70	44.059
252.08	41.429
252.45	36.323
252.82	40.435
253.19	37.447
253.56	38.824
253.94	36.929
254.31	39.453
254.68	40.385
255.05	36.900
255.42	36.992
255.79	39.706
256.16	35.740
256.54	34.629
256.91	37.011
257.28	31.295
257.65	30.033
258.02	36.025
258.39	29.968
258.76	35.452
259.14	35.714
259.51	31.915
259.88	32.609
260.25	31.118
260.62	32.370
260.99	33.540
261.36	33.333
261.73	32.665
262.10	29.360
262.47	33.521
262.85	30.084
263.22	29.630
263.59	35.613
263.96	32.692
264.33	32.376
264.70	30.000
265.07	33.504
265.44	30.808
265.81	30.657
266.18	29.397
266.55	30.244
266.92	32.924
267.29	30.093
267.66	31.651
268.03	29.545
268.40	31.308
268.77	32.458
269.14	30.405
269.51	30.474
269.88	29.138
270.25	29.571
270.62	30.337
270.99	30.968
271.36	29.399
271.73	31.542
272.10	29.348
272.47	28.817
272.84	30.736
273.21	30.818
273.58	27.948
273.95	28.512
274.32	28.926
274.69	28.694
275.06	27.756
275.43	28.298
275.80	28.858
276.17	29.939
276.54	28.898
276.91	27.470
277.28	26.953
277.65	27.273
278.02	25.466
278.39	29.102
278.76	27.091
279.13	27.547
279.50	28.305
279.87	29.283
280.23	28.942
280.60	29.014
280.97	27.542
281.34	26.372
281.71	28.727
282.08	28.791
282.45	27.091
282.82	28.064
283.19	26.738
283.56	27.018
283.92	28.257
284.29	26.631
284.66	25.045
285.03	25.859
285.40	27.465
285.77	25.926
286.14	28.152
286.51	28.333
286.87	28.034
287.24	25.570
287.61	26.003
287.98	26.786
288.35	25.832
288.72	25.078
289.08	24.257
289.45	27.348
289.82	25.041
290.19	23.234
290.56	23.583
290.93	19.940
291.29	25.460
291.66	25.074
292.03	26.453
292.40	24.523
292.77	23.225
293.13	24.328
293.50	22.449
293.87	22.667
294.24	21.778
294.60	21.980
294.97	23.110
295.34	24.260
295.71	22.727
296.08	21.368
296.44	22.558
296.81	22.853
297.18	23.848
297.55	20.185
297.91	20.844
298.28	22.892
298.65	22.324
299.02	22.530
299.38	20.186
299.75	21.294
300.12	19.796
300.48	20.750
300.85	20.962
301.22	21.274
301.59	19.823
301.95	18.892
302.32	20.924
302.69	19.474
303.05	18.909
303.42	19.012
303.79	19.026
304.15	18.998
304.52	18.424
304.89	17.770
305.25	19.954
305.62	19.932
305.99	19.362
306.35	19.239
306.72	18.722
307.09	19.867
307.45	20.383
307.82	16.741
308.19	18.433
308.55	21.359
308.92	19.656
309.29	17.529
309.65	17.497
310.02	19.979
310.38	18.387
310.75	19.958
311.12	17.912
311.48	17.659
311.85	20.335
312.22	18.835
312.58	18.607
312.95	19.747
313.31	18.155
313.68	19.439
314.05	19.724
314.41	19.799
314.78	19.738
315.14	18.073
315.51	18.435
315.87	18.119
316.24	17.577
316.61	17.349
316.97	18.102
317.34	17.613
317.70	18.929
318.07	18.961
318.43	19.080
318.80	19.681
319.16	20.056
319.53	18.762
319.89	18.286
320.26	18.300
320.62	16.667
320.99	18.081
321.35	18.081
321.72	18.480
322.08	19.250
322.45	18.706
322.81	19.961
323.18	18.882
323.54	19.388
323.91	18.962
324.27	18.547
324.64	17.521
325.00	17.313
325.37	18.835
325.73	17.415
326.10	18.888
326.46	17.384
326.83	18.378
327.19	18.190
327.56	17.857
327.92	18.198
328.29	18.367
328.65	18.508
329.01	18.051
329.38	18.131
329.74	18.467
330.11	18.190
330.47	18.733
330.84	18.107
331.20	19.490
331.56	18.073
331.93	16.574
332.29	17.657
332.66	17.434
333.02	17.642
333.38	18.790
333.75	17.558
334.11	18.060
334.48	17.036
334.84	17.188
335.20	17.455
335.57	16.772
335.93	15.625
336.29	16.209
336.66	17.403
337.02	17.647
337.38	17.130
337.75	16.845
338.11	17.457
338.47	17.035
338.84	16.865
339.20	15.963
339.56	18.339
339.93	16.182
340.29	17.301
340.65	15.775
341.02	17.277
341.38	17.349
341.74	17.105
342.11	17.205
342.47	18.326
342.83	15.582
343.20	16.883
343.56	16.765
343.92	16.667
344.28	17.092
344.65	17.971
345.01	17.172
345.37	15.952
345.73	17.174
346.10	17.221
346.46	17.119
346.82	16.145
347.19	16.458
347.55	16.256
347.91	16.181
348.27	17.420
348.63	16.472
349.00	16.100
349.36	16.667
349.72	16.520
350.08	17.018
350.45	16.680
350.81	15.922
351.17	16.451
351.53	15.315
351.89	16.502
352.26	17.048
352.62	16.520
352.98	17.180
353.34	16.598
353.70	14.975
354.07	15.887
354.43	15.397
354.79	16.734
355.15	15.722
355.51	17.186
355.87	16.000
356.24	16.612
356.60	15.798
356.96	15.286
357.32	15.863
357.68	15.669
358.04	16.548
358.40	15.519
358.77	16.354
359.13	15.075
359.49	15.451
359.85	15.000
360.21	14.514
360.57	16.887
360.93	16.308
361.29	16.100
361.66	15.402
362.02	16.940
362.38	16.426
362.74	16.220
363.10	14.804
363.46	14.527
363.82	14.664
364.18	15.419
364.54	16.345
364.90	16.147
365.26	16.029
365.62	15.632
365.98	15.632
366.35	15.544
366.71	15.763
367.07	16.387
367.43	15.820
367.79	16.345
368.15	17.385
368.51	15.625
368.87	15.346
369.23	15.728
369.59	15.858
369.95	15.368
370.31	15.812
370.67	15.072
371.03	16.704
371.39	15.233
371.75	15.515
372.11	14.580
372.47	16.202
372.83	16.354
373.19	15.679
373.55	15.152
373.91	15.979
374.27	15.670
374.63	15.491
374.99	16.737
375.35	15.562
375.71	14.805
376.07	15.912
376.42	15.887
376.78	15.905
377.14	15.061
377.50	15.894
377.86	14.827
378.22	15.107
378.58	13.972
378.94	15.085
379.30	14.949
379.66	16.180
380.02	15.725
380.38	15.665
380.74	15.306
381.09	15.709
381.45	15.489
381.81	16.462
382.17	15.924
382.53	15.094
382.89	15.494
383.25	15.322
383.61	16.295
383.97	15.760
384.32	15.221
384.68	14.994
385.04	15.427
385.40	14.613
385.76	15.356
386.12	15.285
386.48	15.481
386.83	16.357
387.19	16.821
387.55	15.708
387.91	16.082
388.27	15.267
388.62	15.857
388.98	15.786
389.34	15.895
389.70	16.309
390.06	15.779
390.42	15.499
390.77	15.840
391.13	15.826
391.49	16.180
391.85	15.277
392.20	15.016
392.56	15.404
392.92	15.009
393.28	14.970
393.64	15.767
393.99	15.883
394.35	15.509
394.71	15.056
395.07	15.639
395.42	16.069
395.78	16.158
396.14	15.767
396.50	16.541
396.85	15.575
397.21	15.105
397.57	16.429
397.92	15.925
398.28	14.966
398.64	15.532
399.00	16.004
399.35	15.172
399.71	15.567
400.07	15.435
400.42	15.460
400.78	15.682
401.14	14.939
401.49	15.224
401.85	15.003
402.21	15.389
402.57	15.793
402.92	15.826
403.28	16.177
403.63	15.842
403.99	15.159
404.35	14.848
404.70	15.408
405.06	15.492
405.42	15.658
405.77	15.771
406.13	15.181
406.49	15.671
406.84	14.885
407.20	15.012
407.55	16.018
407.91	15.800
408.27	13.912
408.62	15.593
408.98	15.748
409.34	15.375
409.69	15.742
410.05	15.428
410.40	16.269
410.76	15.293
411.11	16.466
411.47	16.230
411.83	15.822
412.18	15.152
412.54	15.193
412.89	16.024
413.25	14.463
413.60	15.750
413.96	15.240
414.31	14.702
414.67	15.653
415.03	15.894
415.38	16.108
415.74	14.341
416.09	15.480
416.45	14.993
416.80	15.202
417.16	15.617
417.51	15.727
417.87	14.836
418.22	16.025
418.58	15.752
418.93	15.233
419.29	15.595
419.64	15.806
420.00	15.366
420.35	15.072
420.71	15.541
421.06	15.394
421.42	15.146
421.77	15.975
422.12	14.711
422.48	14.139
422.83	15.667
423.19	14.530
423.54	14.452
423.90	15.884
424.25	15.578
424.61	15.357
424.96	14.519
425.31	16.445
425.67	14.775
426.02	14.971
426.38	15.629
426.73	15.623
427.09	14.894
427.44	14.606
427.79	15.699
428.15	15.833
428.50	15.389
428.85	15.912
429.21	14.357
429.56	15.708
429.92	15.199
430.27	15.293
430.62	14.798
430.98	14.997
431.33	14.742
431.68	15.340
432.04	15.229
432.39	14.792
432.74	15.919
433.10	14.714
433.45	15.044
433.80	15.078
434.16	15.118
434.51	14.737
434.86	15.964
435.22	15.231
435.57	15.441
435.92	15.155
436.28	16.074
436.63	15.839
436.98	15.455
437.34	15.385
437.69	15.811
438.04	15.402
438.39	15.164
438.75	15.689
439.10	15.251
439.45	15.821
439.81	15.770
440.16	15.415
440.51	15.407
440.86	15.924
441.22	15.573
441.57	15.393
441.92	15.711
442.27	15.016
442.63	15.008
442.98	15.324
443.33	15.054
443.68	15.075
444.03	15.471
444.39	14.800
444.74	14.773
445.09	15.633
445.44	14.872
445.79	15.042
446.15	15.934
446.50	15.670
446.85	15.673
447.20	14.992
447.55	14.964
447.91	15.444
448.26	14.747
448.61	15.263
448.96	15.891
449.31	15.692
449.66	16.320
450.02	15.599
450.37	14.456
450.72	15.398
451.07	14.442
451.42	14.954
451.77	15.854
452.12	15.704
452.47	15.361
452.83	15.152
453.18	15.281
453.53	15.213
453.88	15.771
454.23	15.362
454.58	15.506
454.93	15.957
455.28	14.900
455.63	15.109
455.98	16.071
456.34	14.698
456.69	15.967
457.04	16.161
457.39	15.079
457.74	15.322
458.09	15.641
458.44	16.078
458.79	14.588
459.14	15.463
459.49	15.120
459.84	15.956
460.19	15.557
460.54	15.278
460.89	15.743
461.24	15.726
461.59	16.328
461.94	16.030
462.29	16.202
462.64	15.316
462.99	15.029
463.34	15.733
463.69	14.884
464.04	16.000
464.39	15.072
464.74	15.033
465.09	14.958
465.44	15.402
465.79	14.765
466.14	15.873
466.49	15.128
466.84	15.295
467.19	15.691
467.54	16.000
467.89	14.766
468.24	15.300
468.59	16.056
468.94	15.333
469.29	16.067
469.64	16.867
469.99	16.576
470.34	15.522
470.68	15.589
471.03	15.510
471.38	15.705
471.73	15.256
472.08	15.329
472.43	15.515
472.78	15.076
473.13	16.110
473.48	15.730
473.83	16.037
474.17	15.370
474.52	15.261
474.87	16.287
475.22	16.019
475.57	14.831
475.92	15.082
476.27	14.374
476.61	15.334
476.96	14.678
477.31	15.123
477.66	15.646
478.01	15.369
478.36	15.336
478.70	14.901
479.05	14.856
479.40	15.046
479.75	15.557
480.10	14.761
480.45	14.660
480.79	14.238
481.14	15.313
481.49	14.998
481.84	14.769
482.19	14.948
482.53	15.046
482.88	15.123
483.23	14.860
483.58	15.196
483.92	15.511
484.27	14.466
484.62	14.526
484.97	14.387
485.31	14.863
485.66	13.766
486.01	12.693
486.36	12.955
486.70	12.628
487.05	13.284
487.40	13.458
487.75	14.321
488.09	15.014
488.44	14.676
488.79	15.371
489.13	14.820
489.48	15.212
489.83	13.984
490.17	15.213
490.52	14.305
490.87	14.654
491.22	15.280
491.56	14.487
491.91	15.216
492.26	14.469
492.60	14.885
492.95	14.546
493.30	14.439
493.64	14.746
493.99	14.485
494.34	14.801
494.68	14.744
495.03	15.226
495.37	14.798
495.72	15.058
496.07	14.803
496.41	13.717
496.76	14.160
497.11	14.768
497.45	14.532
497.80	14.635
498.14	14.251
498.49	14.390
498.84	15.149
499.18	14.667
499.53	14.245
499.87	14.445
500.22	14.885
500.56	14.903
500.91	14.615
501.26	14.889
501.60	15.804
501.95	14.345
502.29	14.855
502.64	15.270
502.98	15.101
503.33	14.808
503.67	14.478
504.02	14.920
504.36	14.740
504.71	14.607
505.06	15.181
505.40	15.265
505.75	14.417
506.09	13.994
506.44	14.751
506.78	15.149
507.13	14.891
507.47	16.162
507.82	15.400
508.16	16.008
508.51	15.424
508.85	14.796
509.19	15.459
509.54	15.408
509.88	14.529
510.23	14.293
510.57	15.738
510.92	15.277
511.26	15.108
511.61	15.560
511.95	14.405
512.30	15.058
512.64	15.207
512.98	15.327
513.33	16.221
513.67	14.941
514.02	14.448
514.36	15.456
514.70	15.440
515.05	14.780
515.39	15.536
515.74	15.766
516.08	15.092
516.42	15.150
516.77	16.276
517.11	15.150
517.46	15.519
517.80	16.028
518.14	14.129
518.49	15.519
518.83	15.568
519.17	15.473
519.52	15.337
519.86	16.144
520.20	15.607
520.55	16.098
520.89	15.876
521.23	16.767
521.58	16.146
521.92	15.738
522.26	14.765
522.61	15.763
522.95	15.899
523.29	15.703
523.64	16.768
523.98	16.020
524.32	15.320
524.66	16.476
525.01	16.115
525.35	15.799
525.69	15.086
526.04	15.514
526.38	16.473
526.72	15.767
527.06	16.761
527.41	15.037
527.75	16.077
528.09	16.249
528.43	16.252
528.78	16.226
529.12	15.636
529.46	16.350
529.80	17.079
530.15	15.950
530.49	15.631
530.83	15.759
531.17	16.841
531.51	16.342
531.86	15.677
532.20	17.014
532.54	17.489
532.88	17.202
533.22	15.740
533.57	15.741
533.91	15.653
534.25	15.857
534.59	15.741
534.93	15.705
535.27	16.174
535.62	16.728
535.96	16.321
536.30	15.385
536.64	15.647
536.98	15.727
537.32	15.800
537.66	16.200
538.01	16.195
538.35	16.419
538.69	17.294
539.03	15.595
539.37	15.974
539.71	14.452
540.05	16.144
540.39	15.482
540.73	15.201
541.07	16.418
541.42	16.634
541.76	17.290
542.10	16.300
542.44	15.563
542.78	16.140
543.12	15.739
543.46	16.459
543.80	16.786
544.14	15.148
544.48	15.873
544.82	15.394
545.16	15.940
545.50	15.553
545.84	15.726
546.18	16.633
546.52	17.137
546.86	16.357
547.20	16.183
547.54	16.967
547.88	16.327
548.22	16.189
548.56	16.289
548.90	15.749
549.24	16.027
549.58	16.644
549.92	15.934
550.26	16.264
550.60	16.667
550.94	16.268
551.28	15.216
551.62	17.110
551.96	16.632
552.30	16.655
552.64	17.039
552.98	16.000
553.32	15.914
553.66	16.633
554.00	16.815
554.34	16.287
554.68	16.881
555.02	16.220
555.36	16.354
555.69	16.103
556.03	16.016
556.37	16.235
556.71	15.894
557.05	16.246
557.39	17.285
557.73	16.514
558.07	15.954
558.41	16.498
558.75	16.752
559.08	16.629
559.42	16.780
559.76	17.353
560.10	15.632
560.44	16.911
560.78	16.500
561.12	15.765
561.45	15.711
561.79	15.821
562.13	15.493
562.47	16.940
562.81	16.248
563.15	16.990
563.48	16.048
563.82	15.329
564.16	15.435
564.50	15.039
564.84	15.992
565.17	15.315
565.51	15.208
565.85	15.799
566.19	15.279
566.52	16.403
566.86	15.310
567.20	15.448
567.54	14.840
567.88	14.775
568.21	15.185
568.55	15.470
568.89	14.835
569.23	15.062
569.56	14.737
569.90	13.774
570.24	13.922
570.57	14.009
570.91	13.348
571.25	12.971
571.59	13.697
571.92	13.738
572.26	13.923
572.60	13.964
572.93	13.343
573.27	14.108
573.61	14.015
573.95	14.031
574.28	13.618
574.62	13.776
574.96	13.572
575.29	13.361
575.63	13.643
575.97	13.616
576.30	14.020
576.64	13.217
576.98	13.758
577.31	13.378
577.65	13.290
577.98	13.410
578.32	13.463
578.66	13.375
578.99	13.810
579.33	13.604
579.67	13.427
580.00	13.618
580.34	13.503
580.67	13.425
581.01	14.054
581.35	13.295
581.68	13.297
582.02	12.734
582.35	13.074
582.69	13.398
583.02	13.706
583.36	13.858
583.70	13.586
584.03	13.924
584.37	14.414
584.70	14.054
585.04	13.845
585.37	13.630
585.71	14.051
586.04	13.312
586.38	13.506
586.72	13.919
587.05	13.746
587.39	13.272
587.72	13.708
588.06	13.554
588.39	13.745
588.73	14.080
589.06	14.490
589.40	13.973
589.73	13.904
590.07	14.484
590.40	14.249
590.73	14.364
591.07	14.978
591.40	14.888
591.74	15.065
592.07	14.921
592.41	14.593
592.74	13.820
593.08	14.024
593.41	13.888
593.75	13.616
594.08	13.745
594.41	14.705
594.75	13.900
595.08	13.887
595.42	14.256
595.75	13.889
596.09	14.495
596.42	15.128
596.75	14.479
597.09	15.195
597.42	13.954
597.75	15.050
598.09	14.609
598.42	14.175
598.76	13.782
599.09	14.139
599.42	13.719
599.76	14.202
600.09	13.916
600.42	13.915
600.76	14.036
601.09	14.098
601.42	14.536
601.76	14.573
602.09	14.743
602.42	14.889
602.76	15.075
603.09	14.634
603.42	14.682
603.76	14.291
604.09	13.920
604.42	15.165
604.76	15.352
605.09	14.592
605.42	14.579
605.75	14.156
606.09	14.477
606.42	14.426
606.75	14.683
607.09	14.943
607.42	14.249
607.75	13.840
608.08	14.720
608.42	14.926
608.75	14.923
609.08	14.477
609.41	14.755
609.75	15.293
610.08	14.703
610.41	14.199
610.74	14.948
611.07	14.427
611.41	15.113
611.74	15.083
612.07	14.441
612.40	15.477
612.73	14.526
613.07	15.032
613.40	15.482
613.73	14.525
614.06	14.624
614.39	14.735
614.72	14.526
615.06	15.179
615.39	14.225
615.72	14.059
616.05	14.407
616.38	15.064
616.71	15.143
617.05	15.607
617.38	14.672
617.71	14.895
618.04	15.445
618.37	15.257
618.70	15.557
619.03	15.855
619.36	15.818
619.69	16.479
620.03	15.797
620.36	16.310
620.69	16.781
621.02	16.298
621.35	15.505
621.68	14.798
622.01	15.557
622.34	17.095
622.67	15.970
623.00	15.994
623.33	14.796
623.66	15.440
623.99	16.200
624.32	16.049
624.65	15.960
624.99	15.085
625.32	15.351
625.65	16.078
625.98	16.295
626.31	16.330
626.64	17.061
626.97	15.628
627.30	15.046
627.63	17.227
627.96	16.737
628.29	15.923
628.62	17.383
628.95	18.019
629.28	17.153
629.61	17.140
629.94	16.476
630.26	14.967
630.59	16.111
630.92	16.667
631.25	16.387
631.58	16.917
631.91	17.546
632.24	15.506
632.57	17.104
632.90	17.654
633.23	18.233
633.56	18.644
633.89	17.214
634.22	17.367
634.55	17.751
634.88	17.126
635.20	17.682
635.53	17.711
635.86	16.708
636.19	16.588
636.52	17.416
636.85	17.068
637.18	16.359
637.51	17.730
637.83	15.413
638.16	17.136
638.49	18.766
638.82	18.458
639.15	17.000
639.48	17.207
639.81	17.962
640.13	18.229
640.46	17.047
640.79	16.645
641.12	17.882
641.45	18.156
641.77	18.704
642.10	19.883
642.43	17.117
642.76	16.873
643.09	20.399
643.41	16.388
643.74	19.290
644.07	18.293
644.40	20.399
644.73	19.843
645.05	19.334
645.38	19.115
645.71	20.451
646.04	19.435
646.36	21.703
646.69	19.565
647.02	20.578
647.35	18.729
647.67	19.646
648.00	19.350
648.33	18.482
648.66	18.788
648.98	19.790
649.31	18.236
649.64	18.834
649.96	19.076
650.29	18.483
650.62	17.638
650.94	21.394
651.27	19.257
651.60	17.804
651.92	19.329
652.25	17.264
652.58	19.626
652.90	19.905
653.23	18.182
653.56	18.583
653.88	17.750
654.21	19.273
654.54	18.977
654.86	18.224
655.19	17.432
655.52	12.791
655.84	10.393
656.17	12.932
656.49	17.896
656.82	18.596
657.15	14.798
657.47	11.244
657.80	8.754
658.13	9.625
658.45	14.837
658.78	15.243
659.10	16.147
659.43	17.257
659.75	18.222
660.08	19.557
660.41	20.484
660.73	20.966
661.06	18.790
661.38	21.636
661.71	23.846
662.03	23.669
662.36	19.881
662.68	20.080
663.01	20.808
663.33	22.081
663.66	21.849
663.98	20.950
664.31	19.958
664.63	19.231
664.96	19.920
665.28	19.057
665.61	20.273
665.93	20.322
666.26	19.270
666.58	20.293
666.91	22.622
667.23	21.124
667.56	19.870
667.88	20.299
668.21	20.256
668.53	22.343
668.86	21.861
669.18	22.814
669.50	22.391
669.83	20.697
670.15	20.889
670.48	19.390
670.80	21.552
671.13	23.355
671.45	18.936
671.77	23.422
672.10	19.593
672.42	19.611
672.75	19.403
673.07	20.423
673.39	18.626
673.72	19.336
674.04	22.353
674.37	19.612
674.69	19.427
675.01	18.828
675.34	22.998
675.66	20.842
675.98	19.145
676.31	21.429
676.63	21.019
676.95	22.432
677.28	20.093
677.60	21.978
677.92	20.886
678.25	22.587
678.57	18.327
678.89	19.038
679.22	19.253
679.54	17.748
679.86	18.899
680.18	17.889
680.51	21.277
680.83	18.861
681.15	20.000
681.48	21.361
681.80	21.470
682.12	22.414
682.44	17.021
682.77	20.570
683.09	23.176
683.41	20.399
683.73	20.751
684.06	20.868
684.38	18.004
684.70	19.961
685.02	19.137
685.34	18.864
685.67	16.958
685.99	18.729
686.31	18.942
686.63	18.375
686.96	19.643
687.28	19.134
687.60	19.384
687.92	19.013
688.24	18.441
688.56	20.884
688.89	22.614
689.21	19.869
689.53	21.086
689.85	20.177
690.17	18.841
690.49	20.382
690.82	20.093
691.14	20.312
691.46	20.464
691.78	20.281
692.10	18.388
692.42	22.355
692.74	19.710
693.06	19.787
693.39	20.534
693.71	20.306
694.03	22.316
694.35	20.779
694.67	19.222
694.99	19.268
695.31	20.098
695.63	19.378
695.95	21.516
696.27	17.513
696.59	19.430
696.91	22.021
697.23	18.075
697.56	19.190
697.88	17.587
698.20	19.375
698.52	18.065
698.84	18.931
699.16	17.972
699.48	20.190
699.80	21.498
700.12	23.896
700.44	22.016
700.76	20.718
701.08	20.115
701.40	18.156
701.72	24.198
702.04	26.420
702.36	22.096
702.68	20.963
703.00	20.499
703.32	21.011
703.64	21.716
703.96	19.499
704.28	21.221
704.60	21.701
704.91	23.145
705.23	24.340
705.55	26.578
705.87	25.914
706.19	24.735
706.51	24.299
706.83	22.424
707.15	22.689
707.47	18.939
707.79	20.885
708.11	21.461
708.43	21.190
708.74	19.898
709.06	21.299
709.38	20.210
709.70	27.035
710.02	26.706
710.34	22.727
710.66	19.701
710.98	21.591
711.29	25.291
711.61	25.959
711.93	20.833
712.25	27.653
712.57	24.632
712.89	23.875
713.20	26.140
713.52	23.026
713.84	22.785
714.16	23.780
714.48	23.563
714.80	25.228
715.11	23.631
715.43	21.662
715.75	21.739
716.07	20.447
716.39	21.630
716.70	24.585
717.02	22.662
717.34	24.028
717.66	26.493
717.97	31.076
718.29	19.630
718.61	26.642
718.93	22.794
719.24	22.837
719.56	21.356
719.88	23.051
720.20	26.689
720.51	27.526
720.83	28.253
721.15	25.000
721.46	21.631
721.78	24.731
722.10	26.415
722.42	26.692
722.73	26.592
723.05	25.820
723.37	25.101
723.68	25.869
724.00	22.764
724.32	26.613
724.63	24.797
724.95	27.197
725.27	26.721
725.58	28.125
725.90	26.642
726.22	20.000
726.53	27.083
726.85	24.232
727.16	24.911
727.48	26.596
727.80	22.348
728.11	25.362
728.43	21.538
728.74	23.297
729.06	28.467
729.38	27.206
729.69	25.979
730.01	23.208
730.32	23.958
730.64	22.408
730.96	22.112
731.27	24.172
731.59	21.407
731.90	24.490
732.22	23.602
732.53	18.885
732.85	23.397
733.16	22.508
733.48	24.585
733.80	20.130
734.11	22.611
734.43	24.556
734.74	19.143
735.06	19.771
735.37	27.168
735.69	22.293
736.00	25.163
736.32	24.922
736.63	22.684
736.95	25.879
737.26	19.048
737.58	18.387
737.89	24.080
738.21	21.160
738.52	20.357
738.83	22.642
739.15	23.846
739.46	28.102
739.78	21.528
740.09	24.923
740.41	26.129
740.72	21.603
741.04	24.444
741.35	21.250
741.66	32.000
741.98	30.189
742.29	31.100
742.61	29.741
742.92	28.054
743.23	32.051
743.55	26.400
743.86	25.877
744.18	32.743
744.49	26.794
744.80	33.333
745.12	31.818
745.43	23.348
745.74	30.631
746.06	22.477
746.37	26.457
746.68	26.244
747.00	33.796
747.31	27.619
747.62	25.221
747.94	26.872
748.25	26.383
748.56	28.634
748.88	26.733
749.19	38.000
749.50	19.535
749.82	26.016
750.13	24.898
750.44	21.168
750.75	23.860
751.07	25.080
751.38	24.390
751.69	27.437
752.01	24.060
752.32	21.300
752.63	26.596
752.94	22.951
753.26	28.800
753.57	24.797
753.88	26.562
754.19	22.857
754.51	25.347
754.82	23.466
755.13	27.547
755.44	23.308
755.75	24.818
756.07	22.340
756.38	17.518
756.69	26.846
757.00	20.659
757.31	20.475
757.63	21.345
757.94	22.520
758.25	19.853
758.56	19.012
758.87	19.624
759.18	19.697
759.50	22.884
759.81	21.184
760.12	19.687
760.43	21.490
760.74	22.283
761.05	20.621
761.36	17.914
761.67	24.716
761.99	21.118
762.30	25.000
762.61	22.137
762.92	26.562
763.23	28.571
763.54	25.200
763.85	23.047
764.16	28.077
764.47	25.475
764.78	21.555
765.10	20.886
765.41	18.289
765.72	21.557
766.03	23.824
766.34	21.000
766.65	23.404
766.96	27.350
767.27	24.365
767.58	29.688
767.89	33.684
768.20	31.034
768.51	28.426
768.82	30.275
769.13	23.984
769.44	27.530
769.75	23.605
770.06	22.936
770.37	28.054
770.68	30.556
770.99	26.667
771.30	21.721
771.61	31.390
771.92	28.279
772.23	32.353
772.54	25.641
772.85	26.702
773.16	29.255
773.47	33.696
773.78	31.472
774.09	27.381
774.39	28.655
774.70	29.630
775.01	30.435
775.32	43.137
775.63	39.474
775.94	35.252
776.25	31.496
776.56	29.104
776.87	39.344
777.18	38.281
777.48	32.824
777.79	39.394
778.10	39.259
778.41	35.714
778.72	34.307
779.03	37.584
779.34	34.899
779.65	35.811
779.95	31.288
780.26	35.948
780.57	35.172
780.88	42.187
781.19	31.579
781.50	34.459
781.80	28.931
782.11	29.944
782.42	34.810
782.73	26.994
783.04	35.135
783.34	38.028
783.65	37.671
783.96	41.791
784.27	31.469
784.57	35.252
784.88	32.407
785.19	38.889
785.50	31.132
785.81	41.791
786.11	44.262
786.42	32.558
786.73	30.973
787.04	38.679
787.34	42.857
787.65	44.000
787.96	37.838
788.26	33.884
788.57	48.305
788.88	34.711
789.19	52.083
789.49	40.909
789.80	38.168
790.11	48.571
790.41	52.475
790.72	54.217
791.03	48.913
791.33	47.674
791.64	43.299
791.95	48.515
792.25	60.000
792.56	48.052
792.87	53.846
793.17	54.430
793.48	52.874
793.79	49.425
794.09	46.591
794.40	42.017
794.70	45.588
795.01	36.296
795.32	38.129
795.62	39.370
795.93	49.138
796.23	44.248
796.54	45.882
796.85	47.297
797.15	69.014
797.46	66.667
797.76	59.036
798.07	56.962
798.37	56.923
798.68	57.576
798.99	49.296
799.29	58.442
799.60	52.273
799.90	56.164
800.21	67.164
800.51	70.690
800.82	56.140
801.12	55.738
801.43	54.545
801.73	48.649
802.04	71.429
802.34	62.963
802.65	53.125
802.95	61.017
803.26	67.187
803.56	51.429
803.87	49.231
804.17	50.000
804.48	74.074
804.78	62.069
805.09	57.353
805.39	50.000
805.70	67.857
806.00	59.016
806.30	53.030
806.61	51.220
806.91	46.835
807.22	51.316
807.52	40.299
807.83	76.056
808.13	50.000
808.43	56.667
808.74	52.632
809.04	65.217
809.35	70.149
809.65	55.263
809.95	69.355
810.26	61.017
810.56	79.365
810.86	93.182
811.17	73.810
811.47	73.333
811.77	74.074
812.08	81.818
812.38	104.000
812.69	113.889
812.99	88.636
813.29	75.510
813.59	57.143
813.90	73.469
814.20	70.909
814.50	61.538
814.81	79.412
815.11	91.837
815.41	68.852
815.72	85.714
816.02	80.000
816.32	102.381
816.62	67.500
816.93	80.488
817.23	102.381
817.53	104.545
817.84	118.182
818.14	97.826
818.44	91.111
818.74	123.529
819.04	95.000
819.35	102.857
819.65	97.059
819.95	125.000
820.25	170.000
820.56	102.564
820.86	81.818
821.16	102.326
821.46	97.436
821.76	92.000
822.07	105.714
822.37	87.500
822.67	121.212
822.97	90.196
823.27	157.143
823.57	91.892
823.88	132.500
824.18	140.000
824.48	111.905
824.78	120.000
825.08	116.667
825.38	100.000
825.69	85.366
825.99	158.333
826.29	96.552
826.59	113.158
826.89	102.632
827.19	105.882
827.49	116.129
827.79	102.273
828.09	100.000
828.39	76.596
828.70	81.633
829.00	92.593
829.30	106.452
829.60	65.000
829.90	213.333
830.20	107.143
830.50	113.043
830.80	143.478
831.10	140.000
831.40	110.000
831.70	121.739
832.00	161.538
832.30	118.519
832.60	212.500
832.90	100.000
833.20	221.429
833.50	141.935
833.80	134.483
834.10	121.875
834.40	146.154
834.70	166.667
835.00	195.238
835.30	125.714
835.60	153.846
835.90	124.138
836.20	207.143
836.50	124.138
836.80	120.000
837.10	125.000
837.40	171.429
837.70	211.765
838.00	155.556
838.30	185.714
838.60	190.476
838.90	130.769
839.19	240.000
839.49	235.714
839.79	200.000
840.09	155.000
840.39	185.714
840.69	178.261
840.99	194.444
841.29	260.000
841.59	158.333
841.88	250.000
842.18	120.690
842.48	161.905
842.78	153.333
843.08	195.652
843.38	112.500
843.68	433.333
843.97	157.692
844.27	131.034
844.57	214.286
844.87	212.500
845.17	137.037
845.47	1166.667
845.76	222.222
846.06	258.824
846.36	375.000
846.66	307.143
846.96	193.750
847.25	327.273
847.55	236.364
847.85	178.261
848.15	380.000
848.44	200.000
848.74	177.778
849.04	205.882
849.34	330.000
849.63	157.895
849.93	290.909
850.23	480.000
850.53	314.286
850.82	1600.000
851.12	-2900.000
851.42	1300.000
851.71	170.000
852.01	-766.667
852.31	179.167
852.61	1000.000
852.90	190.476
853.20	168.000
853.50	211.765
853.79	152.381
854.09	154.167
854.39	250.000
854.68	129.730
854.98	145.161
855.28	130.000
855.57	141.379
855.87	114.815
856.17	105.263
856.46	160.000
856.76	223.529
857.05	117.241
857.35	137.500
857.65	313.333
857.94	165.217
858.24	180.769
858.53	205.000
858.83	145.455
859.13	200.000
859.42	0.000
859.72	288.889
860.01	327.273
860.31	195.455
860.60	178.947
860.90	147.826
861.20	400.000
861.49	341.667
861.79	-2600.000
862.08	512.500
862.38	195.238
862.67	261.538
862.97	258.824
863.26	366.667
863.56	172.222
863.85	233.333
864.15	412.500
864.44	253.333
864.74	416.667
865.03	450.000
865.33	189.474
865.62	354.545
865.92	300.000
866.21	166.667
866.51	0.000
866.80	290.909
867.10	660.000
867.39	300.000
867.69	318.182
867.98	178.947
868.27	236.364
868.57	184.211
868.86	-2800.000
869.16	268.750
869.45	1450.000
869.75	-2900.000
870.04	333.333
870.33	385.714
870.63	725.000
870.92	1700.000
871.22	542.857
871.51	247.059
871.80	166.667
872.10	300.000
>>>>>End Processed Spectral Data<<<<<
