SpectraSuite Data File
++++++++++++++++++++++++++++++++++++
Date: Wed May 13 16:22:53 PDT 2015
User: schluterlab
Dark Spectrum Present: Yes
Reference Spectrum Present: Yes
Number of Sampled Component Spectra: 1
Spectrometers: USB2E3373
Integration Time (usec): 3000 (USB2E3373)
Spectra Averaged: 3 (USB2E3373)
Boxcar Smoothing: 0 (USB2E3373)
Correct for Electrical Dark: No (USB2E3373)
Strobe/Lamp Enabled: No (USB2E3373)
Correct for Detector Non-linearity: No (USB2E3373)
Correct for Stray Light: No (USB2E3373)
Number of Pixels in Processed Spectrum: 2048
>>>>>Begin Processed Spectral Data<<<<<
178.53	0.000
178.91	-1225.000
179.29	-1325.000
179.67	-216.667
180.04	-1150.000
180.42	2300.000
180.80	1200.000
181.18	-950.000
181.56	728.571
181.94	0.000
182.31	-714.286
182.69	1333.333
183.07	-600.000
183.45	-422.222
183.83	490.909
184.20	-350.000
184.58	2400.000
184.96	6400.000
185.34	-800.000
185.72	-562.500
186.09	-2750.000
186.47	2450.000
186.85	2400.000
187.23	4800.000
187.61	-1533.333
187.98	1275.000
188.36	609.091
188.74	409.091
189.12	-920.000
189.49	480.000
189.87	-4300.000
190.25	-1325.000
190.63	385.714
191.00	369.231
191.38	1000.000
191.76	-1375.000
192.14	1675.000
192.51	625.000
192.89	1033.333
193.27	550.000
193.65	-1275.000
194.02	500.000
194.40	920.000
194.78	520.000
195.15	408.333
195.53	550.000
195.91	-1900.000
196.29	306.250
196.66	263.158
197.04	-370.000
197.42	0.000
197.79	650.000
198.17	-4100.000
198.55	685.714
198.92	550.000
199.30	760.000
199.68	0.000
200.05	327.778
200.43	685.714
200.81	3900.000
201.18	1333.333
201.56	-1500.000
201.94	566.667
202.31	533.333
202.69	358.333
203.07	500.000
203.44	0.000
203.82	1125.000
204.19	771.429
204.57	400.000
204.95	662.500
205.32	1700.000
205.70	554.545
206.08	357.143
206.45	2200.000
206.83	362.500
207.20	750.000
207.58	640.000
207.96	344.444
208.33	650.000
208.71	-800.000
209.08	857.143
209.46	555.556
209.84	436.364
210.21	-1300.000
210.59	1325.000
210.96	-450.000
211.34	2050.000
211.71	530.000
212.09	750.000
212.46	0.000
212.84	1300.000
213.22	1400.000
213.59	-4000.000
213.97	800.000
214.34	785.714
214.72	509.091
215.09	980.000
215.47	-2000.000
215.84	-2550.000
216.22	1733.333
216.59	335.714
216.97	1250.000
217.34	490.909
217.72	-683.333
218.09	0.000
218.47	-4800.000
218.84	577.778
219.22	814.286
219.59	1766.667
219.97	-542.857
220.34	880.000
220.72	-1733.333
221.09	378.571
221.47	1650.000
221.84	-816.667
222.22	0.000
222.59	1250.000
222.97	-2700.000
223.34	1020.000
223.72	346.154
224.09	1000.000
224.46	2150.000
224.84	-3200.000
225.21	-820.000
225.59	-5100.000
225.96	590.000
226.34	280.000
226.71	2300.000
227.08	662.500
227.46	580.000
227.83	-850.000
228.21	-2200.000
228.58	488.889
228.95	-1900.000
229.33	-2200.000
229.70	1600.000
230.08	642.857
230.45	-840.000
230.82	391.667
231.20	766.667
231.57	642.857
231.95	391.667
232.32	213.636
232.69	445.455
233.07	600.000
233.44	346.154
233.81	-1733.333
234.19	273.684
234.56	475.000
234.93	316.667
235.31	400.000
235.68	330.769
236.05	314.286
236.43	175.758
236.80	300.000
237.17	4100.000
237.55	185.714
237.92	192.857
238.29	242.857
238.67	122.581
239.04	186.207
239.41	144.444
239.79	97.826
240.16	123.810
240.53	111.364
240.91	101.961
241.28	94.000
241.65	108.000
242.02	73.913
242.40	88.710
242.77	75.000
243.14	72.043
243.51	68.539
243.89	65.882
244.26	55.556
244.63	62.366
245.00	65.957
245.38	57.426
245.75	51.402
246.12	55.046
246.49	56.934
246.87	68.000
247.24	54.615
247.61	47.857
247.98	48.366
248.36	45.946
248.73	39.490
249.10	48.408
249.47	46.893
249.84	44.920
250.22	36.364
250.59	46.154
250.96	45.960
251.33	39.810
251.70	39.109
252.08	34.762
252.45	39.462
252.82	38.696
253.19	37.447
253.56	39.216
253.94	36.515
254.31	33.984
254.68	34.231
255.05	33.579
255.42	35.366
255.79	30.147
256.16	33.213
256.54	29.682
256.91	34.875
257.28	30.576
257.65	28.713
258.02	31.988
258.39	30.915
258.76	29.097
259.14	32.738
259.51	29.179
259.88	30.745
260.25	28.097
260.62	27.746
260.99	27.019
261.36	29.129
261.73	26.648
262.10	24.419
262.47	29.577
262.85	25.070
263.22	27.066
263.59	29.630
263.96	27.198
264.33	30.026
264.70	31.842
265.07	29.412
265.44	26.768
265.81	25.791
266.18	28.392
266.55	25.854
266.92	26.781
267.29	28.704
267.66	27.752
268.03	25.909
268.40	25.234
268.77	26.730
269.14	26.351
269.51	26.862
269.88	27.972
270.25	24.379
270.62	24.719
270.99	28.387
271.36	26.180
271.73	24.299
272.10	23.478
272.47	26.452
272.84	25.758
273.21	25.367
273.58	22.489
273.95	23.270
274.32	23.347
274.69	25.482
275.06	22.047
275.43	25.745
275.80	25.651
276.17	25.662
276.54	26.403
276.91	23.518
277.28	22.852
277.65	23.791
278.02	22.774
278.39	26.367
278.76	24.000
279.13	23.019
279.50	21.974
279.87	24.104
280.23	24.351
280.60	23.404
280.97	20.333
281.34	23.540
281.71	22.182
282.08	25.720
282.45	21.091
282.82	23.268
283.19	19.430
283.56	22.456
283.92	23.519
284.29	21.869
284.66	20.871
285.03	20.253
285.40	19.190
285.77	22.896
286.14	20.898
286.51	21.333
286.87	24.786
287.24	23.616
287.61	21.830
287.98	22.727
288.35	20.919
288.72	21.184
289.08	21.753
289.45	21.252
289.82	20.813
290.19	20.408
290.56	20.521
290.93	18.731
291.29	19.939
291.66	19.322
292.03	21.512
292.40	20.117
292.77	20.266
293.13	19.254
293.50	21.720
293.87	18.222
294.24	18.370
294.60	18.049
294.97	18.169
295.34	19.464
295.71	18.608
296.08	18.091
296.44	18.707
296.81	17.569
297.18	17.209
297.55	17.414
297.91	17.150
298.28	16.734
298.65	19.060
299.02	18.577
299.38	17.663
299.75	16.038
300.12	17.880
300.48	17.250
300.85	17.386
301.22	17.070
301.59	16.414
301.95	16.373
302.32	17.073
302.69	16.368
303.05	16.364
303.42	16.296
303.79	17.101
304.15	15.035
304.52	16.454
304.89	13.937
305.25	15.197
305.62	14.723
305.99	17.237
306.35	14.430
306.72	15.247
307.09	16.537
307.45	17.793
307.82	13.951
308.19	16.115
308.55	16.181
308.92	15.467
309.29	13.939
309.65	14.316
310.02	15.751
310.38	14.731
310.75	15.945
311.12	15.353
311.48	14.838
311.85	14.465
312.22	15.817
312.58	14.241
312.95	16.262
313.31	14.660
313.68	16.424
314.05	18.245
314.41	15.276
314.78	15.005
315.14	14.598
315.51	15.448
315.87	14.950
316.24	14.697
316.61	14.522
316.97	15.558
317.34	14.775
317.70	15.392
318.07	14.052
318.43	14.384
318.80	16.026
319.16	15.066
319.53	14.447
319.89	15.143
320.26	15.200
320.62	15.377
320.99	14.949
321.35	13.838
321.72	14.579
322.08	15.400
322.45	16.418
322.81	15.988
323.18	14.740
323.54	15.399
323.91	13.679
324.27	14.245
324.64	13.793
325.00	14.337
325.37	16.106
325.73	15.260
326.10	14.828
326.46	13.530
326.83	15.876
327.19	14.688
327.56	14.373
327.92	15.048
328.29	14.818
328.65	14.549
329.01	14.440
329.38	12.951
329.74	14.220
330.11	16.023
330.47	14.141
330.84	14.798
331.20	13.479
331.56	14.587
331.93	13.889
332.29	15.262
332.66	14.867
333.02	14.808
333.38	14.544
333.75	15.152
334.11	15.036
334.48	15.705
334.84	14.430
335.20	14.455
335.57	14.597
335.93	13.125
336.29	13.278
336.66	14.788
337.02	13.756
337.38	15.648
337.75	13.815
338.11	14.414
338.47	13.628
338.84	15.032
339.20	14.220
339.56	14.599
339.93	14.182
340.29	13.768
340.65	13.815
341.02	15.009
341.38	13.612
341.74	13.596
342.11	13.886
342.47	13.392
342.83	15.154
343.20	15.325
343.56	13.395
343.92	14.298
344.28	14.116
344.65	13.672
345.01	13.384
345.37	12.693
345.73	13.198
346.10	13.640
346.46	12.966
346.82	13.344
347.19	12.531
347.55	13.300
347.91	13.754
348.27	13.722
348.63	14.047
349.00	12.379
349.36	13.218
349.72	13.312
350.08	13.128
350.45	13.019
350.81	13.404
351.17	12.885
351.53	13.759
351.89	13.284
352.26	14.049
352.62	13.873
352.98	12.642
353.34	13.887
353.70	11.784
354.07	12.823
354.43	12.937
354.79	12.309
355.15	13.408
355.51	13.349
355.87	12.653
356.24	13.844
356.60	13.873
356.96	13.274
357.32	13.328
357.68	12.441
358.04	13.143
358.40	13.302
358.77	12.754
359.13	12.391
359.49	13.569
359.85	12.540
360.21	12.520
360.57	12.996
360.93	12.154
361.29	12.698
361.66	12.152
362.02	12.537
362.38	12.548
362.74	12.946
363.10	11.399
363.46	13.206
363.82	11.338
364.18	12.628
364.54	13.596
364.90	13.031
365.26	11.471
365.62	12.564
365.98	12.199
366.35	11.891
366.71	11.786
367.07	12.819
367.43	12.917
367.79	12.991
368.15	13.578
368.51	11.846
368.87	11.563
369.23	12.436
369.59	12.962
369.95	10.588
370.31	11.895
370.67	12.391
371.03	12.659
371.39	13.630
371.75	11.912
372.11	12.233
372.47	12.537
372.83	12.608
373.19	12.789
373.55	11.899
373.91	12.813
374.27	12.371
374.63	12.145
374.99	12.994
375.35	10.816
375.71	12.406
376.07	13.169
376.42	12.036
376.78	12.525
377.14	12.415
377.50	11.987
377.86	12.500
378.22	12.263
378.58	11.341
378.94	10.937
379.30	11.578
379.66	11.802
380.02	12.101
380.38	11.658
380.74	11.645
381.09	12.531
381.45	12.293
381.81	12.285
382.17	12.548
382.53	12.013
382.89	12.840
383.25	11.194
383.61	12.268
383.97	11.945
384.32	11.790
384.68	12.515
385.04	11.371
385.40	11.827
385.76	11.794
386.12	11.528
386.48	12.649
386.83	11.802
387.19	12.740
387.55	11.812
387.91	12.213
388.27	12.078
388.62	11.678
388.98	11.671
389.34	12.265
389.70	12.385
390.06	13.435
390.42	12.322
390.77	12.659
391.13	12.508
391.49	12.690
391.85	11.712
392.20	11.672
392.56	12.563
392.92	11.242
393.28	11.006
393.64	12.290
393.99	12.401
394.35	11.725
394.71	12.045
395.07	12.274
395.42	11.928
395.78	13.041
396.14	12.663
396.50	12.155
396.85	12.206
397.21	11.591
397.57	12.399
397.92	11.959
398.28	10.650
398.64	12.485
399.00	12.255
399.35	11.844
399.71	11.690
400.07	12.596
400.42	12.577
400.78	11.761
401.14	12.012
401.49	12.597
401.85	11.555
402.21	11.198
402.57	11.598
402.92	12.295
403.28	12.180
403.63	11.819
403.99	11.656
404.35	12.545
404.70	11.930
405.06	11.415
405.42	11.728
405.77	11.143
406.13	12.133
406.49	11.946
406.84	11.931
407.20	11.584
407.55	11.551
407.91	12.400
408.27	12.125
408.62	11.860
408.98	11.826
409.34	12.854
409.69	12.645
410.05	11.400
410.40	11.682
410.76	11.589
411.11	12.485
411.47	11.885
411.83	12.523
412.18	11.688
412.54	12.516
412.89	12.711
413.25	12.220
413.60	12.044
413.96	12.325
414.31	11.847
414.67	12.738
415.03	12.053
415.38	12.371
415.74	12.154
416.09	11.822
416.45	11.580
416.80	11.699
417.16	12.802
417.51	12.807
417.87	12.588
418.22	12.871
418.58	12.847
418.93	12.285
419.29	13.049
419.64	12.657
420.00	11.890
420.35	12.290
420.71	13.210
421.06	11.874
421.42	11.930
421.77	12.556
422.12	12.128
422.48	12.142
422.83	11.881
423.19	11.878
423.54	11.027
423.90	12.174
424.25	12.954
424.61	12.083
424.96	11.778
425.31	12.458
425.67	11.742
426.02	12.514
426.38	13.065
426.73	11.937
427.09	12.036
427.44	11.501
427.79	12.363
428.15	12.500
428.50	11.878
428.85	12.992
429.21	12.203
429.56	11.975
429.92	11.928
430.27	11.569
430.62	11.316
430.98	11.728
431.33	12.062
431.68	11.832
432.04	12.194
432.39	11.136
432.74	12.567
433.10	12.337
433.45	12.128
433.80	11.863
434.16	12.607
434.51	11.895
434.86	12.771
435.22	11.673
435.57	12.219
435.92	12.639
436.28	12.811
436.63	12.583
436.98	11.963
437.34	11.747
437.69	12.602
438.04	12.872
438.39	12.597
438.75	12.841
439.10	12.235
439.45	12.397
439.81	11.722
440.16	12.479
440.51	12.771
440.86	12.913
441.22	12.291
441.57	12.420
441.92	12.231
442.27	12.271
442.63	12.006
442.98	13.239
443.33	11.739
443.68	12.597
444.03	12.299
444.39	11.392
444.74	11.851
445.09	12.399
445.44	12.083
445.79	12.073
446.15	13.287
446.50	12.547
446.85	11.871
447.20	12.647
447.55	11.725
447.91	11.528
448.26	12.465
448.61	12.606
448.96	12.292
449.31	12.823
449.66	12.606
450.02	12.033
450.37	12.018
450.72	12.239
451.07	12.675
451.42	12.766
451.77	13.271
452.12	12.644
452.47	12.438
452.83	12.354
453.18	12.164
453.53	12.801
453.88	13.349
454.23	13.030
454.58	13.810
454.93	13.414
455.28	12.406
455.63	13.410
455.98	13.869
456.34	12.626
456.69	12.837
457.04	12.384
457.39	13.092
457.74	12.826
458.09	13.629
458.44	12.144
458.79	12.636
459.14	13.318
459.49	12.551
459.84	12.299
460.19	11.844
460.54	12.384
460.89	12.617
461.24	12.933
461.59	14.236
461.94	12.762
462.29	13.116
462.64	12.253
462.99	11.906
463.34	14.333
463.69	12.883
464.04	13.449
464.39	13.333
464.74	12.537
465.09	12.545
465.44	12.188
465.79	12.919
466.14	12.425
466.49	12.570
466.84	12.551
467.19	13.156
467.54	13.750
467.89	13.745
468.24	13.554
468.59	13.736
468.94	12.706
469.29	12.725
469.64	14.056
469.99	13.396
470.34	12.880
470.68	13.147
471.03	14.014
471.38	13.482
471.73	13.724
472.08	13.816
472.43	13.003
472.78	13.298
473.13	13.671
473.48	13.483
473.83	14.146
474.17	12.383
474.52	13.089
474.87	12.901
475.22	13.755
475.57	13.219
475.92	12.852
476.27	13.247
476.61	13.238
476.96	12.259
477.31	12.716
477.66	13.621
478.01	12.128
478.36	13.221
478.70	12.565
479.05	12.993
479.40	13.664
479.75	12.506
480.10	12.724
480.45	12.232
480.79	12.327
481.14	12.622
481.49	12.720
481.84	12.209
482.19	12.449
482.53	12.477
482.88	12.843
483.23	12.477
483.58	12.784
483.92	12.559
484.27	11.808
484.62	12.414
484.97	11.431
485.31	12.397
485.66	10.497
486.01	9.985
486.36	9.716
486.70	9.773
487.05	10.352
487.40	10.802
487.75	11.090
488.09	11.920
488.44	11.975
488.79	12.767
489.13	12.796
489.48	12.806
489.83	11.739
490.17	12.801
490.52	12.267
490.87	12.347
491.22	12.688
491.56	12.164
491.91	12.192
492.26	11.989
492.60	12.535
492.95	11.833
493.30	12.991
493.64	12.599
493.99	12.396
494.34	12.905
494.68	12.592
495.03	13.017
495.37	12.517
495.72	12.768
496.07	12.575
496.41	11.814
496.76	12.049
497.11	12.562
497.45	12.436
497.80	12.908
498.14	11.981
498.49	13.122
498.84	12.800
499.18	12.286
499.53	12.678
499.87	12.721
500.22	12.906
500.56	13.204
500.91	12.596
501.26	12.565
501.60	13.336
501.95	12.466
502.29	13.355
502.64	12.803
502.98	12.529
503.33	12.706
503.67	12.622
504.02	12.956
504.36	12.307
504.71	12.946
505.06	13.398
505.40	13.126
505.75	12.874
506.09	12.731
506.44	12.876
506.78	12.567
507.13	12.973
507.47	13.333
507.82	13.222
508.16	12.513
508.51	13.445
508.85	13.406
509.19	12.500
509.54	12.908
509.88	12.571
510.23	12.853
510.57	13.932
510.92	13.413
511.26	14.029
511.61	13.745
511.95	12.578
512.30	13.309
512.64	13.649
512.98	12.755
513.33	14.026
513.67	12.807
514.02	13.420
514.36	13.654
514.70	12.950
515.05	13.385
515.39	13.517
515.74	13.514
516.08	13.527
516.42	13.818
516.77	14.827
517.11	13.097
517.46	14.278
517.80	14.866
518.14	13.202
518.49	13.711
518.83	13.636
519.17	13.857
519.52	15.110
519.86	14.375
520.20	14.393
520.55	15.081
520.89	13.929
521.23	14.897
521.58	13.986
521.92	14.085
522.26	13.789
522.61	13.520
522.95	14.180
523.29	14.486
523.64	14.390
523.98	14.418
524.32	14.837
524.66	14.251
525.01	15.012
525.35	13.197
525.69	14.224
526.04	13.956
526.38	14.399
526.72	14.049
527.06	14.501
527.41	13.923
527.75	14.598
528.09	14.387
528.43	14.978
528.78	15.181
529.12	14.061
529.46	14.268
529.80	14.975
530.15	14.081
530.49	14.031
530.83	15.000
531.17	15.274
531.51	15.499
531.86	15.032
532.20	14.928
532.54	15.054
532.88	14.955
533.22	14.991
533.57	14.012
533.91	14.389
534.25	14.885
534.59	14.765
534.93	14.575
535.27	14.001
535.62	14.164
535.96	15.380
536.30	14.240
536.64	15.068
536.98	13.935
537.32	14.022
537.66	15.467
538.01	15.273
538.35	14.932
538.69	15.826
539.03	14.230
539.37	13.419
539.71	12.897
540.05	14.641
540.39	14.419
540.73	14.489
541.07	14.471
541.42	14.220
541.76	15.097
542.10	15.136
542.44	14.238
542.78	14.822
543.12	13.564
543.46	15.738
543.80	14.444
544.14	13.479
544.48	14.603
544.82	14.176
545.16	13.988
545.50	14.010
545.84	14.516
546.18	14.882
546.52	15.692
546.86	14.708
547.20	15.644
547.54	14.830
547.88	15.561
548.22	13.948
548.56	14.088
548.90	14.020
549.24	14.613
549.58	15.484
549.92	14.698
550.26	15.412
550.60	14.869
550.94	15.070
551.28	14.704
551.62	14.306
551.96	14.035
552.30	15.358
552.64	14.875
552.98	14.915
553.32	15.307
553.66	14.860
554.00	15.443
554.34	14.631
554.68	15.522
555.02	15.656
555.36	14.892
555.69	14.885
556.03	15.007
556.37	14.734
556.71	15.280
557.05	14.356
557.39	14.416
557.73	15.314
558.07	16.099
558.41	14.761
558.75	15.062
559.08	15.063
559.42	15.344
559.76	15.294
560.10	14.847
560.44	15.094
560.78	14.172
561.12	15.303
561.45	14.407
561.79	15.030
562.13	15.426
562.47	15.027
562.81	14.854
563.15	14.783
563.48	15.053
563.82	15.134
564.16	14.192
564.50	14.518
564.84	14.159
565.17	13.449
565.51	13.802
565.85	14.721
566.19	13.838
566.52	15.073
566.86	12.899
567.20	14.623
567.54	13.984
567.88	13.525
568.21	13.915
568.55	13.397
568.89	13.619
569.23	12.745
569.56	12.551
569.90	12.340
570.24	11.877
570.57	11.901
570.91	11.506
571.25	11.396
571.59	11.487
571.92	11.751
572.26	11.410
572.60	12.222
572.93	11.694
573.27	12.304
573.61	12.032
573.95	11.886
574.28	11.432
574.62	11.613
574.96	11.207
575.29	11.372
575.63	11.636
575.97	11.794
576.30	11.843
576.64	11.600
576.98	11.716
577.31	11.368
577.65	10.923
577.98	10.957
578.32	10.882
578.66	11.132
578.99	11.253
579.33	11.184
579.67	10.995
580.00	11.220
580.34	11.391
580.67	11.699
581.01	11.986
581.35	10.882
581.68	10.973
582.02	10.652
582.35	10.904
582.69	10.858
583.02	10.965
583.36	11.552
583.70	11.713
584.03	12.095
584.37	12.385
584.70	12.121
585.04	11.937
585.37	11.929
585.71	11.725
586.04	11.380
586.38	11.782
586.72	12.124
587.05	11.926
587.39	11.161
587.72	11.827
588.06	11.499
588.39	12.016
588.73	12.262
589.06	12.434
589.40	12.391
589.73	13.059
590.07	12.989
590.40	12.824
590.73	13.076
591.07	13.472
591.40	12.990
591.74	13.593
592.07	14.005
592.41	13.270
592.74	12.584
593.08	12.258
593.41	12.053
593.75	11.868
594.08	12.571
594.41	12.372
594.75	12.126
595.08	12.706
595.42	12.329
595.75	12.536
596.09	13.293
596.42	13.242
596.75	13.592
597.09	13.723
597.42	13.280
597.75	12.850
598.09	13.261
598.42	13.273
598.76	12.566
599.09	12.315
599.42	12.191
599.76	12.335
600.09	12.277
600.42	12.710
600.76	12.250
601.09	12.350
601.42	12.481
601.76	12.106
602.09	12.806
602.42	12.978
602.76	12.858
603.09	13.061
603.42	13.081
603.76	12.538
604.09	12.214
604.42	12.760
604.76	13.328
605.09	13.543
605.42	13.339
605.75	12.873
606.09	12.363
606.42	12.301
606.75	13.148
607.09	13.604
607.42	13.094
607.75	12.869
608.08	12.462
608.42	13.492
608.75	13.075
609.08	13.090
609.41	13.470
609.75	13.435
610.08	13.525
610.41	13.361
610.74	13.482
611.07	12.994
611.41	13.199
611.74	14.329
612.07	13.561
612.40	14.428
612.73	13.263
613.07	14.817
613.40	13.481
613.73	13.372
614.06	13.495
614.39	14.106
614.72	13.947
615.06	13.445
615.39	13.057
615.72	13.906
616.05	12.812
616.38	14.119
616.71	13.955
617.05	14.252
617.38	14.853
617.71	14.474
618.04	13.822
618.37	14.902
618.70	14.561
619.03	14.013
619.36	15.207
619.69	14.507
620.03	15.041
620.36	14.840
620.69	15.205
621.02	15.560
621.35	15.897
621.68	15.109
622.01	14.861
622.34	14.977
622.67	15.133
623.00	14.747
623.33	14.010
623.66	15.583
623.99	14.654
624.32	14.979
624.65	15.184
624.99	14.164
625.32	14.699
625.65	15.026
625.98	15.296
626.31	16.019
626.64	16.327
626.97	16.126
627.30	14.630
627.63	17.309
627.96	15.812
628.29	17.235
628.62	17.566
628.95	17.925
629.28	16.150
629.61	17.232
629.94	17.333
630.26	16.873
630.59	16.206
630.92	17.720
631.25	16.091
631.58	17.518
631.91	17.039
632.24	16.878
632.57	18.363
632.90	17.873
633.23	16.219
633.56	17.966
633.89	19.592
634.22	17.707
634.55	18.580
634.88	17.006
635.20	17.204
635.53	19.277
635.86	18.441
636.19	16.471
636.52	18.108
636.85	17.411
637.18	17.972
637.51	19.149
637.83	15.660
638.16	18.414
638.49	19.018
638.82	19.722
639.15	19.375
639.48	19.576
639.81	19.303
640.13	18.359
640.46	18.523
640.79	20.872
641.12	18.569
641.45	18.436
641.77	22.680
642.10	19.298
642.43	19.219
642.76	20.279
643.09	19.325
643.41	20.030
643.74	20.525
644.07	20.732
644.40	20.092
644.73	22.677
645.05	21.712
645.38	19.747
645.71	19.324
646.04	20.100
646.36	21.703
646.69	21.070
647.02	21.769
647.35	21.993
647.67	21.062
648.00	20.000
648.33	20.462
648.66	20.000
648.98	21.289
649.31	19.432
649.64	18.834
649.96	19.076
650.29	18.957
650.62	19.417
650.94	23.501
651.27	22.466
651.60	20.965
651.92	20.767
652.25	20.033
652.58	20.561
652.90	21.643
653.23	20.339
653.56	20.787
653.88	21.236
654.21	20.853
654.54	21.122
654.86	18.069
655.19	18.108
655.52	11.835
655.84	8.201
656.17	10.240
656.49	14.069
656.82	14.879
657.15	12.076
657.47	9.233
657.80	7.515
658.13	8.094
658.45	12.804
658.78	13.310
659.10	14.641
659.43	15.419
659.75	17.240
660.08	18.291
660.41	20.764
660.73	22.999
661.06	21.019
661.38	21.636
661.71	22.692
662.03	23.471
662.36	20.278
662.68	21.687
663.01	23.232
663.33	23.567
663.66	22.479
663.98	21.598
664.31	21.849
664.63	20.850
664.96	23.541
665.28	21.721
665.61	21.053
665.93	22.535
666.26	22.921
666.58	24.477
666.91	24.524
667.23	25.843
667.56	20.302
667.88	24.573
668.21	23.454
668.53	24.078
668.86	24.892
669.18	24.733
669.50	22.609
669.83	26.580
670.15	22.667
670.48	21.569
670.80	23.491
671.13	23.992
671.45	22.766
671.77	20.978
672.10	21.442
672.42	21.201
672.75	19.071
673.07	19.542
673.39	19.711
673.72	20.117
674.04	21.569
674.37	22.524
674.69	21.268
675.01	21.130
675.34	25.051
675.66	24.211
675.98	24.236
676.31	23.739
676.63	23.142
676.95	21.174
677.28	23.364
677.60	22.857
677.92	23.418
678.25	21.766
678.57	20.319
678.89	22.244
679.22	22.200
679.54	21.947
679.86	22.385
680.18	19.141
680.51	20.390
680.83	20.819
681.15	21.887
681.48	22.306
681.80	19.729
682.12	22.031
682.44	18.569
682.77	24.847
683.09	22.961
683.41	22.395
683.73	22.958
684.06	22.727
684.38	20.157
684.70	22.674
685.02	19.700
685.34	19.963
685.67	17.657
685.99	19.588
686.31	18.089
686.63	20.671
686.96	19.464
687.28	21.661
687.60	19.384
687.92	20.841
688.24	21.483
688.56	23.695
688.89	23.444
689.21	24.672
689.53	22.756
689.85	25.055
690.17	19.669
690.49	22.718
690.82	22.897
691.14	21.429
691.46	20.886
691.78	20.482
692.10	21.901
692.42	23.752
692.74	20.954
693.06	21.702
693.39	22.793
693.71	21.616
694.03	21.053
694.35	20.779
694.67	20.366
694.99	23.659
695.31	21.324
695.63	22.727
695.95	24.694
696.27	22.589
696.59	23.316
696.91	23.575
697.23	19.953
697.56	23.028
697.88	18.405
698.20	21.458
698.52	22.581
698.84	19.822
699.16	20.737
699.48	21.140
699.80	22.222
700.12	26.494
700.44	26.260
700.76	25.138
701.08	26.437
701.40	24.302
701.72	25.364
702.04	28.693
702.36	23.513
702.68	26.912
703.00	22.992
703.32	20.479
703.64	26.273
703.96	25.070
704.28	25.291
704.60	27.273
704.91	25.223
705.23	24.633
705.55	33.223
705.87	30.233
706.19	28.975
706.51	26.791
706.83	28.182
707.15	26.891
707.47	22.727
707.79	24.570
708.11	21.005
708.43	20.952
708.74	22.449
709.06	26.494
709.38	26.509
709.70	26.744
710.02	29.080
710.34	24.242
710.66	25.672
710.98	24.716
711.29	28.488
711.61	27.434
711.93	27.564
712.25	27.653
712.57	29.044
712.89	29.066
713.20	25.532
713.52	30.263
713.84	27.532
714.16	26.220
714.48	22.126
714.80	33.435
715.11	22.190
715.43	24.332
715.75	26.377
716.07	25.559
716.39	26.959
716.70	29.900
717.02	29.137
717.34	26.855
717.66	32.463
717.97	33.068
718.29	30.000
718.61	27.372
718.93	31.618
719.24	29.412
719.56	25.085
719.88	25.085
720.20	26.689
720.51	27.526
720.83	31.970
721.15	26.119
721.46	29.078
721.78	26.523
722.10	26.792
722.42	31.955
722.73	31.835
723.05	31.967
723.37	33.198
723.68	29.344
724.00	28.049
724.32	31.452
724.63	28.049
724.95	29.707
725.27	33.603
725.58	29.297
725.90	31.387
726.22	26.038
726.53	24.653
726.85	27.986
727.16	29.893
727.48	27.660
727.80	29.545
728.11	27.536
728.43	27.692
728.74	27.599
729.06	30.292
729.38	30.882
729.69	30.961
730.01	23.891
730.32	27.083
730.64	25.084
730.96	25.413
731.27	25.497
731.59	27.523
731.90	22.741
732.22	24.534
732.53	21.981
732.85	25.000
733.16	25.080
733.48	26.578
733.80	26.623
734.11	25.796
734.43	24.556
734.74	24.000
735.06	20.344
735.37	25.434
735.69	24.841
736.00	26.797
736.32	26.168
736.63	25.559
736.95	25.879
737.26	20.748
737.58	28.710
737.89	25.418
738.21	29.352
738.52	27.857
738.83	28.679
739.15	26.154
739.46	25.547
739.78	27.083
740.09	21.846
740.41	26.452
740.72	25.436
741.04	30.741
741.35	26.667
741.66	33.778
741.98	29.245
742.29	29.665
742.61	39.655
742.92	25.792
743.23	34.188
743.55	30.000
743.86	33.772
744.18	33.628
744.49	35.885
744.80	32.864
745.12	36.818
745.43	29.956
745.74	33.784
746.06	33.945
746.37	36.323
746.68	29.864
747.00	36.574
747.31	34.762
747.62	31.858
747.94	32.159
748.25	28.085
748.56	33.480
748.88	30.198
749.19	38.000
749.50	34.884
749.82	26.423
750.13	28.571
750.44	28.102
750.75	26.316
751.07	27.331
751.38	29.268
751.69	28.881
752.01	26.316
752.32	26.354
752.63	26.596
752.94	28.689
753.26	31.600
753.57	29.675
753.88	27.734
754.19	27.143
754.51	29.167
754.82	27.437
755.13	30.943
755.44	27.444
755.75	23.723
756.07	26.241
756.38	22.993
756.69	26.510
757.00	23.952
757.31	25.519
757.63	23.392
757.94	20.107
758.25	22.794
758.56	19.259
758.87	25.000
759.18	27.576
759.50	24.451
759.81	25.857
760.12	22.187
760.43	24.642
760.74	23.098
761.05	24.011
761.36	21.925
761.67	24.432
761.99	26.087
762.30	20.833
762.61	30.153
762.92	30.859
763.23	30.252
763.54	32.000
763.85	26.562
764.16	29.231
764.47	28.137
764.78	25.442
765.10	25.316
765.41	23.599
765.72	24.850
766.03	25.705
766.34	26.333
766.65	35.745
766.96	32.479
767.27	34.518
767.58	37.500
767.89	39.474
768.20	36.207
768.51	39.594
768.82	35.780
769.13	26.016
769.44	28.340
769.75	29.185
770.06	23.853
770.37	35.294
770.68	30.093
770.99	31.556
771.30	23.770
771.61	27.354
771.92	33.607
772.23	31.933
772.54	29.744
772.85	37.696
773.16	35.638
773.47	36.413
773.78	40.609
774.09	35.119
774.39	41.520
774.70	41.358
775.01	40.580
775.32	41.830
775.63	40.789
775.94	43.165
776.25	55.118
776.56	39.552
776.87	48.361
777.18	46.875
777.48	51.145
777.79	52.273
778.10	50.370
778.41	43.750
778.72	42.336
779.03	42.282
779.34	38.926
779.65	36.486
779.95	43.558
780.26	44.444
780.57	42.759
780.88	46.875
781.19	54.887
781.50	50.676
781.80	40.252
782.11	38.418
782.42	32.911
782.73	37.423
783.04	46.622
783.34	45.775
783.65	52.740
783.96	46.269
784.27	41.958
784.57	37.410
784.88	37.963
785.19	57.937
785.50	47.170
785.81	52.985
786.11	52.459
786.42	53.488
786.73	46.903
787.04	50.943
787.34	50.000
787.65	59.000
787.96	50.450
788.26	47.107
788.57	53.390
788.88	45.455
789.19	49.306
789.49	52.273
789.80	48.855
790.11	61.905
790.41	65.347
790.72	59.036
791.03	71.739
791.33	60.465
791.64	63.918
791.95	64.356
792.25	75.556
792.56	74.026
792.87	85.897
793.17	79.747
793.48	81.609
793.79	66.667
794.09	51.136
794.40	51.261
794.70	47.794
795.01	48.889
795.32	45.324
795.62	45.669
795.93	50.000
796.23	46.903
796.54	60.000
796.85	60.811
797.15	83.099
797.46	77.273
797.76	72.289
798.07	59.494
798.37	67.692
798.68	83.333
798.99	66.197
799.29	64.935
799.60	57.955
799.90	80.822
800.21	86.567
800.51	87.931
800.82	87.719
801.12	100.000
801.43	84.848
801.73	62.162
802.04	92.063
802.34	82.716
802.65	89.062
802.95	98.305
803.26	89.063
803.56	70.000
803.87	73.846
804.17	80.882
804.48	98.148
804.78	77.586
805.09	95.588
805.39	100.000
805.70	87.500
806.00	96.721
806.30	78.788
806.61	78.049
806.91	65.823
807.22	76.316
807.52	55.224
807.83	88.732
808.13	92.188
808.43	81.667
808.74	68.421
809.04	69.565
809.35	83.582
809.65	69.737
809.95	106.452
810.26	79.661
810.56	74.603
810.86	93.182
811.17	123.810
811.47	106.667
811.77	105.556
812.08	109.091
812.38	104.000
812.69	122.222
812.99	118.182
813.29	85.714
813.59	107.143
813.90	124.490
814.20	103.636
814.50	90.769
814.81	95.588
815.11	118.367
815.41	96.721
815.72	123.810
816.02	112.727
816.32	126.190
816.62	122.500
816.93	117.073
817.23	111.905
817.53	97.727
817.84	166.667
818.14	119.565
818.44	126.667
818.74	144.118
819.04	115.000
819.35	134.286
819.65	205.882
819.95	164.286
820.25	190.000
820.56	138.462
820.86	113.636
821.16	134.884
821.46	123.077
821.76	114.000
822.07	160.000
822.37	115.000
822.67	133.333
822.97	98.039
823.27	175.000
823.57	118.919
823.88	155.000
824.18	186.667
824.48	121.429
824.78	220.000
825.08	154.167
825.38	143.243
825.69	139.024
825.99	245.833
826.29	120.690
826.59	144.737
826.89	107.895
827.19	158.824
827.49	161.290
827.79	120.455
828.09	109.091
828.39	112.766
828.70	126.531
829.00	151.852
829.30	141.935
829.60	132.500
829.90	253.333
830.20	214.286
830.50	169.565
830.80	169.565
831.10	156.667
831.40	170.000
831.70	178.261
832.00	215.385
832.30	225.926
832.60	300.000
832.90	176.667
833.20	300.000
833.50	164.516
833.80	165.517
834.10	150.000
834.40	207.692
834.70	277.778
835.00	276.190
835.30	111.429
835.60	315.385
835.90	155.172
836.20	314.286
836.50	206.897
836.80	172.000
837.10	177.778
837.40	252.381
837.70	317.647
838.00	200.000
838.30	238.095
838.60	280.952
838.90	192.308
839.19	240.000
839.49	364.286
839.79	345.000
840.09	220.000
840.39	257.143
840.69	243.478
840.99	261.111
841.29	480.000
841.59	258.333
841.88	262.500
842.18	175.862
842.48	233.333
842.78	160.000
843.08	217.391
843.38	162.500
843.68	700.000
843.97	200.000
844.27	168.966
844.57	261.905
844.87	381.250
845.17	211.111
845.47	1333.333
845.76	377.778
846.06	300.000
846.36	487.500
846.66	357.143
846.96	300.000
847.25	409.091
847.55	354.545
847.85	200.000
848.15	400.000
848.44	292.857
848.74	244.444
849.04	288.235
849.34	520.000
849.63	252.632
849.93	345.455
850.23	920.000
850.53	364.286
850.82	2200.000
851.12	-4100.000
851.42	4200.000
851.71	275.000
852.01	-1200.000
852.31	200.000
852.61	1700.000
852.90	228.571
853.20	216.000
853.50	300.000
853.79	285.714
854.09	220.833
854.39	312.500
854.68	175.676
854.98	154.839
855.28	133.333
855.57	189.655
855.87	200.000
856.17	215.789
856.46	226.667
856.76	288.235
857.05	189.655
857.35	283.333
857.65	346.667
857.94	204.348
858.24	207.692
858.53	260.000
858.83	254.545
859.13	313.333
859.42	0.000
859.72	500.000
860.01	390.909
860.31	240.909
860.60	257.895
860.90	213.043
861.20	511.111
861.49	450.000
861.79	-5100.000
862.08	600.000
862.38	266.667
862.67	276.923
862.97	294.118
863.26	411.111
863.56	283.333
863.85	416.667
864.15	475.000
864.44	366.667
864.74	800.000
865.03	562.500
865.33	273.684
865.62	354.545
865.92	353.846
866.21	308.333
866.51	0.000
866.80	463.636
867.10	1040.000
867.39	415.385
867.69	336.364
867.98	331.579
868.27	427.273
868.57	242.105
868.86	-3700.000
869.16	231.250
869.45	1450.000
869.75	-4800.000
870.04	408.333
870.33	657.143
870.63	1000.000
870.92	2250.000
871.22	800.000
871.51	300.000
871.80	204.762
872.10	300.000
>>>>>End Processed Spectral Data<<<<<
