SpectraSuite Data File
++++++++++++++++++++++++++++++++++++
Date: Wed May 13 16:17:30 PDT 2015
User: schluterlab
Dark Spectrum Present: Yes
Reference Spectrum Present: Yes
Number of Sampled Component Spectra: 1
Spectrometers: USB2E3373
Integration Time (usec): 3000 (USB2E3373)
Spectra Averaged: 3 (USB2E3373)
Boxcar Smoothing: 0 (USB2E3373)
Correct for Electrical Dark: No (USB2E3373)
Strobe/Lamp Enabled: No (USB2E3373)
Correct for Detector Non-linearity: No (USB2E3373)
Correct for Stray Light: No (USB2E3373)
Number of Pixels in Processed Spectrum: 2048
>>>>>Begin Processed Spectral Data<<<<<
178.53	0.000
178.91	-1075.000
179.29	-1125.000
179.67	-111.111
180.04	-1125.000
180.42	2050.000
180.80	900.000
181.18	-750.000
181.56	714.286
181.94	0.000
182.31	-585.714
182.69	1400.000
183.07	-462.500
183.45	-455.556
183.83	390.909
184.20	-310.000
184.58	1650.000
184.96	4100.000
185.34	-540.000
185.72	-475.000
186.09	-1700.000
186.47	2300.000
186.85	1700.000
187.23	4500.000
187.61	-1300.000
187.98	1000.000
188.36	427.273
188.74	309.091
189.12	-660.000
189.49	500.000
189.87	-3200.000
190.25	-1000.000
190.63	378.571
191.00	407.692
191.38	583.333
191.76	-1150.000
192.14	950.000
192.51	562.500
192.89	750.000
193.27	412.500
193.65	-1000.000
194.02	470.000
194.40	800.000
194.78	370.000
195.15	391.667
195.53	520.000
195.91	-1950.000
196.29	262.500
196.66	231.579
197.04	-230.000
197.42	0.000
197.79	510.000
198.17	-4100.000
198.55	600.000
198.92	562.500
199.30	780.000
199.68	0.000
200.05	288.889
200.43	642.857
200.81	3900.000
201.18	933.333
201.56	-1366.667
201.94	488.889
202.31	522.222
202.69	291.667
203.07	450.000
203.44	0.000
203.82	875.000
204.19	628.571
204.57	350.000
204.95	500.000
205.32	1300.000
205.70	409.091
206.08	328.571
206.45	1800.000
206.83	275.000
207.20	733.333
207.58	700.000
207.96	277.778
208.33	625.000
208.71	-633.333
209.08	628.571
209.46	533.333
209.84	418.182
210.21	-1200.000
210.59	875.000
210.96	-350.000
211.34	1750.000
211.71	520.000
212.09	616.667
212.46	0.000
212.84	1533.333
213.22	1225.000
213.59	-3100.000
213.97	616.667
214.34	742.857
214.72	500.000
215.09	800.000
215.47	-1950.000
215.84	-1850.000
216.22	1300.000
216.59	385.714
216.97	1075.000
217.34	481.818
217.72	-600.000
218.09	0.000
218.47	-3500.000
218.84	433.333
219.22	614.286
219.59	1166.667
219.97	-442.857
220.34	740.000
220.72	-1033.333
221.09	357.143
221.47	1000.000
221.84	-816.667
222.22	0.000
222.59	1100.000
222.97	-2000.000
223.34	960.000
223.72	361.538
224.09	740.000
224.46	1650.000
224.84	-4200.000
225.21	-760.000
225.59	-4500.000
225.96	530.000
226.34	280.000
226.71	2500.000
227.08	600.000
227.46	510.000
227.83	-800.000
228.21	-1850.000
228.58	433.333
228.95	-1750.000
229.33	-1550.000
229.70	1300.000
230.08	528.571
230.45	-580.000
230.82	450.000
231.20	616.667
231.57	585.714
231.95	408.333
232.32	218.182
232.69	318.182
233.07	485.714
233.44	307.692
233.81	-1566.667
234.19	247.368
234.56	308.333
234.93	283.333
235.31	372.727
235.68	269.231
236.05	271.429
236.43	139.394
236.80	215.789
237.17	4500.000
237.55	204.762
237.92	142.857
238.29	190.476
238.67	138.710
239.04	165.517
239.41	144.444
239.79	93.478
240.16	78.571
240.53	79.545
240.91	86.275
241.28	88.000
241.65	86.000
242.02	57.971
242.40	90.323
242.77	75.000
243.14	53.763
243.51	65.169
243.89	54.118
244.26	46.667
244.63	52.688
245.00	39.362
245.38	40.594
245.75	42.991
246.12	41.284
246.49	48.905
246.87	43.200
247.24	47.692
247.61	45.714
247.98	40.523
248.36	33.108
248.73	36.306
249.10	42.675
249.47	31.638
249.84	36.898
250.22	33.155
250.59	37.278
250.96	38.384
251.33	34.597
251.70	33.168
252.08	32.857
252.45	28.700
252.82	25.217
253.19	29.787
253.56	23.529
253.94	28.216
254.31	28.906
254.68	25.000
255.05	30.627
255.42	28.455
255.79	25.368
256.16	29.242
256.54	26.502
256.91	24.199
257.28	20.144
257.65	24.092
258.02	30.435
258.39	20.189
258.76	21.405
259.14	23.810
259.51	25.532
259.88	22.050
260.25	23.867
260.62	22.832
260.99	23.292
261.36	24.024
261.73	20.917
262.10	20.640
262.47	25.352
262.85	22.284
263.22	19.373
263.59	22.507
263.96	20.055
264.33	22.977
264.70	25.000
265.07	21.483
265.44	22.980
265.81	20.438
266.18	19.598
266.55	22.439
266.92	23.096
267.29	19.907
267.66	18.119
268.03	19.545
268.40	19.626
268.77	20.525
269.14	22.072
269.51	21.219
269.88	20.513
270.25	20.767
270.62	21.348
270.99	21.290
271.36	21.674
271.73	18.692
272.10	19.348
272.47	19.355
272.84	20.996
273.21	21.803
273.58	18.341
273.95	18.658
274.32	18.595
274.69	21.199
275.06	19.094
275.43	20.638
275.80	19.439
276.17	17.923
276.54	19.751
276.91	18.972
277.28	19.141
277.65	19.342
278.02	19.048
278.39	17.773
278.76	18.364
279.13	19.434
279.50	19.553
279.87	19.323
280.23	16.966
280.60	17.795
280.97	17.745
281.34	17.345
281.71	19.455
282.08	19.386
282.45	16.000
282.82	19.893
283.19	16.221
283.56	20.000
283.92	18.105
284.29	17.813
284.66	16.515
285.03	18.083
285.40	18.662
285.77	18.013
286.14	16.753
286.51	17.833
286.87	17.436
287.24	17.752
287.61	17.014
287.98	17.695
288.35	15.372
288.72	16.978
289.08	17.371
289.45	17.133
289.82	17.073
290.19	14.600
290.56	16.233
290.93	15.559
291.29	15.798
291.66	15.634
292.03	17.442
292.40	17.034
292.77	14.941
293.13	16.418
293.50	15.452
293.87	14.519
294.24	15.407
294.60	13.100
294.97	14.971
295.34	15.374
295.71	15.483
296.08	13.960
296.44	13.893
296.81	14.003
297.18	15.583
297.55	13.588
297.91	15.699
298.28	15.261
298.65	15.796
299.02	14.097
299.38	13.147
299.75	13.881
300.12	14.176
300.48	13.875
300.85	14.673
301.22	14.777
301.59	12.374
301.95	13.728
302.32	12.965
302.69	14.934
303.05	13.333
303.42	14.444
303.79	15.062
304.15	11.772
304.52	12.746
304.89	14.402
305.25	14.849
305.62	14.383
305.99	15.112
306.35	13.087
306.72	14.798
307.09	14.317
307.45	14.640
307.82	13.170
308.19	14.680
308.55	14.995
308.92	14.608
309.29	12.672
309.65	13.998
310.02	14.376
310.38	13.548
310.75	14.784
311.12	14.739
311.48	13.898
311.85	14.990
312.22	14.984
312.58	14.033
312.95	15.523
313.31	15.049
313.68	14.553
314.05	18.343
314.41	15.678
314.78	15.710
315.14	15.988
315.51	15.036
315.87	16.238
316.24	17.676
316.61	15.205
316.97	15.166
317.34	15.068
317.70	16.922
318.07	15.688
318.43	16.536
318.80	17.432
319.16	16.761
319.53	17.167
319.89	17.143
320.26	18.500
320.62	18.155
320.99	17.475
321.35	17.980
321.72	19.302
322.08	18.164
322.45	19.701
322.81	20.155
323.18	19.075
323.54	19.944
323.91	20.472
324.27	19.312
324.64	20.224
325.00	18.756
325.37	19.745
325.73	21.095
326.10	19.947
326.46	21.505
326.83	21.225
327.19	21.435
327.56	21.167
327.92	21.435
328.29	22.360
328.65	22.468
329.01	22.744
329.38	20.999
329.74	21.422
330.11	23.186
330.47	21.763
330.84	23.529
331.20	22.040
331.56	21.743
331.93	21.852
332.29	21.384
332.66	22.743
333.02	23.218
333.38	23.577
333.75	22.371
334.11	23.043
334.48	23.425
334.84	23.437
335.20	23.091
335.57	23.028
335.93	21.607
336.29	22.344
336.66	23.174
337.02	21.357
337.38	22.870
337.75	23.529
338.11	21.576
338.47	22.652
338.84	22.915
339.20	22.569
339.56	23.996
339.93	22.364
340.29	22.645
340.65	23.708
341.02	23.298
341.38	23.132
341.74	23.596
342.11	22.707
342.47	23.260
342.83	22.432
343.20	24.242
343.56	21.988
343.92	23.246
344.28	21.854
344.65	23.560
345.01	22.138
345.37	22.298
345.73	23.689
346.10	22.847
346.46	23.136
346.82	22.076
347.19	21.470
347.55	22.003
347.91	23.544
348.27	24.404
348.63	23.411
349.00	23.139
349.36	22.085
349.72	23.095
350.08	22.123
350.45	22.295
350.81	23.314
351.17	23.663
351.53	22.686
351.89	21.535
352.26	23.678
352.62	23.176
352.98	22.690
353.34	22.679
353.70	22.095
354.07	22.984
354.43	23.175
354.79	21.883
355.15	22.346
355.51	23.181
355.87	22.449
356.24	22.801
356.60	22.694
356.96	23.170
357.32	22.240
357.68	22.047
358.04	22.803
358.40	23.436
358.77	22.379
359.13	22.336
359.49	22.902
359.85	21.746
360.21	22.329
360.57	22.802
360.93	23.308
361.29	23.129
361.66	22.833
362.02	23.657
362.38	23.650
362.74	23.512
363.10	22.428
363.46	22.744
363.82	21.693
364.18	22.981
364.54	24.443
364.90	23.300
365.26	22.574
365.62	23.667
365.98	23.302
366.35	22.135
366.71	23.572
367.07	22.942
367.43	23.875
367.79	23.769
368.15	25.144
368.51	23.256
368.87	23.697
369.23	24.287
369.59	24.258
369.95	22.941
370.31	23.219
370.67	22.971
371.03	25.693
371.39	23.907
371.75	23.529
372.11	23.400
372.47	24.487
372.83	25.144
373.19	24.277
373.55	25.055
373.91	25.110
374.27	23.918
374.63	24.655
374.99	24.788
375.35	23.936
375.71	24.880
376.07	24.348
376.42	24.209
376.78	25.514
377.14	25.170
377.50	24.768
377.86	23.803
378.22	25.032
378.58	24.060
378.94	25.456
379.30	25.700
379.66	25.444
380.02	24.877
380.38	25.379
380.74	25.750
381.09	25.489
381.45	25.569
381.81	27.150
382.17	25.159
382.53	26.038
382.89	26.667
383.25	25.453
383.61	25.836
383.97	26.329
384.32	25.889
384.68	26.022
385.04	26.429
385.40	25.944
385.76	26.536
386.12	26.425
386.48	26.683
386.83	27.133
387.19	26.592
387.55	25.974
387.91	27.025
388.27	25.445
388.62	26.552
388.98	26.106
389.34	27.597
389.70	26.916
390.06	26.616
390.42	27.756
390.77	26.654
391.13	27.632
391.49	27.030
391.85	26.607
392.20	25.741
392.56	26.831
392.92	26.074
393.28	25.562
393.64	27.398
393.99	26.817
394.35	27.233
394.71	26.537
395.07	27.290
395.42	27.009
395.78	27.990
396.14	27.436
396.50	27.318
396.85	27.209
397.21	26.449
397.57	27.216
397.92	27.464
398.28	26.457
398.64	27.061
399.00	26.973
399.35	26.283
399.71	26.157
400.07	26.375
400.42	27.055
400.78	27.624
401.14	26.951
401.49	28.000
401.85	26.316
402.21	26.707
402.57	27.205
402.92	27.301
403.28	27.046
403.63	27.413
403.99	27.261
404.35	27.394
404.70	27.698
405.06	26.674
405.42	27.012
405.77	26.743
406.13	26.467
406.49	27.025
406.84	26.757
407.20	25.473
407.55	27.058
407.91	27.600
408.27	27.441
408.62	27.393
408.98	28.002
409.34	26.937
409.69	28.258
410.05	26.208
410.40	27.156
410.76	26.583
411.11	27.322
411.47	26.901
411.83	27.123
412.18	26.778
412.54	26.961
412.89	27.349
413.25	26.564
413.60	27.857
413.96	26.351
414.31	26.124
414.67	26.299
415.03	26.954
415.38	26.869
415.74	26.688
416.09	27.825
416.45	26.975
416.80	26.768
417.16	27.346
417.51	27.339
417.87	27.168
418.22	27.950
418.58	27.114
418.93	27.211
419.29	27.180
419.64	27.456
420.00	28.354
420.35	28.348
420.71	27.555
421.06	26.372
421.42	26.433
421.77	27.691
422.12	26.221
422.48	26.821
422.83	27.315
423.19	27.459
423.54	27.568
423.90	27.884
424.25	26.968
424.61	26.429
424.96	27.930
425.31	27.575
425.67	26.685
426.02	26.629
426.38	28.022
426.73	27.326
427.09	26.930
427.44	27.027
427.79	27.660
428.15	27.500
428.50	27.501
428.85	28.188
429.21	26.118
429.56	26.905
429.92	26.875
430.27	26.465
430.62	26.626
430.98	26.933
431.33	26.856
431.68	28.325
432.04	26.944
432.39	27.698
432.74	28.187
433.10	27.504
433.45	27.230
433.80	27.328
434.16	27.724
434.51	27.211
434.86	27.708
435.22	27.071
435.57	27.842
435.92	27.970
436.28	28.351
436.63	27.980
436.98	27.533
437.34	27.370
437.69	28.413
438.04	27.600
438.39	27.463
438.75	28.530
439.10	27.654
439.45	28.276
439.81	28.399
440.16	28.458
440.51	28.120
440.86	28.257
441.22	27.308
441.57	28.291
441.92	28.301
442.27	27.772
442.63	27.699
442.98	28.056
443.33	27.880
443.68	27.827
444.03	27.916
444.39	27.702
444.74	27.597
445.09	28.679
445.44	27.501
445.79	27.907
446.15	27.369
446.50	27.679
446.85	28.212
447.20	27.690
447.55	27.862
447.91	27.965
448.26	28.492
448.61	28.491
448.96	28.018
449.31	28.065
449.66	28.644
450.02	28.245
450.37	28.741
450.72	29.047
451.07	27.300
451.42	27.903
451.77	28.186
452.12	28.464
452.47	28.545
452.83	29.429
453.18	27.689
453.53	28.881
453.88	28.234
454.23	29.229
454.58	28.831
454.93	30.515
455.28	29.052
455.63	28.701
455.98	29.583
456.34	28.455
456.69	29.054
457.04	29.350
457.39	28.755
457.74	28.323
458.09	29.442
458.44	29.247
458.79	28.633
459.14	29.120
459.49	29.422
459.84	28.532
460.19	28.698
460.54	26.562
460.89	28.963
461.24	29.022
461.59	29.808
461.94	28.360
462.29	29.199
462.64	28.271
462.99	28.953
463.34	29.533
463.69	28.956
464.04	28.232
464.39	28.696
464.74	29.590
465.09	29.011
465.44	28.144
465.79	28.523
466.14	28.407
466.49	28.476
466.84	28.663
467.19	28.847
467.54	29.063
467.89	28.812
468.24	29.959
468.59	28.877
468.94	28.406
469.29	30.077
469.64	29.920
469.99	29.567
470.34	30.449
470.68	30.316
471.03	30.136
471.38	29.951
471.73	30.047
472.08	30.461
472.43	28.769
472.78	29.822
473.13	29.140
473.48	30.649
473.83	30.549
474.17	29.745
474.52	29.591
474.87	30.298
475.22	30.064
475.57	29.339
475.92	29.634
476.27	29.651
476.61	29.675
476.96	28.752
477.31	29.095
477.66	30.033
478.01	28.960
478.36	29.614
478.70	29.387
479.05	29.499
479.40	29.734
479.75	29.690
480.10	29.274
480.45	29.272
480.79	28.571
481.14	29.403
481.49	29.521
481.84	28.121
482.19	28.442
482.53	28.945
482.88	29.316
483.23	28.692
483.58	29.572
483.92	29.569
484.27	28.627
484.62	29.095
484.97	28.538
485.31	28.733
485.66	26.524
486.01	25.811
486.36	24.847
486.70	24.305
487.05	25.756
487.40	25.945
487.75	26.616
488.09	27.631
488.44	28.019
488.79	28.897
489.13	28.533
489.48	28.752
489.83	29.219
490.17	30.206
490.52	29.805
490.87	29.172
491.22	29.150
491.56	28.383
491.91	29.735
492.26	28.847
492.60	29.171
492.95	29.373
493.30	29.813
493.64	30.005
493.99	29.294
494.34	29.417
494.68	29.625
495.03	29.981
495.37	29.269
495.72	29.922
496.07	29.884
496.41	28.584
496.76	29.683
497.11	28.861
497.45	29.390
497.80	29.415
498.14	29.662
498.49	29.366
498.84	29.914
499.18	30.238
499.53	29.630
499.87	29.217
500.22	29.251
500.56	30.728
500.91	30.144
501.26	29.587
501.60	30.375
501.95	29.331
502.29	31.490
502.64	30.400
502.98	29.640
503.33	29.845
503.67	29.513
504.02	30.168
504.36	29.761
504.71	29.897
505.06	29.735
505.40	30.384
505.75	29.508
506.09	30.029
506.44	30.982
506.78	30.736
507.13	31.095
507.47	31.263
507.82	30.699
508.16	31.307
508.51	30.898
508.85	30.487
509.19	30.357
509.54	31.276
509.88	30.860
510.23	30.694
510.57	31.785
510.92	31.072
511.26	31.192
511.61	31.068
511.95	30.846
512.30	31.601
512.64	31.274
512.98	31.940
513.33	32.066
513.67	31.057
514.02	31.872
514.36	31.950
514.70	31.821
515.05	32.125
515.39	32.473
515.74	32.995
516.08	32.923
516.42	32.131
516.77	33.501
517.11	32.852
517.46	32.167
517.80	33.508
518.14	31.789
518.49	33.606
518.83	33.580
519.17	33.949
519.52	32.824
519.86	33.257
520.20	34.509
520.55	33.932
520.89	33.516
521.23	35.283
521.58	33.193
521.92	34.048
522.26	33.069
522.61	34.891
522.95	35.175
523.29	34.936
523.64	34.085
523.98	34.750
524.32	33.896
524.66	34.035
525.01	34.191
525.35	33.953
525.69	34.298
526.04	34.268
526.38	34.228
526.72	33.988
527.06	33.961
527.41	33.230
527.75	35.241
528.09	34.811
528.43	35.500
528.78	34.911
529.12	34.182
529.46	35.334
529.80	34.963
530.15	34.206
530.49	34.215
530.83	34.620
531.17	35.183
531.51	35.668
531.86	34.065
532.20	35.658
532.54	34.529
532.88	34.788
533.22	33.854
533.57	34.012
533.91	33.594
534.25	33.597
534.59	33.923
534.93	33.670
535.27	34.218
535.62	34.188
535.96	34.212
536.30	34.011
536.64	34.900
536.98	34.638
537.32	34.299
537.66	35.267
538.01	34.760
538.35	34.001
538.69	35.290
539.03	33.528
539.37	32.780
539.71	31.756
540.05	35.098
540.39	34.618
540.73	34.541
541.07	35.626
541.42	34.899
541.76	34.516
542.10	35.123
542.44	34.834
542.78	35.178
543.12	33.525
543.46	34.230
543.80	34.743
544.14	33.504
544.48	33.778
544.82	34.830
545.16	33.897
545.50	33.355
545.84	34.543
546.18	34.613
546.52	36.132
546.86	34.845
547.20	34.794
547.54	34.870
547.88	35.332
548.22	33.873
548.56	34.025
548.90	33.547
549.24	35.286
549.58	34.584
549.92	35.646
550.26	35.440
550.60	34.509
550.94	35.000
551.28	35.406
551.62	35.586
551.96	35.509
552.30	34.471
552.64	34.415
552.98	35.254
553.32	34.255
553.66	35.378
554.00	34.592
554.34	34.990
554.68	36.552
555.02	34.626
555.36	34.656
555.69	33.762
556.03	33.647
556.37	34.993
556.71	33.424
557.05	34.804
557.39	34.010
557.73	35.074
558.07	34.953
558.41	33.792
558.75	35.195
559.08	34.601
559.42	36.206
559.76	34.559
560.10	34.475
560.44	34.731
560.78	34.531
561.12	34.037
561.45	33.963
561.79	34.608
562.13	34.809
562.47	35.314
562.81	35.635
563.15	34.582
563.48	33.488
563.82	34.638
564.16	34.205
564.50	34.505
564.84	33.059
565.17	33.848
565.51	34.824
565.85	34.074
566.19	32.999
566.52	33.692
566.86	32.731
567.20	32.901
567.54	32.648
567.88	32.645
568.21	33.439
568.55	33.114
568.89	31.274
569.23	31.417
569.56	30.364
569.90	30.302
570.24	29.638
570.57	29.378
570.91	28.119
571.25	28.968
571.59	28.395
571.92	28.024
572.26	28.192
572.60	28.829
572.93	28.156
573.27	28.453
573.61	28.364
573.95	27.649
574.28	27.739
574.62	27.017
574.96	27.168
575.29	26.988
575.63	27.490
575.97	27.285
576.30	27.722
576.64	27.521
576.98	27.856
577.31	26.964
577.65	27.470
577.98	26.618
578.32	25.496
578.66	26.771
578.99	26.980
579.33	27.596
579.67	27.122
580.00	27.284
580.34	27.860
580.67	27.322
581.01	27.817
581.35	26.999
581.68	26.818
582.02	26.063
582.35	26.347
582.69	26.758
583.02	26.721
583.36	27.392
583.70	27.697
584.03	27.769
584.37	28.511
584.70	28.004
585.04	27.740
585.37	27.656
585.71	27.561
586.04	27.470
586.38	28.135
586.72	27.589
587.05	27.167
587.39	27.599
587.72	28.163
588.06	27.748
588.39	28.230
588.73	27.603
589.06	28.482
589.40	29.192
589.73	29.215
590.07	28.790
590.40	28.900
590.73	30.016
591.07	31.258
591.40	30.240
591.74	30.866
592.07	30.105
592.41	30.384
592.74	29.551
593.08	28.148
593.41	27.934
593.75	28.045
594.08	28.595
594.41	28.597
594.75	28.872
595.08	28.418
595.42	29.037
595.75	28.811
596.09	29.215
596.42	29.980
596.75	30.857
597.09	30.346
597.42	29.089
597.75	30.358
598.09	29.304
598.42	29.381
598.76	29.388
599.09	29.076
599.42	28.675
599.76	28.624
600.09	28.452
600.42	28.196
600.76	28.107
601.09	28.780
601.42	28.234
601.76	28.653
602.09	28.696
602.42	29.379
602.76	29.746
603.09	29.111
603.42	29.637
603.76	29.040
604.09	28.732
604.42	28.129
604.76	29.734
605.09	29.838
605.42	28.901
605.75	29.180
606.09	28.711
606.42	29.301
606.75	28.536
607.09	28.882
607.42	28.755
607.75	28.270
608.08	28.875
608.42	29.807
608.75	29.396
609.08	28.816
609.41	29.510
609.75	29.586
610.08	30.207
610.41	28.911
610.74	29.423
611.07	29.842
611.41	29.637
611.74	30.769
612.07	30.901
612.40	30.745
612.73	30.842
613.07	31.196
613.40	30.858
613.73	29.313
614.06	30.054
614.39	30.257
614.72	30.211
615.06	30.725
615.39	29.724
615.72	29.652
616.05	29.771
616.38	30.461
616.71	31.295
617.05	31.037
617.38	31.028
617.71	32.012
618.04	32.332
618.37	31.342
618.70	32.421
619.03	32.763
619.36	31.976
619.69	32.113
620.03	32.074
620.36	31.952
620.69	33.014
621.02	33.407
621.35	32.733
621.68	33.645
622.01	34.675
622.34	34.039
622.67	34.449
623.00	32.135
623.33	33.167
623.66	32.166
623.99	32.474
624.32	33.096
624.65	32.133
624.99	31.799
625.32	32.078
625.65	32.607
625.98	34.281
626.31	34.526
626.64	33.878
626.97	34.414
627.30	33.084
627.63	34.783
627.96	35.913
628.29	34.646
628.62	35.041
628.95	36.226
629.28	36.131
629.61	36.755
629.94	37.238
630.26	34.032
630.59	34.509
630.92	35.249
631.25	34.650
631.58	35.836
631.91	36.410
632.24	35.759
632.57	35.782
632.90	36.404
633.23	38.255
633.56	37.627
633.89	36.580
634.22	37.911
634.55	38.343
634.88	37.964
635.20	37.873
635.53	38.675
635.86	38.490
636.19	38.471
636.52	36.332
636.85	37.228
637.18	35.945
637.51	36.407
637.83	35.388
638.16	37.596
638.49	38.413
638.82	39.949
639.15	39.125
639.48	40.399
639.81	39.410
640.13	40.104
640.46	39.329
640.79	38.970
641.12	38.652
641.45	39.665
641.77	39.470
642.10	38.596
642.43	40.841
642.76	40.712
643.09	40.491
643.41	41.730
643.74	42.130
644.07	40.244
644.40	40.644
644.73	43.622
645.05	42.472
645.38	42.338
645.71	40.258
646.04	42.857
646.36	44.073
646.69	42.809
647.02	42.857
647.35	43.471
647.67	44.071
648.00	42.114
648.33	42.079
648.66	39.848
648.98	41.229
649.31	39.611
649.64	38.864
649.96	39.642
650.29	41.548
650.62	41.424
650.94	41.005
651.27	40.709
651.60	43.261
651.92	38.978
652.25	40.391
652.58	38.162
652.90	39.179
653.23	38.521
653.56	40.315
653.88	41.204
654.21	40.442
654.54	38.119
654.86	40.343
655.19	36.757
655.52	24.806
655.84	20.503
656.17	25.745
656.49	34.866
656.82	35.758
657.15	27.078
657.47	20.477
657.80	16.057
658.13	17.159
658.45	26.159
658.78	26.268
659.10	27.801
659.43	29.408
659.75	31.398
660.08	34.937
660.41	37.337
660.73	39.517
661.06	41.401
661.38	44.000
661.71	45.769
662.03	44.181
662.36	38.370
662.68	44.177
663.01	45.657
663.33	43.312
663.66	46.218
663.98	44.708
664.31	43.697
664.63	40.688
664.96	39.839
665.28	43.852
665.61	39.766
665.93	42.455
666.26	41.379
666.58	45.188
666.91	44.609
667.23	45.169
667.56	42.981
667.88	45.299
668.21	46.908
668.53	44.035
668.86	42.424
669.18	44.563
669.50	45.000
669.83	46.623
670.15	43.778
670.48	40.741
670.80	42.672
671.13	42.463
671.45	42.128
671.77	43.992
672.10	41.220
672.42	37.279
672.75	37.811
673.07	39.085
673.39	40.868
673.72	40.430
674.04	42.157
674.37	40.194
674.69	42.945
675.01	40.795
675.34	45.380
675.66	46.105
675.98	40.733
676.31	44.538
676.63	42.251
676.95	40.461
677.28	44.626
677.60	42.418
677.92	43.249
678.25	41.684
678.57	41.036
678.89	39.679
679.22	39.882
679.54	40.076
679.86	40.550
680.18	39.177
680.51	37.057
680.83	40.036
681.15	40.755
681.48	41.966
681.80	40.812
682.12	39.847
682.44	38.685
682.77	40.937
683.09	43.777
683.41	42.129
683.73	42.605
684.06	40.496
684.38	39.139
684.70	38.953
685.02	39.587
685.34	37.363
685.67	37.063
685.99	36.770
686.31	35.154
686.63	33.922
686.96	37.500
687.28	37.906
687.60	37.681
687.92	38.391
688.24	38.973
688.56	42.771
688.89	40.041
689.21	43.668
689.53	39.248
689.85	42.350
690.17	37.060
690.49	41.614
690.82	42.757
691.14	41.295
691.46	36.287
691.78	41.566
692.10	40.496
692.42	41.317
692.74	36.515
693.06	40.426
693.39	42.094
693.71	40.175
694.03	41.684
694.35	39.394
694.67	39.130
694.99	41.707
695.31	41.422
695.63	41.388
695.95	41.076
696.27	43.655
696.59	44.819
696.91	44.041
697.23	38.967
697.56	38.806
697.88	36.401
698.20	37.292
698.52	41.075
698.84	38.085
699.16	40.783
699.48	42.043
699.80	38.164
700.12	42.597
700.44	46.419
700.76	44.199
701.08	47.414
701.40	40.782
701.72	45.773
702.04	46.023
702.36	39.943
702.68	44.476
703.00	42.659
703.32	40.691
703.64	39.410
703.96	44.847
704.28	47.093
704.60	45.455
704.91	48.071
705.23	42.815
705.55	44.850
705.87	50.831
706.19	48.763
706.51	43.614
706.83	47.273
707.15	44.258
707.47	40.657
707.79	41.769
708.11	36.073
708.43	38.810
708.74	41.071
709.06	42.597
709.38	43.570
709.70	42.151
710.02	42.433
710.34	40.000
710.66	42.687
710.98	41.761
711.29	40.407
711.61	43.658
711.93	44.551
712.25	47.267
712.57	49.265
712.89	47.405
713.20	45.593
713.52	48.684
713.84	43.671
714.16	39.634
714.48	39.943
714.80	46.505
715.11	42.075
715.43	41.246
715.75	43.478
716.07	43.770
716.39	39.498
716.70	45.515
717.02	45.683
717.34	40.989
717.66	52.985
717.97	49.402
718.29	47.037
718.61	47.445
718.93	47.059
719.24	41.869
719.56	41.695
719.88	43.390
720.20	48.649
720.51	42.857
720.83	50.186
721.15	47.015
721.46	45.745
721.78	45.520
722.10	46.038
722.42	48.120
722.73	43.820
723.05	52.049
723.37	46.559
723.68	46.332
724.00	45.528
724.32	48.387
724.63	47.561
724.95	46.025
725.27	53.441
725.58	45.312
725.90	48.905
726.22	43.774
726.53	42.014
726.85	42.662
727.16	46.619
727.48	45.745
727.80	40.152
728.11	39.493
728.43	43.462
728.74	37.993
729.06	45.620
729.38	50.000
729.69	45.552
730.01	38.567
730.32	40.972
730.64	44.482
730.96	41.914
731.27	46.689
731.59	41.590
731.90	41.983
732.22	39.130
732.53	38.080
732.85	43.910
733.16	39.228
733.48	42.525
733.80	41.883
734.11	40.446
734.43	40.533
734.74	36.571
735.06	38.395
735.37	41.329
735.69	40.764
736.00	44.444
736.32	42.056
736.63	38.658
736.95	41.214
737.26	37.075
737.58	38.710
737.89	40.134
738.21	40.956
738.52	42.857
738.83	41.509
739.15	40.769
739.46	40.146
739.78	41.667
740.09	36.000
740.41	42.581
740.72	38.328
741.04	42.222
741.35	44.583
741.66	43.556
741.98	44.811
742.29	52.153
742.61	46.121
742.92	48.869
743.23	50.427
743.55	48.000
743.86	47.807
744.18	50.885
744.49	46.890
744.80	50.704
745.12	51.818
745.43	48.899
745.74	48.649
746.06	48.624
746.37	47.085
746.68	52.036
747.00	53.704
747.31	46.667
747.62	46.460
747.94	42.731
748.25	45.532
748.56	48.899
748.88	48.020
749.19	52.500
749.50	51.163
749.82	44.309
750.13	40.000
750.44	42.701
750.75	41.053
751.07	44.373
751.38	43.902
751.69	41.516
752.01	39.850
752.32	41.155
752.63	40.071
752.94	45.902
753.26	44.800
753.57	45.935
753.88	46.094
754.19	41.786
754.51	42.014
754.82	34.296
755.13	47.170
755.44	40.226
755.75	38.686
756.07	42.553
756.38	36.861
756.69	43.289
757.00	35.030
757.31	34.718
757.63	36.257
757.94	36.461
758.25	33.578
758.56	31.852
758.87	35.753
759.18	35.455
759.50	37.618
759.81	36.137
760.12	35.938
760.43	35.817
760.74	35.598
761.05	36.158
761.36	35.027
761.67	36.364
761.99	37.888
762.30	39.236
762.61	37.786
762.92	43.359
763.23	44.538
763.54	45.600
763.85	39.453
764.16	42.308
764.47	44.867
764.78	36.396
765.10	34.494
765.41	38.348
765.72	34.731
766.03	38.245
766.34	41.000
766.65	44.255
766.96	46.581
767.27	46.701
767.58	50.000
767.89	52.632
768.20	51.149
768.51	49.746
768.82	47.248
769.13	40.650
769.44	40.486
769.75	44.206
770.06	40.826
770.37	41.176
770.68	46.296
770.99	40.000
771.30	38.115
771.61	46.188
771.92	39.754
772.23	44.958
772.54	44.615
772.85	48.168
773.16	48.936
773.47	53.261
773.78	46.701
774.09	44.643
774.39	56.140
774.70	56.790
775.01	55.797
775.32	56.863
775.63	53.947
775.94	57.554
776.25	70.866
776.56	55.224
776.87	57.377
777.18	60.156
777.48	65.649
777.79	62.879
778.10	56.296
778.41	72.321
778.72	56.204
779.03	54.362
779.34	55.034
779.65	52.027
779.95	42.945
780.26	55.556
780.57	61.379
780.88	67.969
781.19	54.887
781.50	53.378
781.80	51.572
782.11	44.633
782.42	48.101
782.73	46.626
783.04	54.054
783.34	53.521
783.65	60.959
783.96	63.433
784.27	61.538
784.57	46.043
784.88	50.000
785.19	69.841
785.50	69.811
785.81	55.970
786.11	68.033
786.42	58.140
786.73	61.062
787.04	69.811
787.34	63.393
787.65	58.000
787.96	51.351
788.26	57.851
788.57	61.017
788.88	64.463
789.19	60.417
789.49	53.030
789.80	58.779
790.11	72.381
790.41	69.307
790.72	69.880
791.03	67.391
791.33	63.953
791.64	65.979
791.95	69.307
792.25	77.778
792.56	83.117
792.87	79.487
793.17	94.937
793.48	83.908
793.79	67.816
794.09	71.591
794.40	58.824
794.70	52.206
795.01	49.630
795.32	53.237
795.62	56.693
795.93	52.586
796.23	62.832
796.54	76.471
796.85	72.973
797.15	97.183
797.46	77.273
797.76	84.337
798.07	67.089
798.37	75.385
798.68	77.273
798.99	69.014
799.29	72.727
799.60	63.636
799.90	84.932
800.21	98.507
800.51	79.310
800.82	98.246
801.12	113.115
801.43	93.939
801.73	81.081
802.04	95.238
802.34	79.012
802.65	101.563
802.95	113.559
803.26	95.312
803.56	74.286
803.87	83.077
804.17	86.765
804.48	118.519
804.78	89.655
805.09	79.412
805.39	100.000
805.70	91.071
806.00	98.361
806.30	86.364
806.61	60.976
806.91	67.089
807.22	89.474
807.52	68.657
807.83	85.915
808.13	85.938
808.43	96.667
808.74	75.000
809.04	110.145
809.35	79.104
809.65	77.632
809.95	101.613
810.26	77.966
810.56	87.302
810.86	118.182
811.17	133.333
811.47	85.000
811.77	105.556
812.08	96.364
812.38	118.000
812.69	133.333
812.99	138.636
813.29	110.204
813.59	80.952
813.90	112.245
814.20	81.818
814.50	86.154
814.81	80.882
815.11	85.714
815.41	80.328
815.72	126.190
816.02	94.545
816.32	107.143
816.62	117.500
816.93	139.024
817.23	107.143
817.53	122.727
817.84	178.788
818.14	128.261
818.44	111.111
818.74	158.824
819.04	125.000
819.35	131.429
819.65	138.235
819.95	139.286
820.25	210.000
820.56	138.462
820.86	106.818
821.16	116.279
821.46	120.513
821.76	120.000
822.07	148.571
822.37	120.000
822.67	172.727
822.97	105.882
823.27	182.143
823.57	127.027
823.88	130.000
824.18	193.333
824.48	142.857
824.78	204.000
825.08	162.500
825.38	105.405
825.69	109.756
825.99	204.167
826.29	155.172
826.59	136.842
826.89	118.421
827.19	167.647
827.49	129.032
827.79	140.909
828.09	120.455
828.39	108.511
828.70	118.367
829.00	144.444
829.30	151.613
829.60	147.500
829.90	260.000
830.20	146.429
830.50	139.130
830.80	208.696
831.10	180.000
831.40	163.333
831.70	217.391
832.00	203.846
832.30	140.741
832.60	281.250
832.90	210.000
833.20	350.000
833.50	170.968
833.80	148.276
834.10	168.750
834.40	192.308
834.70	233.333
835.00	271.429
835.30	157.143
835.60	315.385
835.90	172.414
836.20	242.857
836.50	193.103
836.80	148.000
837.10	144.444
837.40	247.619
837.70	264.706
838.00	133.333
838.30	223.810
838.60	266.667
838.90	200.000
839.19	235.000
839.49	400.000
839.79	250.000
840.09	165.000
840.39	209.524
840.69	186.957
840.99	305.556
841.29	340.000
841.59	275.000
841.88	281.250
842.18	141.379
842.48	252.381
842.78	200.000
843.08	230.435
843.38	150.000
843.68	666.667
843.97	196.154
844.27	175.862
844.57	280.952
844.87	300.000
845.17	151.852
845.47	1166.667
845.76	322.222
846.06	294.118
846.36	437.500
846.66	321.429
846.96	293.750
847.25	327.273
847.55	345.455
847.85	200.000
848.15	450.000
848.44	314.286
848.74	238.889
849.04	264.706
849.34	440.000
849.63	210.526
849.93	409.091
850.23	780.000
850.53	350.000
850.82	1750.000
851.12	-3100.000
851.42	3800.000
851.71	230.000
852.01	-1000.000
852.31	212.500
852.61	1166.667
852.90	261.905
853.20	232.000
853.50	300.000
853.79	233.333
854.09	170.833
854.39	250.000
854.68	167.568
854.98	174.194
855.28	130.000
855.57	172.414
855.87	133.333
856.17	215.789
856.46	226.667
856.76	223.529
857.05	148.276
857.35	195.833
857.65	366.667
857.94	226.087
858.24	242.308
858.53	195.000
858.83	259.091
859.13	273.333
859.42	0.000
859.72	500.000
860.01	336.364
860.31	231.818
860.60	247.368
860.90	243.478
861.20	522.222
861.49	391.667
861.79	-4300.000
862.08	575.000
862.38	257.143
862.67	238.462
862.97	288.235
863.26	344.444
863.56	200.000
863.85	350.000
864.15	537.500
864.44	353.333
864.74	700.000
865.03	662.500
865.33	210.526
865.62	354.545
865.92	361.538
866.21	266.667
866.51	0.000
866.80	300.000
867.10	940.000
867.39	307.692
867.69	427.273
867.98	215.789
868.27	381.818
868.57	278.947
868.86	-3200.000
869.16	306.250
869.45	1650.000
869.75	-3900.000
870.04	475.000
870.33	614.286
870.63	750.000
870.92	2300.000
871.22	585.714
871.51	288.235
871.80	180.952
872.10	350.000
>>>>>End Processed Spectral Data<<<<<
