SpectraSuite Data File
++++++++++++++++++++++++++++++++++++
Date: Wed May 13 16:24:47 PDT 2015
User: schluterlab
Dark Spectrum Present: Yes
Reference Spectrum Present: Yes
Number of Sampled Component Spectra: 1
Spectrometers: USB2E3373
Integration Time (usec): 3000 (USB2E3373)
Spectra Averaged: 3 (USB2E3373)
Boxcar Smoothing: 0 (USB2E3373)
Correct for Electrical Dark: No (USB2E3373)
Strobe/Lamp Enabled: No (USB2E3373)
Correct for Detector Non-linearity: No (USB2E3373)
Correct for Stray Light: No (USB2E3373)
Number of Pixels in Processed Spectrum: 2048
>>>>>Begin Processed Spectral Data<<<<<
178.53	0.000
178.91	-1200.000
179.29	-1300.000
179.67	-200.000
180.04	-1275.000
180.42	2450.000
180.80	1020.000
181.18	-1050.000
181.56	557.143
181.94	0.000
182.31	-642.857
182.69	1700.000
183.07	-437.500
183.45	-622.222
183.83	436.364
184.20	-460.000
184.58	2400.000
184.96	4400.000
185.34	-900.000
185.72	-600.000
186.09	-2100.000
186.47	2800.000
186.85	2150.000
187.23	4800.000
187.61	-1700.000
187.98	1525.000
188.36	554.545
188.74	481.818
189.12	-760.000
189.49	500.000
189.87	-5100.000
190.25	-1075.000
190.63	292.857
191.00	353.846
191.38	850.000
191.76	-1125.000
192.14	1325.000
192.51	562.500
192.89	833.333
193.27	400.000
193.65	-975.000
194.02	450.000
194.40	820.000
194.78	430.000
195.15	475.000
195.53	640.000
195.91	-2000.000
196.29	375.000
196.66	336.842
197.04	-340.000
197.42	0.000
197.79	540.000
198.17	-4700.000
198.55	557.143
198.92	550.000
199.30	1000.000
199.68	0.000
200.05	333.333
200.43	657.143
200.81	4700.000
201.18	1400.000
201.56	-1766.667
201.94	555.556
202.31	533.333
202.69	433.333
203.07	470.000
203.44	0.000
203.82	1100.000
204.19	671.429
204.57	407.143
204.95	625.000
205.32	1566.667
205.70	436.364
206.08	385.714
206.45	2700.000
206.83	343.750
207.20	933.333
207.58	780.000
207.96	311.111
208.33	550.000
208.71	-933.333
209.08	657.143
209.46	544.444
209.84	463.636
210.21	-1600.000
210.59	1350.000
210.96	-537.500
211.34	2450.000
211.71	580.000
212.09	866.667
212.46	0.000
212.84	1800.000
213.22	1375.000
213.59	-3700.000
213.97	866.667
214.34	771.429
214.72	554.545
215.09	1040.000
215.47	-2050.000
215.84	-2400.000
216.22	1566.667
216.59	428.571
216.97	1150.000
217.34	463.636
217.72	-500.000
218.09	0.000
218.47	-5500.000
218.84	611.111
219.22	671.429
219.59	1500.000
219.97	-600.000
220.34	960.000
220.72	-1433.333
221.09	378.571
221.47	1175.000
221.84	-916.667
222.22	0.000
222.59	1175.000
222.97	-2100.000
223.34	1060.000
223.72	407.692
224.09	1080.000
224.46	2500.000
224.84	-4800.000
225.21	-940.000
225.59	-4700.000
225.96	550.000
226.34	265.000
226.71	2750.000
227.08	612.500
227.46	520.000
227.83	-1025.000
228.21	-2000.000
228.58	588.889
228.95	-2350.000
229.33	-2450.000
229.70	1500.000
230.08	857.143
230.45	-720.000
230.82	391.667
231.20	783.333
231.57	642.857
231.95	433.333
232.32	218.182
232.69	409.091
233.07	642.857
233.44	261.538
233.81	-1600.000
234.19	278.947
234.56	375.000
234.93	350.000
235.31	372.727
235.68	261.538
236.05	350.000
236.43	166.667
236.80	205.263
237.17	3400.000
237.55	204.762
237.92	178.571
238.29	238.095
238.67	138.710
239.04	144.828
239.41	133.333
239.79	89.130
240.16	114.286
240.53	90.909
240.91	88.235
241.28	88.000
241.65	70.000
242.02	68.116
242.40	54.839
242.77	50.000
243.14	52.688
243.51	51.685
243.89	42.353
244.26	33.333
244.63	48.387
245.00	44.681
245.38	40.594
245.75	42.056
246.12	30.275
246.49	40.876
246.87	51.200
247.24	39.231
247.61	33.571
247.98	33.333
248.36	34.459
248.73	31.847
249.10	29.936
249.47	31.638
249.84	32.620
250.22	25.668
250.59	30.769
250.96	24.242
251.33	28.436
251.70	23.267
252.08	21.429
252.45	23.318
252.82	20.000
253.19	22.128
253.56	22.353
253.94	21.577
254.31	19.141
254.68	21.154
255.05	16.974
255.42	19.512
255.79	18.015
256.16	21.300
256.54	13.781
256.91	18.505
257.28	16.187
257.65	15.512
258.02	16.460
258.39	17.035
258.76	13.712
259.14	16.369
259.51	18.237
259.88	12.422
260.25	16.918
260.62	15.029
260.99	10.870
261.36	15.916
261.73	14.040
262.10	11.628
262.47	14.648
262.85	13.370
263.22	11.681
263.59	12.821
263.96	12.912
264.33	13.055
264.70	13.421
265.07	13.043
265.44	13.384
265.81	12.165
266.18	12.814
266.55	13.171
266.92	8.845
267.29	14.352
267.66	9.404
268.03	12.045
268.40	9.346
268.77	11.933
269.14	11.937
269.51	12.190
269.88	11.655
270.25	9.932
270.62	10.112
270.99	14.194
271.36	12.232
271.73	9.112
272.10	9.783
272.47	12.258
272.84	13.636
273.21	11.321
273.58	9.389
273.95	11.950
274.32	8.678
274.69	10.921
275.06	8.465
275.43	9.149
275.80	10.020
276.17	9.980
276.54	10.395
276.91	10.672
277.28	9.570
277.65	11.025
278.02	8.075
278.39	11.523
278.76	10.182
279.13	11.321
279.50	10.987
279.87	10.558
280.23	6.587
280.60	7.157
280.97	6.100
281.34	9.558
281.71	10.727
282.08	10.365
282.45	9.818
282.82	9.059
283.19	5.882
283.56	9.474
283.92	9.475
284.29	8.642
284.66	9.437
285.03	8.499
285.40	8.627
285.77	7.912
286.14	8.808
286.51	8.667
286.87	9.402
287.24	9.121
287.61	8.347
287.98	9.740
288.35	9.667
288.72	9.034
289.08	9.703
289.45	8.896
289.82	9.756
290.19	6.436
290.56	8.576
290.93	7.402
291.29	5.368
291.66	6.490
292.03	9.012
292.40	9.838
292.77	7.249
293.13	8.955
293.50	8.892
293.87	8.296
294.24	6.815
294.60	6.405
294.97	7.558
295.34	7.193
295.71	7.812
296.08	6.268
296.44	7.153
296.81	7.001
297.18	7.046
297.55	5.409
297.91	6.596
298.28	6.827
298.65	8.225
299.02	7.246
299.38	6.507
299.75	4.043
300.12	5.109
300.48	6.500
300.85	6.535
301.22	6.369
301.59	6.313
301.95	5.919
302.32	6.162
302.69	6.093
303.05	5.212
303.42	5.802
303.79	5.889
304.15	6.294
304.52	4.867
304.89	5.110
305.25	5.336
305.62	6.342
305.99	6.021
306.35	6.488
306.72	5.381
307.09	6.659
307.45	6.757
307.82	4.129
308.19	5.519
308.55	5.717
308.92	4.726
309.29	5.280
309.65	5.938
310.02	6.237
310.38	5.054
310.75	5.597
311.12	5.834
311.48	5.852
311.85	5.241
312.22	4.475
312.58	5.198
312.95	6.441
313.31	5.825
313.68	4.678
314.05	7.002
314.41	5.930
314.78	4.935
315.14	6.058
315.51	5.767
315.87	5.545
316.24	6.157
316.61	5.263
316.97	5.088
317.34	5.088
317.70	5.927
318.07	5.871
318.43	4.795
318.80	7.310
319.16	5.461
319.53	5.816
319.89	7.333
320.26	6.400
320.62	6.349
320.99	7.172
321.35	6.566
321.72	7.598
322.08	7.897
322.45	8.259
322.81	8.818
323.18	8.189
323.54	8.349
323.91	8.113
324.27	9.082
324.64	7.083
325.00	7.845
325.37	9.463
325.73	9.246
326.10	8.561
326.46	8.692
326.83	8.714
327.19	9.223
327.56	8.362
327.92	9.099
328.29	10.382
328.65	9.669
329.01	9.657
329.38	9.066
329.74	9.788
330.11	9.048
330.47	10.560
330.84	12.040
331.20	10.565
331.56	10.826
331.93	10.741
332.29	9.938
332.66	11.947
333.02	10.603
333.38	11.924
333.75	11.943
334.11	11.388
334.48	11.979
334.84	10.570
335.20	10.818
335.57	10.698
335.93	10.089
336.29	10.989
336.66	11.452
337.02	11.312
337.38	11.944
337.75	11.497
338.11	11.907
338.47	11.050
338.84	11.916
339.20	11.101
339.56	11.861
339.93	11.273
340.29	11.685
340.65	10.517
341.02	12.914
341.38	11.566
341.74	10.877
342.11	11.965
342.47	11.542
342.83	11.815
343.20	12.121
343.56	11.879
343.92	12.456
344.28	11.310
344.65	11.522
345.01	11.532
345.37	11.750
345.73	11.421
346.10	12.447
346.46	11.695
346.82	11.367
347.19	10.610
347.55	11.823
347.91	12.136
348.27	12.325
348.63	11.204
349.00	12.136
349.36	11.002
349.72	12.029
350.08	9.724
350.45	11.880
350.81	12.266
351.17	11.912
351.53	10.893
351.89	11.469
352.26	12.628
352.62	12.189
352.98	11.831
353.34	12.243
353.70	11.211
354.07	11.371
354.43	11.667
354.79	11.424
355.15	12.211
355.51	12.790
355.87	11.755
356.24	12.296
356.60	11.788
356.96	12.872
357.32	12.101
357.68	12.047
358.04	11.956
358.40	12.668
358.77	12.520
359.13	11.523
359.49	12.314
359.85	10.794
360.21	12.281
360.57	12.840
360.93	12.538
361.29	10.960
361.66	11.765
362.02	12.313
362.38	12.395
362.74	12.277
363.10	13.101
363.46	11.812
363.82	12.245
364.18	12.041
364.54	12.630
364.90	13.739
365.26	12.279
365.62	12.783
365.98	11.833
366.35	11.533
366.71	12.220
367.07	12.600
367.43	12.627
367.79	13.205
368.15	13.578
368.51	12.282
368.87	13.276
369.23	12.582
369.59	13.903
369.95	12.647
370.31	14.245
370.67	13.043
371.03	13.858
371.39	13.848
371.75	12.500
372.11	13.727
372.47	14.223
372.83	13.905
373.19	13.078
373.55	13.747
373.91	13.034
374.27	13.265
374.63	12.945
374.99	15.113
375.35	12.561
375.71	13.982
376.07	14.678
376.42	13.893
376.78	15.573
377.14	13.501
377.50	15.099
377.86	13.497
378.22	14.791
378.58	13.409
378.94	14.519
379.30	13.868
379.66	15.102
380.02	15.233
380.38	14.329
380.74	14.286
381.09	14.487
381.45	15.304
381.81	14.865
382.17	15.669
382.53	14.906
382.89	15.185
383.25	14.759
383.61	16.047
383.97	15.822
384.32	15.346
384.68	14.126
385.04	15.120
385.40	15.666
385.76	15.418
386.12	15.674
386.48	15.481
386.83	15.459
387.19	17.130
387.55	16.017
387.91	15.357
388.27	15.696
388.62	16.103
388.98	15.602
389.34	15.582
389.70	16.002
390.06	17.427
390.42	16.083
390.77	15.840
391.13	16.592
391.49	16.561
391.85	15.786
392.20	16.088
392.56	16.604
392.92	16.186
393.28	16.331
393.64	17.026
393.99	16.494
394.35	16.501
394.71	16.625
395.07	17.321
395.42	17.614
395.78	17.494
396.14	17.939
396.50	17.544
396.85	18.055
397.21	16.091
397.57	17.049
397.92	17.849
398.28	16.312
398.64	17.443
399.00	17.124
399.35	16.187
399.71	17.361
400.07	17.682
400.42	17.423
400.78	18.034
401.14	17.317
401.49	17.791
401.85	16.939
402.21	17.725
402.57	17.273
402.92	18.222
403.28	17.552
403.63	18.441
403.99	17.389
404.35	18.606
404.70	17.626
405.06	18.288
405.42	17.842
405.77	17.029
406.13	16.817
406.49	18.273
406.84	18.015
407.20	17.376
407.55	18.124
407.91	18.533
408.27	18.251
408.62	18.844
408.98	17.892
409.34	18.635
409.69	18.000
410.05	17.038
410.40	19.021
410.76	18.519
411.11	18.999
411.47	18.275
411.83	18.448
412.18	18.367
412.54	18.369
412.89	18.494
413.25	18.182
413.60	18.653
413.96	18.761
414.31	18.894
414.67	19.138
415.03	18.742
415.38	19.910
415.74	18.006
416.09	19.203
416.45	18.876
416.80	19.432
417.16	21.046
417.51	19.708
417.87	19.268
418.22	20.189
418.58	19.109
418.93	19.963
419.29	19.032
419.64	19.899
420.00	19.695
420.35	20.000
420.71	19.426
421.06	19.093
421.42	19.357
421.77	19.226
422.12	18.080
422.48	18.457
422.83	18.346
423.19	19.116
423.54	20.081
423.90	19.478
424.25	19.040
424.61	19.286
424.96	19.067
425.31	20.266
425.67	19.213
426.02	19.371
426.38	19.780
426.73	19.544
427.09	19.392
427.44	20.184
427.79	18.574
428.15	20.000
428.50	19.193
428.85	20.203
429.21	19.216
429.56	19.077
429.92	19.426
430.27	19.116
430.62	18.382
430.98	19.253
431.33	19.175
431.68	19.843
432.04	19.542
432.39	19.589
432.74	20.227
433.10	19.864
433.45	20.583
433.80	19.512
434.16	19.712
434.51	19.842
434.86	19.555
435.22	20.289
435.57	19.818
435.92	20.070
436.28	20.403
436.63	20.475
436.98	20.435
437.34	20.572
437.69	20.070
438.04	19.730
438.39	20.776
438.75	20.860
439.10	21.117
439.45	19.953
439.81	20.121
440.16	20.553
440.51	21.148
440.86	21.424
441.22	20.467
441.57	20.329
441.92	21.597
442.27	20.344
442.63	20.379
442.98	21.577
443.33	20.000
443.68	20.805
444.03	21.083
444.39	19.377
444.74	20.563
445.09	20.809
445.44	20.667
445.79	21.277
446.15	21.122
446.50	20.032
446.85	20.863
447.20	20.908
447.55	20.826
447.91	20.794
448.26	20.924
448.61	20.916
448.96	21.041
449.31	21.541
449.66	20.653
450.02	21.226
450.37	20.805
450.72	20.699
451.07	20.353
451.42	20.547
451.77	22.020
452.12	20.901
452.47	20.833
452.83	21.620
453.18	21.638
453.53	20.965
453.88	20.673
454.23	21.698
454.58	21.078
454.93	22.886
455.28	21.259
455.63	21.784
455.98	22.440
456.34	21.545
456.69	21.540
457.04	22.786
457.39	21.216
457.74	21.068
458.09	22.024
458.44	20.867
458.79	21.041
459.14	21.727
459.49	22.242
459.84	21.219
460.19	22.098
460.54	20.775
460.89	21.174
461.24	21.615
461.59	22.487
461.94	21.455
462.29	22.374
462.64	22.017
462.99	21.080
463.34	23.200
463.69	22.827
464.04	21.565
464.39	22.203
464.74	22.044
465.09	22.135
465.44	21.219
465.79	20.805
466.14	20.307
466.49	20.912
466.84	21.658
467.19	21.424
467.54	22.625
467.89	21.128
468.24	21.640
468.59	22.039
468.94	21.136
469.29	21.530
469.64	22.557
469.99	23.072
470.34	21.664
470.68	22.342
471.03	21.497
471.38	22.933
471.73	22.985
472.08	23.553
472.43	22.048
472.78	22.646
473.13	22.529
473.48	22.347
473.83	21.585
474.17	22.278
474.52	22.208
474.87	22.183
475.22	22.113
475.57	21.655
475.92	21.827
476.27	20.631
476.61	21.677
476.96	21.385
477.31	21.141
477.66	21.718
478.01	21.171
478.36	22.316
478.70	21.236
479.05	21.938
479.40	22.057
479.75	22.064
480.10	20.427
480.45	21.466
480.79	21.309
481.14	22.016
481.49	21.595
481.84	21.674
482.19	21.081
482.53	21.743
482.88	21.871
483.23	21.542
483.58	21.793
483.92	21.368
484.27	20.436
484.62	21.509
484.97	21.246
485.31	21.370
485.66	19.715
486.01	18.497
486.36	17.902
486.70	17.441
487.05	18.178
487.40	19.152
487.75	19.195
488.09	20.170
488.44	20.147
488.79	21.049
489.13	21.276
489.48	21.166
489.83	21.623
490.17	21.394
490.52	21.169
490.87	21.303
491.22	22.510
491.56	21.777
491.91	22.010
492.26	21.084
492.60	21.705
492.95	21.515
493.30	21.355
493.64	21.465
493.99	21.448
494.34	21.878
494.68	21.795
495.03	21.664
495.37	21.080
495.72	22.466
496.07	21.578
496.41	21.416
496.76	21.592
497.11	20.982
497.45	21.984
497.80	21.833
498.14	21.498
498.49	21.707
498.84	22.483
499.18	22.429
499.53	22.080
499.87	21.668
500.22	21.385
500.56	23.010
500.91	22.356
501.26	22.143
501.60	22.449
501.95	21.540
502.29	22.352
502.64	22.672
502.98	22.020
503.33	22.029
503.67	21.531
504.02	22.357
504.36	21.666
504.71	23.058
505.06	22.313
505.40	22.217
505.75	21.601
506.09	22.546
506.44	22.398
506.78	22.309
507.13	21.959
507.47	22.323
507.82	22.644
508.16	22.036
508.51	23.186
508.85	22.592
509.19	23.010
509.54	22.398
509.88	22.566
510.23	22.674
510.57	23.478
510.92	22.683
511.26	23.022
511.61	23.392
511.95	22.495
512.30	22.641
512.64	23.160
512.98	22.937
513.33	23.019
513.67	22.412
514.02	22.565
514.36	23.976
514.70	23.962
515.05	24.205
515.39	22.995
515.74	24.550
516.08	24.315
516.42	24.362
516.77	23.857
517.11	24.251
517.46	24.661
517.80	24.797
518.14	24.725
518.49	25.321
518.83	23.523
519.17	24.018
519.52	24.561
519.86	24.472
520.20	24.913
520.55	25.194
520.89	25.487
521.23	24.789
521.58	24.970
521.92	25.597
522.26	25.076
522.61	26.044
522.95	24.800
523.29	25.198
523.64	25.793
523.98	25.878
524.32	26.176
524.66	25.917
525.01	25.490
525.35	25.155
525.69	25.431
526.04	26.168
526.38	25.137
526.72	25.215
527.06	26.177
527.41	23.762
527.75	26.431
528.09	26.846
528.43	25.430
528.78	26.982
529.12	24.606
529.46	25.352
529.80	25.371
530.15	26.791
530.49	25.538
530.83	26.582
531.17	27.089
531.51	27.043
531.86	26.194
532.20	27.314
532.54	27.290
532.88	26.316
533.22	26.171
533.57	25.741
533.91	24.684
534.25	25.699
534.59	25.991
534.93	25.758
535.27	25.951
535.62	26.313
535.96	26.365
536.30	26.065
536.64	26.594
536.98	27.074
537.32	25.477
537.66	26.467
538.01	27.057
538.35	26.568
538.69	26.803
539.03	24.951
539.37	26.198
539.71	24.822
540.05	26.078
540.39	25.648
540.73	27.167
541.07	26.606
541.42	26.484
541.76	26.710
542.10	27.361
542.44	26.821
542.78	27.075
543.12	26.168
543.46	27.148
543.80	26.675
544.14	25.546
544.48	26.984
544.82	25.657
545.16	26.610
545.50	25.450
545.84	25.941
546.18	26.532
546.52	26.635
546.86	27.010
547.20	27.849
547.54	26.119
547.88	27.105
548.22	26.090
548.56	26.226
548.90	25.800
549.24	25.455
549.58	27.080
549.92	27.060
550.26	28.409
550.60	26.763
550.94	27.324
551.28	27.432
551.62	27.031
551.96	26.105
552.30	27.645
552.64	26.504
552.98	27.390
553.32	26.298
553.66	28.357
554.00	26.767
554.34	26.501
554.68	27.754
555.02	26.234
555.36	26.862
555.69	27.131
556.03	26.581
556.37	27.012
556.71	25.580
557.05	27.311
557.39	26.802
557.73	26.958
558.07	27.629
558.41	27.569
558.75	27.333
559.08	26.771
559.42	28.496
559.76	27.941
560.10	26.909
560.44	26.136
560.78	26.480
561.12	26.187
561.45	26.402
561.79	26.368
562.13	27.029
562.47	27.049
562.81	26.987
563.15	26.421
563.48	26.857
563.82	25.506
564.16	26.226
564.50	26.107
564.84	25.601
565.17	27.091
565.51	26.454
565.85	26.269
566.19	26.362
566.52	26.156
566.86	25.437
567.20	26.651
567.54	25.514
567.88	25.149
568.21	25.503
568.55	24.065
568.89	24.319
569.23	24.376
569.56	23.279
569.90	23.245
570.24	23.071
570.57	22.475
570.91	22.204
571.25	21.587
571.59	21.856
571.92	21.544
572.26	22.184
572.60	22.613
572.93	22.039
573.27	22.715
573.61	21.524
573.95	21.912
574.28	21.382
574.62	21.161
574.96	20.908
575.29	20.805
575.63	21.367
575.97	20.906
576.30	22.039
576.64	21.557
576.98	21.245
577.31	20.910
577.65	21.151
577.98	20.788
578.32	20.234
578.66	20.755
578.99	20.886
579.33	20.770
579.67	20.871
580.00	21.218
580.34	21.500
580.67	20.657
581.01	21.543
581.35	20.556
581.68	20.643
582.02	20.063
582.35	19.982
582.69	20.390
583.02	20.737
583.36	21.259
583.70	21.678
584.03	21.317
584.37	22.082
584.70	21.761
585.04	21.380
585.37	21.226
585.71	21.781
586.04	21.044
586.38	21.499
586.72	22.038
587.05	21.815
587.39	21.319
587.72	21.541
588.06	21.825
588.39	21.948
588.73	21.854
589.06	22.343
589.40	22.795
589.73	23.055
590.07	23.132
590.40	22.068
590.73	23.107
591.07	23.972
591.40	23.745
591.74	24.026
592.07	23.647
592.41	22.861
592.74	22.285
593.08	22.119
593.41	22.082
593.75	21.174
594.08	22.394
594.41	22.234
594.75	22.366
595.08	22.691
595.42	22.522
595.75	22.756
596.09	22.719
596.42	23.694
596.75	23.132
597.09	23.983
597.42	23.314
597.75	23.588
598.09	23.783
598.42	23.625
598.76	22.294
599.09	22.235
599.42	22.125
599.76	22.365
600.09	21.749
600.42	21.877
600.76	21.750
601.09	21.967
601.42	22.755
601.76	22.619
602.09	22.648
602.42	23.169
602.76	23.458
603.09	23.171
603.42	23.311
603.76	22.561
604.09	22.373
604.42	22.707
604.76	23.787
605.09	22.805
605.42	22.830
605.75	22.889
606.09	22.041
606.42	23.171
606.75	22.605
607.09	23.190
607.42	23.235
607.75	22.110
608.08	23.274
608.42	23.084
608.75	23.354
609.08	23.127
609.41	23.084
609.75	23.106
610.08	23.940
610.41	23.557
610.74	23.463
611.07	23.962
611.41	23.258
611.74	24.183
612.07	24.172
612.40	24.816
612.73	24.211
613.07	24.623
613.40	24.276
613.73	23.283
614.06	24.462
614.39	23.859
614.72	23.632
615.06	23.739
615.39	23.461
615.72	23.722
616.05	24.136
616.38	23.457
616.71	24.584
617.05	25.618
617.38	24.233
617.71	24.264
618.04	24.940
618.37	24.778
618.70	25.700
619.03	26.053
619.36	25.526
619.69	26.690
620.03	26.374
620.36	26.337
620.69	27.123
621.02	26.696
621.35	27.016
621.68	26.090
622.01	26.858
622.34	26.626
622.67	26.160
623.00	25.532
623.33	24.232
623.66	26.733
623.99	27.614
624.32	26.462
624.65	25.565
624.99	24.575
625.32	26.792
625.65	26.597
625.98	26.518
626.31	27.760
626.64	27.347
626.97	27.515
627.30	26.600
627.63	27.235
627.96	27.923
628.29	28.696
628.62	27.996
628.95	29.151
629.28	27.646
629.61	29.148
629.94	28.286
630.26	28.408
630.59	29.266
630.92	26.437
631.25	28.628
631.58	29.229
631.91	27.992
632.24	27.637
632.57	28.961
632.90	28.728
633.23	29.195
633.56	30.395
633.89	30.238
634.22	29.285
634.55	31.479
634.88	28.862
635.20	29.271
635.53	30.361
635.86	30.074
636.19	29.882
636.52	29.527
636.85	29.210
637.18	29.032
637.51	31.442
637.83	26.757
638.16	31.586
638.49	30.227
638.82	30.973
639.15	31.750
639.48	30.050
639.81	30.027
640.13	31.120
640.46	32.215
640.79	31.572
641.12	30.124
641.45	30.028
641.77	30.781
642.10	30.263
642.43	29.129
642.76	33.591
643.09	30.368
643.41	34.143
643.74	33.642
644.07	32.622
644.40	33.129
644.73	35.276
645.05	34.548
645.38	34.755
645.71	35.266
646.04	35.382
646.36	35.559
646.69	34.281
647.02	33.333
647.35	35.395
647.67	35.044
648.00	33.333
648.33	33.168
648.66	31.061
648.98	33.433
649.31	31.689
649.64	33.184
649.96	30.700
650.29	33.491
650.62	31.715
650.94	32.577
651.27	33.108
651.60	32.779
651.92	33.706
652.25	31.107
652.58	31.931
652.90	32.070
653.23	30.508
653.56	31.654
653.88	30.903
654.21	32.385
654.54	32.673
654.86	32.087
655.19	28.649
655.52	19.785
655.84	15.203
656.17	19.445
656.49	26.025
656.82	26.574
657.15	20.446
657.47	15.326
657.80	12.189
658.13	12.912
658.45	19.814
658.78	20.734
659.10	22.067
659.43	23.247
659.75	24.743
660.08	27.975
660.41	31.099
660.73	32.656
661.06	34.076
661.38	35.455
661.71	33.846
662.03	36.884
662.36	33.996
662.68	38.353
663.01	35.354
663.33	34.607
663.66	35.924
663.98	37.581
664.31	34.034
664.63	32.794
664.96	28.974
665.28	36.475
665.61	32.164
665.93	34.205
666.26	35.294
666.58	33.054
666.91	37.209
667.23	38.427
667.56	34.125
667.88	35.256
668.21	35.821
668.53	33.406
668.86	31.385
669.18	35.821
669.50	34.348
669.83	36.166
670.15	37.778
670.48	34.858
670.80	35.560
671.13	35.244
671.45	32.128
671.77	35.642
672.10	33.457
672.42	30.742
672.75	29.353
673.07	30.282
673.39	33.273
673.72	31.055
674.04	34.706
674.37	31.262
674.69	32.515
675.01	31.381
675.34	36.961
675.66	35.789
675.98	32.790
676.31	35.504
676.63	36.730
676.95	32.495
677.28	33.411
677.60	36.923
677.92	34.810
678.25	33.060
678.57	33.267
678.89	35.271
679.22	32.220
679.54	33.969
679.86	31.376
680.18	31.306
680.51	30.142
680.83	31.673
681.15	31.509
681.48	31.947
681.80	29.594
682.12	32.950
682.44	29.594
682.77	32.179
683.09	34.979
683.41	35.477
683.73	33.554
684.06	33.884
684.38	30.528
684.70	31.395
685.02	29.456
685.34	29.121
685.67	28.497
685.99	29.553
686.31	29.181
686.63	27.739
686.96	28.929
687.28	30.686
687.60	29.348
687.92	29.616
688.24	30.798
688.56	34.940
688.89	33.610
689.21	33.188
689.53	32.985
689.85	33.703
690.17	31.884
690.49	35.244
690.82	34.112
691.14	31.027
691.46	32.068
691.78	34.137
692.10	32.438
692.42	33.333
692.74	29.668
693.06	31.489
693.39	32.238
693.71	31.223
694.03	30.947
694.35	30.519
694.67	31.808
694.99	35.122
695.31	32.598
695.63	33.732
695.95	34.474
696.27	30.964
696.59	34.715
696.91	33.938
697.23	29.343
697.56	31.130
697.88	26.176
698.20	28.750
698.52	30.323
698.84	31.849
699.16	32.488
699.48	33.492
699.80	32.367
700.12	36.623
700.44	36.074
700.76	35.635
701.08	35.057
701.40	36.034
701.72	35.860
702.04	40.057
702.36	34.278
702.68	37.110
703.00	32.687
703.32	36.170
703.64	34.853
703.96	33.148
704.28	37.500
704.60	37.537
704.91	36.795
705.23	37.243
705.55	35.880
705.87	43.189
706.19	38.516
706.51	38.318
706.83	39.394
707.15	34.454
707.47	28.030
707.79	31.695
708.11	33.105
708.43	31.429
708.74	30.102
709.06	33.506
709.38	30.709
709.70	36.628
710.02	31.454
710.34	33.030
710.66	37.612
710.98	34.659
711.29	35.465
711.61	34.218
711.93	33.654
712.25	34.727
712.57	34.559
712.89	35.986
713.20	38.906
713.52	35.855
713.84	33.544
714.16	33.537
714.48	37.356
714.80	35.258
715.11	34.582
715.43	32.047
715.75	33.623
716.07	34.824
716.39	32.602
716.70	34.219
717.02	38.849
717.34	35.689
717.66	38.060
717.97	42.231
718.29	36.667
718.61	37.956
718.93	38.235
719.24	37.370
719.56	31.525
719.88	35.932
720.20	36.149
720.51	37.282
720.83	37.918
721.15	36.940
721.46	36.170
721.78	39.068
722.10	40.377
722.42	42.105
722.73	37.079
723.05	37.295
723.37	40.486
723.68	37.838
724.00	38.211
724.32	42.742
724.63	37.805
724.95	38.075
725.27	39.676
725.58	38.281
725.90	37.591
726.22	38.868
726.53	35.417
726.85	38.908
727.16	33.808
727.48	38.298
727.80	37.879
728.11	39.855
728.43	33.846
728.74	33.692
729.06	40.146
729.38	39.706
729.69	35.943
730.01	37.543
730.32	35.764
730.64	32.776
730.96	31.353
731.27	33.444
731.59	34.862
731.90	31.195
732.22	30.435
732.53	30.960
732.85	31.410
733.16	32.476
733.48	31.561
733.80	31.494
734.11	33.439
734.43	29.882
734.74	32.857
735.06	30.086
735.37	32.370
735.69	29.936
736.00	34.641
736.32	34.579
736.63	32.268
736.95	32.588
737.26	28.571
737.58	31.290
737.89	36.120
738.21	32.423
738.52	35.714
738.83	35.472
739.15	35.385
739.46	35.401
739.78	32.292
740.09	35.692
740.41	32.258
740.72	37.282
741.04	36.296
741.35	35.417
741.66	39.556
741.98	36.792
742.29	41.627
742.61	40.517
742.92	40.724
743.23	38.889
743.55	41.200
743.86	36.404
744.18	42.035
744.49	42.105
744.80	41.315
745.12	43.636
745.43	37.004
745.74	45.495
746.06	40.367
746.37	44.395
746.68	43.891
747.00	41.204
747.31	44.286
747.62	32.743
747.94	37.885
748.25	33.617
748.56	40.969
748.88	40.594
749.19	46.500
749.50	35.814
749.82	32.927
750.13	33.878
750.44	35.401
750.75	32.982
751.07	36.656
751.38	35.192
751.69	33.213
752.01	37.218
752.32	32.491
752.63	32.979
752.94	32.787
753.26	36.000
753.57	29.675
753.88	37.109
754.19	29.643
754.51	37.153
754.82	31.769
755.13	32.830
755.44	33.835
755.75	33.577
756.07	30.496
756.38	31.022
756.69	32.215
757.00	31.437
757.31	32.047
757.63	28.070
757.94	27.346
758.25	25.490
758.56	30.370
758.87	26.882
759.18	30.000
759.50	30.408
759.81	31.776
760.12	25.937
760.43	28.940
760.74	27.446
761.05	29.661
761.36	28.342
761.67	31.534
761.99	30.435
762.30	34.028
762.61	31.298
762.92	37.109
763.23	34.034
763.54	36.800
763.85	29.687
764.16	36.923
764.47	33.460
764.78	27.562
765.10	25.633
765.41	30.383
765.72	31.138
766.03	28.213
766.34	32.333
766.65	40.426
766.96	32.906
767.27	35.533
767.58	45.312
767.89	41.053
768.20	41.954
768.51	37.563
768.82	33.028
769.13	30.894
769.44	31.174
769.75	36.052
770.06	36.239
770.37	39.367
770.68	35.648
770.99	32.000
771.30	29.508
771.61	32.287
771.92	31.557
772.23	35.714
772.54	35.385
772.85	45.550
773.16	46.277
773.47	45.652
773.78	43.655
774.09	45.833
774.39	45.614
774.70	42.593
775.01	47.101
775.32	52.288
775.63	46.053
775.94	41.727
776.25	58.268
776.56	54.478
776.87	56.557
777.18	53.125
777.48	56.489
777.79	53.030
778.10	61.481
778.41	53.571
778.72	43.796
779.03	46.309
779.34	44.966
779.65	41.216
779.95	37.423
780.26	47.059
780.57	48.276
780.88	52.344
781.19	45.865
781.50	51.351
781.80	51.572
782.11	42.373
782.42	37.342
782.73	39.264
783.04	50.000
783.34	52.113
783.65	54.110
783.96	51.493
784.27	46.853
784.57	46.763
784.88	42.593
785.19	63.492
785.50	50.943
785.81	59.701
786.11	59.836
786.42	51.163
786.73	46.018
787.04	60.377
787.34	57.143
787.65	63.000
787.96	45.946
788.26	47.934
788.57	61.864
788.88	57.851
789.19	60.417
789.49	59.091
789.80	50.382
790.11	65.714
790.41	71.287
790.72	69.880
791.03	67.391
791.33	63.953
791.64	59.794
791.95	63.366
792.25	70.000
792.56	72.727
792.87	87.179
793.17	93.671
793.48	73.563
793.79	72.414
794.09	62.500
794.40	52.101
794.70	55.147
795.01	47.407
795.32	51.079
795.62	48.819
795.93	49.138
796.23	53.982
796.54	50.588
796.85	72.973
797.15	92.958
797.46	81.818
797.76	81.928
798.07	69.620
798.37	87.692
798.68	96.970
798.99	69.014
799.29	81.818
799.60	68.182
799.90	76.712
800.21	92.537
800.51	84.483
800.82	107.018
801.12	81.967
801.43	93.939
801.73	77.027
802.04	104.762
802.34	81.481
802.65	78.125
802.95	88.136
803.26	98.438
803.56	65.714
803.87	78.462
804.17	83.824
804.48	112.963
804.78	86.207
805.09	82.353
805.39	101.923
805.70	78.571
806.00	100.000
806.30	80.303
806.61	75.610
806.91	73.418
807.22	75.000
807.52	73.134
807.83	85.915
808.13	93.750
808.43	98.333
808.74	60.526
809.04	85.507
809.35	86.567
809.65	84.211
809.95	100.000
810.26	108.475
810.56	82.540
810.86	120.455
811.17	121.429
811.47	90.000
811.77	90.741
812.08	112.727
812.38	110.000
812.69	136.111
812.99	134.091
813.29	114.286
813.59	88.095
813.90	128.571
814.20	94.545
814.50	84.615
814.81	89.706
815.11	118.367
815.41	88.525
815.72	152.381
816.02	103.636
816.32	123.810
816.62	107.500
816.93	134.146
817.23	123.810
817.53	125.000
817.84	172.727
818.14	136.957
818.44	122.222
818.74	141.176
819.04	140.000
819.35	105.714
819.65	161.765
819.95	189.286
820.25	210.000
820.56	161.538
820.86	122.727
821.16	120.930
821.46	105.128
821.76	124.000
822.07	142.857
822.37	122.500
822.67	166.667
822.97	101.961
823.27	192.857
823.57	143.243
823.88	135.000
824.18	160.000
824.48	138.095
824.78	212.000
825.08	170.833
825.38	129.730
825.69	129.268
825.99	229.167
826.29	134.483
826.59	163.158
826.89	128.947
827.19	150.000
827.49	167.742
827.79	138.636
828.09	129.545
828.39	108.511
828.70	112.245
829.00	151.852
829.30	138.710
829.60	140.000
829.90	300.000
830.20	192.857
830.50	186.957
830.80	173.913
831.10	193.333
831.40	180.000
831.70	191.304
832.00	246.154
832.30	200.000
832.60	325.000
832.90	170.000
833.20	364.286
833.50	190.323
833.80	172.414
834.10	187.500
834.40	226.923
834.70	283.333
835.00	328.571
835.30	162.857
835.60	230.769
835.90	217.241
836.20	371.429
836.50	213.793
836.80	188.000
837.10	169.444
837.40	242.857
837.70	347.059
838.00	203.704
838.30	233.333
838.60	276.190
838.90	200.000
839.19	285.000
839.49	378.571
839.79	330.000
840.09	275.000
840.39	290.476
840.69	191.304
840.99	255.556
841.29	380.000
841.59	300.000
841.88	337.500
842.18	179.310
842.48	238.095
842.78	223.333
843.08	186.957
843.38	212.500
843.68	916.667
843.97	219.231
844.27	186.207
844.57	290.476
844.87	325.000
845.17	192.593
845.47	1266.667
845.76	522.222
846.06	294.118
846.36	500.000
846.66	342.857
846.96	300.000
847.25	418.182
847.55	363.636
847.85	217.391
848.15	470.000
848.44	314.286
848.74	222.222
849.04	276.471
849.34	490.000
849.63	247.368
849.93	381.818
850.23	860.000
850.53	314.286
850.82	2650.000
851.12	-4200.000
851.42	4400.000
851.71	265.000
852.01	-1233.333
852.31	233.333
852.61	1633.333
852.90	261.905
853.20	248.000
853.50	300.000
853.79	280.952
854.09	191.667
854.39	287.500
854.68	156.757
854.98	177.419
855.28	156.667
855.57	175.862
855.87	181.481
856.17	278.947
856.46	200.000
856.76	276.471
857.05	165.517
857.35	233.333
857.65	300.000
857.94	230.435
858.24	192.308
858.53	225.000
858.83	213.636
859.13	340.000
859.42	0.000
859.72	433.333
860.01	381.818
860.31	209.091
860.60	268.421
860.90	208.696
861.20	577.778
861.49	450.000
861.79	-4400.000
862.08	625.000
862.38	257.143
862.67	323.077
862.97	276.471
863.26	522.222
863.56	261.111
863.85	316.667
864.15	575.000
864.44	333.333
864.74	833.333
865.03	612.500
865.33	315.789
865.62	445.455
865.92	376.923
866.21	333.333
866.51	0.000
866.80	463.636
867.10	1160.000
867.39	392.308
867.69	427.273
867.98	289.474
868.27	436.364
868.57	294.737
868.86	-3200.000
869.16	312.500
869.45	2000.000
869.75	-3700.000
870.04	366.667
870.33	557.143
870.63	1175.000
870.92	2250.000
871.22	771.429
871.51	305.882
871.80	214.286
872.10	335.714
>>>>>End Processed Spectral Data<<<<<
