SpectraSuite Data File
++++++++++++++++++++++++++++++++++++
Date: Wed May 13 15:57:49 PDT 2015
User: schluterlab
Dark Spectrum Present: Yes
Reference Spectrum Present: Yes
Number of Sampled Component Spectra: 1
Spectrometers: USB2E3373
Integration Time (usec): 3000 (USB2E3373)
Spectra Averaged: 3 (USB2E3373)
Boxcar Smoothing: 0 (USB2E3373)
Correct for Electrical Dark: No (USB2E3373)
Strobe/Lamp Enabled: No (USB2E3373)
Correct for Detector Non-linearity: No (USB2E3373)
Correct for Stray Light: No (USB2E3373)
Number of Pixels in Processed Spectrum: 2048
>>>>>Begin Processed Spectral Data<<<<<
178.53	0.000
178.91	-125.000
179.29	-350.000
179.67	-22.222
180.04	-200.000
180.42	700.000
180.80	220.000
181.18	-125.000
181.56	42.857
181.94	0.000
182.31	28.571
182.69	333.333
183.07	-100.000
183.45	-44.444
183.83	209.091
184.20	-40.000
184.58	0.000
184.96	600.000
185.34	20.000
185.72	-50.000
186.09	-300.000
186.47	500.000
186.85	1000.000
187.23	300.000
187.61	-233.333
187.98	275.000
188.36	118.182
188.74	109.091
189.12	-80.000
189.49	150.000
189.87	-700.000
190.25	-200.000
190.63	142.857
191.00	107.692
191.38	166.667
191.76	-175.000
192.14	325.000
192.51	37.500
192.89	133.333
193.27	-37.500
193.65	-75.000
194.02	60.000
194.40	100.000
194.78	130.000
195.15	166.667
195.53	160.000
195.91	-250.000
196.29	156.250
196.66	121.053
197.04	50.000
197.42	0.000
197.79	70.000
198.17	300.000
198.55	42.857
198.92	175.000
199.30	80.000
199.68	0.000
200.05	105.556
200.43	114.286
200.81	-100.000
201.18	466.667
201.56	-166.667
201.94	122.222
202.31	111.111
202.69	41.667
203.07	140.000
203.44	0.000
203.82	-100.000
204.19	42.857
204.57	107.143
204.95	137.500
205.32	33.333
205.70	81.818
206.08	64.286
206.45	400.000
206.83	100.000
207.20	300.000
207.58	-100.000
207.96	83.333
208.33	225.000
208.71	-233.333
209.08	185.714
209.46	88.889
209.84	63.636
210.21	166.667
210.59	325.000
210.96	100.000
211.34	550.000
211.71	110.000
212.09	0.000
212.46	0.000
212.84	400.000
213.22	325.000
213.59	-400.000
213.97	166.667
214.34	185.714
214.72	163.636
215.09	320.000
215.47	-50.000
215.84	-700.000
216.22	266.667
216.59	78.571
216.97	150.000
217.34	63.636
217.72	50.000
218.09	0.000
218.47	-900.000
218.84	300.000
219.22	157.143
219.59	166.667
219.97	-71.429
220.34	40.000
220.72	-266.667
221.09	114.286
221.47	300.000
221.84	-133.333
222.22	0.000
222.59	300.000
222.97	-650.000
223.34	340.000
223.72	107.692
224.09	40.000
224.46	-50.000
224.84	100.000
225.21	-240.000
225.59	-200.000
225.96	190.000
226.34	90.000
226.71	50.000
227.08	-37.500
227.46	60.000
227.83	-50.000
228.21	-300.000
228.58	111.111
228.95	350.000
229.33	-650.000
229.70	100.000
230.08	214.286
230.45	-0.000
230.82	33.333
231.20	50.000
231.57	42.857
231.95	58.333
232.32	31.818
232.69	18.182
233.07	28.571
233.44	53.846
233.81	-200.000
234.19	52.632
234.56	108.333
234.93	33.333
235.31	27.273
235.68	-61.538
236.05	42.857
236.43	15.152
236.80	31.579
237.17	-500.000
237.55	14.286
237.92	32.143
238.29	-14.286
238.67	3.226
239.04	34.483
239.41	2.778
239.79	15.217
240.16	14.286
240.53	31.818
240.91	7.843
241.28	4.000
241.65	6.000
242.02	14.493
242.40	-1.613
242.77	3.333
243.14	13.978
243.51	6.742
243.89	16.471
244.26	6.667
244.63	-4.301
245.00	-6.383
245.38	10.891
245.75	-0.935
246.12	1.835
246.49	6.569
246.87	6.400
247.24	3.846
247.61	1.429
247.98	6.536
248.36	2.703
248.73	5.732
249.10	2.548
249.47	3.955
249.84	5.348
250.22	-1.604
250.59	-1.183
250.96	5.051
251.33	10.900
251.70	6.931
252.08	0.000
252.45	3.587
252.82	4.783
253.19	5.532
253.56	3.922
253.94	4.979
254.31	4.687
254.68	3.077
255.05	6.642
255.42	0.000
255.79	2.574
256.16	6.498
256.54	0.353
256.91	4.626
257.28	1.079
257.65	3.960
258.02	5.901
258.39	0.946
258.76	3.010
259.14	4.167
259.51	2.128
259.88	0.932
260.25	2.417
260.62	0.289
260.99	2.174
261.36	1.201
261.73	4.298
262.10	-0.291
262.47	4.507
262.85	1.950
263.22	-1.425
263.59	1.425
263.96	0.824
264.33	5.222
264.70	2.895
265.07	2.302
265.44	1.768
265.81	0.973
266.18	2.010
266.55	3.171
266.92	-0.246
267.29	4.167
267.66	0.459
268.03	1.818
268.40	1.869
268.77	1.671
269.14	2.477
269.51	1.806
269.88	4.429
270.25	1.806
270.62	1.798
270.99	4.516
271.36	1.502
271.73	-0.234
272.10	0.652
272.47	3.011
272.84	3.680
273.21	2.516
273.58	1.747
273.95	3.145
274.32	2.893
274.69	2.998
275.06	3.740
275.43	1.489
275.80	1.403
276.17	2.851
276.54	3.119
276.91	1.581
277.28	2.539
277.65	2.515
278.02	1.863
278.39	0.586
278.76	2.545
279.13	2.075
279.50	0.931
279.87	1.195
280.23	0.200
280.60	-0.580
280.97	0.555
281.34	3.894
281.71	4.364
282.08	1.344
282.45	1.455
282.82	3.552
283.19	0.891
283.56	3.333
283.92	1.861
284.29	2.469
284.66	0.544
285.03	1.266
285.40	1.056
285.77	2.694
286.14	1.900
286.51	2.833
286.87	2.564
287.24	2.769
287.61	3.371
287.98	3.409
288.35	0.634
288.72	2.336
289.08	2.034
289.45	0.988
289.82	1.463
290.19	0.471
290.56	2.144
290.93	0.302
291.29	0.460
291.66	1.475
292.03	4.651
292.40	3.818
292.77	0.592
293.13	2.239
293.50	1.312
293.87	1.630
294.24	2.074
294.60	0.000
294.97	2.035
295.34	1.834
295.71	0.710
296.08	0.000
296.44	1.651
296.81	1.585
297.18	2.439
297.55	-0.396
297.91	0.923
298.28	3.882
298.65	3.003
299.02	3.030
299.38	1.328
299.75	-1.617
300.12	0.639
300.48	1.750
300.85	1.233
301.22	0.764
301.59	0.505
301.95	1.385
302.32	1.284
302.69	1.195
303.05	1.576
303.42	1.605
303.79	2.152
304.15	1.399
304.52	1.390
304.89	0.813
305.25	1.160
305.62	1.812
305.99	1.535
306.35	1.790
306.72	1.121
307.09	2.109
307.45	2.815
307.82	1.004
308.19	1.435
308.55	3.776
308.92	1.719
309.29	1.162
309.65	1.060
310.02	2.537
310.38	2.151
310.75	1.901
311.12	2.252
311.48	1.985
311.85	1.468
312.22	2.081
312.58	1.040
312.95	1.056
313.31	2.524
313.68	2.079
314.05	2.564
314.41	2.111
314.78	1.309
315.14	1.887
315.51	0.618
315.87	2.574
316.24	2.085
316.61	1.072
316.97	1.957
317.34	0.783
317.70	2.103
318.07	1.829
318.43	0.587
318.80	2.530
319.16	2.166
319.53	1.689
319.89	2.571
320.26	2.600
320.62	1.587
320.99	1.919
321.35	2.525
321.72	1.335
322.08	2.073
322.45	2.289
322.81	3.198
323.18	2.119
323.54	2.783
323.91	3.302
324.27	1.243
324.64	1.212
325.00	1.803
325.37	2.366
325.73	3.232
326.10	1.677
326.46	1.434
326.83	3.192
327.19	1.879
327.56	1.655
327.92	2.275
328.29	2.573
328.65	2.394
329.01	2.978
329.38	1.758
329.74	0.923
330.11	1.602
330.47	1.561
330.84	2.206
331.20	2.368
331.56	1.651
331.93	0.833
332.29	2.573
332.66	2.566
333.02	1.737
333.38	1.716
333.75	2.763
334.11	2.580
334.48	2.307
334.84	2.206
335.20	1.818
335.57	1.995
335.93	1.429
336.29	2.106
336.66	1.533
337.02	0.633
337.38	2.315
337.75	1.337
338.11	1.611
338.47	1.473
338.84	2.658
339.20	0.734
339.56	2.281
339.93	1.455
340.29	1.178
340.65	1.961
341.02	3.229
341.38	1.601
341.74	1.404
342.11	2.009
342.47	2.115
342.83	2.055
343.20	2.424
343.56	1.938
343.92	1.316
344.28	2.976
344.65	2.322
345.01	1.936
345.37	1.286
345.73	1.777
346.10	2.131
346.46	1.780
346.82	2.306
347.19	1.754
347.55	1.396
347.91	2.427
348.27	2.547
348.63	1.923
349.00	2.104
349.36	1.888
349.72	2.245
350.08	1.459
350.45	2.197
350.81	1.706
351.17	2.026
351.53	1.966
351.89	0.990
352.26	2.999
352.62	2.406
352.98	2.431
353.34	2.465
353.70	1.391
354.07	2.016
354.43	2.222
354.79	1.609
355.15	2.075
355.51	2.078
355.87	1.224
356.24	1.547
356.60	1.524
356.96	2.574
357.32	1.145
357.68	2.441
358.04	2.217
358.40	3.563
358.77	3.286
359.13	0.710
359.49	1.725
359.85	1.032
360.21	0.399
360.57	2.023
360.93	2.154
361.29	1.663
361.66	1.858
362.02	2.313
362.38	2.281
362.74	2.530
363.10	1.480
363.46	1.394
363.82	1.587
364.18	1.909
364.54	2.675
364.90	2.479
365.26	2.132
365.62	1.607
365.98	2.045
366.35	1.218
366.71	2.314
367.07	1.311
367.43	2.177
367.79	2.570
368.15	2.371
368.51	1.526
368.87	1.713
369.23	1.317
369.59	2.390
369.95	2.206
370.31	2.350
370.67	2.319
371.03	2.622
371.39	1.458
371.75	2.500
372.11	2.276
372.47	2.493
372.83	2.378
373.19	2.746
373.55	2.513
373.91	2.872
374.27	1.993
374.63	2.545
374.99	2.048
375.35	1.884
375.71	2.399
376.07	3.567
376.42	2.132
376.78	2.850
377.14	2.442
377.50	2.649
377.86	2.261
378.22	2.908
378.58	2.005
378.94	2.011
379.30	1.654
379.66	2.665
380.02	2.764
380.38	2.611
380.74	2.941
381.09	3.240
381.45	2.950
381.81	3.686
382.17	2.739
382.53	2.893
382.89	2.963
383.25	2.314
383.61	2.478
383.97	2.877
384.32	3.057
384.68	2.664
385.04	2.950
385.40	3.344
385.76	3.378
386.12	3.174
386.48	3.210
386.83	3.656
387.19	4.453
387.55	3.587
387.91	3.325
388.27	2.943
388.62	3.258
388.98	2.457
389.34	3.817
389.70	3.679
390.06	3.739
390.42	3.437
390.77	3.817
391.13	2.553
391.49	3.680
391.85	3.565
392.20	2.650
392.56	3.535
392.92	2.649
393.28	2.959
393.64	3.597
393.99	3.604
394.35	3.412
394.71	3.576
395.07	3.364
395.42	3.523
395.78	4.262
396.14	4.035
396.50	3.383
396.85	3.242
397.21	3.144
397.57	3.906
397.92	3.786
398.28	3.195
398.64	3.763
399.00	3.693
399.35	3.610
399.71	4.051
400.07	3.844
400.42	3.313
400.78	4.765
401.14	3.659
401.49	3.104
401.85	3.327
402.21	3.353
402.57	3.270
402.92	3.405
403.28	3.623
403.63	3.403
403.99	2.420
404.35	3.758
404.70	2.998
405.06	2.330
405.42	3.244
405.77	2.914
406.13	3.442
406.49	3.193
406.84	2.894
407.20	3.310
407.55	3.191
407.91	3.533
408.27	2.936
408.62	3.974
408.98	2.941
409.34	3.075
409.69	3.097
410.05	2.788
410.40	3.670
410.76	3.047
411.11	4.101
411.47	3.131
411.83	3.726
412.18	3.278
412.54	3.674
412.89	4.337
413.25	3.424
413.60	3.212
413.96	3.097
414.31	3.098
414.67	3.739
415.03	2.583
415.38	3.930
415.74	2.508
416.09	4.050
416.45	2.677
416.80	3.371
417.16	3.619
417.51	4.313
417.87	3.083
418.22	4.038
418.58	4.454
418.93	3.993
419.29	3.628
419.64	3.904
420.00	3.902
420.35	3.478
420.71	3.288
421.06	3.043
421.42	3.333
421.77	3.531
422.12	3.200
422.48	2.806
422.83	3.844
423.19	3.481
423.54	3.308
423.90	3.826
424.25	4.076
424.61	3.452
424.96	2.857
425.31	4.208
425.67	3.258
426.02	3.771
426.38	3.785
426.73	2.692
427.09	3.283
427.44	3.565
427.79	3.220
428.15	3.631
428.50	3.394
428.85	3.218
429.21	2.927
429.56	3.473
429.92	3.120
430.27	3.277
430.62	3.431
430.98	2.802
431.33	3.351
431.68	3.298
432.04	3.781
432.39	2.798
432.74	3.291
433.10	2.886
433.45	3.265
433.80	2.938
434.16	3.632
434.51	3.474
434.86	3.250
435.22	3.224
435.57	2.979
435.92	2.750
436.28	4.389
436.63	4.470
436.98	3.091
437.34	3.459
437.69	3.851
438.04	2.867
438.39	3.642
438.75	3.486
439.10	3.352
439.45	3.365
439.81	2.598
440.16	3.162
440.51	2.812
440.86	3.532
441.22	3.003
441.57	3.769
441.92	3.582
442.27	3.175
442.63	3.370
442.98	3.944
443.33	3.478
443.68	3.459
444.03	3.270
444.39	3.213
444.74	3.355
445.09	3.181
445.44	2.843
445.79	3.266
446.15	3.441
446.50	3.123
446.85	3.032
447.20	3.162
447.55	3.406
447.91	2.868
448.26	3.005
448.61	3.448
448.96	3.821
449.31	3.543
449.66	3.883
450.02	3.120
450.37	2.381
450.72	3.440
451.07	3.352
451.42	2.736
451.77	3.934
452.12	3.580
452.47	3.109
452.83	3.147
453.18	3.301
453.53	3.030
453.88	2.540
454.23	3.527
454.58	3.998
454.93	3.687
455.28	2.868
455.63	3.580
455.98	3.929
456.34	3.015
456.69	3.820
457.04	3.096
457.39	2.805
457.74	3.134
458.09	3.623
458.44	2.623
458.79	2.874
459.14	3.386
459.49	3.327
459.84	2.992
460.19	3.064
460.54	3.414
460.89	3.566
461.24	3.522
461.59	4.648
461.94	3.268
462.29	3.561
462.64	2.808
462.99	2.798
463.34	3.400
463.69	3.064
464.04	3.884
464.39	3.652
464.74	3.327
465.09	2.955
465.44	3.102
465.79	2.629
466.14	3.941
466.49	3.393
466.84	3.970
467.19	3.440
467.54	3.938
467.89	3.481
468.24	3.432
468.59	3.907
468.94	2.688
469.29	3.213
469.64	3.414
469.99	3.789
470.34	2.708
470.68	3.305
471.03	2.925
471.38	2.919
471.73	3.065
472.08	3.553
472.43	3.015
472.78	2.831
473.13	3.787
473.48	3.121
473.83	3.293
474.17	3.298
474.52	3.474
474.87	3.795
475.22	3.714
475.57	3.332
475.92	3.027
476.27	3.269
476.61	3.144
476.96	3.353
477.31	3.087
477.66	3.556
478.01	2.927
478.36	3.702
478.70	3.063
479.05	3.355
479.40	3.531
479.75	3.457
480.10	2.783
480.45	3.570
480.79	2.723
481.14	3.082
481.49	3.892
481.84	3.201
482.19	3.090
482.53	3.578
482.88	3.816
483.23	3.738
483.58	3.776
483.92	3.889
484.27	2.614
484.62	3.147
484.97	3.272
485.31	3.493
485.66	3.245
486.01	3.003
486.36	2.917
486.70	2.782
487.05	3.112
487.40	2.554
487.75	3.094
488.09	3.094
488.44	2.602
488.79	3.183
489.13	2.597
489.48	2.936
489.83	2.805
490.17	3.025
490.52	2.436
490.87	3.030
491.22	3.274
491.56	2.688
491.91	2.885
492.26	2.986
492.60	3.088
492.95	2.947
493.30	3.318
493.64	2.940
493.99	3.157
494.34	3.238
494.68	3.800
495.03	3.289
495.37	3.350
495.72	2.973
496.07	3.202
496.41	2.566
496.76	3.034
497.11	3.017
497.45	3.354
497.80	3.119
498.14	3.043
498.49	2.780
498.84	3.931
499.18	2.714
499.53	3.229
499.87	3.308
500.22	3.391
500.56	3.786
500.91	3.125
501.26	3.272
501.60	3.180
501.95	3.208
502.29	3.327
502.64	3.538
502.98	2.852
503.33	3.656
503.67	3.202
504.02	4.116
504.36	4.024
504.71	3.175
505.06	3.663
505.40	3.014
505.75	3.038
506.09	2.721
506.44	2.763
506.78	3.653
507.13	3.180
507.47	3.586
507.82	3.445
508.16	3.293
508.51	3.146
508.85	3.426
509.19	3.010
509.54	3.571
509.88	3.555
510.23	3.239
510.57	3.664
510.92	3.625
511.26	3.494
511.61	3.890
511.95	3.027
512.30	3.128
512.64	3.546
512.98	3.483
513.33	3.426
513.67	3.735
514.02	2.868
514.36	3.386
514.70	3.985
515.05	3.067
515.39	3.421
515.74	3.491
516.08	4.304
516.42	4.051
516.77	4.236
517.11	3.718
517.46	3.837
517.80	4.123
518.14	3.301
518.49	3.792
518.83	4.034
519.17	3.695
519.52	3.339
519.86	3.822
520.20	4.509
520.55	4.010
520.89	3.650
521.23	4.343
521.58	4.022
521.92	3.858
522.26	3.295
522.61	3.240
522.95	3.069
523.29	4.200
523.64	4.390
523.98	3.943
524.32	3.920
524.66	4.149
525.01	4.044
525.35	4.151
525.69	3.695
526.04	3.738
526.38	4.637
526.72	4.417
527.06	3.955
527.41	3.403
527.75	4.180
528.09	3.789
528.43	4.270
528.78	4.425
529.12	3.636
529.46	4.103
529.80	4.765
530.15	4.299
530.49	3.631
530.83	4.620
531.17	4.178
531.51	4.540
531.86	4.258
532.20	3.977
532.54	4.548
532.88	4.429
533.22	4.247
533.57	4.136
533.91	4.636
534.25	3.827
534.59	3.783
534.93	4.938
535.27	4.164
535.62	4.212
535.96	4.018
536.30	3.751
536.64	4.185
536.98	3.583
537.32	3.028
537.66	4.533
538.01	4.740
538.35	4.137
538.69	4.850
539.03	3.444
539.37	3.387
539.71	3.435
540.05	4.052
540.39	3.588
540.73	3.881
541.07	4.867
541.42	4.892
541.76	5.032
542.10	4.204
542.44	4.106
542.78	5.204
543.12	3.839
543.46	4.131
543.80	3.578
544.14	3.466
544.48	4.127
544.82	3.271
545.16	4.294
545.50	4.370
545.84	3.696
546.18	4.242
546.52	3.923
546.86	3.574
547.20	4.653
547.54	4.810
547.88	5.676
548.22	4.545
548.56	4.025
548.90	3.777
549.24	3.434
549.58	3.956
549.92	3.777
550.26	4.332
550.60	3.873
550.94	4.225
551.28	3.365
551.62	3.882
551.96	4.000
552.30	4.300
552.64	4.327
552.98	5.085
553.32	4.855
553.66	4.772
554.00	4.324
554.34	4.141
554.68	5.651
555.02	4.302
555.36	4.175
555.69	4.263
556.03	5.182
556.37	5.048
556.71	4.570
557.05	4.132
557.39	4.409
557.73	3.952
558.07	3.843
558.41	4.052
558.75	4.188
559.08	3.878
559.42	3.855
559.76	4.485
560.10	3.569
560.44	4.892
560.78	4.325
561.12	4.354
561.45	4.759
561.79	4.812
562.13	4.158
562.47	4.918
562.81	4.393
563.15	4.281
563.48	5.040
563.82	3.457
564.16	3.532
564.50	3.711
564.84	4.930
565.17	4.376
565.51	4.345
565.85	3.934
566.19	3.694
566.52	4.813
566.86	3.918
567.20	4.186
567.54	3.767
567.88	4.237
568.21	4.709
568.55	4.449
568.89	3.891
569.23	3.832
569.56	4.372
569.90	4.415
570.24	3.983
570.57	4.148
570.91	4.202
571.25	3.521
571.59	4.212
571.92	3.831
572.26	3.871
572.60	4.204
572.93	3.808
573.27	4.407
573.61	4.132
573.95	4.238
574.28	3.543
574.62	4.349
574.96	3.943
575.29	3.928
575.63	3.887
575.97	4.087
576.30	4.089
576.64	3.892
576.98	3.816
577.31	3.581
577.65	3.909
577.98	4.081
578.32	3.852
578.66	3.920
578.99	4.109
579.33	4.067
579.67	3.551
580.00	4.004
580.34	3.821
580.67	3.663
581.01	4.115
581.35	4.091
581.68	3.887
582.02	3.848
582.35	4.033
582.69	3.942
583.02	3.955
583.36	4.081
583.70	3.646
584.03	3.997
584.37	4.137
584.70	3.945
585.04	4.183
585.37	4.054
585.71	4.347
586.04	4.204
586.38	4.232
586.72	4.225
587.05	4.265
587.39	4.090
587.72	4.329
588.06	4.029
588.39	4.252
588.73	3.960
589.06	4.145
589.40	3.872
589.73	4.259
590.07	4.128
590.40	3.617
590.73	3.825
591.07	4.233
591.40	4.133
591.74	3.983
592.07	3.970
592.41	4.754
592.74	4.232
593.08	4.197
593.41	4.302
593.75	4.247
594.08	4.257
594.41	4.277
594.75	3.956
595.08	4.295
595.42	4.133
595.75	3.775
596.09	4.318
596.42	4.479
596.75	3.883
597.09	5.065
597.42	4.047
597.75	4.312
598.09	4.391
598.42	3.909
598.76	4.054
599.09	3.763
599.42	4.258
599.76	4.136
600.09	3.971
600.42	3.579
600.76	4.000
601.09	4.262
601.42	4.110
601.76	4.820
602.09	4.625
602.42	4.379
602.76	3.990
603.09	4.681
603.42	4.451
603.76	4.116
604.09	3.761
604.42	4.280
604.76	4.344
605.09	4.543
605.42	4.275
605.75	4.139
606.09	3.660
606.42	3.882
606.75	4.023
607.09	4.772
607.42	4.022
607.75	4.346
608.08	3.995
608.42	4.572
608.75	4.148
609.08	4.394
609.41	4.379
609.75	4.002
610.08	4.147
610.41	3.399
610.74	3.027
611.07	3.903
611.41	3.827
611.74	4.827
612.07	4.503
612.40	4.092
612.73	4.105
613.07	4.741
613.40	5.003
613.73	3.566
614.06	4.516
614.39	3.776
614.72	3.895
615.06	4.989
615.39	4.087
615.72	4.601
616.05	3.721
616.38	3.613
616.71	4.810
617.05	4.535
617.38	4.330
617.71	4.324
618.04	4.026
618.37	4.376
618.70	4.169
619.03	5.263
619.36	4.073
619.69	4.437
620.03	4.670
620.36	4.412
620.69	4.932
621.02	4.572
621.35	3.524
621.68	3.583
622.01	4.489
622.34	4.841
622.67	4.867
623.00	3.888
623.33	4.360
623.66	3.788
623.99	3.976
624.32	4.422
624.65	4.379
624.99	3.329
625.32	4.055
625.65	4.733
625.98	4.689
626.31	4.666
626.64	5.143
626.97	4.904
627.30	4.572
627.63	5.004
627.96	5.130
628.29	4.637
628.62	4.941
628.95	5.283
629.28	4.653
629.61	5.500
629.94	3.905
630.26	4.004
630.59	4.385
630.92	3.544
631.25	2.863
631.58	4.805
631.91	5.071
632.24	3.797
632.57	4.512
632.90	4.386
633.23	4.139
633.56	5.085
633.89	4.190
634.22	4.313
634.55	5.207
634.88	3.473
635.20	4.659
635.53	5.783
635.86	4.084
636.19	5.412
636.52	4.960
636.85	4.926
637.18	3.687
637.51	5.201
637.83	2.589
638.16	3.708
638.49	4.408
638.82	5.563
639.15	5.125
639.48	5.985
639.81	4.558
640.13	6.120
640.46	4.966
640.79	6.473
641.12	3.439
641.45	4.330
641.77	4.124
642.10	4.678
642.43	1.952
642.76	4.180
643.09	6.135
643.41	4.249
643.74	7.562
644.07	4.726
644.40	6.442
644.73	5.827
645.05	5.071
645.38	4.897
645.71	5.153
646.04	4.983
646.36	5.676
646.69	6.020
647.02	5.952
647.35	4.467
647.67	5.310
648.00	6.667
648.33	3.300
648.66	5.909
648.98	6.447
649.31	3.587
649.64	3.737
649.96	4.769
650.29	3.633
650.62	4.693
650.94	4.862
651.27	5.405
651.60	4.493
651.92	5.751
652.25	4.397
652.58	6.075
652.90	4.897
653.23	3.544
653.56	4.882
653.88	5.388
654.21	6.951
654.54	3.960
654.86	5.296
655.19	5.270
655.52	3.288
655.84	3.662
656.17	4.220
656.49	5.762
656.82	5.738
657.15	4.401
657.47	3.208
657.80	2.485
658.13	2.533
658.45	3.571
658.78	3.712
659.10	3.753
659.43	3.948
659.75	3.439
660.08	3.861
660.41	3.445
660.73	4.066
661.06	3.822
661.38	4.727
661.71	5.192
662.03	7.298
662.36	3.777
662.68	6.225
663.01	4.444
663.33	2.335
663.66	6.092
663.98	2.592
664.31	3.571
664.63	3.846
664.96	2.213
665.28	4.918
665.61	5.653
665.93	2.616
666.26	3.651
666.58	5.021
666.91	8.457
667.23	3.820
667.56	3.888
667.88	3.846
668.21	5.330
668.53	5.857
668.86	6.277
669.18	5.757
669.50	5.217
669.83	7.407
670.15	5.333
670.48	5.011
670.80	5.603
671.13	6.794
671.45	4.255
671.77	6.925
672.10	6.839
672.42	3.004
672.75	4.478
673.07	3.697
673.39	5.063
673.72	2.539
674.04	3.137
674.37	3.883
674.69	3.476
675.01	3.556
675.34	6.776
675.66	6.526
675.98	7.536
676.31	6.303
676.63	7.431
676.95	4.193
677.28	2.336
677.60	4.176
677.92	6.118
678.25	5.339
678.57	4.980
678.89	4.208
679.22	3.536
679.54	5.725
679.86	6.239
680.18	5.367
680.51	4.255
680.83	5.338
681.15	4.528
681.48	6.994
681.80	4.642
682.12	4.215
682.44	4.642
682.77	5.906
683.09	7.511
683.41	5.100
683.73	4.194
684.06	4.752
684.38	5.479
684.70	5.620
685.02	6.191
685.34	6.044
685.67	2.972
685.99	5.155
686.31	3.413
686.63	4.417
686.96	5.179
687.28	3.610
687.60	3.623
687.92	5.850
688.24	4.753
688.56	7.028
688.89	7.469
689.21	7.205
689.53	3.967
689.85	3.548
690.17	1.656
690.49	7.431
690.82	4.439
691.14	4.911
691.46	3.797
691.78	4.217
692.10	4.959
692.42	6.188
692.74	4.149
693.06	4.255
693.39	4.107
693.71	3.930
694.03	5.053
694.35	4.545
694.67	2.288
694.99	5.366
695.31	1.961
695.63	5.024
695.95	4.645
696.27	2.030
696.59	3.368
696.91	6.218
697.23	2.347
697.56	5.757
697.88	2.249
698.20	4.167
698.52	4.731
698.84	7.350
699.16	2.995
699.48	3.800
699.80	5.797
700.12	9.091
700.44	4.244
700.76	7.735
701.08	4.598
701.40	2.514
701.72	4.956
702.04	7.670
702.36	3.683
702.68	5.099
703.00	5.817
703.32	3.723
703.64	6.166
703.96	5.292
704.28	6.686
704.60	5.279
704.91	5.341
705.23	6.158
705.55	4.651
705.87	6.312
706.19	1.767
706.51	5.607
706.83	3.636
707.15	4.762
707.47	5.808
707.79	5.405
708.11	4.338
708.43	3.095
708.74	4.592
709.06	7.273
709.38	4.724
709.70	6.977
710.02	5.638
710.34	2.424
710.66	5.970
710.98	5.966
711.29	6.395
711.61	7.080
711.93	1.603
712.25	6.752
712.57	2.574
712.89	3.460
713.20	2.736
713.52	2.632
713.84	4.114
714.16	4.268
714.48	5.460
714.80	9.119
715.11	3.746
715.43	5.341
715.75	3.478
716.07	7.029
716.39	3.762
716.70	6.645
717.02	5.396
717.34	5.654
717.66	8.209
717.97	4.781
718.29	5.926
718.61	2.190
718.93	2.574
719.24	7.958
719.56	6.780
719.88	2.712
720.20	7.432
720.51	5.575
720.83	7.063
721.15	2.985
721.46	5.674
721.78	8.602
722.10	7.170
722.42	6.391
722.73	5.993
723.05	2.049
723.37	5.668
723.68	7.336
724.00	1.626
724.32	5.645
724.63	6.098
724.95	0.837
725.27	6.073
725.58	7.422
725.90	5.839
726.22	4.528
726.53	4.861
726.85	5.802
727.16	7.829
727.48	5.319
727.80	4.924
728.11	9.783
728.43	3.846
728.74	5.018
729.06	4.745
729.38	9.559
729.69	5.338
730.01	5.461
730.32	3.125
730.64	7.692
730.96	6.601
731.27	5.960
731.59	6.728
731.90	7.289
732.22	5.280
732.53	4.334
732.85	4.808
733.16	4.502
733.48	4.651
733.80	3.896
734.11	8.599
734.43	5.917
734.74	3.143
735.06	3.725
735.37	6.647
735.69	4.459
736.00	8.170
736.32	9.034
736.63	4.473
736.95	5.431
737.26	0.000
737.58	2.258
737.89	5.686
738.21	2.389
738.52	4.643
738.83	1.887
739.15	2.308
739.46	6.204
739.78	7.292
740.09	4.000
740.41	7.097
740.72	4.181
741.04	6.667
741.35	4.583
741.66	7.556
741.98	3.774
742.29	4.306
742.61	10.776
742.92	6.335
743.23	5.556
743.55	4.800
743.86	6.579
744.18	7.522
744.49	2.392
744.80	6.103
745.12	9.091
745.43	8.370
745.74	3.604
746.06	6.881
746.37	3.139
746.68	4.525
747.00	6.944
747.31	3.810
747.62	2.655
747.94	6.167
748.25	-0.851
748.56	9.251
748.88	6.436
749.19	6.000
749.50	6.977
749.82	3.659
750.13	3.673
750.44	6.569
750.75	2.807
751.07	9.646
751.38	7.666
751.69	8.664
752.01	7.143
752.32	4.332
752.63	5.319
752.94	4.508
753.26	8.000
753.57	6.911
753.88	12.109
754.19	7.857
754.51	5.903
754.82	3.971
755.13	6.792
755.44	4.887
755.75	4.380
756.07	4.965
756.38	2.555
756.69	4.027
757.00	4.192
757.31	5.045
757.63	7.018
757.94	6.166
758.25	4.167
758.56	1.481
758.87	4.839
759.18	5.455
759.50	4.702
759.81	7.165
760.12	2.500
760.43	6.304
760.74	4.891
761.05	6.215
761.36	6.417
761.67	5.114
761.99	2.174
762.30	4.514
762.61	4.962
762.92	7.812
763.23	6.723
763.54	6.000
763.85	4.688
764.16	6.538
764.47	13.308
764.78	3.887
765.10	4.747
765.41	4.720
765.72	7.784
766.03	6.897
766.34	5.000
766.65	4.681
766.96	6.838
767.27	6.091
767.58	3.125
767.89	10.000
768.20	9.770
768.51	8.122
768.82	12.385
769.13	5.691
769.44	5.668
769.75	3.004
770.06	0.459
770.37	7.692
770.68	7.870
770.99	2.667
771.30	4.098
771.61	6.278
771.92	6.148
772.23	10.924
772.54	7.692
772.85	7.330
773.16	10.106
773.47	8.152
773.78	9.137
774.09	4.762
774.39	6.433
774.70	3.086
775.01	-1.449
775.32	15.033
775.63	13.816
775.94	5.036
776.25	11.024
776.56	5.970
776.87	2.459
777.18	4.688
777.48	9.160
777.79	3.030
778.10	6.667
778.41	8.036
778.72	-1.460
779.03	10.067
779.34	5.369
779.65	3.378
779.95	5.521
780.26	10.458
780.57	13.793
780.88	10.938
781.19	9.774
781.50	12.162
781.80	7.547
782.11	4.520
782.42	6.329
782.73	3.067
783.04	6.757
783.34	11.268
783.65	17.123
783.96	11.194
784.27	2.797
784.57	-2.158
784.88	-5.556
785.19	20.635
785.50	3.774
785.81	11.194
786.11	5.738
786.42	16.279
786.73	-0.885
787.04	16.038
787.34	12.500
787.65	9.000
787.96	4.505
788.26	9.917
788.57	16.949
788.88	18.182
789.19	20.139
789.49	17.424
789.80	6.870
790.11	13.333
790.41	12.871
790.72	6.024
791.03	16.304
791.33	8.140
791.64	11.340
791.95	14.851
792.25	11.111
792.56	14.286
792.87	2.564
793.17	18.987
793.48	8.046
793.79	13.793
794.09	14.773
794.40	0.000
794.70	16.912
795.01	5.185
795.32	10.791
795.62	11.024
795.93	13.793
796.23	11.504
796.54	5.882
796.85	-9.459
797.15	25.352
797.46	-3.030
797.76	14.458
798.07	11.392
798.37	-7.692
798.68	6.061
798.99	-1.408
799.29	7.792
799.60	11.364
799.90	15.068
800.21	7.463
800.51	3.448
800.82	17.544
801.12	18.033
801.43	13.636
801.73	0.000
802.04	14.286
802.34	27.160
802.65	20.313
802.95	23.729
803.26	26.562
803.56	7.143
803.87	4.615
804.17	19.118
804.48	25.926
804.78	5.172
805.09	13.235
805.39	5.769
805.70	1.786
806.00	11.475
806.30	4.545
806.61	14.634
806.91	2.532
807.22	11.842
807.52	-16.418
807.83	5.634
808.13	18.750
808.43	1.667
808.74	3.947
809.04	11.594
809.35	-1.493
809.65	18.421
809.95	22.581
810.26	8.475
810.56	12.698
810.86	25.000
811.17	11.905
811.47	30.000
811.77	33.333
812.08	23.636
812.38	30.000
812.69	-5.556
812.99	29.545
813.29	20.408
813.59	-4.762
813.90	32.653
814.20	9.091
814.50	23.077
814.81	11.765
815.11	14.286
815.41	19.672
815.72	33.333
816.02	16.364
816.32	16.667
816.62	22.500
816.93	7.317
817.23	26.190
817.53	11.364
817.84	12.121
818.14	28.261
818.44	31.111
818.74	2.941
819.04	10.000
819.35	8.571
819.65	47.059
819.95	-3.571
820.25	-15.000
820.56	46.154
820.86	31.818
821.16	37.209
821.46	38.462
821.76	42.000
822.07	8.571
822.37	25.000
822.67	24.242
822.97	35.294
823.27	17.857
823.57	37.838
823.88	17.500
824.18	23.333
824.48	38.095
824.78	40.000
825.08	-16.667
825.38	37.838
825.69	17.073
825.99	4.167
826.29	20.690
826.59	34.211
826.89	-2.632
827.19	20.588
827.49	0.000
827.79	38.636
828.09	15.909
828.39	17.021
828.70	40.816
829.00	33.333
829.30	3.226
829.60	22.500
829.90	-20.000
830.20	14.286
830.50	21.739
830.80	30.435
831.10	50.000
831.40	46.667
831.70	-8.696
832.00	50.000
832.30	55.556
832.60	12.500
832.90	53.333
833.20	0.000
833.50	29.032
833.80	10.345
834.10	43.750
834.40	73.077
834.70	77.778
835.00	52.381
835.30	31.429
835.60	7.692
835.90	31.034
836.20	-7.143
836.50	27.586
836.80	-16.000
837.10	41.667
837.40	-4.762
837.70	35.294
838.00	3.704
838.30	47.619
838.60	128.571
838.90	73.077
839.19	55.000
839.49	71.429
839.79	80.000
840.09	10.000
840.39	80.952
840.69	60.870
840.99	11.111
841.29	30.000
841.59	-41.667
841.88	6.250
842.18	13.793
842.48	33.333
842.78	10.000
843.08	34.783
843.38	43.750
843.68	-116.667
843.97	30.769
844.27	48.276
844.57	4.762
844.87	18.750
845.17	44.444
845.47	-166.667
845.76	33.333
846.06	70.588
846.36	-112.500
846.66	50.000
846.96	12.500
847.25	72.727
847.55	36.364
847.85	39.130
848.15	70.000
848.44	7.143
848.74	27.778
849.04	35.294
849.34	130.000
849.63	10.526
849.93	27.273
850.23	120.000
850.53	78.571
850.82	50.000
851.12	100.000
851.42	-100.000
851.71	20.000
852.01	-0.000
852.31	62.500
852.61	-33.333
852.90	76.190
853.20	72.000
853.50	64.706
853.79	57.143
854.09	25.000
854.39	62.500
854.68	45.946
854.98	54.839
855.28	10.000
855.57	65.517
855.87	29.630
856.17	-31.579
856.46	-33.333
856.76	35.294
857.05	86.207
857.35	37.500
857.65	13.333
857.94	52.174
858.24	80.769
858.53	10.000
858.83	59.091
859.13	86.667
859.42	0.000
859.72	-33.333
860.01	18.182
860.31	54.545
860.60	78.947
860.90	13.043
861.20	11.111
861.49	116.667
861.79	200.000
862.08	212.500
862.38	52.381
862.67	38.462
862.97	70.588
863.26	-55.556
863.56	16.667
863.85	33.333
864.15	-62.500
864.44	100.000
864.74	50.000
865.03	112.500
865.33	15.789
865.62	81.818
865.92	61.538
866.21	8.333
866.51	0.000
866.80	54.545
867.10	220.000
867.39	69.231
867.69	18.182
867.98	5.263
868.27	100.000
868.57	68.421
868.86	-400.000
869.16	25.000
869.45	150.000
869.75	100.000
870.04	33.333
870.33	14.286
870.63	-50.000
870.92	450.000
871.22	100.000
871.51	17.647
871.80	28.571
872.10	28.571
>>>>>End Processed Spectral Data<<<<<
