SpectraSuite Data File
++++++++++++++++++++++++++++++++++++
Date: Wed May 13 16:00:32 PDT 2015
User: schluterlab
Dark Spectrum Present: Yes
Reference Spectrum Present: Yes
Number of Sampled Component Spectra: 1
Spectrometers: USB2E3373
Integration Time (usec): 3000 (USB2E3373)
Spectra Averaged: 3 (USB2E3373)
Boxcar Smoothing: 0 (USB2E3373)
Correct for Electrical Dark: No (USB2E3373)
Strobe/Lamp Enabled: No (USB2E3373)
Correct for Detector Non-linearity: No (USB2E3373)
Correct for Stray Light: No (USB2E3373)
Number of Pixels in Processed Spectrum: 2048
>>>>>Begin Processed Spectral Data<<<<<
178.53	0.000
178.91	-400.000
179.29	-200.000
179.67	-22.222
180.04	-525.000
180.42	500.000
180.80	400.000
181.18	-275.000
181.56	171.429
181.94	0.000
182.31	-85.714
182.69	666.667
183.07	-112.500
183.45	-77.778
183.83	145.455
184.20	-50.000
184.58	450.000
184.96	3200.000
185.34	-280.000
185.72	-187.500
186.09	-600.000
186.47	400.000
186.85	300.000
187.23	800.000
187.61	-400.000
187.98	125.000
188.36	190.909
188.74	136.364
189.12	-220.000
189.49	190.000
189.87	-1600.000
190.25	-175.000
190.63	242.857
191.00	169.231
191.38	300.000
191.76	-375.000
192.14	525.000
192.51	225.000
192.89	316.667
193.27	150.000
193.65	-350.000
194.02	150.000
194.40	160.000
194.78	220.000
195.15	250.000
195.53	290.000
195.91	-500.000
196.29	143.750
196.66	189.474
197.04	60.000
197.42	0.000
197.79	260.000
198.17	-1200.000
198.55	57.143
198.92	225.000
199.30	200.000
199.68	0.000
200.05	172.222
200.43	442.857
200.81	900.000
201.18	533.333
201.56	-600.000
201.94	222.222
202.31	233.333
202.69	166.667
203.07	120.000
203.44	0.000
203.82	350.000
204.19	242.857
204.57	221.429
204.95	275.000
205.32	300.000
205.70	209.091
206.08	157.143
206.45	600.000
206.83	125.000
207.20	350.000
207.58	140.000
207.96	72.222
208.33	125.000
208.71	-316.667
209.08	385.714
209.46	211.111
209.84	127.273
210.21	-433.333
210.59	500.000
210.96	-87.500
211.34	750.000
211.71	230.000
212.09	233.333
212.46	0.000
212.84	366.667
213.22	425.000
213.59	-800.000
213.97	300.000
214.34	285.714
214.72	272.727
215.09	100.000
215.47	-450.000
215.84	-800.000
216.22	533.333
216.59	107.143
216.97	400.000
217.34	127.273
217.72	16.667
218.09	0.000
218.47	-1200.000
218.84	344.444
219.22	257.143
219.59	833.333
219.97	-142.857
220.34	260.000
220.72	-466.667
221.09	228.571
221.47	625.000
221.84	-400.000
222.22	0.000
222.59	325.000
222.97	-550.000
223.34	560.000
223.72	161.538
224.09	420.000
224.46	600.000
224.84	-1400.000
225.21	-340.000
225.59	-1100.000
225.96	220.000
226.34	120.000
226.71	1000.000
227.08	225.000
227.46	230.000
227.83	-200.000
228.21	-300.000
228.58	144.444
228.95	-800.000
229.33	-600.000
229.70	433.333
230.08	200.000
230.45	-140.000
230.82	125.000
231.20	366.667
231.57	71.429
231.95	216.667
232.32	50.000
232.69	81.818
233.07	-14.286
233.44	123.077
233.81	-833.333
234.19	136.842
234.56	83.333
234.93	75.000
235.31	163.636
235.68	92.308
236.05	128.571
236.43	87.879
236.80	110.526
237.17	600.000
237.55	42.857
237.92	103.571
238.29	95.238
238.67	70.968
239.04	113.793
239.41	52.778
239.79	34.783
240.16	73.810
240.53	70.455
240.91	66.667
241.28	40.000
241.65	46.000
242.02	49.275
242.40	59.677
242.77	48.333
243.14	50.538
243.51	58.427
243.89	47.059
244.26	18.889
244.63	22.581
245.00	34.043
245.38	41.584
245.75	41.121
246.12	38.532
246.49	42.336
246.87	36.800
247.24	40.769
247.61	40.714
247.98	36.601
248.36	26.351
248.73	31.847
249.10	34.395
249.47	34.463
249.84	37.968
250.22	31.016
250.59	28.402
250.96	32.828
251.33	33.649
251.70	33.663
252.08	30.000
252.45	32.287
252.82	30.870
253.19	35.319
253.56	29.804
253.94	32.365
254.31	29.688
254.68	34.231
255.05	31.365
255.42	32.520
255.79	29.779
256.16	31.769
256.54	32.509
256.91	29.537
257.28	28.058
257.65	30.693
258.02	29.193
258.39	30.284
258.76	29.097
259.14	32.143
259.51	29.787
259.88	28.882
260.25	31.118
260.62	28.613
260.99	33.851
261.36	33.333
261.73	32.951
262.10	27.616
262.47	30.141
262.85	28.134
263.22	25.071
263.59	32.194
263.96	26.648
264.33	30.548
264.70	30.526
265.07	32.737
265.44	31.566
265.81	26.521
266.18	30.402
266.55	28.293
266.92	28.501
267.29	32.407
267.66	27.294
268.03	28.182
268.40	29.206
268.77	26.730
269.14	27.252
269.51	28.442
269.88	31.935
270.25	29.345
270.62	28.090
270.99	28.172
271.36	26.395
271.73	25.935
272.10	28.696
272.47	27.742
272.84	29.654
273.21	27.883
273.58	26.201
273.95	27.463
274.32	24.174
274.69	27.409
275.06	25.787
275.43	29.149
275.80	27.255
276.17	27.291
276.54	29.522
276.91	26.482
277.28	29.492
277.65	26.692
278.02	27.743
278.39	30.078
278.76	29.273
279.13	25.660
279.50	26.816
279.87	26.494
280.23	26.547
280.60	26.499
280.97	26.617
281.34	26.195
281.71	27.273
282.08	27.831
282.45	25.636
282.82	26.998
283.19	22.816
283.56	24.386
283.92	26.904
284.29	24.868
284.66	27.042
285.03	24.955
285.40	25.528
285.77	26.936
286.14	25.907
286.51	26.667
286.87	25.470
287.24	27.362
287.61	25.682
287.98	25.812
288.35	24.723
288.72	23.676
289.08	24.413
289.45	22.405
289.82	23.902
290.19	22.763
290.56	23.583
290.93	22.659
291.29	25.000
291.66	24.189
292.03	24.273
292.40	25.404
292.77	22.633
293.13	23.881
293.50	21.574
293.87	23.704
294.24	21.926
294.60	20.378
294.97	21.948
295.34	23.131
295.71	23.295
296.08	20.370
296.44	20.633
296.81	20.740
297.18	22.629
297.55	20.580
297.91	21.504
298.28	21.821
298.65	21.018
299.02	23.057
299.38	20.850
299.75	19.946
300.12	21.584
300.48	21.250
300.85	20.962
301.22	21.146
301.59	21.717
301.95	21.033
302.32	20.924
302.69	20.550
303.05	21.576
303.42	20.864
303.79	19.706
304.15	19.930
304.52	20.394
304.89	20.790
305.25	21.346
305.62	20.498
305.99	21.606
306.35	21.141
306.72	21.300
307.09	20.422
307.45	21.847
307.82	18.973
308.19	21.634
308.55	20.496
308.92	22.127
309.29	20.169
309.65	21.845
310.02	20.613
310.38	22.796
310.75	22.809
311.12	22.825
311.48	21.526
311.85	22.537
312.22	22.997
312.58	22.557
312.95	23.548
313.31	22.524
313.68	23.909
314.05	24.852
314.41	23.719
314.78	24.371
315.14	23.237
315.51	25.438
315.87	23.762
316.24	24.230
316.61	24.951
316.97	26.027
317.34	24.364
317.70	25.430
318.07	25.794
318.43	26.321
318.80	26.710
319.16	27.872
319.53	27.017
319.89	27.619
320.26	29.500
320.62	28.373
320.99	27.576
321.35	27.475
321.72	29.877
322.08	29.911
322.45	30.746
322.81	31.105
323.18	30.925
323.54	31.262
323.91	30.755
324.27	32.122
324.64	31.594
325.00	31.289
325.37	34.031
325.73	34.560
326.10	33.981
326.46	34.498
326.83	33.305
327.19	34.842
327.56	34.930
327.92	35.783
328.29	36.380
328.65	36.464
329.01	38.177
329.38	37.373
329.74	36.196
330.11	36.098
330.47	37.557
330.84	38.051
331.20	37.796
331.56	37.890
331.93	37.963
332.29	38.332
332.66	39.469
333.02	38.483
333.38	39.476
333.75	39.483
334.11	39.324
334.48	38.864
334.84	39.154
335.20	40.000
335.57	38.985
335.93	37.857
336.29	38.462
336.66	39.225
337.02	38.009
337.38	40.185
337.75	39.216
338.11	39.928
338.47	40.239
338.84	39.872
339.20	38.440
339.56	40.876
339.93	39.182
340.29	38.768
340.65	40.018
341.02	39.354
341.38	40.214
341.74	39.123
342.11	40.000
342.47	39.031
342.83	39.640
343.20	40.346
343.56	38.837
343.92	38.860
344.28	39.116
344.65	39.467
345.01	39.394
345.37	39.108
345.73	39.171
346.10	39.983
346.46	40.085
346.82	39.703
347.19	39.933
347.55	39.901
347.91	40.453
348.27	41.331
348.63	41.221
349.00	39.806
349.36	40.640
349.72	39.294
350.08	39.708
350.45	40.358
350.81	40.942
351.17	41.248
351.53	41.114
351.89	40.924
352.26	41.989
352.62	41.219
352.98	41.248
353.34	42.810
353.70	40.835
354.07	40.565
354.43	41.349
354.79	40.386
355.15	40.702
355.51	41.966
355.87	43.020
356.24	42.427
356.60	42.422
356.96	43.604
357.32	42.191
357.68	43.071
358.04	41.251
358.40	42.835
358.77	43.036
359.13	41.831
359.49	42.275
359.85	43.095
360.21	43.620
360.57	42.646
360.93	43.231
361.29	43.235
361.66	42.802
362.02	43.134
362.38	43.726
362.74	43.824
363.10	43.671
363.46	43.067
363.82	43.311
364.18	44.934
364.54	45.914
364.90	45.184
365.26	45.147
365.62	45.946
365.98	45.581
366.35	45.201
366.71	45.336
367.07	45.521
367.43	46.226
367.79	47.181
368.15	46.983
368.51	45.058
368.87	46.752
369.23	47.842
369.59	46.560
369.95	46.985
370.31	46.368
370.67	47.319
371.03	48.015
371.39	46.501
371.75	48.529
372.11	47.724
372.47	49.707
372.83	49.207
373.19	47.399
373.55	49.593
373.91	49.705
374.27	48.522
374.63	49.891
374.99	50.000
375.35	49.826
375.71	50.308
376.07	50.960
376.42	51.169
376.78	51.491
377.14	50.475
377.50	51.523
377.86	51.729
378.22	52.402
378.58	51.065
378.94	52.294
379.30	52.735
379.66	53.236
380.02	53.194
380.38	53.673
380.74	53.601
381.09	53.667
381.45	55.132
381.81	54.975
382.17	55.414
382.53	55.094
382.89	55.679
383.25	55.472
383.61	56.877
383.97	55.535
384.32	55.708
384.68	56.939
385.04	56.607
385.40	55.975
385.76	56.572
386.12	55.440
386.48	57.835
386.83	59.333
387.19	58.936
387.55	57.947
387.91	57.195
388.27	58.430
388.62	58.697
388.98	59.152
389.34	58.636
389.70	57.020
390.06	58.302
390.42	59.598
390.77	59.860
391.13	61.072
391.49	59.708
391.85	59.707
392.20	59.243
392.56	60.543
392.92	61.801
393.28	60.118
393.64	60.132
393.99	60.476
394.35	60.050
394.71	60.289
395.07	60.685
395.42	61.496
395.78	61.196
396.14	60.770
396.50	62.719
396.85	62.683
397.21	62.392
397.57	61.934
397.92	62.019
398.28	61.491
398.64	62.306
399.00	62.451
399.35	62.437
399.71	61.863
400.07	62.744
400.42	62.454
400.78	62.786
401.14	61.951
401.49	63.104
401.85	62.250
402.21	61.377
402.57	61.875
402.92	63.367
403.28	62.961
403.63	63.676
403.99	64.395
404.35	63.333
404.70	62.650
405.06	61.910
405.42	63.818
405.77	62.629
406.13	62.810
406.49	64.281
406.84	63.556
407.20	62.648
407.55	63.369
407.91	64.200
408.27	64.582
408.62	64.419
408.98	62.377
409.34	63.469
409.69	64.387
410.05	63.383
410.40	64.159
410.76	64.576
411.11	63.450
411.47	62.492
411.83	63.409
412.18	63.265
412.54	63.512
412.89	63.916
413.25	63.695
413.60	64.978
413.96	63.084
414.31	64.885
414.67	64.322
415.03	62.914
415.38	63.853
415.74	64.695
416.09	64.729
416.45	65.930
416.80	64.574
417.16	65.416
417.51	65.826
417.87	64.033
418.22	64.732
418.58	64.300
418.93	64.128
419.29	64.481
419.64	65.113
420.00	64.329
420.35	64.522
420.71	65.571
421.06	65.095
421.42	64.561
421.77	64.742
422.12	64.009
422.48	64.382
422.83	65.754
423.19	63.923
423.54	64.945
423.90	65.855
424.25	64.824
424.61	65.298
424.96	65.714
425.31	65.227
425.67	63.933
426.02	64.857
426.38	66.422
426.73	64.658
427.09	65.289
427.44	66.532
427.79	65.842
428.15	65.536
428.50	65.769
428.85	64.958
429.21	64.274
429.56	66.045
429.92	64.821
430.27	64.449
430.62	63.953
430.98	65.542
431.33	65.412
431.68	66.126
432.04	65.495
432.39	65.848
432.74	67.086
433.10	66.327
433.45	66.997
433.80	66.851
434.16	66.079
434.51	65.789
434.86	67.617
435.22	67.371
435.57	67.173
435.92	66.881
436.28	66.607
436.63	66.004
436.98	66.686
437.34	67.382
437.69	66.861
438.04	67.173
438.39	67.343
438.75	66.996
439.10	67.654
439.45	66.057
439.81	68.036
440.16	66.460
440.51	67.428
440.86	67.863
441.22	66.240
441.57	66.030
441.92	69.191
442.27	67.815
442.63	66.983
442.98	68.000
443.33	66.087
443.68	67.992
444.03	67.057
444.39	67.186
444.74	67.370
445.09	68.086
445.44	66.648
445.79	65.908
446.15	66.596
446.50	67.905
446.85	68.705
447.20	67.874
447.55	69.235
447.91	66.630
448.26	67.334
448.61	66.591
448.96	66.999
449.31	67.604
449.66	66.179
450.02	66.462
450.37	66.780
450.72	67.513
451.07	67.398
451.42	66.201
451.77	67.234
452.12	66.455
452.47	66.542
452.83	67.890
453.18	66.626
453.53	68.707
453.88	67.041
454.23	67.723
454.58	66.747
454.93	68.341
455.28	67.269
455.63	68.689
455.98	69.167
456.34	67.651
456.69	67.063
457.04	68.421
457.39	66.628
457.74	67.266
458.09	68.028
458.44	67.617
458.79	67.137
459.14	67.664
459.49	68.126
459.84	67.036
460.19	66.470
460.54	64.699
460.89	66.210
461.24	67.517
461.59	67.577
461.94	65.290
462.29	67.537
462.64	67.326
462.99	66.884
463.34	67.600
463.69	66.917
464.04	66.377
464.39	66.145
464.74	66.429
465.09	67.189
465.44	65.762
465.79	66.163
466.14	65.134
466.49	65.184
466.84	66.725
467.19	65.540
467.54	64.562
467.89	65.306
468.24	66.085
468.59	65.446
468.94	64.997
469.29	66.710
469.64	65.930
469.99	67.253
470.34	65.720
470.68	67.313
471.03	65.578
471.38	67.894
471.73	65.889
472.08	66.382
472.43	65.264
472.78	65.964
473.13	65.661
473.48	66.042
473.83	66.037
474.17	63.783
474.52	65.447
474.87	66.783
475.22	65.583
475.57	64.105
475.92	64.950
476.27	65.558
476.61	65.582
476.96	66.245
477.31	65.411
477.66	66.685
478.01	63.461
478.36	64.622
478.70	64.953
479.05	64.377
479.40	64.381
479.75	64.362
480.10	65.358
480.45	63.589
480.79	63.832
481.14	65.020
481.49	64.974
481.84	63.832
482.19	65.561
482.53	63.349
482.88	63.518
483.23	65.327
483.58	63.330
483.92	64.480
484.27	62.353
484.62	63.879
484.97	63.145
485.31	63.493
485.66	61.996
486.01	60.391
486.36	59.700
486.70	59.370
487.05	59.653
487.40	60.649
487.75	61.747
488.09	62.451
488.44	62.275
488.79	64.051
489.13	63.675
489.48	62.724
489.83	63.315
490.17	63.525
490.52	61.957
490.87	63.636
491.22	62.483
491.56	61.731
491.91	62.355
492.26	62.563
492.60	62.811
492.95	62.067
493.30	62.336
493.64	62.483
493.99	61.699
494.34	63.506
494.68	62.821
495.03	62.453
495.37	61.564
495.72	62.671
496.07	63.248
496.41	60.398
496.76	61.478
497.11	61.414
497.45	62.366
497.80	61.564
498.14	62.174
498.49	62.049
498.84	61.649
499.18	62.238
499.53	61.254
499.87	61.650
500.22	61.470
500.56	62.816
500.91	60.529
501.26	61.166
501.60	63.265
501.95	60.541
502.29	63.355
502.64	61.825
502.98	61.805
503.33	60.375
503.67	61.021
504.02	60.384
504.36	60.739
504.71	63.068
505.06	61.398
505.40	61.108
505.75	60.704
506.09	60.204
506.44	60.829
506.78	60.692
507.13	61.434
507.47	61.162
507.82	62.259
508.16	60.790
508.51	62.050
508.85	60.675
509.19	60.510
509.54	59.949
509.88	60.690
510.23	61.542
510.57	61.662
510.92	61.626
511.26	60.586
511.61	61.359
511.95	60.386
512.30	60.657
512.64	60.989
512.98	60.557
513.33	60.385
513.67	60.459
514.02	60.227
514.36	61.988
514.70	61.815
515.05	60.848
515.39	61.638
515.74	61.092
516.08	61.599
516.42	60.488
516.77	61.817
517.11	60.988
517.46	61.287
517.80	61.789
518.14	60.857
518.49	62.719
518.83	60.568
519.17	61.316
519.52	60.102
519.86	59.726
520.20	60.578
520.55	62.537
520.89	62.226
521.23	62.364
521.58	61.104
521.92	61.543
522.26	60.403
522.61	62.118
522.95	60.773
523.29	61.899
523.64	61.585
523.98	62.046
524.32	59.952
524.66	60.794
525.01	61.887
525.35	61.090
525.69	58.744
526.04	60.810
526.38	60.098
526.72	59.448
527.06	61.268
527.41	57.116
527.75	61.350
528.09	60.116
528.43	61.122
528.78	59.988
529.12	58.970
529.46	60.012
529.80	60.396
530.15	60.062
530.49	59.200
530.83	58.861
531.17	59.661
531.51	60.700
531.86	59.484
532.20	59.518
532.54	60.346
532.88	60.205
533.22	59.900
533.57	59.321
533.91	58.820
534.25	59.295
534.59	59.610
534.93	58.537
535.27	58.962
535.62	58.364
535.96	58.945
536.30	58.423
536.64	58.725
536.98	59.522
537.32	59.052
537.66	59.533
538.01	59.315
538.35	58.759
538.69	59.158
539.03	58.025
539.37	56.997
539.71	57.356
540.05	58.431
540.39	58.870
540.73	57.697
541.07	56.976
541.42	58.969
541.76	58.581
542.10	57.374
542.44	57.748
542.78	57.773
543.12	56.366
543.46	56.525
543.80	57.059
544.14	56.226
544.48	56.190
544.82	56.382
545.16	57.970
545.50	57.326
545.84	56.519
546.18	56.902
546.52	57.949
546.86	57.113
547.20	57.721
547.54	55.110
547.88	55.995
548.22	56.600
548.56	55.849
548.90	56.466
549.24	56.902
549.58	57.367
549.92	56.525
550.26	57.670
550.60	56.432
550.94	56.549
551.28	56.328
551.62	56.434
551.96	56.772
552.30	55.836
552.64	57.133
552.98	56.746
553.32	56.372
553.66	56.714
554.00	56.143
554.34	54.934
554.68	57.511
555.02	56.206
555.36	55.880
555.69	55.480
556.03	56.124
556.37	56.207
556.71	55.389
557.05	54.482
557.39	54.934
557.73	55.963
558.07	55.838
558.41	54.631
558.75	55.694
559.08	56.078
559.42	55.933
559.76	55.221
560.10	54.675
560.44	56.045
560.78	54.291
561.12	53.430
561.45	55.346
561.79	53.659
562.13	55.131
562.47	55.123
562.81	55.509
563.15	52.107
563.48	54.642
563.82	55.055
564.16	53.957
564.50	53.320
564.84	53.919
565.17	53.282
565.51	54.505
565.85	53.997
566.19	53.413
566.52	54.402
566.86	53.285
567.20	52.948
567.54	53.253
567.88	51.548
568.21	51.905
568.55	52.174
568.89	51.751
569.23	50.624
569.56	50.283
569.90	51.170
570.24	50.664
570.57	50.085
570.91	48.869
571.25	49.166
571.59	49.219
571.92	49.050
572.26	48.989
572.60	49.730
572.93	49.235
573.27	49.660
573.61	48.995
573.95	49.690
574.28	48.442
574.62	48.518
574.96	48.530
575.29	47.890
575.63	48.145
575.97	48.581
576.30	48.513
576.64	48.016
576.98	48.250
577.31	48.498
577.65	48.643
577.98	47.728
578.32	47.399
578.66	47.883
578.99	47.820
579.33	48.051
579.67	47.555
580.00	47.135
580.34	48.244
580.67	47.601
581.01	47.830
581.35	47.965
581.68	47.294
582.02	46.650
582.35	47.523
582.69	47.224
583.02	47.458
583.36	47.268
583.70	48.452
584.03	47.283
584.37	47.773
584.70	48.093
585.04	47.505
585.37	47.530
585.71	47.321
586.04	46.630
586.38	47.910
586.72	48.108
587.05	47.080
587.39	46.755
587.72	47.179
588.06	46.825
588.39	47.517
588.73	47.668
589.06	47.398
589.40	48.182
589.73	47.589
590.07	48.043
590.40	47.534
590.73	48.283
591.07	47.945
591.40	48.376
591.74	48.745
592.07	47.600
592.41	47.375
592.74	47.865
593.08	47.368
593.41	47.105
593.75	45.565
594.08	45.759
594.41	46.660
594.75	47.542
595.08	46.421
595.42	47.461
595.75	47.258
596.09	47.315
596.42	47.780
596.75	47.868
597.09	47.706
597.42	46.079
597.75	47.650
598.09	48.043
598.42	46.649
598.76	46.413
599.09	46.142
599.42	46.470
599.76	46.486
600.09	45.792
600.42	46.311
600.76	46.250
601.09	46.812
601.42	45.852
601.76	46.148
602.09	46.206
602.42	47.213
602.76	45.990
603.09	45.909
603.42	47.560
603.76	45.579
604.09	46.413
604.42	46.637
604.76	46.689
605.09	45.959
605.42	46.003
605.75	46.730
606.09	46.645
606.42	46.547
606.75	46.122
607.09	46.337
607.42	46.085
607.75	45.738
608.08	45.810
608.42	46.974
608.75	46.934
609.08	45.652
609.41	45.883
609.75	45.498
610.08	46.890
610.41	46.229
610.74	45.790
611.07	46.196
611.41	45.731
611.74	46.305
612.07	46.998
612.40	46.695
612.73	45.316
613.07	46.713
613.40	45.182
613.73	44.625
614.06	46.559
614.39	45.307
614.72	45.842
615.06	46.218
615.39	45.701
615.72	45.297
616.05	45.880
616.38	46.804
616.71	47.387
617.05	46.938
617.38	46.783
617.71	46.727
618.04	45.913
618.37	46.304
618.70	46.049
619.03	46.842
619.36	46.707
619.69	46.972
620.03	46.772
620.36	47.861
620.69	47.466
621.02	47.714
621.35	46.829
621.68	45.639
622.01	47.368
622.34	46.369
622.67	46.920
623.00	46.222
623.33	45.175
623.66	46.247
623.99	46.907
624.32	45.435
624.65	46.186
624.99	46.105
625.32	44.967
625.65	47.032
625.98	46.887
626.31	46.656
626.64	47.755
626.97	47.215
627.30	45.885
627.63	47.170
627.96	47.939
628.29	47.594
628.62	46.752
628.95	47.075
629.28	46.807
629.61	48.121
629.94	48.857
630.26	46.139
630.59	45.567
630.92	48.180
631.25	47.384
631.58	46.647
631.91	47.465
632.24	47.152
632.57	48.164
632.90	47.917
633.23	47.651
633.56	47.910
633.89	47.452
634.22	46.992
634.55	50.296
634.88	48.144
635.20	48.387
635.53	49.518
635.86	48.391
636.19	46.588
636.52	46.251
636.85	46.621
637.18	47.581
637.51	47.636
637.83	45.869
638.16	47.315
638.49	46.222
638.82	47.408
639.15	48.375
639.48	48.504
639.81	49.330
640.13	49.219
640.46	47.651
640.79	47.424
641.12	47.868
641.45	46.788
641.77	49.779
642.10	47.222
642.43	48.048
642.76	50.774
643.09	47.699
643.41	46.282
643.74	51.235
644.07	48.171
644.40	48.773
644.73	48.031
645.05	49.128
645.38	47.235
645.71	47.987
646.04	50.166
646.36	48.247
646.69	47.659
647.02	46.429
647.35	47.766
647.67	47.434
648.00	47.642
648.33	48.350
648.66	46.061
648.98	47.976
649.31	44.694
649.64	45.441
649.96	46.796
650.29	45.498
650.62	45.631
650.94	47.326
651.27	50.169
651.60	48.087
651.92	47.125
652.25	45.114
652.58	47.664
652.90	47.867
653.23	45.763
653.56	45.512
653.88	47.068
654.21	47.077
654.54	48.185
654.86	44.237
655.19	45.000
655.52	38.075
655.84	36.183
656.17	44.791
656.49	59.949
656.82	60.270
657.15	45.675
657.47	33.978
657.80	26.194
658.13	27.474
658.45	40.729
658.78	41.072
659.10	41.596
659.43	43.669
659.75	42.832
660.08	45.570
660.41	47.393
660.73	47.776
661.06	46.019
661.38	47.091
661.71	47.692
662.03	46.351
662.36	44.533
662.68	47.791
663.01	46.061
663.33	47.346
663.66	46.849
663.98	50.324
664.31	48.950
664.63	47.368
664.96	46.076
665.28	48.975
665.61	44.055
665.93	45.272
666.26	45.842
666.58	44.979
666.91	47.357
667.23	49.438
667.56	44.708
667.88	46.581
668.21	47.335
668.53	45.553
668.86	44.805
669.18	44.350
669.50	46.304
669.83	47.495
670.15	46.444
670.48	45.316
670.80	48.060
671.13	44.586
671.45	43.617
671.77	48.269
672.10	45.102
672.42	43.286
672.75	44.610
673.07	44.014
673.39	45.750
673.72	45.117
674.04	46.078
674.37	43.107
674.69	45.808
675.01	42.887
675.34	47.844
675.66	46.737
675.98	44.399
676.31	46.429
676.63	45.223
676.95	43.606
677.28	46.028
677.60	45.275
677.92	48.945
678.25	43.326
678.57	45.817
678.89	45.090
679.22	41.650
679.54	47.328
679.86	44.771
680.18	43.292
680.51	43.617
680.83	43.060
681.15	44.151
681.48	43.478
681.80	42.747
682.12	44.828
682.44	44.101
682.77	43.788
683.09	45.923
683.41	44.346
683.73	44.150
684.06	44.421
684.38	43.249
684.70	44.574
685.02	42.026
685.34	43.407
685.67	40.559
685.99	42.612
686.31	41.980
686.63	39.399
686.96	42.679
687.28	43.141
687.60	40.942
687.92	42.962
688.24	42.776
688.56	46.787
688.89	46.473
689.21	44.541
689.53	46.138
689.85	44.568
690.17	40.787
690.49	42.463
690.82	46.495
691.14	41.964
691.46	42.405
691.78	40.964
692.10	45.248
692.42	42.116
692.74	42.739
693.06	41.915
693.39	42.710
693.71	43.013
694.03	45.053
694.35	45.455
694.67	41.876
694.99	44.390
695.31	44.608
695.63	42.344
695.95	42.298
696.27	40.863
696.59	44.041
696.91	41.969
697.23	39.202
697.56	41.791
697.88	38.650
698.20	42.500
698.52	41.720
698.84	44.321
699.16	40.553
699.48	45.606
699.80	43.237
700.12	48.571
700.44	45.093
700.76	46.133
701.08	46.552
701.40	42.458
701.72	46.064
702.04	45.455
702.36	41.360
702.68	42.776
703.00	42.659
703.32	40.957
703.64	42.895
703.96	42.061
704.28	45.640
704.60	41.056
704.91	44.214
705.23	43.402
705.55	48.837
705.87	46.512
706.19	40.283
706.51	42.679
706.83	43.030
707.15	40.336
707.47	38.384
707.79	43.735
708.11	40.868
708.43	42.381
708.74	39.286
709.06	45.714
709.38	40.157
709.70	40.116
710.02	41.246
710.34	42.121
710.66	39.701
710.98	43.466
711.29	39.826
711.61	42.478
711.93	39.423
712.25	46.945
712.57	44.485
712.89	40.830
713.20	41.945
713.52	44.408
713.84	40.506
714.16	41.768
714.48	40.230
714.80	45.289
715.11	40.922
715.43	44.807
715.75	39.710
716.07	40.895
716.39	44.201
716.70	44.518
717.02	44.245
717.34	36.396
717.66	43.284
717.97	46.614
718.29	40.000
718.61	38.321
718.93	40.441
719.24	42.215
719.56	37.627
719.88	38.305
720.20	43.581
720.51	41.115
720.83	43.866
721.15	35.821
721.46	43.262
721.78	41.935
722.10	44.528
722.42	45.865
722.73	41.573
723.05	38.934
723.37	41.296
723.68	43.243
724.00	40.244
724.32	41.935
724.63	43.902
724.95	40.167
725.27	40.891
725.58	45.312
725.90	44.161
726.22	44.151
726.53	39.236
726.85	42.321
727.16	43.060
727.48	39.716
727.80	39.015
728.11	40.217
728.43	43.846
728.74	41.219
729.06	41.971
729.38	41.544
729.69	43.060
730.01	43.003
730.32	39.931
730.64	40.468
730.96	41.254
731.27	43.709
731.59	39.755
731.90	37.318
732.22	39.441
732.53	40.248
732.85	36.538
733.16	35.691
733.48	39.203
733.80	41.234
734.11	39.172
734.43	41.716
734.74	38.286
735.06	36.963
735.37	41.040
735.69	41.401
736.00	38.889
736.32	38.006
736.63	37.061
736.95	43.131
737.26	34.694
737.58	36.774
737.89	37.458
738.21	43.003
738.52	38.571
738.83	36.226
739.15	38.077
739.46	40.511
739.78	35.417
740.09	37.538
740.41	40.000
740.72	33.798
741.04	41.481
741.35	37.917
741.66	42.667
741.98	43.396
742.29	45.455
742.61	43.966
742.92	39.367
743.23	38.462
743.55	42.000
743.86	38.158
744.18	44.690
744.49	41.148
744.80	43.192
745.12	45.909
745.43	40.088
745.74	41.441
746.06	45.413
746.37	41.256
746.68	41.629
747.00	41.667
747.31	42.857
747.62	37.611
747.94	39.207
748.25	39.149
748.56	38.767
748.88	38.119
749.19	41.500
749.50	40.000
749.82	40.650
750.13	36.735
750.44	37.226
750.75	38.246
751.07	37.621
751.38	34.146
751.69	36.462
752.01	38.722
752.32	36.101
752.63	38.652
752.94	41.393
753.26	43.200
753.57	35.366
753.88	35.156
754.19	36.429
754.51	44.097
754.82	33.574
755.13	40.377
755.44	34.211
755.75	38.686
756.07	35.816
756.38	37.591
756.69	35.906
757.00	33.832
757.31	34.125
757.63	35.380
757.94	35.121
758.25	35.539
758.56	32.099
758.87	35.215
759.18	34.848
759.50	33.229
759.81	31.464
760.12	35.625
760.43	34.097
760.74	31.793
761.05	35.876
761.36	36.096
761.67	38.920
761.99	33.540
762.30	36.806
762.61	36.641
762.92	38.672
763.23	37.815
763.54	37.200
763.85	34.375
764.16	41.154
764.47	40.684
764.78	30.035
765.10	30.380
765.41	37.463
765.72	38.323
766.03	36.991
766.34	33.000
766.65	32.340
766.96	39.316
767.27	41.624
767.58	42.188
767.89	38.947
768.20	38.506
768.51	37.563
768.82	38.532
769.13	31.707
769.44	32.389
769.75	36.481
770.06	32.110
770.37	38.462
770.68	38.426
770.99	36.444
771.30	28.689
771.61	42.152
771.92	34.426
772.23	36.555
772.54	35.385
772.85	40.838
773.16	34.043
773.47	40.217
773.78	43.147
774.09	37.500
774.39	43.275
774.70	37.654
775.01	41.304
775.32	44.444
775.63	31.579
775.94	35.252
776.25	47.244
776.56	45.522
776.87	39.344
777.18	46.875
777.48	45.038
777.79	45.455
778.10	49.630
778.41	36.607
778.72	41.606
779.03	32.886
779.34	39.597
779.65	39.865
779.95	37.423
780.26	47.712
780.57	39.310
780.88	39.063
781.19	37.594
781.50	47.297
781.80	43.396
782.11	31.073
782.42	39.873
782.73	42.331
783.04	33.108
783.34	45.775
783.65	46.575
783.96	38.806
784.27	46.154
784.57	37.410
784.88	37.037
785.19	38.095
785.50	35.849
785.81	45.522
786.11	48.361
786.42	33.333
786.73	40.708
787.04	36.792
787.34	48.214
787.65	49.000
787.96	51.351
788.26	44.628
788.57	49.153
788.88	39.669
789.19	39.583
789.49	49.242
789.80	28.244
790.11	46.667
790.41	49.505
790.72	43.373
791.03	44.565
791.33	45.349
791.64	49.485
791.95	45.545
792.25	50.000
792.56	45.455
792.87	58.974
793.17	58.228
793.48	50.575
793.79	39.080
794.09	34.091
794.40	41.176
794.70	38.235
795.01	33.333
795.32	40.288
795.62	40.945
795.93	40.517
796.23	45.133
796.54	31.765
796.85	44.595
797.15	61.972
797.46	48.485
797.76	48.193
798.07	55.696
798.37	50.769
798.68	57.576
798.99	26.761
799.29	40.260
799.60	47.727
799.90	38.356
800.21	49.254
800.51	37.931
800.82	64.912
801.12	52.459
801.43	46.970
801.73	36.486
802.04	53.968
802.34	44.444
802.65	40.625
802.95	55.932
803.26	50.000
803.56	44.286
803.87	30.769
804.17	52.941
804.48	55.556
804.78	62.069
805.09	41.176
805.39	38.462
805.70	35.714
806.00	62.295
806.30	37.879
806.61	41.463
806.91	39.241
807.22	50.000
807.52	25.373
807.83	54.930
808.13	48.438
808.43	48.333
808.74	27.632
809.04	42.029
809.35	62.687
809.65	60.526
809.95	62.903
810.26	33.898
810.56	44.444
810.86	68.182
811.17	64.286
811.47	48.333
811.77	61.111
812.08	60.000
812.38	56.000
812.69	69.444
812.99	81.818
813.29	48.980
813.59	30.952
813.90	71.429
814.20	50.909
814.50	43.077
814.81	64.706
815.11	48.980
815.41	47.541
815.72	71.429
816.02	69.091
816.32	47.619
816.62	60.000
816.93	65.854
817.23	73.810
817.53	61.364
817.84	100.000
818.14	58.696
818.44	55.556
818.74	58.824
819.04	52.500
819.35	25.714
819.65	61.765
819.95	78.571
820.25	55.000
820.56	84.615
820.86	50.000
821.16	55.814
821.46	64.103
821.76	64.000
822.07	65.714
822.37	87.500
822.67	72.727
822.97	41.176
823.27	92.857
823.57	72.973
823.88	75.000
824.18	66.667
824.48	61.905
824.78	52.000
825.08	54.167
825.38	48.649
825.69	58.537
825.99	141.667
826.29	68.966
826.59	84.211
826.89	42.105
827.19	105.882
827.49	74.194
827.79	47.727
828.09	70.455
828.39	55.319
828.70	63.265
829.00	55.556
829.30	109.677
829.60	55.000
829.90	146.667
830.20	110.714
830.50	73.913
830.80	47.826
831.10	40.000
831.40	66.667
831.70	43.478
832.00	123.077
832.30	37.037
832.60	68.750
832.90	86.667
833.20	178.571
833.50	77.419
833.80	68.966
834.10	68.750
834.40	100.000
834.70	83.333
835.00	142.857
835.30	60.000
835.60	107.692
835.90	82.759
836.20	150.000
836.50	106.897
836.80	92.000
837.10	69.444
837.40	76.190
837.70	100.000
838.00	96.296
838.30	80.952
838.60	100.000
838.90	84.615
839.19	120.000
839.49	171.429
839.79	205.000
840.09	90.000
840.39	133.333
840.69	86.957
840.99	94.444
841.29	90.000
841.59	16.667
841.88	137.500
842.18	82.759
842.48	100.000
842.78	76.667
843.08	117.391
843.38	96.875
843.68	300.000
843.97	80.769
844.27	44.828
844.57	161.905
844.87	137.500
845.17	100.000
845.47	166.667
845.76	66.667
846.06	64.706
846.36	-12.500
846.66	178.571
846.96	106.250
847.25	145.455
847.55	190.909
847.85	117.391
848.15	160.000
848.44	150.000
848.74	116.667
849.04	117.647
849.34	130.000
849.63	115.789
849.93	136.364
850.23	260.000
850.53	128.571
850.82	450.000
851.12	-900.000
851.42	1400.000
851.71	90.000
852.01	-66.667
852.31	108.333
852.61	66.667
852.90	128.571
853.20	92.000
853.50	111.765
853.79	147.619
854.09	70.833
854.39	118.750
854.68	67.568
854.98	77.419
855.28	80.000
855.57	86.207
855.87	37.037
856.17	78.947
856.46	80.000
856.76	135.294
857.05	65.517
857.35	104.167
857.65	100.000
857.94	65.217
858.24	100.000
858.53	120.000
858.83	104.545
859.13	33.333
859.42	0.000
859.72	188.889
860.01	154.545
860.31	81.818
860.60	131.579
860.90	126.087
861.20	222.222
861.49	175.000
861.79	-2300.000
862.08	162.500
862.38	85.714
862.67	38.462
862.97	147.059
863.26	200.000
863.56	88.889
863.85	150.000
864.15	137.500
864.44	126.667
864.74	233.333
865.03	237.500
865.33	63.158
865.62	127.273
865.92	130.769
866.21	83.333
866.51	0.000
866.80	127.273
867.10	440.000
867.39	123.077
867.69	81.818
867.98	121.053
868.27	163.636
868.57	73.684
868.86	-300.000
869.16	87.500
869.45	450.000
869.75	-400.000
870.04	133.333
870.33	100.000
870.63	100.000
870.92	750.000
871.22	285.714
871.51	158.824
871.80	71.429
872.10	207.143
>>>>>End Processed Spectral Data<<<<<
