SpectraSuite Data File
++++++++++++++++++++++++++++++++++++
Date: Wed May 13 16:11:59 PDT 2015
User: schluterlab
Dark Spectrum Present: Yes
Reference Spectrum Present: Yes
Number of Sampled Component Spectra: 1
Spectrometers: USB2E3373
Integration Time (usec): 3000 (USB2E3373)
Spectra Averaged: 3 (USB2E3373)
Boxcar Smoothing: 0 (USB2E3373)
Correct for Electrical Dark: No (USB2E3373)
Strobe/Lamp Enabled: No (USB2E3373)
Correct for Detector Non-linearity: No (USB2E3373)
Correct for Stray Light: No (USB2E3373)
Number of Pixels in Processed Spectrum: 2048
>>>>>Begin Processed Spectral Data<<<<<
178.53	0.000
178.91	-850.000
179.29	-800.000
179.67	-183.333
180.04	-850.000
180.42	2100.000
180.80	940.000
181.18	-725.000
181.56	471.429
181.94	0.000
182.31	-471.429
182.69	1600.000
183.07	-325.000
183.45	-355.556
183.83	436.364
184.20	-260.000
184.58	1950.000
184.96	4100.000
185.34	-660.000
185.72	-362.500
186.09	-1750.000
186.47	1900.000
186.85	1850.000
187.23	3800.000
187.61	-1233.333
187.98	1150.000
188.36	418.182
188.74	418.182
189.12	-780.000
189.49	510.000
189.87	-2600.000
190.25	-825.000
190.63	300.000
191.00	407.692
191.38	716.667
191.76	-975.000
192.14	975.000
192.51	437.500
192.89	800.000
193.27	525.000
193.65	-875.000
194.02	470.000
194.40	660.000
194.78	460.000
195.15	400.000
195.53	470.000
195.91	-2000.000
196.29	256.250
196.66	257.895
197.04	-290.000
197.42	0.000
197.79	420.000
198.17	-3900.000
198.55	571.429
198.92	512.500
199.30	660.000
199.68	0.000
200.05	238.889
200.43	614.286
200.81	3400.000
201.18	1433.333
201.56	-1433.333
201.94	522.222
202.31	477.778
202.69	341.667
203.07	440.000
203.44	0.000
203.82	1150.000
204.19	514.286
204.57	350.000
204.95	375.000
205.32	1000.000
205.70	436.364
206.08	250.000
206.45	2100.000
206.83	256.250
207.20	616.667
207.58	540.000
207.96	288.889
208.33	575.000
208.71	-650.000
209.08	628.571
209.46	544.444
209.84	372.727
210.21	-966.667
210.59	900.000
210.96	-337.500
211.34	2200.000
211.71	390.000
212.09	633.333
212.46	0.000
212.84	1266.667
213.22	1050.000
213.59	-3100.000
213.97	683.333
214.34	528.571
214.72	390.909
215.09	740.000
215.47	-1350.000
215.84	-1800.000
216.22	1233.333
216.59	321.429
216.97	1250.000
217.34	381.818
217.72	-650.000
218.09	0.000
218.47	-3600.000
218.84	544.444
219.22	542.857
219.59	1233.333
219.97	-314.286
220.34	740.000
220.72	-1600.000
221.09	335.714
221.47	1125.000
221.84	-733.333
222.22	0.000
222.59	1375.000
222.97	-1800.000
223.34	1140.000
223.72	338.462
224.09	860.000
224.46	1150.000
224.84	-2900.000
225.21	-800.000
225.59	-4300.000
225.96	500.000
226.34	255.000
226.71	1900.000
227.08	400.000
227.46	420.000
227.83	-725.000
228.21	-1500.000
228.58	500.000
228.95	-1950.000
229.33	-1350.000
229.70	1633.333
230.08	642.857
230.45	-680.000
230.82	425.000
231.20	733.333
231.57	600.000
231.95	391.667
232.32	254.545
232.69	272.727
233.07	742.857
233.44	269.231
233.81	-1400.000
234.19	257.895
234.56	350.000
234.93	333.333
235.31	436.364
235.68	315.385
236.05	292.857
236.43	166.667
236.80	273.684
237.17	5000.000
237.55	209.524
237.92	200.000
238.29	276.190
238.67	167.742
239.04	220.690
239.41	158.333
239.79	143.478
240.16	171.429
240.53	156.818
240.91	127.451
241.28	132.000
241.65	142.000
242.02	120.290
242.40	125.806
242.77	115.000
243.14	98.925
243.51	114.607
243.89	100.000
244.26	86.667
244.63	88.172
245.00	96.809
245.38	100.000
245.75	88.785
246.12	92.661
246.49	94.891
246.87	90.400
247.24	90.000
247.61	82.857
247.98	78.431
248.36	75.676
248.73	70.701
249.10	77.707
249.47	72.881
249.84	79.679
250.22	75.401
250.59	82.249
250.96	79.798
251.33	73.934
251.70	78.218
252.08	73.810
252.45	69.058
252.82	70.435
253.19	71.064
253.56	70.980
253.94	70.124
254.31	67.969
254.68	73.846
255.05	68.266
255.42	71.951
255.79	71.691
256.16	70.397
256.54	71.025
256.91	72.598
257.28	66.187
257.65	65.347
258.02	70.807
258.39	64.353
258.76	60.201
259.14	67.857
259.51	69.301
259.88	63.665
260.25	68.278
260.62	65.896
260.99	64.907
261.36	69.369
261.73	67.049
262.10	64.535
262.47	66.761
262.85	64.903
263.22	65.812
263.59	67.236
263.96	64.011
264.33	63.969
264.70	65.000
265.07	65.729
265.44	65.152
265.81	58.637
266.18	66.834
266.55	66.585
266.92	63.391
267.29	62.963
267.66	62.844
268.03	60.455
268.40	65.187
268.77	62.530
269.14	64.865
269.51	62.077
269.88	67.599
270.25	64.560
270.62	62.247
270.99	59.785
271.36	59.871
271.73	62.150
272.10	62.391
272.47	62.796
272.84	58.009
273.21	61.216
273.58	58.297
273.95	59.119
274.32	57.851
274.69	62.099
275.06	60.630
275.43	62.766
275.80	62.525
276.17	58.248
276.54	60.915
276.91	61.265
277.28	61.133
277.65	59.768
278.02	61.491
278.39	60.547
278.76	56.727
279.13	60.189
279.50	58.845
279.87	57.769
280.23	60.878
280.60	60.348
280.97	60.074
281.34	59.469
281.71	57.091
282.08	60.653
282.45	59.273
282.82	56.838
283.19	57.576
283.56	58.596
283.92	57.868
284.29	56.966
284.66	56.987
285.03	56.962
285.40	58.627
285.77	58.081
286.14	55.613
286.51	55.500
286.87	54.359
287.24	59.446
287.61	55.056
287.98	56.331
288.35	54.834
288.72	52.492
289.08	52.269
289.45	54.201
289.82	53.333
290.19	51.648
290.56	52.833
290.93	51.057
291.29	52.147
291.66	49.705
292.03	52.180
292.40	50.073
292.77	51.036
293.13	48.358
293.50	50.729
293.87	49.333
294.24	48.148
294.60	49.199
294.97	49.855
295.34	48.660
295.71	49.148
296.08	47.009
296.44	47.180
296.81	48.481
297.18	48.374
297.55	46.306
297.91	46.042
298.28	46.185
298.65	45.431
299.02	48.353
299.38	45.817
299.75	44.474
300.12	46.105
300.48	44.375
300.85	42.417
301.22	45.478
301.59	44.571
301.95	46.851
302.32	45.443
302.69	44.803
303.05	46.303
303.42	43.827
303.79	43.262
304.15	42.424
304.52	44.380
304.89	43.322
305.25	43.387
305.62	41.903
305.99	44.746
306.35	43.400
306.72	44.843
307.09	43.285
307.45	45.045
307.82	41.629
308.19	43.157
308.55	42.718
308.92	43.931
309.29	41.605
309.65	41.569
310.02	42.283
310.38	41.720
310.75	41.394
311.12	40.942
311.48	42.633
311.85	42.662
312.22	42.872
312.58	40.333
312.95	42.661
313.31	40.485
313.68	42.516
314.05	42.702
314.41	42.814
314.78	41.893
315.14	41.708
315.51	42.019
315.87	40.297
316.24	41.311
316.61	40.546
316.97	41.389
317.34	42.466
317.70	42.639
318.07	42.541
318.43	42.368
318.80	42.268
319.16	41.620
319.53	41.182
319.89	41.143
320.26	41.200
320.62	41.667
320.99	42.525
321.35	41.010
321.72	42.402
322.08	41.757
322.45	41.990
322.81	40.795
323.18	40.751
323.54	40.353
323.91	42.358
324.27	41.205
324.64	41.752
325.00	40.667
325.37	40.127
325.73	41.203
326.10	40.777
326.46	41.577
326.83	41.415
327.19	40.478
327.56	40.854
327.92	40.857
328.29	41.437
328.65	41.621
329.01	40.433
329.38	40.148
329.74	40.074
330.11	39.868
330.47	40.404
330.84	39.430
331.20	39.435
331.56	39.450
331.93	39.167
332.29	38.598
332.66	38.584
333.02	40.859
333.38	39.295
333.75	39.216
334.11	38.968
334.48	39.219
334.84	39.338
335.20	40.909
335.57	38.894
335.93	37.321
336.29	38.553
336.66	38.142
337.02	37.104
337.38	39.074
337.75	39.037
338.11	39.212
338.47	37.385
338.84	39.138
339.20	36.514
339.56	38.869
339.93	38.455
340.29	38.134
340.65	37.522
341.02	37.958
341.38	39.146
341.74	37.632
342.11	37.817
342.47	36.476
342.83	37.671
343.20	37.662
343.56	37.068
343.92	37.018
344.28	37.585
344.65	37.575
345.01	36.027
345.37	37.650
345.73	37.563
346.10	37.681
346.46	37.288
346.82	36.903
347.19	35.673
347.55	35.961
347.91	38.269
348.27	36.976
348.63	36.204
349.00	36.327
349.36	35.550
349.72	37.771
350.08	36.143
350.45	36.778
350.81	35.906
351.17	36.062
351.53	35.545
351.89	35.066
352.26	37.017
352.62	37.209
352.98	35.900
353.34	37.716
353.70	36.007
354.07	35.323
354.43	34.841
354.79	35.559
355.15	35.754
355.51	35.332
355.87	36.327
356.24	35.749
356.60	34.643
356.96	35.881
357.32	36.222
357.68	36.220
358.04	35.471
358.40	35.709
358.77	35.211
359.13	35.833
359.49	35.922
359.85	33.730
360.21	34.370
360.57	34.241
360.93	36.231
361.29	34.467
361.66	34.288
362.02	35.075
362.38	36.654
362.74	35.045
363.10	35.307
363.46	34.263
363.82	35.223
364.18	35.389
364.54	35.661
364.90	35.765
365.26	35.221
365.62	33.893
365.98	33.747
366.35	34.241
366.71	34.129
367.07	34.304
367.43	35.123
367.79	34.832
368.15	35.417
368.51	33.576
368.87	35.261
369.23	34.236
369.59	35.482
369.95	33.824
370.31	33.832
370.67	33.188
371.03	35.506
371.39	34.038
371.75	34.632
372.11	34.708
372.47	35.630
372.83	35.447
373.19	34.899
373.55	34.885
373.91	35.199
374.27	33.333
374.63	34.836
374.99	35.099
375.35	33.775
375.71	33.448
376.07	34.019
376.42	35.282
376.78	34.791
377.14	33.650
377.50	34.702
377.86	33.777
378.22	34.893
378.58	34.085
378.94	33.375
379.30	34.351
379.66	35.533
380.02	34.398
380.38	34.366
380.74	34.394
381.09	33.557
381.45	35.280
381.81	34.705
382.17	35.605
382.53	33.836
382.89	35.617
383.25	34.959
383.61	35.130
383.97	34.459
384.32	33.936
384.68	34.882
385.04	34.849
385.40	34.613
385.76	33.477
386.12	34.585
386.48	34.676
386.83	35.343
387.19	35.683
387.55	34.694
387.91	34.522
388.27	34.887
388.62	36.017
388.98	34.029
389.34	35.294
389.70	34.764
390.06	34.347
390.42	35.733
390.77	35.178
391.13	34.652
391.49	35.406
391.85	35.073
392.20	33.880
392.56	34.722
392.92	36.021
393.28	34.911
393.64	35.012
393.99	34.637
394.35	35.484
394.71	34.755
395.07	33.769
395.42	35.847
395.78	35.305
396.14	34.761
396.50	35.840
396.85	35.092
397.21	34.649
397.57	35.152
397.92	34.615
398.28	33.408
398.64	33.811
399.00	34.807
399.35	34.405
399.71	34.606
400.07	34.950
400.42	34.601
400.78	34.138
401.14	34.634
401.49	34.567
401.85	32.970
402.21	33.114
402.57	34.300
402.92	34.552
403.28	34.728
403.63	34.901
403.99	34.650
404.35	34.667
404.70	34.173
405.06	34.304
405.42	33.874
405.77	33.943
406.13	33.126
406.49	33.885
406.84	33.727
407.20	33.215
407.55	34.078
407.91	35.600
408.27	33.695
408.62	34.317
408.98	34.681
409.34	33.087
409.69	34.839
410.05	34.387
410.40	34.312
410.76	33.751
411.11	33.655
411.47	33.546
411.83	33.476
412.18	32.777
412.54	34.060
412.89	33.313
413.25	33.471
413.60	33.663
413.96	32.908
414.31	33.597
414.67	33.523
415.03	32.781
415.38	33.054
415.74	33.441
416.09	33.769
416.45	32.396
416.80	33.245
417.16	34.584
417.51	33.378
417.87	32.177
418.22	32.681
418.58	33.570
418.93	33.170
419.29	33.991
419.64	34.068
420.00	33.963
420.35	32.696
420.71	34.190
421.06	33.532
421.42	32.749
421.77	32.287
422.12	33.184
422.48	31.894
422.83	32.848
423.19	31.436
423.54	32.966
423.90	32.928
424.25	32.719
424.61	32.440
424.96	32.303
425.31	32.281
425.67	32.135
426.02	32.571
426.38	33.822
426.73	31.656
427.09	32.644
427.44	32.720
427.79	32.950
428.15	32.262
428.50	32.124
428.85	32.062
429.21	32.468
429.56	32.141
429.92	32.008
430.27	31.976
430.62	30.876
430.98	32.019
431.33	32.474
431.68	31.937
432.04	32.375
432.39	32.781
432.74	32.914
433.10	32.541
433.45	32.420
433.80	32.317
434.16	31.731
434.51	32.053
434.86	32.326
435.22	32.296
435.57	32.705
435.92	31.890
436.28	32.740
436.63	33.223
436.98	31.712
437.34	32.141
437.69	32.672
438.04	32.265
438.39	32.537
438.75	32.830
439.10	32.905
439.45	32.645
439.81	32.266
440.16	31.564
440.51	32.806
440.86	32.658
441.22	31.869
441.57	32.272
441.92	33.112
442.27	32.616
442.63	32.280
442.98	32.845
443.33	33.315
443.68	31.802
444.03	32.796
444.39	31.889
444.74	32.413
445.09	32.129
445.44	32.422
445.79	32.063
446.15	32.345
446.50	32.418
446.85	32.734
447.20	32.432
447.55	32.663
447.91	31.991
448.26	31.942
448.61	32.674
448.96	32.835
449.31	32.340
449.66	32.696
450.02	31.978
450.37	31.689
450.72	32.375
451.07	31.566
451.42	31.064
451.77	32.707
452.12	31.467
452.47	32.463
452.83	32.168
453.18	32.274
453.53	33.210
453.88	31.837
454.23	32.038
454.58	33.555
454.93	33.503
455.28	31.858
455.63	32.524
455.98	32.976
456.34	33.291
456.69	33.062
457.04	32.508
457.39	31.619
457.74	32.037
458.09	32.547
458.44	31.870
458.79	30.748
459.14	31.941
459.49	32.049
459.84	32.355
460.19	31.998
460.54	32.407
460.89	31.761
461.24	32.787
461.59	33.120
461.94	31.381
462.29	32.226
462.64	31.972
462.99	30.774
463.34	31.600
463.69	30.894
464.04	31.826
464.39	32.174
464.74	32.086
465.09	31.423
465.44	31.524
465.79	31.711
466.14	31.637
466.49	31.090
466.84	31.115
467.19	31.986
467.54	32.312
467.89	30.612
468.24	32.228
468.59	33.333
468.94	31.704
469.29	32.198
469.64	32.731
469.99	31.529
470.34	30.581
470.68	32.399
471.03	31.497
471.38	32.106
471.73	32.312
472.08	32.763
472.43	31.281
472.78	31.929
473.13	32.285
473.48	31.586
473.83	32.134
474.17	31.238
474.52	32.816
474.87	32.925
475.22	32.153
475.57	31.381
475.92	31.864
476.27	31.567
476.61	30.998
476.96	30.456
477.31	31.397
477.66	31.182
478.01	29.744
478.36	32.364
478.70	30.374
479.05	31.257
479.40	31.423
479.75	31.266
480.10	31.213
480.45	31.509
480.79	31.295
481.14	31.556
481.49	31.372
481.84	31.321
482.19	31.985
482.53	30.550
482.88	30.805
483.23	31.402
483.58	31.392
483.92	30.412
484.27	30.370
484.62	30.388
484.97	30.508
485.31	31.575
485.66	31.539
486.01	30.656
486.36	29.681
486.70	28.404
487.05	29.319
487.40	29.724
487.75	29.819
488.09	29.694
488.44	29.353
488.79	30.271
489.13	30.252
489.48	30.750
489.83	30.902
490.17	31.127
490.52	30.647
490.87	29.851
491.22	30.332
491.56	30.342
491.91	30.247
492.26	31.098
492.60	30.323
492.95	29.139
493.30	29.953
493.64	30.098
493.99	30.734
494.34	30.574
494.68	31.090
495.03	30.733
495.37	30.479
495.72	31.043
496.07	30.534
496.41	30.398
496.76	30.651
497.11	29.716
497.45	30.694
497.80	30.566
498.14	30.483
498.49	30.634
498.84	30.825
499.18	30.143
499.53	30.579
499.87	30.382
500.22	30.853
500.56	30.922
500.91	29.375
501.26	30.109
501.60	31.324
501.95	30.568
502.29	31.068
502.64	30.912
502.98	30.715
503.33	29.890
503.67	30.534
504.02	31.852
504.36	30.089
504.71	30.532
505.06	30.458
505.40	29.752
505.75	30.521
506.09	30.078
506.44	30.587
506.78	30.200
507.13	30.086
507.47	29.747
507.82	31.256
508.16	30.496
508.51	31.253
508.85	30.139
509.19	30.051
509.54	30.816
509.88	30.345
510.23	30.437
510.57	31.063
510.92	30.606
511.26	30.216
511.61	30.654
511.95	30.532
512.30	30.011
512.64	30.306
512.98	30.707
513.33	31.049
513.67	29.616
514.02	29.816
514.36	30.202
514.70	30.825
515.05	30.563
515.39	31.127
515.74	30.800
516.08	30.184
516.42	30.300
516.77	31.605
517.11	30.633
517.46	31.546
517.80	31.533
518.14	30.168
518.49	30.630
518.83	30.170
519.17	31.062
519.52	31.353
519.86	31.261
520.20	31.387
520.55	30.341
520.89	30.839
521.23	30.157
521.58	30.732
521.92	30.986
522.26	30.811
522.61	31.153
522.95	31.430
523.29	30.615
523.64	30.610
523.98	31.362
524.32	31.303
524.66	31.389
525.01	31.311
525.35	30.112
525.69	30.049
526.04	30.467
526.38	30.689
526.72	29.877
527.06	30.508
527.41	29.084
527.75	30.418
528.09	31.342
528.43	31.358
528.78	30.916
529.12	30.364
529.46	30.312
529.80	31.250
530.15	30.779
530.49	29.169
530.83	31.013
531.17	32.898
531.51	31.064
531.86	30.645
532.20	31.617
532.54	31.070
532.88	30.552
533.22	30.981
533.57	31.975
533.91	29.982
534.25	30.680
534.59	30.567
534.93	30.161
535.27	30.356
535.62	30.830
535.96	30.885
536.30	29.688
536.64	30.522
536.98	30.922
537.32	30.678
537.66	30.133
538.01	30.086
538.35	30.123
538.69	30.696
539.03	30.604
539.37	30.607
539.71	29.942
540.05	31.046
540.39	29.967
540.73	30.789
541.07	31.084
541.42	31.376
541.76	31.226
542.10	30.854
542.44	30.927
542.78	31.225
543.12	30.454
543.46	30.820
543.80	31.685
544.14	29.589
544.48	30.921
544.82	30.661
545.16	30.904
545.50	30.077
545.84	30.847
546.18	30.168
546.52	31.315
546.86	31.065
547.20	31.153
547.54	30.862
547.88	31.505
548.22	30.386
548.56	29.874
548.90	29.513
549.24	29.562
549.58	31.105
549.92	31.319
550.26	31.179
550.60	29.876
550.94	29.366
551.28	29.407
551.62	30.482
551.96	29.895
552.30	31.741
552.64	29.953
552.98	30.102
553.32	30.816
553.66	31.834
554.00	31.366
554.34	29.814
554.68	30.901
555.02	30.536
555.36	30.828
555.69	30.379
556.03	30.417
556.37	29.332
556.71	30.014
557.05	30.602
557.39	30.791
557.73	30.346
558.07	31.109
558.41	30.463
558.75	30.345
559.08	30.574
559.42	30.159
559.76	30.074
560.10	30.692
560.44	31.167
560.78	29.208
561.12	30.013
561.45	29.857
561.79	29.927
562.13	30.181
562.47	30.601
562.81	31.172
563.15	30.234
563.48	30.040
563.82	30.594
564.16	29.889
564.50	29.036
564.84	29.772
565.17	30.180
565.51	30.990
565.85	30.203
566.19	29.806
566.52	30.336
566.86	30.199
567.20	31.427
567.54	30.080
567.88	29.929
568.21	30.899
568.55	30.233
568.89	30.447
569.23	30.036
569.56	30.769
569.90	30.830
570.24	29.925
570.57	29.174
570.91	28.959
571.25	29.741
571.59	29.426
571.92	29.810
572.26	29.492
572.60	29.550
572.93	29.295
573.27	29.252
573.61	29.453
573.95	29.354
574.28	29.246
574.62	29.155
574.96	29.534
575.29	28.758
575.63	28.989
575.97	28.769
576.30	29.607
576.64	29.745
576.98	29.071
577.31	29.459
577.65	29.468
577.98	29.936
578.32	28.793
578.66	28.994
578.99	28.761
579.33	29.363
579.67	28.703
580.00	28.938
580.34	29.212
580.67	28.929
581.01	29.548
581.35	29.740
581.68	30.128
582.02	29.386
582.35	28.553
582.69	29.088
583.02	28.897
583.36	29.191
583.70	28.846
584.03	28.762
584.37	28.880
584.70	29.493
585.04	29.036
585.37	29.590
585.71	29.300
586.04	28.872
586.38	29.206
586.72	30.130
587.05	29.231
587.39	29.050
587.72	29.219
588.06	29.082
588.39	29.630
588.73	29.070
589.06	29.106
589.40	29.192
589.73	29.673
590.07	29.573
590.40	29.156
590.73	30.055
591.07	30.037
591.40	30.156
591.74	30.260
592.07	29.756
592.41	30.260
592.74	30.562
593.08	30.247
593.41	30.022
593.75	29.263
594.08	29.903
594.41	29.905
594.75	29.945
595.08	29.492
595.42	30.228
595.75	30.377
596.09	29.290
596.42	29.980
596.75	29.844
597.09	30.909
597.42	29.511
597.75	29.409
598.09	29.261
598.42	30.069
598.76	29.753
599.09	30.141
599.42	29.512
599.76	30.381
600.09	30.091
600.42	29.511
600.76	29.179
601.09	29.545
601.42	29.756
601.76	29.526
602.09	29.130
602.42	29.498
602.76	29.988
603.09	29.976
603.42	30.223
603.76	29.611
604.09	29.508
604.42	30.045
604.76	29.987
605.09	29.576
605.42	29.286
605.75	29.470
606.09	30.256
606.42	30.405
606.75	29.324
607.09	30.222
607.42	29.867
607.75	30.000
608.08	29.223
608.42	30.345
608.75	29.937
609.08	29.186
609.41	29.557
609.75	30.157
610.08	29.877
610.41	29.283
610.74	29.376
611.07	30.336
611.41	30.079
611.74	30.216
612.07	29.451
612.40	30.430
612.73	29.158
613.07	30.603
613.40	29.910
613.73	29.313
614.06	30.645
614.39	29.680
614.72	29.737
615.06	29.517
615.39	29.936
615.72	29.857
616.05	29.771
616.38	30.072
616.71	31.116
617.05	30.506
617.38	30.006
617.71	30.150
618.04	30.709
618.37	30.160
618.70	29.745
619.03	30.921
619.36	30.754
619.69	30.070
620.03	31.044
620.36	30.615
620.69	30.479
621.02	30.015
621.35	29.757
621.68	29.751
622.01	29.799
622.34	30.333
622.67	30.494
623.00	31.108
623.33	29.807
623.66	29.878
623.99	30.928
624.32	30.171
624.65	30.438
624.99	29.887
625.32	29.906
625.65	30.729
625.98	32.052
626.31	30.871
626.64	30.041
626.97	30.756
627.30	30.008
627.63	31.255
627.96	31.203
628.29	31.409
628.62	30.741
628.95	31.321
629.28	31.661
629.61	30.797
629.94	32.190
630.26	31.459
630.59	29.838
630.92	31.322
631.25	30.503
631.58	30.030
631.91	30.325
632.24	30.591
632.57	31.165
632.90	30.921
633.23	31.991
633.56	31.412
633.89	32.390
634.22	31.101
634.55	31.124
634.88	29.940
635.20	31.541
635.53	32.289
635.86	33.168
636.19	30.824
636.52	31.373
636.85	31.271
637.18	29.954
637.51	31.678
637.83	28.237
638.16	30.818
638.49	31.486
638.82	32.491
639.15	33.000
639.48	32.045
639.81	32.842
640.13	31.120
640.46	31.409
640.79	31.176
641.12	30.812
641.45	30.447
641.77	31.811
642.10	31.725
642.43	33.333
642.76	33.282
643.09	32.975
643.41	32.170
643.74	31.790
644.07	31.860
644.40	32.055
644.73	32.913
645.05	32.964
645.38	29.700
645.71	31.079
646.04	32.060
646.36	35.058
646.69	33.612
647.02	31.973
647.35	31.959
647.67	32.212
648.00	34.309
648.33	33.003
648.66	33.939
648.98	32.984
649.31	31.091
649.64	32.735
649.96	30.849
650.29	32.227
650.62	32.686
650.94	31.929
651.27	34.797
651.60	34.110
651.92	32.748
652.25	33.225
652.58	33.178
652.90	31.280
653.23	30.663
653.56	31.024
653.88	35.499
654.21	31.912
654.54	32.343
654.86	34.112
655.19	32.027
655.52	26.479
655.84	28.343
656.17	36.045
656.49	47.442
656.82	46.384
657.15	34.176
657.47	24.805
657.80	19.043
658.13	19.153
658.45	28.002
658.78	28.179
659.10	28.303
659.43	29.306
659.75	30.192
660.08	31.646
660.41	34.358
660.73	35.705
661.06	31.847
661.38	32.545
661.71	33.846
662.03	31.953
662.36	31.809
662.68	33.333
663.01	33.535
663.33	34.395
663.66	33.193
663.98	34.125
664.31	34.034
664.63	32.389
664.96	32.394
665.28	32.787
665.61	33.333
665.93	31.992
666.26	30.020
666.58	33.264
666.91	35.729
667.23	35.056
667.56	31.533
667.88	35.897
668.21	35.181
668.53	32.538
668.86	32.468
669.18	36.674
669.50	31.087
669.83	36.383
670.15	35.333
670.48	32.898
670.80	34.914
671.13	35.032
671.45	32.766
671.77	36.049
672.10	34.935
672.42	34.982
672.75	35.158
673.07	32.218
673.39	29.656
673.72	32.422
674.04	32.745
674.37	34.369
674.69	31.902
675.01	33.054
675.34	33.470
675.66	34.316
675.98	33.809
676.31	33.613
676.63	33.121
676.95	33.962
677.28	32.944
677.60	33.626
677.92	37.342
678.25	35.318
678.57	33.865
678.89	36.072
679.22	32.024
679.54	34.542
679.86	35.780
680.18	34.168
680.51	33.511
680.83	34.520
681.15	35.472
681.48	32.703
681.80	33.269
682.12	34.100
682.44	31.141
682.77	32.179
683.09	37.339
683.41	33.925
683.73	35.762
684.06	36.157
684.38	32.485
684.70	35.078
685.02	34.334
685.34	33.700
685.67	31.294
685.99	32.646
686.31	32.935
686.63	33.216
686.96	31.071
687.28	31.949
687.60	31.703
687.92	34.918
688.24	34.601
688.56	36.546
688.89	35.892
689.21	36.463
689.53	36.534
689.85	36.364
690.17	35.197
690.49	36.518
690.82	36.916
691.14	33.705
691.46	33.755
691.78	34.538
692.10	33.678
692.42	36.527
692.74	31.535
693.06	36.170
693.39	34.497
693.71	36.245
694.03	33.684
694.35	31.169
694.67	32.037
694.99	37.073
695.31	35.539
695.63	31.818
695.95	36.919
696.27	35.533
696.59	34.715
696.91	36.269
697.23	33.099
697.56	36.034
697.88	32.515
698.20	33.958
698.52	32.688
698.84	33.853
699.16	32.488
699.48	35.867
699.80	34.300
700.12	40.519
700.44	39.257
700.76	37.845
701.08	38.793
701.40	33.799
701.72	37.318
702.04	36.932
702.36	35.411
702.68	34.844
703.00	38.504
703.32	34.574
703.64	35.389
703.96	37.047
704.28	36.919
704.60	35.191
704.91	40.356
705.23	37.243
705.55	41.196
705.87	37.874
706.19	37.809
706.51	40.498
706.83	40.303
707.15	37.255
707.47	36.616
707.79	36.118
708.11	34.247
708.43	34.048
708.74	32.398
709.06	37.922
709.38	32.808
709.70	38.953
710.02	37.982
710.34	36.364
710.66	38.507
710.98	39.489
711.29	38.663
711.61	38.643
711.93	36.538
712.25	40.193
712.57	37.500
712.89	41.176
713.20	34.954
713.52	36.513
713.84	36.076
714.16	38.720
714.48	36.494
714.80	39.514
715.11	34.006
715.43	40.653
715.75	33.333
716.07	35.783
716.39	38.245
716.70	40.199
717.02	40.288
717.34	34.982
717.66	38.060
717.97	41.434
718.29	36.296
718.61	39.416
718.93	41.544
719.24	36.332
719.56	34.915
719.88	38.644
720.20	37.500
720.51	41.463
720.83	42.007
721.15	37.313
721.46	38.652
721.78	41.219
722.10	37.736
722.42	43.609
722.73	36.330
723.05	40.164
723.37	38.866
723.68	44.015
724.00	37.398
724.32	40.323
724.63	39.837
724.95	38.494
725.27	43.320
725.58	39.453
725.90	41.971
726.22	41.132
726.53	36.806
726.85	36.519
727.16	42.349
727.48	37.589
727.80	46.212
728.11	40.942
728.43	41.538
728.74	40.860
729.06	46.350
729.38	47.426
729.69	40.925
730.01	38.567
730.32	37.847
730.64	37.458
730.96	38.944
731.27	40.397
731.59	40.367
731.90	39.942
732.22	40.994
732.53	39.319
732.85	37.500
733.16	38.907
733.48	38.870
733.80	37.662
734.11	40.764
734.43	36.686
734.74	40.857
735.06	37.822
735.37	41.040
735.69	36.943
736.00	38.889
736.32	44.860
736.63	39.617
736.95	39.617
737.26	38.776
737.58	39.032
737.89	39.130
738.21	37.201
738.52	39.643
738.83	40.755
739.15	35.769
739.46	45.255
739.78	42.361
740.09	37.538
740.41	41.290
740.72	36.934
741.04	39.630
741.35	43.333
741.66	48.444
741.98	39.623
742.29	43.062
742.61	44.828
742.92	42.986
743.23	40.598
743.55	45.200
743.86	41.228
744.18	45.133
744.49	41.148
744.80	47.418
745.12	50.000
745.43	38.767
745.74	45.946
746.06	42.202
746.37	40.359
746.68	46.154
747.00	45.833
747.31	41.905
747.62	39.381
747.94	37.445
748.25	40.426
748.56	45.374
748.88	37.624
749.19	49.000
749.50	41.395
749.82	35.366
750.13	38.776
750.44	39.781
750.75	42.456
751.07	41.158
751.38	39.373
751.69	42.599
752.01	41.353
752.32	37.184
752.63	42.553
752.94	36.475
753.26	39.600
753.57	38.618
753.88	41.797
754.19	38.571
754.51	41.667
754.82	38.989
755.13	44.151
755.44	38.346
755.75	43.796
756.07	39.362
756.38	39.416
756.69	42.282
757.00	34.132
757.31	39.466
757.63	40.643
757.94	37.802
758.25	33.578
758.56	37.531
758.87	38.978
759.18	36.970
759.50	35.737
759.81	37.072
760.12	35.312
760.43	39.255
760.74	38.587
761.05	40.678
761.36	36.364
761.67	41.761
761.99	38.820
762.30	40.972
762.61	38.168
762.92	42.969
763.23	42.017
763.54	43.600
763.85	37.891
764.16	48.077
764.47	42.586
764.78	40.636
765.10	39.241
765.41	38.053
765.72	37.725
766.03	36.991
766.34	38.333
766.65	47.660
766.96	45.726
767.27	46.701
767.58	46.875
767.89	47.895
768.20	44.828
768.51	39.594
768.82	44.954
769.13	37.805
769.44	45.344
769.75	41.202
770.06	43.578
770.37	44.796
770.68	43.981
770.99	39.111
771.30	40.574
771.61	44.395
771.92	45.082
772.23	49.160
772.54	45.641
772.85	45.026
773.16	46.809
773.47	50.543
773.78	49.746
774.09	50.595
774.39	45.614
774.70	50.000
775.01	51.449
775.32	57.516
775.63	49.342
775.94	47.482
776.25	51.969
776.56	57.463
776.87	60.656
777.18	50.781
777.48	58.779
777.79	53.788
778.10	60.000
778.41	59.821
778.72	51.095
779.03	48.322
779.34	51.678
779.65	44.595
779.95	52.147
780.26	42.484
780.57	57.241
780.88	60.156
781.19	43.609
781.50	60.811
781.80	55.346
782.11	46.328
782.42	52.532
782.73	49.080
783.04	57.432
783.34	50.000
783.65	62.329
783.96	60.448
784.27	55.944
784.57	52.518
784.88	50.926
785.19	56.349
785.50	60.377
785.81	56.716
786.11	61.475
786.42	59.690
786.73	53.982
787.04	64.151
787.34	58.929
787.65	73.000
787.96	63.964
788.26	52.893
788.57	70.339
788.88	64.463
789.19	52.778
789.49	66.667
789.80	51.145
790.11	73.333
790.41	57.426
790.72	59.036
791.03	66.304
791.33	66.279
791.64	73.196
791.95	71.287
792.25	72.222
792.56	80.519
792.87	85.897
793.17	93.671
793.48	79.310
793.79	68.966
794.09	69.318
794.40	58.824
794.70	61.029
795.01	52.593
795.32	52.518
795.62	53.543
795.93	59.483
796.23	60.177
796.54	69.412
796.85	70.270
797.15	92.958
797.46	81.818
797.76	69.880
798.07	78.481
798.37	75.385
798.68	74.242
798.99	61.972
799.29	71.429
799.60	68.182
799.90	83.562
800.21	88.060
800.51	91.379
800.82	98.246
801.12	95.082
801.43	77.273
801.73	62.162
802.04	80.952
802.34	85.185
802.65	73.438
802.95	105.085
803.26	96.875
803.56	75.714
803.87	73.846
804.17	75.000
804.48	112.963
804.78	87.931
805.09	79.412
805.39	82.692
805.70	100.000
806.00	93.443
806.30	92.424
806.61	63.415
806.91	64.557
807.22	77.632
807.52	68.657
807.83	78.873
808.13	95.312
808.43	91.667
808.74	76.316
809.04	79.710
809.35	80.597
809.65	57.895
809.95	109.677
810.26	98.305
810.56	84.127
810.86	125.000
811.17	104.762
811.47	113.333
811.77	79.630
812.08	94.545
812.38	126.000
812.69	100.000
812.99	131.818
813.29	106.122
813.59	85.714
813.90	112.245
814.20	85.455
814.50	80.000
814.81	91.176
815.11	110.204
815.41	83.607
815.72	97.619
816.02	109.091
816.32	111.905
816.62	90.000
816.93	107.317
817.23	121.429
817.53	106.818
817.84	136.364
818.14	119.565
818.44	104.444
818.74	132.353
819.04	130.000
819.35	94.286
819.65	155.882
819.95	150.000
820.25	185.000
820.56	135.897
820.86	122.727
821.16	123.256
821.46	138.462
821.76	114.000
822.07	131.429
822.37	137.500
822.67	151.515
822.97	90.196
823.27	167.857
823.57	137.838
823.88	140.000
824.18	176.667
824.48	133.333
824.78	160.000
825.08	154.167
825.38	127.027
825.69	92.683
825.99	158.333
826.29	137.931
826.59	152.632
826.89	123.684
827.19	144.118
827.49	151.613
827.79	131.818
828.09	109.091
828.39	104.255
828.70	114.286
829.00	125.926
829.30	122.581
829.60	95.000
829.90	293.333
830.20	178.571
830.50	143.478
830.80	173.913
831.10	176.667
831.40	143.333
831.70	156.522
832.00	188.462
832.30	162.963
832.60	268.750
832.90	186.667
833.20	357.143
833.50	141.935
833.80	113.793
834.10	168.750
834.40	223.077
834.70	250.000
835.00	266.667
835.30	114.286
835.60	238.462
835.90	172.414
836.20	364.286
836.50	141.379
836.80	152.000
837.10	138.889
837.40	219.048
837.70	223.529
838.00	174.074
838.30	147.619
838.60	257.143
838.90	188.462
839.19	220.000
839.49	300.000
839.79	245.000
840.09	200.000
840.39	271.429
840.69	226.087
840.99	194.444
841.29	360.000
841.59	316.667
841.88	256.250
842.18	127.586
842.48	147.619
842.78	163.333
843.08	178.261
843.38	150.000
843.68	650.000
843.97	165.385
844.27	175.862
844.57	238.095
844.87	356.250
845.17	174.074
845.47	1133.333
845.76	433.333
846.06	288.235
846.36	437.500
846.66	250.000
846.96	237.500
847.25	272.727
847.55	254.545
847.85	191.304
848.15	420.000
848.44	271.429
848.74	211.111
849.04	235.294
849.34	570.000
849.63	178.947
849.93	400.000
850.23	780.000
850.53	335.714
850.82	1850.000
851.12	-3300.000
851.42	2800.000
851.71	220.000
852.01	-800.000
852.31	225.000
852.61	1133.333
852.90	209.524
853.20	196.000
853.50	276.471
853.79	200.000
854.09	162.500
854.39	275.000
854.68	145.946
854.98	177.419
855.28	140.000
855.57	189.655
855.87	203.704
856.17	215.789
856.46	166.667
856.76	188.235
857.05	148.276
857.35	166.667
857.65	306.667
857.94	195.652
858.24	200.000
858.53	245.000
858.83	222.727
859.13	266.667
859.42	0.000
859.72	344.444
860.01	254.545
860.31	200.000
860.60	200.000
860.90	165.217
861.20	444.444
861.49	416.667
861.79	-3800.000
862.08	500.000
862.38	247.619
862.67	230.769
862.97	264.706
863.26	366.667
863.56	227.778
863.85	258.333
864.15	362.500
864.44	333.333
864.74	700.000
865.03	437.500
865.33	226.316
865.62	363.636
865.92	407.692
866.21	258.333
866.51	0.000
866.80	372.727
867.10	800.000
867.39	407.692
867.69	345.455
867.98	200.000
868.27	336.364
868.57	221.053
868.86	-2500.000
869.16	218.750
869.45	1750.000
869.75	-3400.000
870.04	375.000
870.33	514.286
870.63	550.000
870.92	2350.000
871.22	571.429
871.51	252.941
871.80	195.238
872.10	264.286
>>>>>End Processed Spectral Data<<<<<
