SpectraSuite Data File
++++++++++++++++++++++++++++++++++++
Date: Wed May 13 15:58:26 PDT 2015
User: schluterlab
Dark Spectrum Present: Yes
Reference Spectrum Present: Yes
Number of Sampled Component Spectra: 1
Spectrometers: USB2E3373
Integration Time (usec): 3000 (USB2E3373)
Spectra Averaged: 3 (USB2E3373)
Boxcar Smoothing: 0 (USB2E3373)
Correct for Electrical Dark: No (USB2E3373)
Strobe/Lamp Enabled: No (USB2E3373)
Correct for Detector Non-linearity: No (USB2E3373)
Correct for Stray Light: No (USB2E3373)
Number of Pixels in Processed Spectrum: 2048
>>>>>Begin Processed Spectral Data<<<<<
178.53	0.000
178.91	-275.000
179.29	-75.000
179.67	11.111
180.04	-225.000
180.42	750.000
180.80	300.000
181.18	-125.000
181.56	85.714
181.94	0.000
182.31	-100.000
182.69	466.667
183.07	-62.500
183.45	-88.889
183.83	236.364
184.20	-90.000
184.58	500.000
184.96	1300.000
185.34	-120.000
185.72	-212.500
186.09	-350.000
186.47	0.000
186.85	400.000
187.23	200.000
187.61	-0.000
187.98	175.000
188.36	109.091
188.74	118.182
189.12	-160.000
189.49	140.000
189.87	-1300.000
190.25	-125.000
190.63	128.571
191.00	115.385
191.38	166.667
191.76	-50.000
192.14	400.000
192.51	175.000
192.89	400.000
193.27	87.500
193.65	25.000
194.02	90.000
194.40	80.000
194.78	140.000
195.15	183.333
195.53	270.000
195.91	-50.000
196.29	112.500
196.66	115.789
197.04	10.000
197.42	0.000
197.79	160.000
198.17	-1600.000
198.55	42.857
198.92	212.500
199.30	160.000
199.68	0.000
200.05	122.222
200.43	114.286
200.81	-200.000
201.18	233.333
201.56	-266.667
201.94	11.111
202.31	66.667
202.69	125.000
203.07	130.000
203.44	0.000
203.82	175.000
204.19	185.714
204.57	135.714
204.95	75.000
205.32	266.667
205.70	109.091
206.08	114.286
206.45	700.000
206.83	81.250
207.20	366.667
207.58	-100.000
207.96	77.778
208.33	312.500
208.71	-150.000
209.08	142.857
209.46	44.444
209.84	72.727
210.21	33.333
210.59	425.000
210.96	37.500
211.34	350.000
211.71	180.000
212.09	116.667
212.46	0.000
212.84	266.667
213.22	325.000
213.59	-0.000
213.97	133.333
214.34	285.714
214.72	163.636
215.09	220.000
215.47	-100.000
215.84	-350.000
216.22	333.333
216.59	107.143
216.97	625.000
217.34	90.909
217.72	100.000
218.09	0.000
218.47	100.000
218.84	100.000
219.22	285.714
219.59	100.000
219.97	57.143
220.34	100.000
220.72	-166.667
221.09	164.286
221.47	200.000
221.84	-350.000
222.22	0.000
222.59	250.000
222.97	-300.000
223.34	180.000
223.72	107.692
224.09	160.000
224.46	-100.000
224.84	-400.000
225.21	-220.000
225.59	-700.000
225.96	190.000
226.34	120.000
226.71	500.000
227.08	212.500
227.46	140.000
227.83	-75.000
228.21	-450.000
228.58	155.556
228.95	-200.000
229.33	-400.000
229.70	400.000
230.08	100.000
230.45	-40.000
230.82	58.333
231.20	133.333
231.57	-71.429
231.95	175.000
232.32	54.545
232.69	27.273
233.07	-42.857
233.44	107.692
233.81	-66.667
234.19	47.368
234.56	58.333
234.93	-8.333
235.31	54.545
235.68	0.000
236.05	0.000
236.43	33.333
236.80	0.000
237.17	500.000
237.55	42.857
237.92	53.571
238.29	9.524
238.67	19.355
239.04	58.621
239.41	8.333
239.79	13.043
240.16	4.762
240.53	22.727
240.91	3.922
241.28	6.000
241.65	2.000
242.02	13.043
242.40	-1.613
242.77	8.333
243.14	9.677
243.51	14.607
243.89	5.882
244.26	11.111
244.63	5.376
245.00	4.255
245.38	2.970
245.75	1.869
246.12	0.917
246.49	13.139
246.87	12.000
247.24	6.923
247.61	7.143
247.98	5.882
248.36	0.000
248.73	4.459
249.10	2.548
249.47	6.215
249.84	8.556
250.22	3.743
250.59	2.367
250.96	6.566
251.33	9.479
251.70	11.386
252.08	4.762
252.45	4.933
252.82	4.348
253.19	5.106
253.56	9.804
253.94	6.224
254.31	3.516
254.68	8.077
255.05	9.225
255.42	0.407
255.79	5.147
256.16	4.332
256.54	2.473
256.91	4.626
257.28	3.957
257.65	3.630
258.02	5.901
258.39	5.678
258.76	1.003
259.14	4.167
259.51	2.736
259.88	1.242
260.25	3.625
260.62	4.046
260.99	1.242
261.36	5.405
261.73	2.865
262.10	1.453
262.47	4.789
262.85	2.786
263.22	-1.709
263.59	2.279
263.96	4.670
264.33	4.961
264.70	3.158
265.07	5.627
265.44	5.556
265.81	2.190
266.18	2.513
266.55	4.878
266.92	2.457
267.29	5.556
267.66	2.982
268.03	3.636
268.40	1.869
268.77	0.477
269.14	3.604
269.51	3.386
269.88	3.730
270.25	3.612
270.62	3.596
270.99	7.097
271.36	4.292
271.73	1.869
272.10	1.304
272.47	3.871
272.84	4.113
273.21	5.451
273.58	-0.437
273.95	-0.419
274.32	1.446
274.69	4.497
275.06	1.772
275.43	3.191
275.80	2.806
276.17	2.648
276.54	3.742
276.91	3.953
277.28	1.758
277.65	2.708
278.02	0.000
278.39	5.859
278.76	3.818
279.13	2.075
279.50	4.283
279.87	2.789
280.23	1.796
280.60	1.354
280.97	2.033
281.34	5.841
281.71	3.091
282.08	3.455
282.45	1.455
282.82	1.421
283.19	2.139
283.56	4.912
283.92	4.569
284.29	2.646
284.66	1.815
285.03	1.447
285.40	3.697
285.77	2.862
286.14	2.073
286.51	3.500
286.87	2.735
287.24	3.909
287.61	3.371
287.98	2.110
288.35	2.219
288.72	2.804
289.08	3.599
289.45	1.153
289.82	2.764
290.19	1.884
290.56	1.072
290.93	0.302
291.29	1.380
291.66	3.245
292.03	4.215
292.40	3.818
292.77	1.923
293.13	2.687
293.50	1.603
293.87	3.111
294.24	2.815
294.60	1.747
294.97	1.308
295.34	4.372
295.71	1.705
296.08	1.994
296.44	1.788
296.81	3.303
297.18	4.201
297.55	2.507
297.91	3.298
298.28	3.481
298.65	3.525
299.02	3.821
299.38	1.461
299.75	1.752
300.12	3.321
300.48	3.875
300.85	4.192
301.22	3.439
301.59	2.399
301.95	1.763
302.32	3.466
302.69	3.943
303.05	3.152
303.42	2.840
303.79	3.851
304.15	2.448
304.52	2.665
304.89	2.904
305.25	2.900
305.62	3.511
305.99	4.368
306.35	4.474
306.72	3.363
307.09	3.774
307.45	4.617
307.82	3.013
308.19	2.428
308.55	3.883
308.92	4.511
309.29	2.218
309.65	4.242
310.02	4.123
310.38	4.516
310.75	4.541
311.12	3.992
311.48	5.120
311.85	4.507
312.22	3.954
312.58	4.158
312.95	6.019
313.31	4.951
313.68	4.054
314.05	6.016
314.41	4.925
314.78	5.539
315.14	4.667
315.51	4.634
315.87	5.941
316.24	4.866
316.61	3.996
316.97	5.186
317.34	5.186
317.70	6.119
318.07	5.775
318.43	5.088
318.80	6.092
319.16	5.367
319.53	5.159
319.89	6.571
320.26	6.100
320.62	6.746
320.99	5.758
321.35	6.263
321.72	6.674
322.08	7.206
322.45	7.363
322.81	7.461
323.18	8.285
323.54	8.349
323.91	7.547
324.27	7.457
324.64	7.549
325.00	7.755
325.37	7.916
325.73	9.425
326.10	8.650
326.46	7.706
326.83	9.664
327.19	9.821
327.56	8.624
327.92	9.011
328.29	10.115
328.65	9.576
329.01	10.018
329.38	9.251
329.74	9.788
330.11	10.368
330.47	10.468
330.84	10.754
331.20	9.654
331.56	10.734
331.93	10.093
332.29	9.938
332.66	10.619
333.02	9.506
333.38	11.382
333.75	9.982
334.11	11.210
334.48	10.382
334.84	11.029
335.20	11.182
335.57	10.063
335.93	9.375
336.29	10.714
336.66	10.640
337.02	9.864
337.38	10.648
337.75	10.071
338.11	10.385
338.47	9.853
338.84	9.899
339.20	9.817
339.56	10.675
339.93	10.364
340.29	9.964
340.65	11.408
341.02	10.297
341.38	10.142
341.74	10.789
342.11	11.092
342.47	10.396
342.83	10.616
343.20	10.996
343.56	11.036
343.92	10.088
344.28	11.480
344.65	11.608
345.01	9.596
345.37	9.863
345.73	10.406
346.10	9.804
346.46	10.085
346.82	9.720
347.19	9.607
347.55	9.934
347.91	9.951
348.27	10.846
348.63	10.033
349.00	10.194
349.36	10.181
349.72	10.024
350.08	8.995
350.45	10.659
350.81	9.748
351.17	9.968
351.53	9.419
351.89	9.571
352.26	10.576
352.62	10.345
352.98	10.130
353.34	10.682
353.70	10.393
354.07	11.290
354.43	10.397
354.79	9.735
355.15	10.455
355.51	10.711
355.87	9.878
356.24	9.772
356.60	9.703
356.96	9.654
357.32	10.793
357.68	10.945
358.04	10.214
358.40	10.689
358.77	10.016
359.13	10.339
359.49	10.275
359.85	8.810
360.21	9.888
360.57	10.661
360.93	10.615
361.29	10.809
361.66	9.675
362.02	10.522
362.38	10.646
362.74	10.045
363.10	9.252
363.46	9.905
363.82	10.355
364.18	11.087
364.54	10.624
364.90	10.765
365.26	9.706
365.62	10.299
365.98	10.299
366.35	10.100
366.71	11.135
367.07	9.978
367.43	10.232
367.79	10.207
368.15	10.560
368.51	10.392
368.87	10.207
369.23	10.534
369.59	10.789
369.95	10.368
370.31	10.755
370.67	10.725
371.03	10.262
371.39	10.569
371.75	10.588
372.11	10.526
372.47	10.630
372.83	11.239
373.19	10.043
373.55	9.978
373.91	10.751
374.27	10.172
374.63	9.891
374.99	10.311
375.35	10.119
375.71	10.212
376.07	10.631
376.42	9.972
376.78	11.266
377.14	11.194
377.50	11.126
377.86	10.372
378.22	10.936
378.58	10.025
378.94	10.622
379.30	10.115
379.66	10.660
380.02	10.442
380.38	10.200
380.74	11.405
381.09	10.697
381.45	11.063
381.81	10.504
382.17	10.955
382.53	10.063
382.89	11.111
383.25	9.881
383.61	10.781
383.97	11.132
384.32	10.543
384.68	10.037
385.04	10.695
385.40	11.084
385.76	10.627
386.12	11.010
386.48	10.950
386.83	10.904
387.19	12.183
387.55	10.204
387.91	10.943
388.27	10.178
388.62	10.756
388.98	11.179
389.34	11.327
389.70	11.159
390.06	11.534
390.42	10.117
390.77	11.260
391.13	10.657
391.49	11.231
391.85	9.421
392.20	9.842
392.56	10.164
392.92	9.888
393.28	9.882
393.64	11.391
393.99	10.812
394.35	10.422
394.71	9.410
395.07	10.031
395.42	10.136
395.78	11.005
396.14	10.552
396.50	11.216
396.85	10.490
397.21	10.604
397.57	9.981
397.92	10.577
398.28	10.034
398.64	10.454
399.00	9.905
399.35	9.193
399.71	9.896
400.07	10.585
400.42	10.184
400.78	10.736
401.14	10.183
401.49	10.149
401.85	9.377
402.21	9.281
402.57	9.130
402.92	9.269
403.28	10.119
403.63	9.158
403.99	9.682
404.35	9.879
404.70	8.993
405.06	9.144
405.42	9.357
405.77	9.314
406.13	9.537
406.49	9.225
406.84	8.683
407.20	8.156
407.55	9.062
407.91	9.267
408.27	8.807
408.62	9.091
408.98	8.946
409.34	8.918
409.69	9.613
410.05	8.984
410.40	8.685
410.76	9.020
411.11	9.349
411.47	8.946
411.83	8.919
412.18	8.349
412.54	8.904
412.89	9.277
413.25	9.504
413.60	9.203
413.96	8.865
414.31	9.113
414.67	9.316
415.03	8.477
415.38	9.601
415.74	8.810
416.09	8.948
416.45	8.233
416.80	9.319
417.16	9.786
417.51	10.020
417.87	8.735
418.22	8.896
418.58	10.458
418.93	9.459
419.29	8.975
419.64	9.194
420.00	9.939
420.35	9.217
420.71	9.803
421.06	8.473
421.42	8.713
421.77	9.753
422.12	8.984
422.48	8.311
422.83	9.377
423.19	9.779
423.54	9.576
423.90	9.739
424.25	9.045
424.61	9.464
424.96	9.096
425.31	9.745
425.67	9.157
426.02	9.371
426.38	10.012
426.73	8.953
427.09	9.605
427.44	9.661
427.79	9.546
428.15	10.179
428.50	9.772
428.85	10.429
429.21	9.001
429.56	10.627
429.92	9.763
430.27	9.533
430.62	9.165
430.98	10.586
431.33	10.052
431.68	10.366
432.04	10.650
432.39	10.109
432.74	9.814
433.10	9.847
433.45	10.437
433.80	9.645
434.16	10.363
434.51	10.684
434.86	9.863
435.22	10.395
435.57	9.787
435.92	10.240
436.28	10.795
436.63	11.203
436.98	9.788
437.34	10.555
437.69	11.027
438.04	10.118
438.39	10.388
438.75	9.994
439.10	10.056
439.45	10.449
439.81	10.937
440.16	10.390
440.51	11.424
440.86	10.886
441.22	10.512
441.57	10.828
441.92	10.491
442.27	11.249
442.63	11.164
442.98	11.211
443.33	11.033
443.68	10.274
444.03	10.786
444.39	10.516
444.74	11.364
445.09	11.213
445.44	11.044
445.79	11.331
446.15	11.064
446.50	11.093
446.85	11.408
447.20	11.168
447.55	11.111
447.91	11.638
448.26	10.796
448.61	10.627
448.96	11.794
449.31	11.361
449.66	11.424
450.02	10.808
450.37	11.508
450.72	10.829
451.07	10.664
451.42	10.395
451.77	11.274
452.12	11.605
452.47	11.070
452.83	11.305
453.18	10.941
453.53	12.121
453.88	11.577
454.23	12.433
454.58	12.053
454.93	11.888
455.28	10.723
455.63	11.165
455.98	12.679
456.34	11.181
456.69	11.334
457.04	11.393
457.39	11.631
457.74	11.550
458.09	11.846
458.44	11.403
458.79	10.792
459.14	11.625
459.49	11.442
459.84	11.136
460.19	11.373
460.54	11.111
460.89	11.245
461.24	12.265
461.59	12.551
461.94	11.344
462.29	12.166
462.64	11.870
462.99	11.581
463.34	12.467
463.69	12.070
464.04	11.768
464.39	11.536
464.74	11.943
465.09	11.037
465.44	11.302
465.79	11.353
466.14	12.042
466.49	11.290
466.84	11.792
467.19	12.010
467.54	12.250
467.89	11.585
468.24	10.995
468.59	12.149
468.94	11.118
469.29	11.440
469.64	12.249
469.99	11.908
470.34	11.096
470.68	11.494
471.03	10.952
471.38	11.258
471.73	11.859
472.08	12.697
472.43	12.249
472.78	11.652
473.13	11.682
473.48	11.735
473.83	11.890
474.17	10.828
474.52	11.600
474.87	12.142
475.22	11.724
475.57	11.123
475.92	10.887
476.27	11.330
476.61	11.142
476.96	11.600
477.31	11.146
477.66	11.597
478.01	10.821
478.36	11.846
478.70	10.852
479.05	11.821
479.40	11.515
479.75	11.235
480.10	11.382
480.45	10.947
480.79	10.511
481.14	11.252
481.49	11.723
481.84	11.614
482.19	11.268
482.53	10.963
482.88	11.354
483.23	11.776
483.58	11.647
483.92	11.809
484.27	10.806
484.62	11.379
484.97	10.997
485.31	11.336
485.66	10.546
486.01	10.612
486.36	10.635
486.70	10.816
487.05	11.074
487.40	11.287
487.75	10.953
488.09	11.586
488.44	11.274
488.79	11.175
489.13	11.497
489.48	11.623
489.83	10.445
490.17	11.618
490.52	10.983
490.87	10.583
491.22	11.050
491.56	11.162
491.91	11.354
492.26	11.484
492.60	11.567
492.95	10.945
493.30	11.168
493.64	11.106
493.99	11.049
494.34	11.147
494.68	11.630
495.03	10.667
495.37	11.401
495.72	11.550
496.07	11.462
496.41	10.752
496.76	11.653
497.11	10.851
497.45	11.225
497.80	10.845
498.14	11.014
498.49	11.024
498.84	11.170
499.18	11.333
499.53	10.826
499.87	11.650
500.22	11.399
500.56	11.650
500.91	10.962
501.26	11.000
501.60	11.723
501.95	10.999
502.29	11.293
502.64	11.639
502.98	10.986
503.33	10.740
503.67	11.415
504.02	11.132
504.36	11.511
504.71	11.334
505.06	10.458
505.40	10.744
505.75	10.752
506.09	11.127
506.44	11.347
506.78	11.252
507.13	11.055
507.47	11.364
507.82	11.246
508.16	11.348
508.51	11.111
508.85	10.675
509.19	10.918
509.54	10.612
509.88	11.077
510.23	11.620
510.57	11.404
510.92	11.289
511.26	11.202
511.61	11.411
511.95	10.386
512.30	10.764
512.64	10.747
512.98	11.200
513.33	11.563
513.67	10.939
514.02	10.552
514.36	11.141
514.70	10.404
515.05	10.820
515.39	10.881
515.74	11.205
516.08	11.291
516.42	11.598
516.77	11.650
517.11	10.266
517.46	11.174
517.80	11.266
518.14	10.191
518.49	10.735
518.83	10.682
519.17	11.374
519.52	10.753
519.86	11.580
520.20	11.734
520.55	11.730
520.89	11.071
521.23	11.460
521.58	10.744
521.92	11.145
522.26	10.311
522.61	10.218
522.95	10.374
523.29	10.408
523.64	10.976
523.98	10.906
524.32	10.495
524.66	11.124
525.01	10.294
525.35	10.843
525.69	10.653
526.04	11.028
526.38	10.311
526.72	10.613
527.06	10.923
527.41	10.087
527.75	10.675
528.09	9.762
528.43	11.536
528.78	10.756
529.12	10.182
529.46	10.961
529.80	10.644
530.15	11.963
530.49	10.708
530.83	11.329
531.17	10.836
531.51	10.700
531.86	9.871
532.20	10.691
532.54	11.595
532.88	11.168
533.22	9.931
533.57	11.111
533.91	10.415
534.25	10.814
534.59	10.189
534.93	11.065
535.27	11.044
535.62	10.440
535.96	10.169
536.30	10.935
536.64	10.753
536.98	10.418
537.32	9.677
537.66	10.600
538.01	10.402
538.35	10.601
538.69	10.721
539.03	10.006
539.37	9.010
539.71	8.944
540.05	10.654
540.39	9.302
540.73	10.220
541.07	10.513
541.42	10.828
541.76	10.774
542.10	10.220
542.44	9.470
542.78	10.474
543.12	10.045
543.46	11.016
543.80	10.410
544.14	9.884
544.48	10.540
544.82	10.135
545.16	10.280
545.50	9.576
545.84	10.282
546.18	9.832
546.52	10.117
546.86	10.653
547.20	10.452
547.54	10.488
547.88	11.288
548.22	10.399
548.56	10.503
548.90	9.987
549.24	9.360
549.58	10.027
549.92	10.096
550.26	10.440
550.60	9.682
550.94	10.070
551.28	9.144
551.62	10.065
551.96	10.877
552.30	10.307
552.64	10.412
552.98	10.305
553.32	10.249
553.66	9.816
554.00	9.952
554.34	9.662
554.68	10.658
555.02	10.437
555.36	10.021
555.69	9.946
556.03	10.565
556.37	9.072
556.71	9.345
557.05	10.364
557.39	10.427
557.73	9.668
558.07	8.774
558.41	10.492
558.75	10.140
559.08	10.291
559.42	10.809
559.76	10.221
560.10	10.493
560.44	10.063
560.78	9.780
561.12	9.499
561.45	10.365
561.79	9.888
562.13	10.463
562.47	10.041
562.81	10.181
563.15	10.301
563.48	9.881
563.82	9.720
564.16	9.745
564.50	9.896
564.84	9.482
565.17	9.331
565.51	9.712
565.85	10.343
566.19	9.080
566.52	9.816
566.86	9.222
567.20	10.259
567.54	10.331
567.88	8.148
568.21	9.524
568.55	9.606
568.89	9.582
569.23	9.225
569.56	9.352
569.90	9.019
570.24	8.827
570.57	9.215
570.91	9.114
571.25	9.141
571.59	9.219
571.92	9.044
572.26	8.983
572.60	9.429
572.93	8.576
573.27	9.021
573.61	8.599
573.95	9.225
574.28	8.744
574.62	8.698
574.96	8.650
575.29	8.632
575.63	8.638
575.97	8.878
576.30	9.187
576.64	8.517
576.98	8.629
577.31	8.618
577.65	8.643
577.98	8.826
578.32	8.678
578.66	8.910
578.99	8.856
579.33	8.642
579.67	8.465
580.00	8.535
580.34	8.946
580.67	8.816
581.01	8.702
581.35	8.734
581.68	8.834
582.02	8.448
582.35	8.716
582.69	8.774
583.02	8.956
583.36	9.062
583.70	8.766
584.03	9.091
584.37	9.170
584.70	8.751
585.04	9.247
585.37	9.040
585.71	8.999
586.04	9.181
586.38	9.065
586.72	9.058
587.05	9.019
587.39	8.786
587.72	8.658
588.06	9.125
588.39	8.724
588.73	8.918
589.06	8.912
589.40	9.192
589.73	9.433
590.07	9.146
590.40	8.550
590.73	9.016
591.07	9.687
591.40	9.194
591.74	9.740
592.07	9.075
592.41	9.343
592.74	9.213
593.08	9.227
593.41	8.984
593.75	8.651
594.08	9.018
594.41	9.191
594.75	8.762
595.08	9.449
595.42	9.142
595.75	8.868
596.09	9.613
596.42	9.902
596.75	9.287
597.09	9.784
597.42	9.191
597.75	8.668
598.09	9.348
598.42	9.364
598.76	8.837
599.09	8.894
599.42	9.025
599.76	9.370
600.09	8.561
600.42	8.583
600.76	8.821
601.09	8.743
601.42	8.638
601.76	9.602
602.09	9.091
602.42	9.912
602.76	9.150
603.09	9.599
603.42	9.410
603.76	8.689
604.09	8.763
604.42	9.213
604.76	9.911
605.09	9.131
605.42	9.320
605.75	9.189
606.09	8.418
606.42	9.236
606.75	8.337
607.09	9.125
607.42	8.858
607.75	8.143
608.08	9.336
608.42	9.502
608.75	9.152
609.08	9.436
609.41	9.376
609.75	9.481
610.08	9.519
610.41	8.799
610.74	8.751
611.07	9.239
611.41	8.832
611.74	9.653
612.07	9.369
612.40	9.654
612.73	9.368
613.07	8.944
613.40	9.531
613.73	8.128
614.06	9.301
614.39	9.544
614.72	9.053
615.06	9.034
615.39	9.076
615.72	9.202
616.05	8.878
616.38	9.450
616.71	8.967
617.05	9.128
617.38	9.140
617.71	8.829
618.04	9.195
618.37	8.752
618.70	9.085
619.03	9.342
619.36	9.165
619.69	9.225
620.03	9.684
620.36	9.158
620.69	9.932
621.02	9.808
621.35	8.457
621.68	8.489
622.01	9.985
622.34	8.926
622.67	8.593
623.00	7.924
623.33	9.650
623.66	8.435
623.99	8.984
624.32	9.415
624.65	8.898
624.99	9.065
625.32	9.486
625.65	9.391
625.98	9.685
626.31	10.031
626.64	9.143
626.97	9.061
627.30	9.310
627.63	8.942
627.96	10.597
628.29	9.274
628.62	10.704
628.95	10.283
629.28	9.398
629.61	9.991
629.94	8.000
630.26	8.866
630.59	9.724
630.92	9.387
631.25	10.069
631.58	9.610
631.91	8.012
632.24	9.810
632.57	9.234
632.90	8.772
633.23	10.291
633.56	10.056
633.89	9.740
634.22	9.421
634.55	9.941
634.88	8.623
635.20	9.916
635.53	10.120
635.86	9.406
636.19	8.824
636.52	9.227
636.85	9.737
637.18	9.101
637.51	9.929
637.83	8.878
638.16	10.230
638.49	8.690
638.82	11.378
639.15	9.000
639.48	9.102
639.81	9.383
640.13	10.156
640.46	10.470
640.79	10.436
641.12	7.703
641.45	10.056
641.77	8.984
642.10	9.942
642.43	8.709
642.76	9.752
643.09	9.969
643.41	9.256
643.74	9.259
644.07	7.927
644.40	11.963
644.73	11.654
645.05	11.094
645.38	9.005
645.71	9.984
646.04	11.794
646.36	13.022
646.69	12.040
647.02	9.354
647.35	7.388
647.67	10.088
648.00	12.195
648.33	8.746
648.66	10.000
648.98	10.945
649.31	9.118
649.64	10.015
649.96	11.177
650.29	9.795
650.62	9.061
650.94	8.266
651.27	10.642
651.60	9.318
651.92	9.265
652.25	8.469
652.58	8.879
652.90	10.585
653.23	9.245
653.56	9.134
653.88	9.033
654.21	11.216
654.54	9.241
654.86	10.748
655.19	9.730
655.52	7.352
655.84	7.170
656.17	8.984
656.49	11.973
656.82	12.163
657.15	9.269
657.47	6.993
657.80	5.463
658.13	5.712
658.45	9.005
658.78	8.412
659.10	9.091
659.43	9.224
659.75	8.977
660.08	9.494
660.41	9.963
660.73	11.690
661.06	9.076
661.38	10.545
661.71	11.923
662.03	10.454
662.36	7.356
662.68	10.040
663.01	8.687
663.33	8.493
663.66	12.395
663.98	7.991
664.31	9.454
664.63	9.312
664.96	7.042
665.28	10.041
665.61	9.747
665.93	9.256
666.26	7.302
666.58	9.414
666.91	10.148
667.23	9.663
667.56	7.775
667.88	8.974
668.21	14.072
668.53	11.063
668.86	8.442
669.18	12.367
669.50	11.957
669.83	12.418
670.15	10.667
670.48	10.240
670.80	7.974
671.13	9.554
671.45	8.298
671.77	12.016
672.10	10.351
672.42	9.364
672.75	10.282
673.07	8.979
673.39	8.499
673.72	9.180
674.04	11.569
674.37	8.350
674.69	8.589
675.01	9.414
675.34	11.294
675.66	12.211
675.98	12.424
676.31	8.613
676.63	11.465
676.95	10.482
677.28	7.477
677.60	7.912
677.92	10.127
678.25	9.035
678.57	10.558
678.89	8.617
679.22	10.413
679.54	10.878
679.86	9.358
680.18	8.587
680.51	9.929
680.83	9.431
681.15	8.302
681.48	10.397
681.80	7.350
682.12	7.471
682.44	6.383
682.77	10.387
683.09	9.657
683.41	8.869
683.73	7.064
684.06	10.331
684.38	11.350
684.70	10.853
685.02	10.319
685.34	9.341
685.67	6.993
685.99	8.247
686.31	9.898
686.63	7.774
686.96	8.571
687.28	9.386
687.60	7.246
687.92	10.969
688.24	9.125
688.56	10.643
688.89	8.921
689.21	11.572
689.53	9.812
689.85	10.200
690.17	8.282
690.49	9.979
690.82	8.879
691.14	7.589
691.46	7.384
691.78	9.839
692.10	9.091
692.42	9.980
692.74	8.506
693.06	9.574
693.39	10.062
693.71	8.952
694.03	9.684
694.35	9.524
694.67	8.467
694.99	10.488
695.31	7.108
695.63	7.177
695.95	7.824
696.27	9.898
696.59	6.736
696.91	13.472
697.23	7.746
697.56	9.382
697.88	8.793
698.20	8.125
698.52	10.753
698.84	10.468
699.16	8.756
699.48	8.076
699.80	7.971
700.12	10.130
700.44	9.284
700.76	7.182
701.08	9.195
701.40	8.939
701.72	11.079
702.04	11.080
702.36	5.949
702.68	9.915
703.00	11.634
703.32	10.106
703.64	9.383
703.96	9.192
704.28	6.977
704.60	11.437
704.91	10.979
705.23	12.023
705.55	11.628
705.87	9.635
706.19	6.714
706.51	6.854
706.83	10.909
707.15	8.964
707.47	7.071
707.79	11.794
708.11	8.676
708.43	9.048
708.74	7.908
709.06	10.130
709.38	8.661
709.70	9.302
710.02	9.199
710.34	9.091
710.66	8.955
710.98	13.636
711.29	10.756
711.61	13.864
711.93	7.692
712.25	11.576
712.57	10.294
712.89	6.228
713.20	12.158
713.52	11.513
713.84	7.595
714.16	8.537
714.48	10.345
714.80	14.286
715.11	10.375
715.43	8.902
715.75	10.435
716.07	9.904
716.39	10.658
716.70	11.296
717.02	8.273
717.34	10.601
717.66	14.552
717.97	11.952
718.29	10.741
718.61	9.489
718.93	10.294
719.24	10.035
719.56	9.492
719.88	13.898
720.20	13.514
720.51	10.801
720.83	12.639
721.15	7.090
721.46	6.738
721.78	8.602
722.10	12.075
722.42	11.278
722.73	14.232
723.05	8.607
723.37	6.478
723.68	11.197
724.00	10.569
724.32	7.258
724.63	11.789
724.95	8.368
725.27	10.931
725.58	10.937
725.90	8.759
726.22	8.679
726.53	7.292
726.85	9.898
727.16	8.541
727.48	9.220
727.80	9.091
728.11	11.232
728.43	6.154
728.74	11.470
729.06	11.679
729.38	10.294
729.69	14.235
730.01	6.485
730.32	6.250
730.64	11.371
730.96	3.300
731.27	8.940
731.59	11.927
731.90	12.536
732.22	5.901
732.53	9.288
732.85	9.615
733.16	4.823
733.48	6.645
733.80	9.416
734.11	9.873
734.43	12.722
734.74	8.571
735.06	8.309
735.37	13.584
735.69	8.917
736.00	10.458
736.32	11.215
736.63	11.502
736.95	8.307
737.26	3.741
737.58	6.452
737.89	12.709
738.21	10.922
738.52	9.643
738.83	5.283
739.15	7.692
739.46	12.409
739.78	12.847
740.09	8.308
740.41	11.290
740.72	9.408
741.04	8.889
741.35	7.083
741.66	12.444
741.98	8.491
742.29	7.656
742.61	13.793
742.92	7.692
743.23	8.547
743.55	14.800
743.86	8.772
744.18	9.735
744.49	8.612
744.80	16.432
745.12	12.727
745.43	11.454
745.74	12.162
746.06	15.596
746.37	16.592
746.68	11.312
747.00	11.574
747.31	9.048
747.62	5.752
747.94	6.608
748.25	8.085
748.56	12.775
748.88	7.426
749.19	10.000
749.50	9.302
749.82	8.943
750.13	8.571
750.44	8.394
750.75	9.825
751.07	14.148
751.38	10.801
751.69	9.386
752.01	9.774
752.32	9.747
752.63	10.993
752.94	9.016
753.26	8.800
753.57	5.691
753.88	10.547
754.19	10.714
754.51	13.889
754.82	5.776
755.13	9.434
755.44	10.150
755.75	10.949
756.07	7.801
756.38	7.299
756.69	9.732
757.00	6.886
757.31	10.682
757.63	6.433
757.94	9.115
758.25	10.539
758.56	6.914
758.87	6.989
759.18	7.879
759.50	7.524
759.81	7.788
760.12	7.187
760.43	9.456
760.74	8.424
761.05	8.192
761.36	8.289
761.67	10.227
761.99	9.006
762.30	6.250
762.61	8.779
762.92	13.281
763.23	9.664
763.54	10.800
763.85	7.031
764.16	11.923
764.47	12.928
764.78	5.300
765.10	6.646
765.41	10.029
765.72	8.982
766.03	6.583
766.34	6.000
766.65	11.915
766.96	10.684
767.27	12.183
767.58	11.458
767.89	12.105
768.20	9.195
768.51	6.599
768.82	11.009
769.13	12.195
769.44	9.717
769.75	11.588
770.06	6.881
770.37	13.575
770.68	12.037
770.99	8.000
771.30	6.557
771.61	10.314
771.92	12.295
772.23	15.126
772.54	6.154
772.85	15.183
773.16	13.830
773.47	11.413
773.78	18.782
774.09	12.500
774.39	19.883
774.70	11.728
775.01	7.246
775.32	15.686
775.63	11.184
775.94	11.511
776.25	14.961
776.56	11.194
776.87	7.377
777.18	7.031
777.48	16.031
777.79	14.394
778.10	20.000
778.41	9.821
778.72	13.869
779.03	12.752
779.34	9.396
779.65	7.432
779.95	9.816
780.26	18.954
780.57	17.241
780.88	18.750
781.19	16.541
781.50	11.486
781.80	10.692
782.11	9.040
782.42	6.962
782.73	6.748
783.04	8.108
783.34	7.042
783.65	15.753
783.96	14.925
784.27	6.294
784.57	11.511
784.88	-1.852
785.19	12.698
785.50	7.547
785.81	16.418
786.11	27.049
786.42	13.953
786.73	14.159
787.04	12.264
787.34	10.714
787.65	20.000
787.96	1.802
788.26	5.785
788.57	15.254
788.88	18.182
789.19	13.194
789.49	21.212
789.80	17.557
790.11	16.190
790.41	6.931
790.72	22.892
791.03	17.391
791.33	18.605
791.64	12.371
791.95	24.752
792.25	17.778
792.56	7.792
792.87	24.359
793.17	25.316
793.48	26.437
793.79	24.138
794.09	9.091
794.40	10.924
794.70	16.176
795.01	9.630
795.32	14.388
795.62	13.386
795.93	6.034
796.23	15.929
796.54	7.059
796.85	1.351
797.15	14.085
797.46	12.121
797.76	26.506
798.07	20.253
798.37	6.154
798.68	19.697
798.99	8.451
799.29	20.779
799.60	25.000
799.90	27.397
800.21	11.940
800.51	8.621
800.82	29.825
801.12	19.672
801.43	24.242
801.73	10.811
802.04	25.397
802.34	8.642
802.65	12.500
802.95	18.644
803.26	25.000
803.56	17.143
803.87	10.769
804.17	17.647
804.48	27.778
804.78	10.345
805.09	7.353
805.39	11.538
805.70	25.000
806.00	29.508
806.30	19.697
806.61	26.829
806.91	-1.266
807.22	5.263
807.52	-7.463
807.83	21.127
808.13	21.875
808.43	33.333
808.74	21.053
809.04	21.739
809.35	16.418
809.65	7.895
809.95	40.323
810.26	11.864
810.56	7.937
810.86	9.091
811.17	11.905
811.47	35.000
811.77	9.259
812.08	12.727
812.38	30.000
812.69	2.778
812.99	38.636
813.29	26.531
813.59	-7.143
813.90	24.490
814.20	36.364
814.50	24.615
814.81	38.235
815.11	6.122
815.41	29.508
815.72	30.952
816.02	29.091
816.32	14.286
816.62	-5.000
816.93	19.512
817.23	30.952
817.53	20.455
817.84	0.000
818.14	41.304
818.44	0.000
818.74	17.647
819.04	37.500
819.35	11.429
819.65	41.176
819.95	-3.571
820.25	-20.000
820.56	46.154
820.86	31.818
821.16	44.186
821.46	38.462
821.76	50.000
822.07	25.714
822.37	32.500
822.67	30.303
822.97	11.765
823.27	64.286
823.57	13.514
823.88	22.500
824.18	10.000
824.48	14.286
824.78	40.000
825.08	54.167
825.38	37.838
825.69	14.634
825.99	45.833
826.29	10.345
826.59	55.263
826.89	28.947
827.19	32.353
827.49	35.484
827.79	54.545
828.09	29.545
828.39	21.277
828.70	55.102
829.00	25.926
829.30	0.000
829.60	30.000
829.90	26.667
830.20	67.857
830.50	34.783
830.80	8.696
831.10	53.333
831.40	53.333
831.70	4.348
832.00	46.154
832.30	29.630
832.60	56.250
832.90	53.333
833.20	178.571
833.50	67.742
833.80	13.793
834.10	40.625
834.40	46.154
834.70	11.111
835.00	114.286
835.30	48.571
835.60	-7.692
835.90	55.172
836.20	71.429
836.50	62.069
836.80	0.000
837.10	63.889
837.40	52.381
837.70	88.235
838.00	40.741
838.30	23.810
838.60	80.952
838.90	38.462
839.19	65.000
839.49	85.714
839.79	110.000
840.09	65.000
840.39	19.048
840.69	65.217
840.99	27.778
841.29	100.000
841.59	50.000
841.88	43.750
842.18	20.690
842.48	71.429
842.78	30.000
843.08	39.130
843.38	21.875
843.68	50.000
843.97	46.154
844.27	41.379
844.57	80.952
844.87	106.250
845.17	62.963
845.47	-133.333
845.76	-44.444
846.06	82.353
846.36	-12.500
846.66	121.429
846.96	25.000
847.25	81.818
847.55	-72.727
847.85	86.957
848.15	50.000
848.44	85.714
848.74	55.556
849.04	52.941
849.34	150.000
849.63	5.263
849.93	109.091
850.23	100.000
850.53	107.143
850.82	250.000
851.12	-100.000
851.42	600.000
851.71	70.000
852.01	266.667
852.31	33.333
852.61	433.333
852.90	47.619
853.20	56.000
853.50	70.588
853.79	80.952
854.09	-4.167
854.39	137.500
854.68	32.432
854.98	38.710
855.28	10.000
855.57	55.172
855.87	44.444
856.17	36.842
856.46	-53.333
856.76	47.059
857.05	55.172
857.35	16.667
857.65	73.333
857.94	39.130
858.24	53.846
858.53	55.000
858.83	22.727
859.13	153.333
859.42	0.000
859.72	166.667
860.01	18.182
860.31	31.818
860.60	89.474
860.90	47.826
861.20	33.333
861.49	183.333
861.79	-700.000
862.08	75.000
862.38	66.667
862.67	-38.462
862.97	88.235
863.26	111.111
863.56	22.222
863.85	58.333
864.15	-50.000
864.44	146.667
864.74	100.000
865.03	112.500
865.33	78.947
865.62	-54.545
865.92	100.000
866.21	33.333
866.51	0.000
866.80	100.000
867.10	300.000
867.39	138.462
867.69	100.000
867.98	26.316
868.27	54.545
868.57	89.474
868.86	-800.000
869.16	62.500
869.45	-100.000
869.75	-700.000
870.04	141.667
870.33	214.286
870.63	150.000
870.92	0.000
871.22	200.000
871.51	129.412
871.80	0.000
872.10	107.143
>>>>>End Processed Spectral Data<<<<<
