SpectraSuite Data File
++++++++++++++++++++++++++++++++++++
Date: Wed May 13 16:11:34 PDT 2015
User: schluterlab
Dark Spectrum Present: Yes
Reference Spectrum Present: Yes
Number of Sampled Component Spectra: 1
Spectrometers: USB2E3373
Integration Time (usec): 3000 (USB2E3373)
Spectra Averaged: 3 (USB2E3373)
Boxcar Smoothing: 0 (USB2E3373)
Correct for Electrical Dark: No (USB2E3373)
Strobe/Lamp Enabled: No (USB2E3373)
Correct for Detector Non-linearity: No (USB2E3373)
Correct for Stray Light: No (USB2E3373)
Number of Pixels in Processed Spectrum: 2048
>>>>>Begin Processed Spectral Data<<<<<
178.53	0.000
178.91	-900.000
179.29	-1075.000
179.67	-127.778
180.04	-800.000
180.42	2250.000
180.80	820.000
181.18	-725.000
181.56	614.286
181.94	0.000
182.31	-542.857
182.69	1366.667
183.07	-200.000
183.45	-266.667
183.83	436.364
184.20	-280.000
184.58	1900.000
184.96	4300.000
185.34	-620.000
185.72	-450.000
186.09	-1550.000
186.47	1850.000
186.85	1300.000
187.23	3800.000
187.61	-1133.333
187.98	1025.000
188.36	427.273
188.74	354.545
189.12	-840.000
189.49	440.000
189.87	-3800.000
190.25	-675.000
190.63	250.000
191.00	376.923
191.38	566.667
191.76	-825.000
192.14	1000.000
192.51	487.500
192.89	600.000
193.27	425.000
193.65	-825.000
194.02	360.000
194.40	660.000
194.78	490.000
195.15	341.667
195.53	440.000
195.91	-1500.000
196.29	237.500
196.66	273.684
197.04	-210.000
197.42	0.000
197.79	370.000
198.17	-3600.000
198.55	500.000
198.92	537.500
199.30	820.000
199.68	0.000
200.05	288.889
200.43	542.857
200.81	2500.000
201.18	1300.000
201.56	-1100.000
201.94	466.667
202.31	466.667
202.69	366.667
203.07	430.000
203.44	0.000
203.82	975.000
204.19	642.857
204.57	357.143
204.95	462.500
205.32	1266.667
205.70	390.909
206.08	271.429
206.45	2400.000
206.83	237.500
207.20	766.667
207.58	600.000
207.96	255.556
208.33	475.000
208.71	-433.333
209.08	585.714
209.46	455.556
209.84	336.364
210.21	-766.667
210.59	1025.000
210.96	-312.500
211.34	1950.000
211.71	370.000
212.09	533.333
212.46	0.000
212.84	1300.000
213.22	1000.000
213.59	-4700.000
213.97	683.333
214.34	485.714
214.72	463.636
215.09	860.000
215.47	-1650.000
215.84	-1600.000
216.22	1100.000
216.59	321.429
216.97	1025.000
217.34	400.000
217.72	-516.667
218.09	0.000
218.47	-3200.000
218.84	600.000
219.22	528.571
219.59	1233.333
219.97	-400.000
220.34	800.000
220.72	-1466.667
221.09	342.857
221.47	1200.000
221.84	-583.333
222.22	0.000
222.59	975.000
222.97	-1750.000
223.34	740.000
223.72	346.154
224.09	760.000
224.46	1850.000
224.84	-3400.000
225.21	-780.000
225.59	-3500.000
225.96	390.000
226.34	240.000
226.71	2350.000
227.08	562.500
227.46	410.000
227.83	-825.000
228.21	-1800.000
228.58	566.667
228.95	-1400.000
229.33	-1700.000
229.70	1100.000
230.08	557.143
230.45	-480.000
230.82	358.333
231.20	633.333
231.57	600.000
231.95	350.000
232.32	213.636
232.69	363.636
233.07	514.286
233.44	223.077
233.81	-1500.000
234.19	231.579
234.56	250.000
234.93	300.000
235.31	272.727
235.68	284.615
236.05	300.000
236.43	139.394
236.80	194.737
237.17	2500.000
237.55	209.524
237.92	157.143
238.29	147.619
238.67	129.032
239.04	158.621
239.41	102.778
239.79	93.478
240.16	97.619
240.53	111.364
240.91	64.706
241.28	68.000
241.65	70.000
242.02	81.159
242.40	51.613
242.77	66.667
243.14	43.011
243.51	55.056
243.89	60.000
244.26	48.889
244.63	49.462
245.00	40.426
245.38	38.614
245.75	43.925
246.12	37.615
246.49	45.985
246.87	48.000
247.24	39.231
247.61	45.000
247.98	36.601
248.36	31.757
248.73	40.127
249.10	33.758
249.47	31.638
249.84	34.759
250.22	26.738
250.59	30.769
250.96	28.283
251.33	32.227
251.70	34.158
252.08	30.476
252.45	26.906
252.82	25.217
253.19	26.809
253.56	26.275
253.94	29.461
254.31	27.344
254.68	30.385
255.05	27.306
255.42	26.016
255.79	25.000
256.16	25.271
256.54	20.141
256.91	21.352
257.28	20.144
257.65	20.132
258.02	23.292
258.39	23.659
258.76	21.739
259.14	22.917
259.51	20.669
259.88	22.360
260.25	21.148
260.62	21.387
260.99	21.118
261.36	23.724
261.73	24.355
262.10	20.640
262.47	23.944
262.85	19.777
263.22	19.373
263.59	25.641
263.96	21.154
264.33	19.843
264.70	22.368
265.07	23.274
265.44	19.192
265.81	20.195
266.18	19.095
266.55	19.268
266.92	19.410
267.29	18.519
267.66	20.183
268.03	18.409
268.40	19.626
268.77	21.002
269.14	18.468
269.51	19.413
269.88	18.182
270.25	20.316
270.62	18.427
270.99	19.355
271.36	20.172
271.73	14.720
272.10	18.043
272.47	18.925
272.84	19.048
273.21	21.803
273.58	16.812
273.95	18.868
274.32	17.149
274.69	19.058
275.06	17.323
275.43	18.936
275.80	17.836
276.17	17.312
276.54	19.751
276.91	18.182
277.28	18.164
277.65	18.182
278.02	18.427
278.39	19.141
278.76	16.000
279.13	19.057
279.50	18.808
279.87	17.928
280.23	17.365
280.60	15.667
280.97	17.560
281.34	19.115
281.71	17.818
282.08	17.658
282.45	16.545
282.82	16.874
283.19	16.934
283.56	16.140
283.92	18.274
284.29	17.284
284.66	16.697
285.03	16.094
285.40	14.613
285.77	16.835
286.14	16.062
286.51	17.000
286.87	17.436
287.24	15.798
287.61	16.854
287.98	17.208
288.35	15.848
288.72	16.199
289.08	16.275
289.45	16.969
289.82	15.772
290.19	15.228
290.56	15.926
290.93	15.408
291.29	15.184
291.66	17.109
292.03	16.570
292.40	16.887
292.77	16.420
293.13	14.925
293.50	14.577
293.87	16.148
294.24	15.556
294.60	13.392
294.97	15.116
295.34	15.374
295.71	16.619
296.08	14.103
296.44	14.030
296.81	14.003
297.18	17.344
297.55	12.929
297.91	14.380
298.28	16.332
298.65	16.319
299.02	17.787
299.38	13.280
299.75	11.321
300.12	14.687
300.48	14.250
300.85	13.564
301.22	14.904
301.59	14.520
301.95	13.350
302.32	14.377
302.69	14.576
303.05	13.576
303.42	16.049
303.79	14.723
304.15	13.520
304.52	12.514
304.89	13.124
305.25	15.545
305.62	14.609
305.99	15.112
306.35	14.653
306.72	14.686
307.09	15.760
307.45	16.667
307.82	14.062
308.19	14.901
308.55	14.024
308.92	13.104
309.29	13.094
309.65	13.574
310.02	14.376
310.38	13.011
310.75	14.572
311.12	13.818
311.48	13.375
311.85	14.465
312.22	14.776
312.58	14.449
312.95	15.628
313.31	14.466
313.68	14.345
314.05	16.174
314.41	15.879
314.78	15.307
315.14	15.789
315.51	15.242
315.87	15.644
316.24	14.796
316.61	14.620
316.97	15.264
317.34	14.579
317.70	15.488
318.07	14.533
318.43	16.145
318.80	16.776
319.16	15.160
319.53	15.009
319.89	16.095
320.26	16.000
320.62	14.881
320.99	15.253
321.35	15.455
321.72	15.503
322.08	16.190
322.45	16.517
322.81	16.667
323.18	17.148
323.54	16.790
323.91	16.604
324.27	15.774
324.64	16.403
325.00	16.050
325.37	16.833
325.73	18.133
326.10	16.946
326.46	16.308
326.83	17.256
327.19	17.592
327.56	17.422
327.92	17.760
328.29	16.770
328.65	17.311
329.01	16.606
329.38	17.391
329.74	17.729
330.11	17.531
330.47	17.172
330.84	17.463
331.20	17.304
331.56	17.523
331.93	17.315
332.29	17.746
332.66	17.699
333.02	17.642
333.38	17.525
333.75	18.360
334.11	17.972
334.48	17.214
334.84	17.463
335.20	17.545
335.57	17.770
335.93	18.036
336.29	17.674
336.66	17.944
337.02	16.290
337.38	17.870
337.75	16.310
338.11	17.726
338.47	16.943
338.84	17.874
339.20	17.431
339.56	17.701
339.93	16.909
340.29	17.572
340.65	17.201
341.02	17.539
341.38	17.883
341.74	16.140
342.11	17.205
342.47	17.269
342.83	17.380
343.20	18.095
343.56	17.186
343.92	17.982
344.28	17.347
344.65	17.627
345.01	17.088
345.37	17.410
345.73	17.259
346.10	16.709
346.46	16.780
346.82	16.804
347.19	17.293
347.55	16.502
347.91	17.557
348.27	19.885
348.63	17.057
349.00	17.557
349.36	16.502
349.72	17.001
350.08	16.937
350.45	17.575
350.81	17.303
351.17	18.233
351.53	17.445
351.89	16.502
352.26	17.601
352.62	17.562
352.98	16.451
353.34	17.338
353.70	15.548
354.07	17.177
354.43	17.540
354.79	17.699
355.15	17.159
355.51	17.666
355.87	17.959
356.24	16.775
356.60	17.723
356.96	17.699
357.32	18.234
357.68	17.165
358.04	17.340
358.40	17.260
358.77	17.214
359.13	17.364
359.49	17.647
359.85	16.825
360.21	17.703
360.57	18.599
360.93	17.923
361.29	17.536
361.66	17.570
362.02	16.940
362.38	17.871
362.74	18.229
363.10	17.172
363.46	17.902
363.82	17.611
364.18	18.209
364.54	17.831
364.90	18.484
365.26	18.603
365.62	17.239
365.98	18.262
366.35	17.837
366.71	17.570
367.07	17.626
367.43	19.376
367.79	18.844
368.15	19.540
368.51	17.951
368.87	18.344
369.23	18.069
369.59	18.465
369.95	18.971
370.31	18.091
370.67	17.971
371.03	19.625
371.39	17.930
371.75	18.456
372.11	18.492
372.47	18.475
372.83	19.524
373.19	19.147
373.55	18.847
373.91	19.735
374.27	18.969
374.63	19.273
374.99	19.280
375.35	18.981
375.71	18.986
376.07	20.302
376.42	20.358
376.78	20.013
377.14	19.742
377.50	19.603
377.86	19.415
378.22	20.860
378.58	19.298
378.94	20.490
379.30	19.656
379.66	20.812
380.02	21.007
380.38	19.551
380.74	21.128
381.09	20.293
381.45	21.758
381.81	20.946
382.17	20.318
382.53	20.755
382.89	20.432
383.25	20.700
383.61	21.004
383.97	21.889
384.32	22.084
384.68	21.128
385.04	20.529
385.40	21.672
385.76	21.069
386.12	21.762
386.48	22.907
386.83	22.450
387.19	22.016
387.55	22.078
387.91	21.886
388.27	22.195
388.62	22.741
388.98	22.482
389.34	22.466
389.70	22.195
390.06	22.370
390.42	22.698
390.77	23.346
391.13	22.782
391.49	22.779
391.85	21.961
392.20	21.451
392.56	22.854
392.92	22.719
393.28	21.361
393.64	22.662
393.99	23.580
394.35	21.960
394.71	22.459
395.07	22.555
395.42	23.300
395.78	23.092
396.14	22.905
396.50	22.744
396.85	23.204
397.21	23.305
397.57	23.559
397.92	23.317
398.28	21.917
398.64	22.820
399.00	23.223
399.35	22.955
399.71	23.148
400.07	23.063
400.42	22.822
400.78	23.703
401.14	23.293
401.49	22.925
401.85	21.960
402.21	22.275
402.57	23.134
402.92	24.023
403.28	23.860
403.63	23.020
403.99	22.866
404.35	23.152
404.70	22.962
405.06	23.005
405.42	22.832
405.77	22.743
406.13	22.178
406.49	23.536
406.84	23.213
407.20	22.281
407.55	23.101
407.91	23.000
408.27	22.974
408.62	22.577
408.98	23.223
409.34	22.632
409.69	22.968
410.05	23.482
410.40	23.670
410.76	21.864
411.11	23.221
411.47	23.003
411.83	23.702
412.18	22.387
412.54	23.101
412.89	23.012
413.25	23.140
413.60	22.730
413.96	23.012
414.31	22.053
414.67	22.433
415.03	22.980
415.38	23.067
415.74	23.666
416.09	23.383
416.45	23.427
416.80	23.529
417.16	23.592
417.51	23.756
417.87	22.864
418.22	22.776
418.58	23.370
418.93	22.973
419.29	22.788
419.64	22.859
420.00	23.049
420.35	23.420
420.71	23.192
421.06	22.255
421.42	23.333
421.77	23.038
422.12	21.673
422.48	22.234
422.83	22.539
423.19	22.928
423.54	22.867
423.90	23.014
424.25	21.999
424.61	23.214
424.96	21.633
425.31	22.813
425.67	22.360
426.02	22.400
426.38	23.138
426.73	21.826
427.09	22.249
427.44	22.254
427.79	22.542
428.15	23.512
428.50	22.235
428.85	23.242
429.21	22.308
429.56	22.758
429.92	22.094
430.27	22.443
430.62	21.864
430.98	22.314
431.33	21.856
431.68	22.356
432.04	22.471
432.39	22.901
432.74	22.741
433.10	22.411
433.45	23.149
433.80	21.951
434.16	22.596
434.51	22.737
434.86	23.375
435.22	23.235
435.57	23.526
435.92	22.060
436.28	22.894
436.63	22.848
436.98	22.095
437.34	22.958
437.69	24.562
438.04	22.990
438.39	23.463
438.75	23.475
439.10	21.676
439.45	23.731
439.81	22.779
440.16	22.586
440.51	23.902
440.86	24.030
441.22	22.358
441.57	23.567
441.92	23.183
442.27	23.036
442.63	22.643
442.98	22.930
443.33	23.261
443.68	22.767
444.03	22.792
444.39	21.665
444.74	22.078
445.09	23.235
445.44	22.471
445.79	22.860
446.15	23.187
446.50	23.048
446.85	22.765
447.20	22.642
447.55	23.786
447.91	22.945
448.26	23.595
448.61	22.555
448.96	23.422
449.31	22.835
449.66	23.241
450.02	22.006
450.37	23.299
450.72	22.955
451.07	22.669
451.42	22.553
451.77	23.488
452.12	22.171
452.47	22.761
452.83	23.077
453.18	22.922
453.53	23.377
453.88	23.509
454.23	23.491
454.58	23.985
454.93	24.730
455.28	23.878
455.63	23.362
455.98	23.988
456.34	23.492
456.69	23.168
457.04	24.087
457.39	22.852
457.74	22.403
458.09	23.519
458.44	23.204
458.79	22.289
459.14	23.251
459.49	23.117
459.84	23.213
460.19	22.628
460.54	22.569
460.89	23.094
461.24	23.254
461.59	23.940
461.94	23.305
462.29	22.967
462.64	22.910
462.99	23.617
463.34	23.867
463.69	23.014
464.04	23.768
464.39	23.014
464.74	22.698
465.09	22.919
465.44	22.604
465.79	22.987
466.14	23.262
466.49	22.970
466.84	23.409
467.19	23.476
467.54	24.500
467.89	22.509
468.24	23.095
468.59	23.626
468.94	22.724
469.29	24.357
469.64	24.096
469.99	23.951
470.34	23.844
470.68	24.641
471.03	23.197
471.38	24.809
471.73	24.317
472.08	25.921
472.43	24.183
472.78	23.502
473.13	24.005
473.48	24.345
473.83	23.293
474.17	23.335
474.52	25.000
474.87	23.935
475.22	24.376
475.57	23.966
475.92	23.579
476.27	23.901
476.61	23.056
476.96	23.804
477.31	23.862
477.66	23.195
478.01	23.210
478.36	25.383
478.70	24.247
479.05	23.429
479.40	24.463
479.75	23.538
480.10	23.608
480.45	23.798
480.79	23.698
481.14	23.532
481.49	23.636
481.84	23.091
482.19	23.716
482.53	23.761
482.88	23.220
483.23	23.692
483.58	24.113
483.92	23.711
484.27	22.614
484.62	22.802
484.97	23.453
485.31	23.459
485.66	21.927
486.01	20.505
486.36	19.965
486.70	19.217
487.05	20.523
487.40	20.991
487.75	21.166
488.09	21.929
488.44	21.981
488.79	23.038
489.13	23.147
489.48	22.635
489.83	23.177
490.17	23.367
490.52	23.384
490.87	23.474
491.22	23.374
491.56	22.961
491.91	22.243
492.26	22.692
492.60	23.456
492.95	23.152
493.30	23.131
493.64	23.332
493.99	23.120
494.34	23.219
494.68	24.451
495.03	23.919
495.37	23.872
495.72	23.928
496.07	23.480
496.41	23.230
496.76	23.175
497.11	22.602
497.45	23.847
497.80	23.177
498.14	23.092
498.49	23.366
498.84	24.449
499.18	23.714
499.53	23.884
499.87	23.113
500.22	24.352
500.56	24.854
500.91	23.125
501.26	23.139
501.60	24.110
501.95	23.373
502.29	23.993
502.64	24.395
502.98	24.310
503.33	23.857
503.67	23.852
504.02	24.041
504.36	24.614
504.71	24.377
505.06	24.241
505.40	23.967
505.75	23.770
506.09	24.150
506.44	24.322
506.78	24.988
507.13	25.088
507.47	25.505
507.82	25.228
508.16	25.177
508.51	26.332
508.85	24.280
509.19	25.255
509.54	24.592
509.88	25.502
510.23	25.141
510.57	25.851
510.92	26.100
511.26	25.540
511.61	25.571
511.95	25.000
512.30	25.716
512.64	25.739
512.98	26.795
513.33	26.445
513.67	25.614
514.02	25.920
514.36	27.198
514.70	26.619
515.05	26.213
515.39	27.201
515.74	27.083
516.08	26.439
516.42	27.081
516.77	27.090
517.11	26.249
517.46	26.693
517.80	27.700
518.14	27.273
518.49	28.121
518.83	27.500
519.17	27.252
519.52	27.900
519.86	27.781
520.20	27.052
520.55	28.845
520.89	28.954
521.23	29.011
521.58	28.812
521.92	28.720
522.26	26.724
522.61	28.785
522.95	28.300
523.29	28.484
523.64	28.598
523.98	29.020
524.32	28.890
524.66	28.022
525.01	28.309
525.35	28.563
525.69	28.448
526.04	28.100
526.38	28.493
526.72	28.589
527.06	29.379
527.41	27.847
527.75	29.518
528.09	29.929
528.43	28.999
528.78	29.994
529.12	28.424
529.46	28.291
529.80	29.084
530.15	29.159
530.49	28.800
530.83	29.494
531.17	29.504
531.51	30.285
531.86	29.032
532.20	29.074
532.54	29.660
532.88	29.332
533.22	28.045
533.57	28.210
533.91	28.597
534.25	28.554
534.59	28.554
534.93	28.019
535.27	28.425
535.62	28.205
535.96	28.939
536.30	26.891
536.64	28.654
536.98	29.595
537.32	27.650
537.66	29.533
538.01	29.493
538.35	29.282
538.69	29.675
539.03	28.395
539.37	28.562
539.71	28.127
540.05	28.954
540.39	29.302
540.73	28.396
541.07	29.007
541.42	29.419
541.76	29.613
542.10	28.008
542.44	27.285
542.78	30.171
543.12	27.831
543.46	29.377
543.80	28.172
544.14	27.664
544.48	28.444
544.82	28.031
545.16	28.953
545.50	27.699
545.84	28.495
546.18	29.024
546.52	28.562
546.86	29.691
547.20	28.186
547.54	28.991
547.88	28.763
548.22	28.456
548.56	27.736
548.90	28.105
549.24	27.340
549.58	28.786
549.92	29.121
550.26	28.693
550.60	28.216
550.94	29.155
551.28	28.456
551.62	30.338
551.96	27.930
552.30	28.669
552.64	27.519
552.98	28.610
553.32	28.591
553.66	28.971
554.00	28.964
554.34	27.950
554.68	29.041
555.02	27.715
555.36	28.532
555.69	26.658
556.03	27.927
556.37	28.854
556.71	28.581
557.05	27.941
557.39	28.761
557.73	28.229
558.07	29.079
558.41	28.292
558.75	29.537
559.08	28.784
559.42	29.252
559.76	28.676
560.10	28.551
560.44	28.092
560.78	27.678
561.12	27.836
561.45	28.488
561.79	28.411
562.13	27.632
562.47	28.620
562.81	28.382
563.15	27.425
563.48	28.316
563.82	27.267
564.16	27.600
564.50	26.888
564.84	27.181
565.17	27.156
565.51	27.476
565.85	26.777
566.19	26.863
566.52	26.536
566.86	26.944
567.20	26.828
567.54	26.712
567.88	25.747
568.21	26.614
568.55	25.278
568.89	25.486
569.23	24.287
569.56	23.927
569.90	23.660
570.24	23.717
570.57	23.291
570.91	22.463
571.25	22.112
571.59	22.622
571.92	22.206
572.26	22.588
572.60	22.643
572.93	22.159
573.27	22.212
573.61	22.055
573.95	21.938
574.28	21.332
574.62	21.040
574.96	20.812
575.29	21.145
575.63	21.596
575.97	21.375
576.30	21.349
576.64	21.279
576.98	21.099
577.31	21.234
577.65	20.912
577.98	20.487
578.32	20.393
578.66	20.566
578.99	21.000
579.33	20.576
579.67	20.798
580.00	21.098
580.34	21.001
580.67	20.917
581.01	21.295
581.35	20.863
581.68	20.439
582.02	20.203
582.35	19.946
582.69	20.125
583.02	20.172
583.36	20.821
583.70	20.879
584.03	21.134
584.37	21.686
584.70	21.055
585.04	21.037
585.37	20.690
585.71	20.982
586.04	20.971
586.38	21.029
586.72	21.403
587.05	21.299
587.39	20.501
587.72	20.974
588.06	20.758
588.39	20.741
588.73	21.942
589.06	22.001
589.40	22.458
589.73	22.175
590.07	21.957
590.40	22.360
590.73	21.897
591.07	23.240
591.40	23.070
591.74	24.199
592.07	23.298
592.41	22.819
592.74	23.446
593.08	21.885
593.41	22.366
593.75	21.174
594.08	21.690
594.41	22.022
594.75	22.255
595.08	22.334
595.42	21.961
595.75	22.009
596.09	22.869
596.42	22.672
596.75	23.090
597.09	22.857
597.42	22.597
597.75	22.553
598.09	22.826
598.42	22.509
598.76	22.213
599.09	21.969
599.42	21.434
599.76	22.291
600.09	21.603
600.42	21.731
600.76	21.500
601.09	22.295
601.42	22.222
601.76	22.239
602.09	22.451
602.42	22.134
602.76	23.176
603.09	22.227
603.42	22.257
603.76	21.723
604.09	21.830
604.42	22.544
604.76	22.438
605.09	22.805
605.42	22.403
605.75	22.392
606.09	21.675
606.42	21.904
606.75	22.480
607.09	22.604
607.42	22.251
607.75	21.772
608.08	21.667
608.42	23.039
608.75	22.543
609.08	22.710
609.41	22.846
609.75	23.249
610.08	23.421
610.41	22.207
610.74	22.990
611.07	22.628
611.41	23.651
611.74	23.379
612.07	23.395
612.40	23.767
612.73	23.000
613.07	23.976
613.40	24.013
613.73	23.020
614.06	23.548
614.39	22.601
614.72	22.737
615.06	23.109
615.39	23.089
615.72	23.875
616.05	23.126
616.38	23.235
616.71	23.634
617.05	24.499
617.38	22.910
617.71	23.363
618.04	24.099
618.37	23.773
618.70	24.580
619.03	24.342
619.36	24.779
619.69	25.423
620.03	25.755
620.36	25.134
620.69	25.479
621.02	25.442
621.35	24.589
621.68	25.857
622.01	25.310
622.34	26.097
622.67	26.008
623.00	24.431
623.33	24.375
623.66	25.161
623.99	25.626
624.32	25.178
624.65	24.435
624.99	24.292
625.32	25.272
625.65	25.244
625.98	25.903
626.31	26.050
626.64	26.449
626.97	26.018
627.30	24.771
627.63	26.661
627.96	26.913
628.29	27.822
628.62	28.271
628.95	28.868
629.28	27.464
629.61	28.689
629.94	28.857
630.26	26.597
630.59	27.073
630.92	27.490
631.25	27.147
631.58	28.128
631.91	27.181
632.24	25.949
632.57	28.437
632.90	29.276
633.23	30.201
633.56	30.734
633.89	30.011
634.22	30.193
634.55	31.124
634.88	29.102
635.20	31.183
635.53	32.289
635.86	28.589
636.19	30.824
636.52	29.642
636.85	28.064
637.18	27.650
637.51	30.851
637.83	26.017
638.16	30.818
638.49	29.975
638.82	29.330
639.15	31.125
639.48	30.424
639.81	30.965
640.13	33.073
640.46	29.664
640.79	29.326
641.12	30.674
641.45	31.006
641.77	32.842
642.10	31.579
642.43	31.231
642.76	31.115
643.09	33.742
643.41	30.956
643.74	34.105
644.07	31.250
644.40	33.896
644.73	33.701
645.05	33.122
645.38	33.649
645.71	31.401
646.04	32.226
646.36	34.725
646.69	33.779
647.02	32.993
647.35	33.162
647.67	33.097
648.00	35.122
648.33	30.033
648.66	31.364
648.98	31.634
649.31	30.493
649.64	31.839
649.96	30.849
650.29	31.280
650.62	29.288
650.94	30.794
651.27	33.784
651.60	33.111
651.92	32.748
652.25	31.270
652.58	31.153
652.90	32.701
653.23	29.738
653.56	29.291
653.88	32.647
654.21	32.070
654.54	32.013
654.86	31.308
655.19	27.432
655.52	19.426
655.84	15.796
656.17	19.275
656.49	25.796
656.82	26.192
657.15	19.318
657.47	14.732
657.80	11.579
658.13	12.018
658.45	18.275
658.78	18.911
659.10	19.662
659.43	20.796
659.75	22.912
660.08	24.810
660.41	28.305
660.73	29.987
661.06	31.529
661.38	34.364
661.71	34.423
662.03	33.333
662.36	29.622
662.68	33.333
663.01	35.354
663.33	33.333
663.66	36.134
663.98	34.341
664.31	32.143
664.63	34.818
664.96	33.199
665.28	35.656
665.61	33.528
665.93	31.791
666.26	34.280
666.58	33.054
666.91	35.307
667.23	37.753
667.56	34.989
667.88	34.829
668.21	34.115
668.53	32.538
668.86	35.065
669.18	36.247
669.50	35.217
669.83	36.819
670.15	32.444
670.48	33.769
670.80	37.069
671.13	36.518
671.45	35.106
671.77	33.605
672.10	32.163
672.42	29.682
672.75	31.177
673.07	31.162
673.39	30.561
673.72	32.812
674.04	29.804
674.37	32.427
674.69	30.266
675.01	30.335
675.34	34.292
675.66	34.526
675.98	32.790
676.31	35.294
676.63	33.758
676.95	32.704
677.28	32.477
677.60	33.187
677.92	35.232
678.25	33.881
678.57	32.271
678.89	29.860
679.22	34.381
679.54	33.397
679.86	32.294
680.18	29.875
680.51	29.610
680.83	31.673
681.15	33.396
681.48	32.703
681.80	30.948
682.12	28.352
682.44	29.787
682.77	32.587
683.09	36.052
683.41	32.816
683.73	32.230
684.06	31.405
684.38	28.963
684.70	30.620
685.02	31.520
685.34	31.136
685.67	27.797
685.99	27.835
686.31	29.010
686.63	29.682
686.96	28.929
687.28	30.325
687.60	28.986
687.92	31.261
688.24	32.129
688.56	32.932
688.89	32.573
689.21	34.498
689.53	30.480
689.85	33.925
690.17	29.607
690.49	34.183
690.82	32.710
691.14	30.134
691.46	29.747
691.78	31.526
692.10	33.264
692.42	31.537
692.74	29.876
693.06	32.128
693.39	32.444
693.71	33.406
694.03	32.421
694.35	30.736
694.67	29.977
694.99	32.439
695.31	31.373
695.63	34.928
695.95	36.919
696.27	32.741
696.59	37.047
696.91	32.902
697.23	29.812
697.56	31.343
697.88	27.812
698.20	29.583
698.52	32.688
698.84	29.621
699.16	31.336
699.48	28.979
699.80	33.816
700.12	37.662
700.44	35.279
700.76	37.293
701.08	34.483
701.40	32.402
701.72	34.694
702.04	38.920
702.36	32.011
702.68	36.827
703.00	34.072
703.32	31.915
703.64	33.780
703.96	34.540
704.28	36.628
704.60	35.777
704.91	36.795
705.23	34.018
705.55	36.545
705.87	43.189
706.19	37.456
706.51	38.629
706.83	35.152
707.15	33.613
707.47	31.566
707.79	34.644
708.11	31.279
708.43	30.238
708.74	28.827
709.06	32.987
709.38	31.759
709.70	33.430
710.02	37.685
710.34	31.212
710.66	37.313
710.98	32.670
711.29	34.012
711.61	36.873
711.93	33.654
712.25	36.013
712.57	35.294
712.89	38.754
713.20	37.690
713.52	36.842
713.84	32.911
714.16	34.451
714.48	33.621
714.80	37.082
715.11	31.700
715.43	33.828
715.75	35.362
716.07	34.824
716.39	36.364
716.70	34.551
717.02	35.612
717.34	33.216
717.66	40.299
717.97	37.849
718.29	35.556
718.61	36.131
718.93	41.544
719.24	37.370
719.56	32.203
719.88	36.610
720.20	38.851
720.51	36.585
720.83	38.662
721.15	38.060
721.46	33.333
721.78	35.842
722.10	42.264
722.42	39.098
722.73	38.577
723.05	38.115
723.37	36.032
723.68	38.996
724.00	37.805
724.32	38.306
724.63	41.463
724.95	37.657
725.27	42.915
725.58	37.891
725.90	36.131
726.22	32.075
726.53	37.847
726.85	33.788
727.16	36.299
727.48	37.943
727.80	39.394
728.11	33.333
728.43	34.615
728.74	33.333
729.06	36.861
729.38	37.132
729.69	37.011
730.01	31.399
730.32	32.639
730.64	38.127
730.96	34.983
731.27	34.768
731.59	31.498
731.90	28.863
732.22	30.124
732.53	27.245
732.85	34.936
733.16	31.511
733.48	32.890
733.80	33.442
734.11	33.121
734.43	32.840
734.74	27.714
735.06	30.086
735.37	34.393
735.69	30.573
736.00	33.987
736.32	32.399
736.63	26.837
736.95	33.866
737.26	29.592
737.58	30.323
737.89	31.773
738.21	32.082
738.52	33.929
738.83	33.208
739.15	34.615
739.46	34.672
739.78	28.472
740.09	35.692
740.41	39.355
740.72	28.571
741.04	35.556
741.35	38.750
741.66	39.556
741.98	35.377
742.29	40.191
742.61	42.241
742.92	35.747
743.23	36.325
743.55	40.000
743.86	32.018
744.18	42.920
744.49	44.019
744.80	48.357
745.12	42.727
745.43	36.564
745.74	43.694
746.06	40.826
746.37	38.565
746.68	38.009
747.00	43.519
747.31	37.619
747.62	37.611
747.94	34.802
748.25	43.404
748.56	38.767
748.88	37.624
749.19	48.000
749.50	43.256
749.82	33.333
750.13	32.653
750.44	32.847
750.75	34.386
751.07	34.405
751.38	35.889
751.69	34.657
752.01	33.459
752.32	32.130
752.63	33.688
752.94	34.426
753.26	42.800
753.57	31.301
753.88	40.234
754.19	32.857
754.51	37.500
754.82	29.603
755.13	33.585
755.44	33.083
755.75	32.847
756.07	32.979
756.38	29.927
756.69	32.550
757.00	28.743
757.31	30.267
757.63	29.240
757.94	29.759
758.25	27.941
758.56	27.654
758.87	28.763
759.18	33.333
759.50	29.467
759.81	28.660
760.12	29.062
760.43	30.372
760.74	28.804
761.05	27.684
761.36	27.540
761.67	29.545
761.99	30.124
762.30	32.639
762.61	29.389
762.92	33.203
763.23	35.714
763.54	40.000
763.85	33.984
764.16	40.385
764.47	36.122
764.78	30.035
765.10	27.532
765.41	29.499
765.72	31.437
766.03	27.273
766.34	31.000
766.65	38.298
766.96	34.188
767.27	44.670
767.58	42.708
767.89	39.474
768.20	45.977
768.51	40.102
768.82	38.532
769.13	31.707
769.44	31.579
769.75	36.910
770.06	27.523
770.37	36.652
770.68	34.722
770.99	33.778
771.30	31.148
771.61	37.220
771.92	32.377
772.23	38.235
772.54	35.897
772.85	40.838
773.16	37.234
773.47	39.130
773.78	43.655
774.09	39.881
774.39	41.520
774.70	45.679
775.01	47.101
775.32	45.752
775.63	50.000
775.94	43.885
776.25	55.118
776.56	40.299
776.87	45.902
777.18	41.406
777.48	48.855
777.79	49.242
778.10	48.889
778.41	53.571
778.72	41.606
779.03	39.597
779.34	43.624
779.65	45.946
779.95	43.558
780.26	41.830
780.57	51.034
780.88	56.250
781.19	45.113
781.50	53.378
781.80	42.767
782.11	37.853
782.42	39.241
782.73	38.037
783.04	48.649
783.34	40.845
783.65	54.795
783.96	47.015
784.27	38.462
784.57	41.007
784.88	43.519
785.19	50.000
785.50	40.566
785.81	52.985
786.11	50.820
786.42	50.388
786.73	52.212
787.04	57.547
787.34	52.679
787.65	43.000
787.96	49.550
788.26	48.760
788.57	62.712
788.88	53.719
789.19	47.222
789.49	56.818
789.80	56.489
790.11	61.905
790.41	59.406
790.72	61.446
791.03	52.174
791.33	66.279
791.64	53.608
791.95	56.436
792.25	64.444
792.56	66.234
792.87	70.513
793.17	68.354
793.48	71.264
793.79	65.517
794.09	61.364
794.40	42.857
794.70	50.735
795.01	41.481
795.32	51.799
795.62	51.969
795.93	42.241
796.23	51.327
796.54	67.059
796.85	62.162
797.15	88.732
797.46	57.576
797.76	71.084
798.07	58.228
798.37	61.538
798.68	77.273
798.99	59.155
799.29	50.649
799.60	70.455
799.90	72.603
800.21	73.134
800.51	75.862
800.82	101.754
801.12	78.689
801.43	74.242
801.73	67.568
802.04	92.063
802.34	72.840
802.65	68.750
802.95	93.220
803.26	82.813
803.56	58.571
803.87	76.923
804.17	79.412
804.48	87.037
804.78	75.862
805.09	69.118
805.39	78.846
805.70	75.000
806.00	90.164
806.30	69.697
806.61	63.415
806.91	68.354
807.22	65.789
807.52	56.716
807.83	84.507
808.13	84.375
808.43	83.333
808.74	67.105
809.04	82.609
809.35	80.597
809.65	67.105
809.95	82.258
810.26	89.831
810.56	77.778
810.86	113.636
811.17	119.048
811.47	103.333
811.77	94.444
812.08	96.364
812.38	106.000
812.69	113.889
812.99	143.182
813.29	104.082
813.59	78.571
813.90	124.490
814.20	81.818
814.50	75.385
814.81	89.706
815.11	75.510
815.41	85.246
815.72	104.762
816.02	92.727
816.32	126.190
816.62	100.000
816.93	104.878
817.23	128.571
817.53	84.091
817.84	142.424
818.14	108.696
818.44	108.889
818.74	138.235
819.04	97.500
819.35	102.857
819.65	114.706
819.95	142.857
820.25	195.000
820.56	115.385
820.86	102.273
821.16	111.628
821.46	107.692
821.76	114.000
822.07	140.000
822.37	132.500
822.67	106.061
822.97	84.314
823.27	171.429
823.57	135.135
823.88	132.500
824.18	170.000
824.48	147.619
824.78	140.000
825.08	145.833
825.38	127.027
825.69	124.390
825.99	175.000
826.29	137.931
826.59	123.684
826.89	123.684
827.19	135.294
827.49	154.839
827.79	140.909
828.09	106.818
828.39	112.766
828.70	114.286
829.00	137.037
829.30	125.806
829.60	122.500
829.90	220.000
830.20	164.286
830.50	160.870
830.80	169.565
831.10	133.333
831.40	133.333
831.70	113.043
832.00	180.769
832.30	177.778
832.60	193.750
832.90	130.000
833.20	264.286
833.50	161.290
833.80	131.034
834.10	178.125
834.40	157.692
834.70	261.111
835.00	228.571
835.30	122.857
835.60	261.538
835.90	186.207
836.20	200.000
836.50	148.276
836.80	144.000
837.10	152.778
837.40	157.143
837.70	247.059
838.00	151.852
838.30	166.667
838.60	242.857
838.90	184.615
839.19	215.000
839.49	271.429
839.79	185.000
840.09	240.000
840.39	190.476
840.69	195.652
840.99	211.111
841.29	340.000
841.59	225.000
841.88	268.750
842.18	148.276
842.48	219.048
842.78	166.667
843.08	182.609
843.38	175.000
843.68	700.000
843.97	184.615
844.27	168.966
844.57	247.619
844.87	268.750
845.17	185.185
845.47	900.000
845.76	344.444
846.06	229.412
846.36	287.500
846.66	328.571
846.96	187.500
847.25	327.273
847.55	354.545
847.85	182.609
848.15	400.000
848.44	292.857
848.74	111.111
849.04	241.176
849.34	390.000
849.63	184.211
849.93	327.273
850.23	620.000
850.53	285.714
850.82	1900.000
851.12	-2900.000
851.42	4000.000
851.71	200.000
852.01	-900.000
852.31	208.333
852.61	1233.333
852.90	190.476
853.20	196.000
853.50	282.353
853.79	214.286
854.09	166.667
854.39	193.750
854.68	140.541
854.98	141.935
855.28	150.000
855.57	155.172
855.87	140.741
856.17	189.474
856.46	186.667
856.76	217.647
857.05	155.172
857.35	200.000
857.65	226.667
857.94	156.522
858.24	134.615
858.53	210.000
858.83	172.727
859.13	286.667
859.42	0.000
859.72	477.778
860.01	354.545
860.31	172.727
860.60	173.684
860.90	204.348
861.20	477.778
861.49	366.667
861.79	-3200.000
862.08	587.500
862.38	200.000
862.67	284.615
862.97	294.118
863.26	411.111
863.56	205.556
863.85	283.333
864.15	462.500
864.44	253.333
864.74	616.667
865.03	650.000
865.33	242.105
865.62	354.545
865.92	415.385
866.21	300.000
866.51	0.000
866.80	318.182
867.10	660.000
867.39	323.077
867.69	336.364
867.98	215.789
868.27	300.000
868.57	194.737
868.86	-2600.000
869.16	275.000
869.45	1700.000
869.75	-2800.000
870.04	391.667
870.33	500.000
870.63	650.000
870.92	1900.000
871.22	657.143
871.51	235.294
871.80	176.190
872.10	257.143
>>>>>End Processed Spectral Data<<<<<
