SpectraSuite Data File
++++++++++++++++++++++++++++++++++++
Date: Wed May 13 16:32:54 PDT 2015
User: schluterlab
Dark Spectrum Present: Yes
Reference Spectrum Present: Yes
Number of Sampled Component Spectra: 1
Spectrometers: USB2E3373
Integration Time (usec): 3000 (USB2E3373)
Spectra Averaged: 3 (USB2E3373)
Boxcar Smoothing: 0 (USB2E3373)
Correct for Electrical Dark: No (USB2E3373)
Strobe/Lamp Enabled: No (USB2E3373)
Correct for Detector Non-linearity: No (USB2E3373)
Correct for Stray Light: No (USB2E3373)
Number of Pixels in Processed Spectrum: 2048
>>>>>Begin Processed Spectral Data<<<<<
178.53	0.000
178.91	-875.000
179.29	-1150.000
179.67	-166.667
180.04	-1150.000
180.42	2250.000
180.80	1000.000
181.18	-925.000
181.56	614.286
181.94	0.000
182.31	-500.000
182.69	1666.667
183.07	-537.500
183.45	-433.333
183.83	472.727
184.20	-330.000
184.58	2200.000
184.96	4700.000
185.34	-640.000
185.72	-562.500
186.09	-2050.000
186.47	2600.000
186.85	2200.000
187.23	3700.000
187.61	-1466.667
187.98	1225.000
188.36	481.818
188.74	500.000
189.12	-800.000
189.49	480.000
189.87	-4600.000
190.25	-900.000
190.63	328.571
191.00	353.846
191.38	800.000
191.76	-1050.000
192.14	1225.000
192.51	500.000
192.89	750.000
193.27	625.000
193.65	-975.000
194.02	480.000
194.40	780.000
194.78	500.000
195.15	483.333
195.53	560.000
195.91	-1900.000
196.29	262.500
196.66	300.000
197.04	-280.000
197.42	0.000
197.79	540.000
198.17	-5600.000
198.55	657.143
198.92	562.500
199.30	980.000
199.68	0.000
200.05	272.222
200.43	800.000
200.81	4200.000
201.18	1533.333
201.56	-1333.333
201.94	488.889
202.31	566.667
202.69	391.667
203.07	470.000
203.44	0.000
203.82	1050.000
204.19	642.857
204.57	371.429
204.95	512.500
205.32	1466.667
205.70	427.273
206.08	314.286
206.45	2450.000
206.83	325.000
207.20	866.667
207.58	760.000
207.96	283.333
208.33	687.500
208.71	-800.000
209.08	642.857
209.46	600.000
209.84	390.909
210.21	-1166.667
210.59	1275.000
210.96	-400.000
211.34	2200.000
211.71	550.000
212.09	783.333
212.46	0.000
212.84	1500.000
213.22	1175.000
213.59	-4300.000
213.97	950.000
214.34	800.000
214.72	436.364
215.09	1080.000
215.47	-2250.000
215.84	-2350.000
216.22	1433.333
216.59	335.714
216.97	1275.000
217.34	418.182
217.72	-583.333
218.09	0.000
218.47	-4300.000
218.84	600.000
219.22	685.714
219.59	1566.667
219.97	-657.143
220.34	940.000
220.72	-1600.000
221.09	407.143
221.47	1400.000
221.84	-766.667
222.22	0.000
222.59	1125.000
222.97	-2950.000
223.34	1060.000
223.72	384.615
224.09	900.000
224.46	2350.000
224.84	-5400.000
225.21	-1100.000
225.59	-3900.000
225.96	630.000
226.34	240.000
226.71	2550.000
227.08	625.000
227.46	490.000
227.83	-850.000
228.21	-1850.000
228.58	566.667
228.95	-2000.000
229.33	-1700.000
229.70	1700.000
230.08	657.143
230.45	-740.000
230.82	450.000
231.20	816.667
231.57	542.857
231.95	350.000
232.32	200.000
232.69	336.364
233.07	571.429
233.44	284.615
233.81	-1700.000
234.19	242.105
234.56	391.667
234.93	275.000
235.31	345.455
235.68	253.846
236.05	292.857
236.43	112.121
236.80	205.263
237.17	3100.000
237.55	171.429
237.92	182.143
238.29	223.810
238.67	122.581
239.04	148.276
239.41	122.222
239.79	102.174
240.16	121.429
240.53	109.091
240.91	76.471
241.28	92.000
241.65	72.000
242.02	76.812
242.40	62.903
242.77	75.000
243.14	63.441
243.51	61.798
243.89	57.647
244.26	40.000
244.63	40.860
245.00	42.553
245.38	34.653
245.75	39.252
246.12	40.367
246.49	41.606
246.87	48.000
247.24	41.538
247.61	33.571
247.98	35.948
248.36	37.162
248.73	29.299
249.10	27.389
249.47	25.989
249.84	34.225
250.22	26.203
250.59	31.361
250.96	25.253
251.33	28.910
251.70	31.188
252.08	25.714
252.45	28.251
252.82	23.478
253.19	25.957
253.56	21.961
253.94	21.577
254.31	20.703
254.68	24.231
255.05	18.819
255.42	17.073
255.79	19.853
256.16	22.744
256.54	19.788
256.91	20.996
257.28	17.626
257.65	16.832
258.02	18.012
258.39	18.297
258.76	18.395
259.14	18.452
259.51	15.502
259.88	12.112
260.25	19.940
260.62	17.630
260.99	13.975
261.36	15.015
261.73	16.905
262.10	14.244
262.47	16.620
262.85	16.435
263.22	13.390
263.59	19.373
263.96	14.286
264.33	14.883
264.70	15.000
265.07	17.136
265.44	16.414
265.81	10.949
266.18	13.568
266.55	12.195
266.92	14.496
267.29	14.815
267.66	12.385
268.03	12.045
268.40	13.318
268.77	9.785
269.14	10.586
269.51	15.576
269.88	13.753
270.25	12.415
270.62	12.135
270.99	16.344
271.36	15.236
271.73	12.617
272.10	12.391
272.47	14.194
272.84	10.390
273.21	14.256
273.58	11.135
273.95	11.111
274.32	13.017
274.69	11.777
275.06	9.843
275.43	10.851
275.80	10.621
276.17	11.609
276.54	12.058
276.91	9.289
277.28	11.719
277.65	11.799
278.02	9.317
278.39	13.672
278.76	10.727
279.13	11.509
279.50	11.918
279.87	11.554
280.23	10.978
280.60	10.058
280.97	9.427
281.34	11.681
281.71	12.364
282.08	12.668
282.45	11.273
282.82	12.256
283.19	7.130
283.56	11.053
283.92	11.506
284.29	11.111
284.66	11.071
285.03	11.031
285.40	10.915
285.77	9.428
286.14	10.708
286.51	11.500
286.87	10.256
287.24	11.726
287.61	10.112
287.98	11.364
288.35	9.667
288.72	9.190
289.08	9.233
289.45	9.555
289.82	8.293
290.19	7.378
290.56	8.576
290.93	8.157
291.29	8.282
291.66	10.619
292.03	10.465
292.40	9.985
292.77	9.763
293.13	8.358
293.50	9.329
293.87	8.593
294.24	8.148
294.60	8.443
294.97	8.430
295.34	9.873
295.71	8.949
296.08	8.689
296.44	7.703
296.81	8.587
297.18	8.943
297.55	6.332
297.91	7.784
298.28	7.764
298.65	10.574
299.02	9.881
299.38	6.906
299.75	5.526
300.12	8.046
300.48	8.000
300.85	8.508
301.22	8.535
301.59	6.566
301.95	8.438
302.32	7.574
302.69	8.124
303.05	7.879
303.42	7.160
303.79	8.041
304.15	6.410
304.52	7.184
304.89	7.666
305.25	7.077
305.62	8.381
305.99	9.327
306.35	8.389
306.72	8.744
307.09	7.880
307.45	7.658
307.82	7.031
308.19	9.161
308.55	9.924
308.92	7.411
309.29	7.603
309.65	7.423
310.02	7.717
310.38	7.849
310.75	7.814
311.12	8.086
311.48	9.195
311.85	8.491
312.22	8.533
312.58	8.524
312.95	9.715
313.31	7.767
313.68	8.212
314.05	10.454
314.41	8.744
314.78	9.668
315.14	9.434
315.51	8.960
315.87	9.703
316.24	10.228
316.61	7.992
316.97	8.611
317.34	9.002
317.70	9.751
318.07	9.913
318.43	9.687
318.80	10.590
319.16	10.923
319.53	10.319
319.89	10.095
320.26	10.900
320.62	11.210
320.99	11.515
321.35	11.111
321.72	11.704
322.08	11.254
322.45	12.239
322.81	11.725
323.18	12.139
323.54	12.059
323.91	12.736
324.27	12.237
324.64	11.556
325.00	11.181
325.37	12.830
325.73	12.926
326.10	13.063
326.46	13.262
326.83	13.978
327.19	13.407
327.56	11.672
327.92	12.161
328.29	13.576
328.65	13.812
329.01	13.718
329.38	13.321
329.74	12.835
330.11	13.007
330.47	14.325
330.84	13.787
331.20	13.024
331.56	14.404
331.93	13.796
332.29	14.108
332.66	14.956
333.02	14.899
333.38	14.544
333.75	15.508
334.11	14.769
334.48	14.020
334.84	14.430
335.20	14.727
335.57	14.415
335.93	13.214
336.29	13.278
336.66	14.608
337.02	12.760
337.38	14.167
337.75	13.725
338.11	14.414
338.47	14.273
338.84	13.566
339.20	13.394
339.56	15.146
339.93	12.273
340.29	13.768
340.65	13.725
341.02	15.183
341.38	14.235
341.74	13.421
342.11	14.148
342.47	14.449
342.83	14.555
343.20	14.372
343.56	14.490
343.92	13.860
344.28	14.371
344.65	13.586
345.01	14.815
345.37	12.864
345.73	14.044
346.10	13.640
346.46	14.322
346.82	13.756
347.19	13.283
347.55	14.122
347.91	13.430
348.27	14.544
348.63	13.880
349.00	13.026
349.36	13.711
349.72	13.793
350.08	14.263
350.45	14.483
350.81	13.241
351.17	14.100
351.53	14.414
351.89	12.789
352.26	14.601
352.62	14.194
352.98	14.182
353.34	14.215
353.70	13.830
354.07	13.790
354.43	14.603
354.79	13.837
355.15	13.328
355.51	14.468
355.87	14.776
356.24	15.309
356.60	14.114
356.96	14.481
357.32	14.391
357.68	14.803
358.04	14.331
358.40	14.648
358.77	14.397
359.13	14.759
359.49	13.725
359.85	13.651
360.21	13.557
360.57	15.486
360.93	14.462
361.29	14.210
361.66	13.854
362.02	14.776
362.38	13.916
362.74	15.476
363.10	14.286
363.46	14.453
363.82	14.739
364.18	14.317
364.54	15.453
364.90	14.802
365.26	15.368
365.62	14.463
365.98	13.660
366.35	13.897
366.71	15.401
367.07	14.712
367.43	15.530
367.79	15.560
368.15	16.595
368.51	14.971
368.87	16.060
369.23	15.143
369.59	16.003
369.95	15.221
370.31	16.097
370.67	15.797
371.03	16.779
371.39	16.254
371.75	16.471
372.11	15.932
372.47	16.569
372.83	16.715
373.19	15.246
373.55	16.556
373.91	17.452
374.27	16.564
374.63	16.655
374.99	17.232
375.35	16.399
375.71	16.107
376.07	17.558
376.42	17.538
376.78	17.893
377.14	17.571
377.50	17.815
377.86	17.221
378.22	18.458
378.58	16.479
378.94	17.913
379.30	18.066
379.66	18.528
380.02	18.489
380.38	18.336
380.74	19.208
381.09	19.315
381.45	19.607
381.81	19.349
382.17	19.682
382.53	19.560
382.89	20.864
383.25	19.137
383.61	20.322
383.97	20.263
384.32	20.462
384.68	20.632
385.04	20.652
385.40	20.433
385.76	20.946
386.12	21.956
386.48	21.963
386.83	22.001
387.19	22.511
387.55	21.645
387.91	22.007
388.27	21.704
388.62	22.557
388.98	22.850
389.34	22.904
389.70	22.318
390.06	23.131
390.42	23.346
390.77	23.410
391.13	23.293
391.49	23.223
391.85	22.406
392.20	22.524
392.56	23.990
392.92	23.543
393.28	22.899
393.64	23.981
393.99	24.130
394.35	24.194
394.71	24.153
395.07	23.551
395.42	24.351
395.78	24.873
396.14	24.767
396.50	25.251
396.85	24.031
397.21	24.106
397.57	24.117
397.92	23.498
398.28	23.206
398.64	24.671
399.00	24.510
399.35	23.463
399.71	24.190
400.07	24.660
400.42	24.847
400.78	24.849
401.14	23.902
401.49	24.657
401.85	24.501
402.21	24.072
402.57	24.244
402.92	24.275
403.28	24.485
403.63	24.567
403.99	24.777
404.35	25.091
404.70	24.580
405.06	23.063
405.42	24.329
405.77	24.629
406.13	24.379
406.49	25.015
406.84	23.745
407.20	23.700
407.55	25.207
407.91	24.667
408.27	25.335
408.62	24.744
408.98	24.571
409.34	24.047
409.69	25.032
410.05	25.403
410.40	24.465
410.76	24.552
411.11	25.090
411.47	24.601
411.83	24.557
412.18	24.366
412.54	25.342
412.89	24.398
413.25	24.911
413.60	24.645
413.96	24.469
414.31	24.666
414.67	24.018
415.03	24.238
415.38	25.258
415.74	25.273
416.09	24.428
416.45	24.699
416.80	24.058
417.16	24.598
417.51	24.685
417.87	24.021
418.22	24.795
418.58	24.467
418.93	24.140
419.29	23.870
419.64	25.063
420.00	24.329
420.35	24.522
420.71	24.626
421.06	24.165
421.42	24.737
421.77	24.383
422.12	22.796
422.48	24.123
422.83	24.287
423.19	23.978
423.54	24.376
423.90	24.638
424.25	24.400
424.61	23.810
424.96	24.840
425.31	24.474
425.67	24.213
426.02	23.600
426.38	25.153
426.73	23.874
427.09	23.891
427.44	23.807
427.79	24.382
428.15	24.643
428.50	24.225
428.85	24.613
429.21	24.572
429.56	23.484
429.92	24.358
430.27	23.138
430.62	22.785
430.98	23.664
431.33	23.866
431.68	23.822
432.04	24.281
432.39	24.443
432.74	24.177
433.10	24.901
433.45	24.373
433.80	23.836
434.16	23.878
434.51	23.211
434.86	23.318
435.22	23.402
435.57	24.802
435.92	23.464
436.28	24.318
436.63	24.614
436.98	23.068
437.34	23.673
437.69	24.037
438.04	24.115
438.39	24.119
438.75	25.218
439.10	24.190
439.45	24.439
439.81	24.109
440.16	23.828
440.51	24.546
440.86	25.014
441.22	23.248
441.57	23.832
441.92	24.207
442.27	24.273
442.63	23.802
442.98	23.887
443.33	23.478
443.68	23.283
444.03	23.231
444.39	23.418
444.74	23.918
445.09	23.827
445.44	23.455
445.79	23.355
446.15	23.452
446.50	23.640
446.85	23.844
447.20	23.967
447.55	24.288
447.91	24.214
448.26	23.539
448.61	24.138
448.96	24.086
449.31	23.678
449.66	23.635
450.02	23.343
450.37	23.469
450.72	23.914
451.07	23.827
451.42	23.647
451.77	23.371
452.12	22.517
452.47	24.005
452.83	23.077
453.18	23.472
453.53	24.552
453.88	22.623
454.23	23.610
454.58	23.804
454.93	24.539
455.28	23.192
455.63	23.058
455.98	24.524
456.34	23.744
456.69	23.669
457.04	23.467
457.39	22.268
457.74	23.854
458.09	23.519
458.44	22.862
458.79	22.505
459.14	23.589
459.49	23.643
459.84	22.881
460.19	23.159
460.54	22.975
460.89	23.368
461.24	23.679
461.59	23.765
461.94	23.428
462.29	23.561
462.64	22.910
462.99	22.056
463.34	25.000
463.69	23.515
464.04	22.667
464.39	22.725
464.74	23.708
465.09	22.859
465.44	21.607
465.79	21.924
466.14	22.605
466.49	22.080
466.84	22.650
467.19	22.993
467.54	23.562
467.89	22.629
468.24	22.804
468.59	22.772
468.94	23.580
469.29	23.586
469.64	23.293
469.99	23.072
470.34	22.655
470.68	22.773
471.03	22.653
471.38	23.211
471.73	22.785
472.08	22.961
472.43	22.236
472.78	22.646
473.13	23.684
473.48	22.534
473.83	22.073
474.17	22.278
474.52	22.953
474.87	22.825
475.22	22.519
475.57	21.816
475.92	22.199
476.27	21.871
476.61	22.008
476.96	21.165
477.31	20.984
477.66	22.101
478.01	21.589
478.36	22.105
478.70	21.963
479.05	21.619
479.40	22.160
479.75	20.996
480.10	21.372
480.45	20.895
480.79	20.449
481.14	20.939
481.49	20.835
481.84	20.942
482.19	21.081
482.53	21.606
482.88	21.638
483.23	20.841
483.58	20.883
483.92	21.321
484.27	19.782
484.62	20.905
484.97	20.181
485.31	21.233
485.66	19.641
486.01	18.828
486.36	17.789
486.70	17.496
487.05	18.832
487.40	18.846
487.75	18.921
488.09	19.290
488.44	19.246
488.79	20.000
489.13	20.321
489.48	20.310
489.83	20.501
490.17	20.605
490.52	20.195
490.87	20.217
491.22	20.327
491.56	20.046
491.91	20.382
492.26	20.303
492.60	19.631
492.95	19.317
493.30	19.720
493.64	20.532
493.99	20.334
494.34	20.074
494.68	20.101
495.03	20.301
495.37	19.637
495.72	20.565
496.07	20.232
496.41	19.558
496.76	19.569
497.11	19.541
497.45	19.516
497.80	19.674
498.14	19.469
498.49	20.195
498.84	19.703
499.18	19.476
499.53	19.231
499.87	20.130
500.22	19.454
500.56	20.825
500.91	19.423
501.26	19.440
501.60	20.313
501.95	19.432
502.29	19.775
502.64	19.227
502.98	19.589
503.33	19.150
503.67	19.675
504.02	19.364
504.36	19.794
504.71	19.394
505.06	19.566
505.40	19.105
505.75	19.142
506.09	19.825
506.44	19.240
506.78	19.727
507.13	19.283
507.47	20.101
507.82	19.554
508.16	19.149
508.51	19.736
508.85	18.868
509.19	19.286
509.54	19.643
509.88	19.887
510.23	19.897
510.57	20.537
510.92	19.886
511.26	19.836
511.61	19.761
511.95	20.042
512.30	19.088
512.64	19.559
512.98	19.668
513.33	18.522
513.67	18.517
514.02	18.885
514.36	19.224
514.70	19.867
515.05	18.963
515.39	19.798
515.74	18.975
516.08	20.067
516.42	19.534
516.77	19.732
517.11	19.367
517.46	19.752
517.80	19.686
518.14	18.298
518.49	20.187
518.83	19.261
519.17	19.169
519.52	19.128
519.86	19.281
520.20	20.058
520.55	19.749
520.89	18.735
521.23	19.240
521.58	19.688
521.92	19.718
522.26	19.707
522.61	19.502
522.95	19.828
523.29	19.294
523.64	19.634
523.98	19.224
524.32	20.024
524.66	19.363
525.01	19.608
525.35	19.021
525.69	19.335
526.04	19.377
526.38	18.975
526.72	19.571
527.06	19.962
527.41	18.750
527.75	19.936
528.09	19.204
528.43	19.567
528.78	19.791
529.12	18.848
529.46	19.412
529.80	19.926
530.15	19.875
530.49	19.200
530.83	18.987
531.17	19.125
531.51	20.558
531.86	19.226
532.20	19.166
532.54	20.179
532.88	19.255
533.22	18.738
533.57	19.074
533.91	18.663
534.25	18.955
534.59	18.548
534.93	18.977
535.27	18.890
535.62	18.010
535.96	19.397
536.30	18.500
536.64	18.995
536.98	19.111
537.32	19.223
537.66	19.200
538.01	18.631
538.35	20.039
538.69	19.655
539.03	18.129
539.37	17.764
539.71	18.665
540.05	18.431
540.39	19.203
540.73	17.853
541.07	19.468
541.42	18.721
541.76	19.290
542.10	18.564
542.44	18.013
542.78	18.906
543.12	17.914
543.46	19.213
543.80	18.868
544.14	18.164
544.48	17.905
544.82	19.051
545.16	18.412
545.50	17.931
545.84	18.078
546.18	18.519
546.52	18.238
546.86	17.388
547.20	17.667
547.54	18.570
547.88	18.941
548.22	18.244
548.56	18.553
548.90	17.926
549.24	17.980
549.58	17.531
549.92	18.269
550.26	17.898
550.60	17.635
550.94	17.958
551.28	18.069
551.62	18.692
551.96	17.965
552.30	19.454
552.64	18.526
552.98	18.847
553.32	18.746
553.66	17.655
554.00	18.531
554.34	17.322
554.68	18.884
555.02	16.925
555.36	17.815
555.69	17.997
556.03	18.708
556.37	18.417
556.71	17.531
557.05	18.347
557.39	17.705
557.73	18.419
558.07	17.912
558.41	18.452
558.75	18.736
559.08	18.867
559.42	17.611
559.76	17.721
560.10	17.987
560.44	18.449
560.78	17.432
561.12	17.348
561.45	17.927
561.79	17.073
562.13	17.103
562.47	18.374
562.81	18.201
563.15	17.258
563.48	17.639
563.82	18.004
564.16	17.397
564.50	17.253
564.84	17.067
565.17	16.731
565.51	17.636
565.85	17.386
566.19	17.157
566.52	17.669
566.86	17.360
567.20	17.217
567.54	16.838
567.88	16.241
568.21	17.196
568.55	16.582
568.89	16.586
569.23	16.132
569.56	15.951
569.90	15.660
570.24	15.608
570.57	15.335
570.91	14.674
571.25	14.886
571.59	14.963
571.92	15.063
572.26	15.049
572.60	14.745
572.93	15.352
573.27	14.789
573.61	15.103
573.95	14.910
574.28	14.146
574.62	14.237
574.96	14.432
575.29	14.331
575.63	14.380
575.97	14.137
576.30	14.684
576.64	14.354
576.98	14.390
577.31	14.302
577.65	14.354
577.98	14.495
578.32	13.840
578.66	14.319
578.99	14.745
579.33	14.500
579.67	14.327
580.00	14.313
580.34	14.357
580.67	14.370
581.01	14.054
581.35	14.236
581.68	14.004
582.02	13.679
582.35	13.816
582.69	13.720
583.02	14.041
583.36	14.157
583.70	14.461
584.03	14.472
584.37	15.231
584.70	14.472
585.04	14.726
585.37	14.049
585.71	14.380
586.04	14.327
586.38	14.289
586.72	14.803
587.05	14.317
587.39	14.380
587.72	14.197
588.06	14.408
588.39	14.787
588.73	14.550
589.06	14.896
589.40	15.488
589.73	15.136
590.07	15.053
590.40	14.651
590.73	15.183
591.07	16.565
591.40	15.563
591.74	15.714
592.07	15.532
592.41	15.833
592.74	15.206
593.08	14.823
593.41	14.837
593.75	14.710
594.08	14.851
594.41	15.129
594.75	14.566
595.08	14.961
595.42	15.306
595.75	14.957
596.09	15.584
596.42	15.560
596.75	15.238
597.09	16.277
597.42	14.966
597.75	15.567
598.09	15.522
598.42	15.206
598.76	15.444
599.09	13.987
599.42	14.738
599.76	15.300
600.09	15.191
600.42	14.792
600.76	14.643
601.09	14.317
601.42	14.688
601.76	14.953
602.09	14.585
602.42	15.366
602.76	15.639
603.09	14.988
603.42	15.307
603.76	14.977
604.09	14.851
604.42	14.594
604.76	15.310
605.09	14.635
605.42	14.493
605.75	14.983
606.09	15.006
606.42	14.916
606.75	15.429
607.09	15.278
607.42	14.805
607.75	14.219
608.08	14.980
608.42	14.881
608.75	15.284
609.08	14.986
609.41	15.183
609.75	15.102
610.08	15.975
610.41	14.991
610.74	15.137
611.07	15.316
611.41	15.751
611.74	16.239
612.07	16.253
612.40	15.268
612.73	15.105
613.07	16.110
613.40	15.640
613.73	15.941
614.06	15.806
614.39	15.522
614.72	16.000
615.06	15.809
615.39	15.393
615.72	16.002
616.05	15.470
616.38	15.453
616.71	15.974
617.05	16.372
617.38	15.935
617.71	16.396
618.04	16.707
618.37	15.967
618.70	16.553
619.03	16.316
619.36	16.158
619.69	16.408
620.03	16.827
620.36	17.714
620.69	16.507
621.02	17.109
621.35	16.993
621.68	16.745
622.01	16.950
622.34	16.641
622.67	16.730
623.00	16.801
623.33	16.655
623.66	15.940
623.99	16.789
624.32	17.047
624.65	17.161
624.99	15.722
625.32	17.017
625.65	16.679
625.98	16.218
626.31	17.107
626.64	16.980
626.97	17.623
627.30	16.708
627.63	17.391
627.96	18.335
628.29	17.935
628.62	17.658
628.95	18.396
629.28	19.343
629.61	18.423
629.94	18.000
630.26	18.494
630.59	17.636
630.92	18.678
631.25	17.374
631.58	18.418
631.91	19.574
632.24	18.460
632.57	19.622
632.90	18.202
633.23	20.246
633.56	19.322
633.89	19.139
634.22	17.821
634.55	18.225
634.88	17.964
635.20	19.952
635.53	19.036
635.86	18.317
636.19	19.529
636.52	18.339
636.85	19.244
637.18	19.009
637.51	19.385
637.83	17.879
638.16	20.205
638.49	21.285
638.82	19.848
639.15	20.000
639.48	21.072
639.81	19.571
640.13	21.745
640.46	20.537
640.79	21.004
641.12	20.908
641.45	19.274
641.77	20.619
642.10	20.760
642.43	19.520
642.76	19.659
643.09	20.706
643.41	20.637
643.74	21.605
644.07	18.445
644.40	20.859
644.73	22.205
645.05	21.553
645.38	20.221
645.71	18.196
646.04	20.930
646.36	21.703
646.69	21.405
647.02	24.320
647.35	22.852
647.67	22.124
648.00	22.439
648.33	20.462
648.66	20.000
648.98	20.390
649.31	19.432
649.64	21.824
649.96	19.970
650.29	20.695
650.62	19.741
650.94	21.880
651.27	22.973
651.60	20.632
651.92	20.927
652.25	20.847
652.58	20.717
652.90	19.431
653.23	19.106
653.56	19.213
653.88	20.127
654.21	19.589
654.54	21.617
654.86	21.651
655.19	19.324
655.52	12.911
655.84	10.961
656.17	13.645
656.49	18.557
656.82	18.834
657.15	14.289
657.47	10.675
657.80	8.330
658.13	8.795
658.45	13.545
658.78	13.683
659.10	14.191
659.43	15.487
659.75	15.677
660.08	16.709
660.41	19.274
660.73	20.457
661.06	20.860
661.38	24.182
661.71	22.885
662.03	23.274
662.36	23.459
662.68	19.880
663.01	23.636
663.33	23.567
663.66	23.319
663.98	22.678
664.31	22.269
664.63	19.433
664.96	22.133
665.28	23.770
665.61	21.442
665.93	21.127
666.26	22.110
666.58	24.477
666.91	24.947
667.23	24.270
667.56	22.462
667.88	23.718
668.21	23.241
668.53	22.126
668.86	19.264
669.18	24.094
669.50	24.565
669.83	25.272
670.15	25.778
670.48	20.479
670.80	22.629
671.13	21.868
671.45	21.915
671.77	22.403
672.10	22.921
672.42	22.261
672.75	21.061
673.07	20.951
673.39	23.146
673.72	20.508
674.04	23.529
674.37	21.553
674.69	21.881
675.01	21.967
675.34	22.998
675.66	24.000
675.98	21.181
676.31	21.849
676.63	22.930
676.95	23.690
677.28	21.963
677.60	21.319
677.92	27.426
678.25	21.766
678.57	24.303
678.89	23.447
679.22	20.825
679.54	21.183
679.86	22.936
680.18	19.320
680.51	21.986
680.83	22.598
681.15	21.321
681.48	25.331
681.80	18.762
682.12	21.839
682.44	19.149
682.77	21.589
683.09	24.893
683.41	25.277
683.73	24.283
684.06	20.661
684.38	23.875
684.70	23.450
685.02	23.640
685.34	20.147
685.67	20.804
685.99	19.072
686.31	21.502
686.63	17.845
686.96	18.750
687.28	19.495
687.60	20.652
687.92	20.658
688.24	19.962
688.56	21.687
688.89	23.859
689.21	22.489
689.53	24.426
689.85	23.725
690.17	23.810
690.49	22.081
690.82	24.065
691.14	20.982
691.46	21.097
691.78	23.494
692.10	25.413
692.42	20.958
692.74	22.822
693.06	23.191
693.39	23.819
693.71	22.489
694.03	23.368
694.35	24.242
694.67	22.654
694.99	23.902
695.31	22.794
695.63	24.163
695.95	23.227
696.27	21.827
696.59	25.389
696.91	26.943
697.23	22.535
697.56	24.947
697.88	20.041
698.20	20.625
698.52	21.075
698.84	24.276
699.16	24.424
699.48	22.090
699.80	23.671
700.12	27.532
700.44	24.403
700.76	24.309
701.08	22.701
701.40	24.581
701.72	26.531
702.04	30.114
702.36	23.229
702.68	26.062
703.00	24.377
703.32	21.543
703.64	22.788
703.96	25.905
704.28	27.035
704.60	29.032
704.91	27.300
705.23	30.205
705.55	27.575
705.87	26.910
706.19	28.622
706.51	25.545
706.83	26.364
707.15	26.331
707.47	24.747
707.79	28.010
708.11	24.201
708.43	20.714
708.74	25.765
709.06	26.753
709.38	23.622
709.70	26.744
710.02	25.816
710.34	25.455
710.66	29.552
710.98	27.557
711.29	27.326
711.61	27.434
711.93	27.244
712.25	30.225
712.57	23.897
712.89	30.104
713.20	28.267
713.52	29.276
713.84	25.000
714.16	26.524
714.48	25.862
714.80	26.140
715.11	28.530
715.43	28.487
715.75	25.217
716.07	28.435
716.39	25.078
716.70	27.575
717.02	25.899
717.34	31.449
717.66	32.090
717.97	34.263
718.29	32.963
718.61	31.387
718.93	28.309
719.24	30.104
719.56	28.475
719.88	28.475
720.20	31.419
720.51	32.753
720.83	31.227
721.15	26.866
721.46	30.142
721.78	27.240
722.10	26.792
722.42	27.444
722.73	27.341
723.05	29.918
723.37	27.530
723.68	30.888
724.00	25.203
724.32	31.855
724.63	30.081
724.95	27.615
725.27	32.389
725.58	29.297
725.90	33.577
726.22	29.434
726.53	26.042
726.85	31.399
727.16	28.826
727.48	31.206
727.80	29.545
728.11	28.261
728.43	26.923
728.74	25.090
729.06	32.482
729.38	34.191
729.69	30.605
730.01	24.915
730.32	26.389
730.64	30.769
730.96	27.063
731.27	27.815
731.59	24.465
731.90	27.697
732.22	23.292
732.53	24.149
732.85	26.282
733.16	27.653
733.48	29.236
733.80	26.623
734.11	31.847
734.43	25.740
734.74	23.714
735.06	26.074
735.37	28.324
735.69	24.204
736.00	23.529
736.32	27.414
736.63	24.920
736.95	26.198
737.26	20.748
737.58	23.871
737.89	27.425
738.21	28.328
738.52	32.143
738.83	21.132
739.15	26.538
739.46	28.102
739.78	28.819
740.09	25.538
740.41	30.000
740.72	23.345
741.04	33.704
741.35	30.833
741.66	33.778
741.98	27.830
742.29	30.144
742.61	37.069
742.92	28.959
743.23	29.060
743.55	32.800
743.86	30.702
744.18	34.956
744.49	39.234
744.80	35.211
745.12	36.818
745.43	30.837
745.74	37.387
746.06	29.817
746.37	30.493
746.68	29.864
747.00	31.944
747.31	35.238
747.62	27.876
747.94	31.278
748.25	31.489
748.56	32.159
748.88	32.178
749.19	42.000
749.50	31.628
749.82	28.455
750.13	27.755
750.44	25.547
750.75	27.368
751.07	27.010
751.38	29.965
751.69	30.325
752.01	28.195
752.32	27.437
752.63	28.369
752.94	28.689
753.26	34.400
753.57	28.862
753.88	31.641
754.19	28.571
754.51	33.681
754.82	23.105
755.13	29.057
755.44	27.444
755.75	28.102
756.07	24.468
756.38	22.263
756.69	27.517
757.00	25.449
757.31	24.629
757.63	22.515
757.94	23.324
758.25	22.794
758.56	23.951
758.87	21.237
759.18	25.758
759.50	21.630
759.81	22.430
760.12	20.938
760.43	24.928
760.74	23.913
761.05	23.729
761.36	23.262
761.67	26.420
761.99	24.845
762.30	27.083
762.61	27.863
762.92	29.297
763.23	29.832
763.54	28.800
763.85	29.687
764.16	28.077
764.47	27.757
764.78	26.502
765.10	21.835
765.41	24.189
765.72	26.647
766.03	29.154
766.34	25.000
766.65	30.638
766.96	30.769
767.27	36.548
767.58	29.688
767.89	42.632
768.20	37.356
768.51	30.457
768.82	34.862
769.13	25.610
769.44	27.126
769.75	29.614
770.06	26.606
770.37	34.842
770.68	34.722
770.99	33.778
771.30	29.918
771.61	33.632
771.92	32.377
772.23	39.076
772.54	30.769
772.85	37.173
773.16	42.553
773.47	36.957
773.78	40.102
774.09	39.286
774.39	33.918
774.70	43.827
775.01	36.232
775.32	45.752
775.63	41.447
775.94	41.007
776.25	44.882
776.56	51.493
776.87	45.082
777.18	44.531
777.48	59.542
777.79	51.515
778.10	48.148
778.41	50.000
778.72	36.496
779.03	39.597
779.34	39.597
779.65	37.838
779.95	39.264
780.26	44.444
780.57	46.207
780.88	42.187
781.19	39.850
781.50	46.622
781.80	40.252
782.11	35.593
782.42	37.975
782.73	31.902
783.04	47.297
783.34	50.704
783.65	52.055
783.96	49.254
784.27	37.762
784.57	36.691
784.88	45.370
785.19	55.556
785.50	48.113
785.81	52.239
786.11	54.918
786.42	50.388
786.73	52.212
787.04	54.717
787.34	60.714
787.65	59.000
787.96	52.252
788.26	37.190
788.57	60.169
788.88	57.851
789.19	50.694
789.49	59.848
789.80	44.275
790.11	60.000
790.41	67.327
790.72	59.036
791.03	53.261
791.33	59.302
791.64	62.887
791.95	65.347
792.25	60.000
792.56	71.429
792.87	66.667
793.17	83.544
793.48	59.770
793.79	62.069
794.09	64.773
794.40	47.059
794.70	50.000
795.01	45.185
795.32	47.482
795.62	55.118
795.93	46.552
796.23	53.097
796.54	52.941
796.85	70.270
797.15	94.366
797.46	80.303
797.76	69.880
798.07	63.291
798.37	83.077
798.68	75.758
798.99	56.338
799.29	68.831
799.60	56.818
799.90	83.562
800.21	80.597
800.51	87.931
800.82	87.719
801.12	88.525
801.43	74.242
801.73	62.162
802.04	80.952
802.34	69.136
802.65	87.500
802.95	91.525
803.26	95.312
803.56	65.714
803.87	83.077
804.17	83.824
804.48	92.593
804.78	74.138
805.09	72.059
805.39	101.923
805.70	73.214
806.00	77.049
806.30	93.939
806.61	71.951
806.91	54.430
807.22	65.789
807.52	62.687
807.83	78.873
808.13	70.312
808.43	76.667
808.74	69.737
809.04	75.362
809.35	71.642
809.65	72.368
809.95	96.774
810.26	83.051
810.56	87.302
810.86	125.000
811.17	152.381
811.47	100.000
811.77	105.556
812.08	100.000
812.38	120.000
812.69	97.222
812.99	129.545
813.29	104.082
813.59	97.619
813.90	118.367
814.20	89.091
814.50	63.077
814.81	88.235
815.11	114.286
815.41	88.525
815.72	121.429
816.02	114.545
816.32	121.429
816.62	92.500
816.93	124.390
817.23	116.667
817.53	129.545
817.84	133.333
818.14	128.261
818.44	111.111
818.74	126.471
819.04	130.000
819.35	140.000
819.65	126.471
819.95	178.571
820.25	180.000
820.56	115.385
820.86	102.273
821.16	148.837
821.46	130.769
821.76	130.000
822.07	157.143
822.37	130.000
822.67	151.515
822.97	103.922
823.27	192.857
823.57	135.135
823.88	147.500
824.18	153.333
824.48	154.762
824.78	176.000
825.08	166.667
825.38	137.838
825.69	126.829
825.99	175.000
826.29	162.069
826.59	144.737
826.89	157.895
827.19	167.647
827.49	167.742
827.79	113.636
828.09	127.273
828.39	100.000
828.70	124.490
829.00	162.963
829.30	151.613
829.60	120.000
829.90	300.000
830.20	207.143
830.50	173.913
830.80	208.696
831.10	166.667
831.40	153.333
831.70	169.565
832.00	238.462
832.30	166.667
832.60	275.000
832.90	193.333
833.20	385.714
833.50	161.290
833.80	172.414
834.10	165.625
834.40	238.462
834.70	233.333
835.00	290.476
835.30	171.429
835.60	253.846
835.90	189.655
836.20	314.286
836.50	179.310
836.80	168.000
837.10	155.556
837.40	228.571
837.70	294.118
838.00	203.704
838.30	219.048
838.60	295.238
838.90	226.923
839.19	190.000
839.49	350.000
839.79	290.000
840.09	265.000
840.39	276.190
840.69	252.174
840.99	183.333
841.29	440.000
841.59	216.667
841.88	325.000
842.18	162.069
842.48	247.619
842.78	180.000
843.08	230.435
843.38	146.875
843.68	633.333
843.97	226.923
844.27	148.276
844.57	290.476
844.87	325.000
845.17	192.593
845.47	1166.667
845.76	500.000
846.06	276.471
846.36	537.500
846.66	357.143
846.96	287.500
847.25	400.000
847.55	318.182
847.85	195.652
848.15	480.000
848.44	307.143
848.74	266.667
849.04	294.118
849.34	390.000
849.63	236.842
849.93	463.636
850.23	1020.000
850.53	378.571
850.82	1850.000
851.12	-3600.000
851.42	4300.000
851.71	280.000
852.01	-966.667
852.31	237.500
852.61	1400.000
852.90	238.095
853.20	204.000
853.50	311.765
853.79	238.095
854.09	191.667
854.39	331.250
854.68	143.243
854.98	161.290
855.28	186.667
855.57	213.793
855.87	181.481
856.17	242.105
856.46	286.667
856.76	247.059
857.05	179.310
857.35	195.833
857.65	346.667
857.94	213.043
858.24	180.769
858.53	320.000
858.83	213.636
859.13	353.333
859.42	0.000
859.72	500.000
860.01	427.273
860.31	231.818
860.60	226.316
860.90	186.957
861.20	500.000
861.49	541.667
861.79	-3600.000
862.08	512.500
862.38	319.048
862.67	307.692
862.97	258.824
863.26	544.444
863.56	272.222
863.85	383.333
864.15	600.000
864.44	326.667
864.74	816.667
865.03	725.000
865.33	257.895
865.62	354.545
865.92	423.077
866.21	308.333
866.51	0.000
866.80	345.455
867.10	1160.000
867.39	361.538
867.69	427.273
867.98	263.158
868.27	427.273
868.57	257.895
868.86	-3600.000
869.16	325.000
869.45	1650.000
869.75	-3200.000
870.04	400.000
870.33	542.857
870.63	675.000
870.92	2200.000
871.22	628.571
871.51	352.941
871.80	176.190
872.10	392.857
>>>>>End Processed Spectral Data<<<<<
