SpectraSuite Data File
++++++++++++++++++++++++++++++++++++
Date: Wed May 13 16:53:47 PDT 2015
User: schluterlab
Dark Spectrum Present: Yes
Reference Spectrum Present: Yes
Number of Sampled Component Spectra: 1
Spectrometers: USB2E3373
Integration Time (usec): 3000 (USB2E3373)
Spectra Averaged: 3 (USB2E3373)
Boxcar Smoothing: 0 (USB2E3373)
Correct for Electrical Dark: No (USB2E3373)
Strobe/Lamp Enabled: No (USB2E3373)
Correct for Detector Non-linearity: No (USB2E3373)
Correct for Stray Light: No (USB2E3373)
Number of Pixels in Processed Spectrum: 2048
>>>>>Begin Processed Spectral Data<<<<<
178.53	0.000
178.91	-1325.000
179.29	-1350.000
179.67	-183.333
180.04	-1425.000
180.42	2250.000
180.80	1120.000
181.18	-1325.000
181.56	742.857
181.94	0.000
182.31	-600.000
182.69	1866.667
183.07	-637.500
183.45	-533.333
183.83	472.727
184.20	-430.000
184.58	2300.000
184.96	4500.000
185.34	-940.000
185.72	-637.500
186.09	-2650.000
186.47	2800.000
186.85	2550.000
187.23	3800.000
187.61	-1933.333
187.98	1550.000
188.36	536.364
188.74	463.636
189.12	-980.000
189.49	540.000
189.87	-5000.000
190.25	-1100.000
190.63	400.000
191.00	423.077
191.38	816.667
191.76	-1200.000
192.14	1275.000
192.51	625.000
192.89	850.000
193.27	550.000
193.65	-1275.000
194.02	510.000
194.40	920.000
194.78	570.000
195.15	583.333
195.53	620.000
195.91	-1950.000
196.29	362.500
196.66	315.789
197.04	-360.000
197.42	0.000
197.79	620.000
198.17	-5500.000
198.55	728.571
198.92	725.000
199.30	680.000
199.68	0.000
200.05	300.000
200.43	714.286
200.81	4100.000
201.18	1700.000
201.56	-1700.000
201.94	688.889
202.31	655.556
202.69	383.333
203.07	560.000
203.44	0.000
203.82	1550.000
204.19	742.857
204.57	414.286
204.95	637.500
205.32	1666.667
205.70	527.273
206.08	357.143
206.45	2600.000
206.83	362.500
207.20	900.000
207.58	880.000
207.96	377.778
208.33	687.500
208.71	-966.667
209.08	728.571
209.46	666.667
209.84	481.818
210.21	-1700.000
210.59	1400.000
210.96	-525.000
211.34	2400.000
211.71	500.000
212.09	850.000
212.46	0.000
212.84	1600.000
213.22	1550.000
213.59	-4300.000
213.97	833.333
214.34	900.000
214.72	572.727
215.09	1020.000
215.47	-2200.000
215.84	-2150.000
216.22	1600.000
216.59	457.143
216.97	1200.000
217.34	418.182
217.72	-666.667
218.09	0.000
218.47	-4800.000
218.84	733.333
219.22	885.714
219.59	1400.000
219.97	-642.857
220.34	1120.000
220.72	-1733.333
221.09	378.571
221.47	1400.000
221.84	-1150.000
222.22	0.000
222.59	1425.000
222.97	-2950.000
223.34	1240.000
223.72	423.077
224.09	1060.000
224.46	2550.000
224.84	-5200.000
225.21	-1040.000
225.59	-4500.000
225.96	630.000
226.34	250.000
226.71	2750.000
227.08	637.500
227.46	550.000
227.83	-1550.000
228.21	-2250.000
228.58	533.333
228.95	-2700.000
229.33	-1800.000
229.70	1800.000
230.08	728.571
230.45	-1000.000
230.82	416.667
231.20	816.667
231.57	657.143
231.95	533.333
232.32	231.818
232.69	354.545
233.07	714.286
233.44	346.154
233.81	-1933.333
234.19	257.895
234.56	416.667
234.93	433.333
235.31	545.455
235.68	369.231
236.05	314.286
236.43	196.970
236.80	236.842
237.17	4800.000
237.55	238.095
237.92	232.143
238.29	309.524
238.67	164.516
239.04	182.759
239.41	186.111
239.79	115.217
240.16	161.905
240.53	156.818
240.91	129.412
241.28	122.000
241.65	132.000
242.02	111.594
242.40	119.355
242.77	108.333
243.14	77.419
243.51	86.517
243.89	84.706
244.26	81.111
244.63	82.796
245.00	72.340
245.38	80.198
245.75	73.832
246.12	75.229
246.49	74.453
246.87	78.400
247.24	63.077
247.61	65.714
247.98	60.131
248.36	56.757
248.73	56.688
249.10	62.420
249.47	59.887
249.84	60.963
250.22	49.198
250.59	64.497
250.96	51.515
251.33	53.555
251.70	58.416
252.08	58.571
252.45	46.637
252.82	49.565
253.19	48.085
253.56	48.627
253.94	51.037
254.31	46.875
254.68	53.077
255.05	50.923
255.42	43.089
255.79	44.118
256.16	47.292
256.54	46.290
256.91	48.043
257.28	44.964
257.65	39.934
258.02	47.205
258.39	46.057
258.76	43.813
259.14	41.667
259.51	43.769
259.88	40.683
260.25	45.921
260.62	41.329
260.99	39.752
261.36	45.646
261.73	44.126
262.10	42.151
262.47	40.563
262.85	43.454
263.22	38.462
263.59	41.026
263.96	43.132
264.33	39.687
264.70	39.211
265.07	41.944
265.44	43.182
265.81	35.766
266.18	39.447
266.55	39.756
266.92	38.821
267.29	41.204
267.66	36.697
268.03	39.318
268.40	36.916
268.77	38.663
269.14	38.063
269.51	39.052
269.88	39.161
270.25	38.149
270.62	39.551
270.99	38.065
271.36	41.202
271.73	39.486
272.10	39.565
272.47	39.140
272.84	36.364
273.21	35.849
273.58	35.590
273.95	35.220
274.32	35.744
274.69	36.188
275.06	34.843
275.43	36.383
275.80	36.673
276.17	36.456
276.54	36.590
276.91	34.585
277.28	34.961
277.65	36.557
278.02	35.611
278.39	38.477
278.76	36.545
279.13	34.151
279.50	34.637
279.87	36.853
280.23	37.525
280.60	35.977
280.97	34.196
281.34	35.398
281.71	35.818
282.08	37.236
282.45	34.364
282.82	36.412
283.19	30.838
283.56	35.439
283.92	35.195
284.29	34.392
284.66	34.301
285.03	33.996
285.40	35.387
285.77	34.175
286.14	34.024
286.51	33.167
286.87	34.017
287.24	35.668
287.61	32.905
287.98	29.383
288.35	31.537
288.72	31.931
289.08	30.829
289.45	30.643
289.82	33.659
290.19	32.496
290.56	31.240
290.93	27.946
291.29	31.748
291.66	30.973
292.03	31.977
292.40	30.543
292.77	29.438
293.13	30.896
293.50	30.029
293.87	29.926
294.24	27.852
294.60	27.656
294.97	28.198
295.34	29.196
295.71	27.983
296.08	27.778
296.44	27.648
296.81	29.326
297.18	27.642
297.55	25.726
297.91	27.045
298.28	27.175
298.65	25.718
299.02	26.482
299.38	26.162
299.75	24.528
300.12	25.032
300.48	26.500
300.85	26.264
301.22	26.752
301.59	24.747
301.95	26.952
302.32	26.829
302.69	25.329
303.05	26.182
303.42	24.691
303.79	25.708
304.15	23.893
304.52	24.102
304.89	23.693
305.25	25.406
305.62	26.727
305.99	24.911
306.35	24.832
306.72	24.776
307.09	25.083
307.45	25.225
307.82	22.545
308.19	24.393
308.55	26.321
308.92	24.705
309.29	24.498
309.65	23.966
310.02	25.264
310.38	24.301
310.75	25.449
311.12	25.486
311.48	25.810
311.85	25.472
312.22	26.535
312.58	25.884
312.95	27.350
313.31	24.078
313.68	26.403
314.05	26.923
314.41	27.236
314.78	27.190
315.14	26.713
315.51	28.939
315.87	28.317
316.24	26.812
316.61	28.752
316.97	28.571
317.34	28.180
317.70	30.019
318.07	29.355
318.43	30.528
318.80	31.209
319.16	32.298
319.53	29.925
319.89	30.952
320.26	31.700
320.62	32.837
320.99	32.424
321.35	33.838
321.72	33.470
322.08	33.860
322.45	36.020
322.81	35.756
323.18	36.705
323.54	35.807
323.91	36.981
324.27	35.851
324.64	37.279
325.00	37.782
325.37	40.127
325.73	40.036
326.10	41.218
326.46	41.487
326.83	42.796
327.19	42.442
327.56	43.031
327.92	41.557
328.29	44.543
328.65	44.567
329.01	44.043
329.38	45.236
329.74	44.321
330.11	46.748
330.47	46.006
330.84	46.507
331.20	47.086
331.56	46.606
331.93	46.944
332.29	47.649
332.66	48.761
333.02	48.080
333.38	48.148
333.75	47.950
334.11	48.488
334.48	49.068
334.84	49.540
335.20	48.364
335.57	48.685
335.93	48.393
336.29	50.916
336.66	49.955
337.02	48.145
337.38	49.259
337.75	49.554
338.11	49.776
338.47	49.908
338.84	49.404
339.20	50.367
339.56	51.186
339.93	50.818
340.29	50.091
340.65	50.446
341.02	51.222
341.38	52.669
341.74	50.088
342.11	50.742
342.47	51.806
342.83	51.284
343.20	52.035
343.56	51.137
343.92	50.614
344.28	51.276
344.65	52.451
345.01	51.263
345.37	51.801
345.73	51.354
346.10	52.771
346.46	52.966
346.82	51.565
347.19	50.125
347.55	50.985
347.91	51.537
348.27	53.492
348.63	51.338
349.00	52.427
349.36	52.217
349.72	51.243
350.08	51.216
350.45	53.458
350.81	52.315
351.17	52.512
351.53	53.399
351.89	52.640
352.26	52.565
352.62	53.087
352.98	51.540
353.34	53.328
353.70	52.700
354.07	53.226
354.43	52.937
354.79	52.454
355.15	52.275
355.51	54.357
355.87	55.102
356.24	53.990
356.60	53.328
356.96	54.867
357.32	53.966
357.68	53.701
358.04	53.365
358.40	54.711
358.77	55.399
359.13	54.696
359.49	54.353
359.85	52.937
360.21	55.104
360.57	55.253
360.93	56.462
361.29	54.951
361.66	54.412
362.02	55.224
362.38	54.829
362.74	56.845
363.10	54.922
363.46	55.979
363.82	55.858
364.18	55.800
364.54	57.949
364.90	56.728
365.26	55.588
365.62	57.268
365.98	55.953
366.35	55.659
366.71	56.471
367.07	57.101
367.43	58.418
367.79	58.244
368.15	57.615
368.51	57.413
368.87	58.030
369.23	57.718
369.59	59.522
369.95	57.721
370.31	57.692
370.67	57.536
371.03	59.850
371.39	60.350
371.75	59.191
372.11	58.393
372.47	60.924
372.83	60.879
373.19	58.526
373.55	61.567
373.91	60.309
374.27	60.206
374.63	60.073
374.99	60.805
375.35	60.991
375.71	61.138
376.07	61.866
376.42	63.549
376.78	61.829
377.14	62.212
377.50	63.642
377.86	61.303
378.22	63.906
378.58	62.657
378.94	63.356
379.30	64.313
379.66	64.530
380.02	63.084
380.38	64.420
380.74	63.025
381.09	64.670
381.45	67.056
381.81	65.786
382.17	66.242
382.53	65.157
382.89	65.926
383.25	65.666
383.61	66.171
383.97	66.917
384.32	65.377
384.68	66.419
385.04	67.732
385.40	67.307
385.76	67.998
386.12	67.358
386.48	68.345
386.83	69.019
387.19	70.006
387.55	68.275
387.91	69.226
388.27	69.221
388.62	69.453
388.98	68.673
389.34	70.588
389.70	69.467
390.06	69.835
390.42	71.141
390.77	69.402
391.13	71.921
391.49	70.622
391.85	69.446
392.20	70.221
392.56	70.960
392.92	71.513
393.28	70.651
393.64	70.384
393.99	69.945
394.35	72.767
394.71	70.954
395.07	71.215
395.42	72.806
395.78	71.438
396.14	72.191
396.50	72.744
396.85	73.045
397.21	72.750
397.57	72.288
397.92	72.656
398.28	70.852
398.64	71.027
399.00	71.796
399.35	71.066
399.71	71.759
400.07	71.555
400.42	71.718
400.78	71.049
401.14	71.829
401.49	73.672
401.85	71.990
402.21	71.198
402.57	72.918
402.92	73.644
403.28	72.642
403.63	71.844
403.99	73.057
404.35	72.364
404.70	72.782
405.06	70.879
405.42	72.926
405.77	71.714
406.13	71.558
406.49	72.975
406.84	71.412
407.20	71.690
407.55	72.304
407.91	72.867
408.27	73.580
408.62	70.981
408.98	71.569
409.34	73.309
409.69	72.581
410.05	72.305
410.40	71.743
410.76	72.103
411.11	71.653
411.47	71.054
411.83	72.083
412.18	70.934
412.54	71.108
412.89	71.386
413.25	71.311
413.60	72.761
413.96	71.403
414.31	70.535
414.67	70.786
415.03	71.589
415.38	71.005
415.74	72.733
416.09	72.044
416.45	71.754
416.80	72.703
417.16	71.314
417.51	71.599
417.87	70.392
418.22	71.230
418.58	70.949
418.93	69.902
419.29	71.419
419.64	70.403
420.00	71.402
420.35	69.797
420.71	70.771
421.06	70.883
421.42	68.830
421.77	69.395
422.12	70.354
422.48	69.509
422.83	70.355
423.19	69.061
423.54	69.878
423.90	69.507
424.25	69.179
424.61	70.357
424.96	71.079
425.31	69.712
425.67	67.584
426.02	68.514
426.38	70.879
426.73	68.578
427.09	69.544
427.44	69.695
427.79	68.718
428.15	68.750
428.50	69.222
428.85	69.130
429.21	69.796
429.56	68.896
429.92	68.747
430.27	68.669
430.62	67.076
430.98	68.137
431.33	67.680
431.68	66.335
432.04	66.933
432.39	68.304
432.74	67.145
433.10	68.647
433.45	68.280
433.80	68.847
434.16	67.575
434.51	65.947
434.86	67.389
435.22	69.372
435.57	68.024
435.92	67.057
436.28	69.336
436.63	67.274
436.98	67.144
437.34	67.561
437.69	68.028
438.04	67.735
438.39	68.358
438.75	67.461
439.10	66.369
439.45	66.883
439.81	68.157
440.16	66.290
440.51	67.370
440.86	67.921
441.22	67.464
441.57	67.038
441.92	66.479
442.27	66.254
442.63	66.193
442.98	66.366
443.33	65.000
443.68	66.804
444.03	66.032
444.39	65.044
444.74	66.288
445.09	63.989
445.44	65.008
445.79	64.374
446.15	64.531
446.50	64.728
446.85	66.187
447.20	64.712
447.55	66.276
447.91	65.030
448.26	65.053
448.61	65.800
448.96	64.839
449.31	64.792
449.66	63.647
450.02	64.290
450.37	64.342
450.72	65.313
451.07	64.778
451.42	63.647
451.77	65.649
452.12	63.453
452.47	64.677
452.83	64.394
453.18	62.408
453.53	64.626
453.88	63.083
454.23	65.033
454.58	64.022
454.93	65.607
455.28	64.900
455.63	63.956
455.98	65.417
456.34	63.003
456.69	63.807
457.04	64.272
457.39	62.829
457.74	64.074
458.09	62.795
458.44	62.999
458.79	61.659
459.14	62.302
459.49	63.339
459.84	63.102
460.19	62.522
460.54	60.938
460.89	63.467
461.24	62.842
461.59	63.800
461.94	62.022
462.29	61.840
462.64	61.519
462.99	61.288
463.34	62.667
463.69	62.664
464.04	61.391
464.39	61.797
464.74	61.735
465.09	60.374
465.44	60.166
465.79	61.130
466.14	59.278
466.49	59.677
466.84	61.238
467.19	61.014
467.54	61.437
467.89	58.703
468.24	59.337
468.59	60.684
468.94	59.682
469.29	60.283
469.64	62.316
469.99	61.231
470.34	60.040
470.68	60.704
471.03	60.408
471.38	60.667
471.73	60.493
472.08	61.250
472.43	60.490
472.78	60.500
473.13	59.884
473.48	59.363
473.83	60.183
474.17	59.303
474.52	60.422
474.87	60.304
475.22	60.186
475.57	57.657
475.92	59.002
476.27	58.794
476.61	58.136
476.96	58.604
477.31	58.242
477.66	59.409
478.01	57.710
478.36	57.959
478.70	57.165
479.05	58.040
479.40	58.086
479.75	58.414
480.10	58.002
480.45	56.592
480.79	56.283
481.14	58.415
481.49	57.902
481.84	56.424
482.19	56.747
482.53	55.963
482.88	57.794
483.23	57.103
483.58	56.733
483.92	57.029
484.27	55.120
484.62	56.078
484.97	55.577
485.31	58.596
485.66	58.260
486.01	55.564
486.36	52.755
486.70	50.732
487.05	51.714
487.40	52.962
487.75	53.286
488.09	54.170
488.44	53.702
488.79	56.022
489.13	55.195
489.48	56.403
489.83	55.071
490.17	56.160
490.52	54.340
490.87	55.043
491.22	54.661
491.56	54.670
491.91	54.816
492.26	54.433
492.60	54.977
492.95	53.601
493.30	53.972
493.64	53.990
493.99	53.482
494.34	54.255
494.68	54.487
495.03	54.464
495.37	53.839
495.72	55.019
496.07	54.896
496.41	53.053
496.76	54.134
497.11	52.994
497.45	52.818
497.80	53.839
498.14	53.430
498.49	53.902
498.84	53.308
499.18	53.762
499.53	52.849
499.87	52.330
500.22	52.332
500.56	55.243
500.91	52.212
501.26	53.248
501.60	55.102
501.95	52.200
502.29	53.843
502.64	53.538
502.98	53.670
503.33	51.874
503.67	52.622
504.02	53.461
504.36	52.129
504.71	53.688
505.06	52.771
505.40	52.504
505.75	51.495
506.09	51.263
506.44	52.985
506.78	52.070
507.13	53.357
507.47	52.677
507.82	53.343
508.16	52.280
508.51	53.881
508.85	51.639
509.19	52.959
509.54	51.837
509.88	51.365
510.23	52.442
510.57	53.302
510.92	51.942
511.26	52.261
511.61	51.763
511.95	51.670
512.30	52.810
512.64	52.284
512.98	51.768
513.33	52.730
513.67	52.188
514.02	51.623
514.36	52.376
514.70	52.241
515.05	51.422
515.39	52.440
515.74	52.252
516.08	52.040
516.42	51.276
516.77	53.066
517.11	52.331
517.46	52.878
517.80	53.310
518.14	51.940
518.49	52.917
518.83	51.420
519.17	51.848
519.52	51.387
519.86	50.770
520.20	52.486
520.55	51.526
520.89	53.102
521.23	52.352
521.58	52.401
521.92	52.113
522.26	52.166
522.61	52.835
522.95	51.443
523.29	51.187
523.64	50.976
523.98	52.927
524.32	51.086
524.66	50.932
525.01	50.797
525.35	51.859
525.69	51.047
526.04	51.838
526.38	51.312
526.72	49.877
527.06	51.915
527.41	49.319
527.75	52.476
528.09	50.931
528.43	51.880
528.78	52.489
529.12	50.182
529.46	52.541
529.80	50.990
530.15	50.841
530.49	50.462
530.83	51.266
531.17	53.329
531.51	51.816
531.86	51.226
532.20	52.542
532.54	51.121
532.88	51.220
533.22	49.594
533.57	52.099
533.91	50.211
534.25	49.696
534.59	50.824
534.93	49.018
535.27	49.909
535.62	51.038
535.96	50.157
536.30	50.223
536.64	49.775
536.98	50.365
537.32	49.638
537.66	50.400
538.01	50.560
538.35	50.356
538.69	51.053
539.03	50.227
539.37	49.073
539.71	49.060
540.05	50.458
540.39	50.498
540.73	49.288
541.07	49.773
541.42	51.663
541.76	48.710
542.10	50.776
542.44	50.662
542.78	51.515
543.12	49.136
543.46	50.361
543.80	50.553
544.14	48.780
544.48	50.159
544.82	49.326
545.16	49.317
545.50	48.072
545.84	49.395
546.18	50.774
546.52	49.966
546.86	49.141
547.20	49.697
547.54	49.900
547.88	49.872
548.22	48.879
548.56	48.239
548.90	49.168
549.24	49.024
549.58	49.181
549.92	48.283
550.26	49.361
550.60	48.548
550.94	50.000
551.28	49.305
551.62	48.670
551.96	49.193
552.30	49.556
552.64	49.493
552.98	48.475
553.32	50.169
553.66	50.034
554.00	49.073
554.34	48.930
554.68	49.356
555.02	49.013
555.36	48.086
555.69	48.038
556.03	47.645
556.37	48.499
556.71	48.022
557.05	49.160
557.39	48.495
557.73	47.777
558.07	49.384
558.41	49.638
558.75	48.788
559.08	47.875
559.42	50.038
559.76	49.118
560.10	47.966
560.44	48.567
560.78	48.170
561.12	47.757
561.45	49.674
561.79	48.912
562.13	47.351
562.47	48.770
562.81	49.024
563.15	48.562
563.48	48.011
563.82	49.250
564.16	48.136
564.50	46.940
564.84	47.155
565.17	49.807
565.51	49.201
565.85	47.716
566.19	47.276
566.52	48.068
566.86	48.041
567.20	47.524
567.54	48.059
567.88	47.040
568.21	47.725
568.55	47.776
568.89	46.498
569.23	46.168
569.56	46.032
569.90	46.075
570.24	45.820
570.57	45.223
570.91	44.247
571.25	45.090
571.59	44.801
571.92	44.528
572.26	44.570
572.60	44.414
572.93	44.048
573.27	45.105
573.61	44.752
573.95	44.677
574.28	44.397
574.62	44.145
574.96	43.775
575.29	43.623
575.63	44.233
575.97	43.322
576.30	44.079
576.64	43.922
576.98	43.656
577.31	43.762
577.65	44.169
577.98	44.652
578.32	43.149
578.66	42.662
578.99	43.826
579.33	43.525
579.67	43.274
580.00	43.754
580.34	44.210
580.67	43.418
581.01	43.985
581.35	44.160
581.68	43.984
582.02	43.169
582.35	43.490
582.69	43.434
583.02	43.126
583.36	43.233
583.70	44.530
584.03	43.652
584.37	43.979
584.70	44.201
585.04	43.102
585.37	43.243
585.71	43.374
586.04	43.151
586.38	43.757
586.72	44.380
587.05	43.494
587.39	43.245
587.72	42.798
588.06	43.303
588.39	43.649
588.73	43.590
589.06	43.721
589.40	44.478
589.73	44.632
590.07	44.128
590.40	43.624
590.73	44.653
591.07	45.381
591.40	45.002
591.74	45.325
592.07	45.026
592.41	45.267
592.74	44.981
593.08	44.304
593.41	44.227
593.75	42.848
594.08	43.882
594.41	43.549
594.75	43.438
595.08	43.808
595.42	44.448
595.75	43.697
596.09	43.860
596.42	44.833
596.75	44.154
597.09	44.892
597.42	42.664
597.75	44.286
598.09	43.174
598.42	43.814
598.76	43.737
599.09	43.292
599.42	42.613
599.76	43.485
600.09	43.388
600.42	42.476
600.76	42.929
601.09	42.659
601.42	42.656
601.76	43.947
602.09	43.043
602.42	43.352
602.76	44.095
603.09	44.335
603.42	43.538
603.76	43.598
604.09	43.428
604.42	44.068
604.76	43.484
605.09	43.381
605.42	42.454
605.75	43.419
606.09	43.392
606.42	43.032
606.75	42.970
607.09	43.198
607.42	44.501
607.75	43.629
608.08	43.291
608.42	43.389
608.75	43.553
609.08	43.016
609.41	43.693
609.75	43.926
610.08	45.146
610.41	43.110
610.74	43.614
611.07	43.775
611.41	43.916
611.74	43.741
612.07	44.410
612.40	43.652
612.73	43.947
613.07	44.828
613.40	44.181
613.73	43.681
614.06	43.656
614.39	43.104
614.72	44.421
615.06	43.960
615.39	43.524
615.72	43.303
616.05	43.115
616.38	44.136
616.71	44.656
617.05	44.759
617.38	43.957
617.71	45.465
618.04	44.291
618.37	44.057
618.70	44.057
619.03	45.000
619.36	43.585
619.69	45.423
620.03	45.055
620.36	45.187
620.69	45.753
621.02	46.829
621.35	44.636
621.68	44.237
622.01	45.588
622.34	45.008
622.67	45.932
623.00	43.800
623.33	44.460
623.66	45.247
623.99	45.140
624.32	44.864
624.65	44.280
624.99	43.626
625.32	45.981
625.65	44.403
625.98	46.887
626.31	45.412
626.64	45.306
626.97	45.470
627.30	44.223
627.63	44.545
627.96	45.837
628.29	46.107
628.62	44.739
628.95	46.415
629.28	45.803
629.61	47.204
629.94	46.381
630.26	44.233
630.59	46.806
630.92	45.211
631.25	44.916
631.58	46.046
631.91	45.335
632.24	44.726
632.57	45.855
632.90	46.491
633.23	47.539
633.56	47.345
633.89	46.433
634.22	48.014
634.55	49.231
634.88	47.305
635.20	47.431
635.53	48.554
635.86	46.906
636.19	47.882
636.52	47.636
636.85	47.194
637.18	46.774
637.51	48.463
637.83	45.869
638.16	47.954
638.49	46.851
638.82	47.535
639.15	47.250
639.48	48.254
639.81	48.257
640.13	48.568
640.46	48.188
640.79	45.443
641.12	46.905
641.45	47.626
641.77	49.632
642.10	47.661
642.43	48.649
642.76	48.762
643.09	48.620
643.41	47.496
643.74	50.617
644.07	47.713
644.40	49.387
644.73	50.551
645.05	48.494
645.38	48.341
645.71	49.919
646.04	49.003
646.36	50.751
646.69	49.498
647.02	50.340
647.35	50.000
647.67	49.027
648.00	49.106
648.33	49.175
648.66	45.606
648.98	47.826
649.31	47.982
649.64	48.879
649.96	49.329
650.29	50.237
650.62	47.573
650.94	47.812
651.27	48.818
651.60	50.250
651.92	48.083
652.25	47.394
652.58	47.352
652.90	51.659
653.23	46.071
653.56	46.614
653.88	46.593
654.21	45.972
654.54	48.515
654.86	46.262
655.19	46.622
655.52	35.684
655.84	36.183
656.17	46.905
656.49	62.817
656.82	62.859
657.15	46.243
657.47	33.978
657.80	26.236
658.13	27.021
658.45	39.419
658.78	39.315
659.10	39.852
659.43	42.580
659.75	43.055
660.08	46.582
660.41	51.397
660.73	52.097
661.06	49.522
661.38	50.727
661.71	52.692
662.03	52.268
662.36	46.720
662.68	47.189
663.01	50.303
663.33	50.955
663.66	51.471
663.98	49.244
664.31	52.311
664.63	47.166
664.96	48.089
665.28	52.049
665.61	49.318
665.93	48.290
666.26	50.101
666.58	48.745
666.91	51.163
667.23	52.809
667.56	49.892
667.88	51.709
668.21	51.599
668.53	47.939
668.86	51.299
669.18	51.812
669.50	50.870
669.83	51.198
670.15	50.444
670.48	51.198
670.80	51.509
671.13	50.743
671.45	50.638
671.77	50.713
672.10	49.723
672.42	46.290
672.75	49.585
673.07	47.359
673.39	45.389
673.72	49.805
674.04	50.588
674.37	49.903
674.69	48.057
675.01	47.490
675.34	52.977
675.66	50.105
675.98	48.880
676.31	48.950
676.63	47.346
676.95	50.105
677.28	48.598
677.60	49.890
677.92	51.688
678.25	48.871
678.57	48.207
678.89	48.697
679.22	46.758
679.54	48.664
679.86	46.606
680.18	46.691
680.51	49.468
680.83	48.577
681.15	49.245
681.48	50.662
681.80	47.002
682.12	49.808
682.44	44.681
682.77	50.713
683.09	50.000
683.41	50.111
683.73	51.435
684.06	51.240
684.38	49.902
684.70	50.194
685.02	48.218
685.34	45.238
685.67	46.678
685.99	46.220
686.31	46.587
686.63	44.876
686.96	48.036
687.28	48.195
687.60	47.283
687.92	49.726
688.24	47.909
688.56	48.193
688.89	49.378
689.21	48.908
689.53	50.522
689.85	52.550
690.17	47.412
690.49	52.017
690.82	48.364
691.14	48.437
691.46	47.257
691.78	50.402
692.10	49.587
692.42	48.104
692.74	45.851
693.06	49.149
693.39	49.897
693.71	50.873
694.03	49.684
694.35	45.671
694.67	46.911
694.99	49.512
695.31	47.794
695.63	49.761
695.95	54.034
696.27	51.015
696.59	47.409
696.91	51.036
697.23	46.948
697.56	50.746
697.88	44.376
698.20	48.333
698.52	48.387
698.84	51.002
699.16	46.544
699.48	50.831
699.80	50.483
700.12	55.584
700.44	53.316
700.76	52.210
701.08	51.724
701.40	48.883
701.72	55.394
702.04	58.807
702.36	47.592
702.68	52.125
703.00	51.801
703.32	50.266
703.64	50.134
703.96	50.696
704.28	54.070
704.60	52.493
704.91	57.864
705.23	53.372
705.55	57.807
705.87	59.801
706.19	54.770
706.51	51.090
706.83	53.636
707.15	53.782
707.47	47.475
707.79	49.877
708.11	50.913
708.43	50.952
708.74	48.214
709.06	49.870
709.38	51.444
709.70	57.849
710.02	53.412
710.34	52.727
710.66	51.343
710.98	50.568
711.29	52.616
711.61	55.162
711.93	51.603
712.25	54.984
712.57	60.294
712.89	54.671
713.20	51.672
713.52	56.579
713.84	50.633
714.16	53.963
714.48	52.874
714.80	61.702
715.11	52.161
715.43	52.522
715.75	50.435
716.07	54.313
716.39	53.918
716.70	59.136
717.02	55.036
717.34	56.184
717.66	60.821
717.97	60.558
718.29	52.222
718.61	54.745
718.93	59.191
719.24	55.017
719.56	55.254
719.88	54.237
720.20	60.473
720.51	54.007
720.83	55.019
721.15	56.343
721.46	52.482
721.78	61.649
722.10	59.245
722.42	57.143
722.73	56.929
723.05	55.738
723.37	57.085
723.68	56.757
724.00	54.878
724.32	60.484
724.63	53.252
724.95	60.251
725.27	56.275
725.58	54.297
725.90	58.394
726.22	56.226
726.53	57.639
726.85	56.314
727.16	55.872
727.48	52.837
727.80	52.652
728.11	53.623
728.43	53.462
728.74	55.556
729.06	59.854
729.38	56.985
729.69	56.584
730.01	52.218
730.32	53.472
730.64	53.846
730.96	49.175
731.27	54.636
731.59	52.599
731.90	53.061
732.22	56.832
732.53	49.226
732.85	54.487
733.16	54.341
733.48	53.488
733.80	50.000
734.11	55.096
734.43	53.550
734.74	47.429
735.06	49.284
735.37	53.757
735.69	51.592
736.00	56.863
736.32	53.583
736.63	51.757
736.95	50.479
737.26	49.320
737.58	52.581
737.89	52.843
738.21	55.290
738.52	51.429
738.83	50.943
739.15	53.077
739.46	55.839
739.78	56.250
740.09	53.538
740.41	57.419
740.72	49.477
741.04	52.222
741.35	56.250
741.66	68.000
741.98	58.019
742.29	62.201
742.61	57.328
742.92	56.109
743.23	61.111
743.55	60.000
743.86	55.702
744.18	62.832
744.49	60.766
744.80	64.789
745.12	60.000
745.43	58.590
745.74	63.063
746.06	66.514
746.37	60.090
746.68	64.253
747.00	56.019
747.31	63.810
747.62	59.735
747.94	58.590
748.25	53.191
748.56	62.555
748.88	56.931
749.19	71.000
749.50	57.674
749.82	53.659
750.13	53.469
750.44	53.285
750.75	56.491
751.07	55.627
751.38	56.794
751.69	54.874
752.01	58.271
752.32	50.542
752.63	53.901
752.94	56.967
753.26	62.800
753.57	50.813
753.88	56.641
754.19	55.000
754.51	55.208
754.82	51.264
755.13	59.245
755.44	51.880
755.75	47.810
756.07	56.028
756.38	53.650
756.69	53.356
757.00	48.204
757.31	49.555
757.63	47.953
757.94	47.721
758.25	48.284
758.56	45.926
758.87	48.118
759.18	50.606
759.50	48.589
759.81	50.779
760.12	52.500
760.43	51.576
760.74	49.728
761.05	48.870
761.36	49.733
761.67	51.420
761.99	56.211
762.30	53.819
762.61	56.870
762.92	53.516
763.23	56.303
763.54	52.000
763.85	54.688
764.16	57.692
764.47	56.274
764.78	54.064
765.10	45.886
765.41	50.737
765.72	50.898
766.03	51.411
766.34	54.333
766.65	61.277
766.96	54.274
767.27	65.990
767.58	60.417
767.89	64.737
768.20	59.195
768.51	57.360
768.82	58.716
769.13	50.813
769.44	53.846
769.75	58.369
770.06	58.257
770.37	60.181
770.68	63.426
770.99	49.333
771.30	52.049
771.61	57.848
771.92	58.607
772.23	58.403
772.54	67.692
772.85	58.115
773.16	64.362
773.47	61.957
773.78	63.959
774.09	57.738
774.39	61.404
774.70	62.346
775.01	78.986
775.32	72.549
775.63	66.447
775.94	58.993
776.25	74.016
776.56	70.896
776.87	82.787
777.18	76.562
777.48	75.573
777.79	73.485
778.10	74.074
778.41	81.250
778.72	63.504
779.03	74.497
779.34	70.470
779.65	70.270
779.95	68.098
780.26	68.627
780.57	71.034
780.88	76.563
781.19	67.669
781.50	70.946
781.80	70.440
782.11	64.407
782.42	63.291
782.73	65.644
783.04	66.216
783.34	80.986
783.65	77.397
783.96	76.866
784.27	62.937
784.57	70.504
784.88	62.037
785.19	79.365
785.50	88.679
785.81	78.358
786.11	77.049
786.42	75.194
786.73	80.531
787.04	69.811
787.34	86.607
787.65	82.000
787.96	84.685
788.26	71.901
788.57	83.051
788.88	71.901
789.19	70.833
789.49	78.788
789.80	69.466
790.11	90.476
790.41	87.129
790.72	95.181
791.03	93.478
791.33	90.698
791.64	95.876
791.95	93.069
792.25	84.444
792.56	97.403
792.87	107.692
793.17	107.595
793.48	97.701
793.79	86.207
794.09	101.136
794.40	78.151
794.70	72.794
795.01	71.852
795.32	81.295
795.62	67.717
795.93	77.586
796.23	76.106
796.54	83.529
796.85	90.541
797.15	104.225
797.46	103.030
797.76	98.795
798.07	98.734
798.37	107.692
798.68	107.576
798.99	94.366
799.29	90.909
799.60	80.682
799.90	108.219
800.21	104.478
800.51	106.897
800.82	124.561
801.12	118.033
801.43	118.182
801.73	95.946
802.04	114.286
802.34	101.235
802.65	104.688
802.95	125.424
803.26	120.313
803.56	82.857
803.87	101.538
804.17	122.059
804.48	135.185
804.78	129.310
805.09	97.059
805.39	132.692
805.70	103.571
806.00	114.754
806.30	113.636
806.61	87.805
806.91	102.532
807.22	97.368
807.52	105.970
807.83	112.676
808.13	109.375
808.43	120.000
808.74	85.526
809.04	102.899
809.35	107.463
809.65	110.526
809.95	119.355
810.26	103.390
810.56	106.349
810.86	150.000
811.17	152.381
811.47	121.667
811.77	111.111
812.08	118.182
812.38	150.000
812.69	186.111
812.99	170.455
813.29	140.816
813.59	119.048
813.90	132.653
814.20	125.455
814.50	100.000
814.81	111.765
815.11	114.286
815.41	113.115
815.72	176.190
816.02	134.545
816.32	133.333
816.62	135.000
816.93	151.220
817.23	152.381
817.53	147.727
817.84	206.061
818.14	152.174
818.44	120.000
818.74	182.353
819.04	152.500
819.35	177.143
819.65	200.000
819.95	200.000
820.25	245.000
820.56	158.974
820.86	170.455
821.16	151.163
821.46	166.667
821.76	150.000
822.07	200.000
822.37	177.500
822.67	193.939
822.97	137.255
823.27	235.714
823.57	156.757
823.88	167.500
824.18	216.667
824.48	154.762
824.78	208.000
825.08	241.667
825.38	175.676
825.69	136.585
825.99	258.333
826.29	175.862
826.59	173.684
826.89	157.895
827.19	185.294
827.49	193.548
827.79	147.727
828.09	140.909
828.39	142.553
828.70	114.286
829.00	222.222
829.30	148.387
829.60	167.500
829.90	333.333
830.20	232.143
830.50	247.826
830.80	217.391
831.10	230.000
831.40	196.667
831.70	230.435
832.00	230.769
832.30	251.852
832.60	337.500
832.90	223.333
833.20	407.143
833.50	187.097
833.80	203.448
834.10	231.250
834.40	280.769
834.70	300.000
835.00	314.286
835.30	165.714
835.60	384.615
835.90	220.690
836.20	400.000
836.50	203.448
836.80	236.000
837.10	186.111
837.40	238.095
837.70	388.235
838.00	240.741
838.30	252.381
838.60	280.952
838.90	234.615
839.19	260.000
839.49	335.714
839.79	285.000
840.09	290.000
840.39	266.667
840.69	286.957
840.99	272.222
841.29	460.000
841.59	333.333
841.88	387.500
842.18	182.759
842.48	285.714
842.78	176.667
843.08	273.913
843.38	165.625
843.68	783.333
843.97	215.385
844.27	155.172
844.57	280.952
844.87	368.750
845.17	244.444
845.47	1733.333
845.76	500.000
846.06	305.882
846.36	512.500
846.66	364.286
846.96	368.750
847.25	509.091
847.55	345.455
847.85	260.870
848.15	570.000
848.44	400.000
848.74	305.556
849.04	382.353
849.34	460.000
849.63	284.211
849.93	363.636
850.23	980.000
850.53	457.143
850.82	2400.000
851.12	-4900.000
851.42	4400.000
851.71	290.000
852.01	-1066.667
852.31	237.500
852.61	1633.333
852.90	261.905
853.20	216.000
853.50	305.882
853.79	247.619
854.09	258.333
854.39	350.000
854.68	178.378
854.98	212.903
855.28	176.667
855.57	213.793
855.87	214.815
856.17	273.684
856.46	213.333
856.76	347.059
857.05	186.207
857.35	220.833
857.65	360.000
857.94	221.739
858.24	246.154
858.53	300.000
858.83	254.545
859.13	326.667
859.42	0.000
859.72	544.444
860.01	490.909
860.31	281.818
860.60	273.684
860.90	265.217
861.20	622.222
861.49	458.333
861.79	-3700.000
862.08	725.000
862.38	285.714
862.67	346.154
862.97	300.000
863.26	622.222
863.56	344.444
863.85	500.000
864.15	600.000
864.44	460.000
864.74	983.333
865.03	725.000
865.33	268.421
865.62	490.909
865.92	453.846
866.21	425.000
866.51	0.000
866.80	409.091
867.10	1240.000
867.39	446.154
867.69	463.636
867.98	273.684
868.27	500.000
868.57	326.316
868.86	-5600.000
869.16	331.250
869.45	2000.000
869.75	-4500.000
870.04	458.333
870.33	685.714
870.63	1325.000
870.92	2350.000
871.22	742.857
871.51	358.824
871.80	276.190
872.10	335.714
>>>>>End Processed Spectral Data<<<<<
