SpectraSuite Data File
++++++++++++++++++++++++++++++++++++
Date: Wed May 13 16:07:49 PDT 2015
User: schluterlab
Dark Spectrum Present: Yes
Reference Spectrum Present: Yes
Number of Sampled Component Spectra: 1
Spectrometers: USB2E3373
Integration Time (usec): 3000 (USB2E3373)
Spectra Averaged: 3 (USB2E3373)
Boxcar Smoothing: 0 (USB2E3373)
Correct for Electrical Dark: No (USB2E3373)
Strobe/Lamp Enabled: No (USB2E3373)
Correct for Detector Non-linearity: No (USB2E3373)
Correct for Stray Light: No (USB2E3373)
Number of Pixels in Processed Spectrum: 2048
>>>>>Begin Processed Spectral Data<<<<<
178.53	0.000
178.91	-650.000
179.29	-1000.000
179.67	-133.333
180.04	-775.000
180.42	2100.000
180.80	580.000
181.18	-575.000
181.56	414.286
181.94	0.000
182.31	-385.714
182.69	733.333
183.07	-412.500
183.45	-300.000
183.83	427.273
184.20	-260.000
184.58	1350.000
184.96	3700.000
185.34	-360.000
185.72	-375.000
186.09	-1500.000
186.47	2050.000
186.85	1900.000
187.23	3000.000
187.61	-1166.667
187.98	1025.000
188.36	400.000
188.74	436.364
189.12	-620.000
189.49	450.000
189.87	-3600.000
190.25	-850.000
190.63	278.571
191.00	269.231
191.38	400.000
191.76	-750.000
192.14	900.000
192.51	337.500
192.89	750.000
193.27	300.000
193.65	-750.000
194.02	390.000
194.40	480.000
194.78	450.000
195.15	416.667
195.53	440.000
195.91	-1250.000
196.29	212.500
196.66	226.316
197.04	-220.000
197.42	0.000
197.79	480.000
198.17	-3200.000
198.55	457.143
198.92	462.500
199.30	660.000
199.68	0.000
200.05	227.778
200.43	600.000
200.81	2600.000
201.18	933.333
201.56	-866.667
201.94	422.222
202.31	377.778
202.69	316.667
203.07	310.000
203.44	0.000
203.82	750.000
204.19	542.857
204.57	357.143
204.95	350.000
205.32	1033.333
205.70	354.545
206.08	228.571
206.45	2150.000
206.83	293.750
207.20	583.333
207.58	460.000
207.96	216.667
208.33	562.500
208.71	-533.333
209.08	485.714
209.46	388.889
209.84	336.364
210.21	-1100.000
210.59	1000.000
210.96	-325.000
211.34	1600.000
211.71	490.000
212.09	566.667
212.46	0.000
212.84	1233.333
213.22	900.000
213.59	-2400.000
213.97	483.333
214.34	671.429
214.72	445.455
215.09	660.000
215.47	-1550.000
215.84	-1400.000
216.22	1100.000
216.59	242.857
216.97	775.000
217.34	336.364
217.72	-483.333
218.09	0.000
218.47	-3000.000
218.84	388.889
219.22	442.857
219.59	1100.000
219.97	-300.000
220.34	680.000
220.72	-1200.000
221.09	278.571
221.47	1025.000
221.84	-483.333
222.22	0.000
222.59	800.000
222.97	-2300.000
223.34	680.000
223.72	330.769
224.09	560.000
224.46	950.000
224.84	-3800.000
225.21	-560.000
225.59	-3100.000
225.96	290.000
226.34	230.000
226.71	1650.000
227.08	500.000
227.46	410.000
227.83	-875.000
228.21	-1850.000
228.58	344.444
228.95	-1200.000
229.33	-1650.000
229.70	1200.000
230.08	385.714
230.45	-360.000
230.82	258.333
231.20	566.667
231.57	414.286
231.95	333.333
232.32	163.636
232.69	281.818
233.07	300.000
233.44	153.846
233.81	-1266.667
234.19	221.053
234.56	258.333
234.93	216.667
235.31	245.455
235.68	192.308
236.05	192.857
236.43	139.394
236.80	152.632
237.17	2600.000
237.55	209.524
237.92	139.286
238.29	138.095
238.67	125.806
239.04	137.931
239.41	94.444
239.79	95.652
240.16	102.381
240.53	88.636
240.91	96.078
241.28	68.000
241.65	72.000
242.02	60.870
242.40	74.194
242.77	63.333
243.14	52.688
243.51	57.303
243.89	56.471
244.26	45.556
244.63	44.086
245.00	36.170
245.38	36.634
245.75	34.579
246.12	40.367
246.49	39.416
246.87	48.000
247.24	36.154
247.61	42.143
247.98	32.680
248.36	26.351
248.73	36.306
249.10	29.299
249.47	36.723
249.84	35.829
250.22	26.738
250.59	26.036
250.96	31.313
251.33	34.123
251.70	28.218
252.08	29.048
252.45	28.700
252.82	20.870
253.19	25.957
253.56	28.235
253.94	29.046
254.31	25.391
254.68	26.538
255.05	26.937
255.42	26.423
255.79	23.529
256.16	28.520
256.54	19.788
256.91	20.996
257.28	20.144
257.65	20.792
258.02	22.671
258.39	21.451
258.76	20.067
259.14	22.917
259.51	20.669
259.88	20.807
260.25	21.148
260.62	21.676
260.99	21.118
261.36	19.820
261.73	16.905
262.10	19.186
262.47	22.535
262.85	19.220
263.22	16.809
263.59	19.373
263.96	23.352
264.33	18.016
264.70	19.474
265.07	20.972
265.44	19.949
265.81	17.032
266.18	21.608
266.55	18.049
266.92	20.885
267.29	22.222
267.66	18.349
268.03	22.045
268.40	17.991
268.77	17.422
269.14	18.694
269.51	19.413
269.88	21.212
270.25	19.413
270.62	18.876
270.99	19.140
271.36	17.811
271.73	16.822
272.10	15.435
272.47	17.634
272.84	17.965
273.21	19.287
273.58	18.777
273.95	18.449
274.32	19.008
274.69	19.272
275.06	16.142
275.43	17.660
275.80	18.036
276.17	16.497
276.54	17.256
276.91	18.182
277.28	17.383
277.65	17.408
278.02	13.872
278.39	17.969
278.76	18.364
279.13	20.189
279.50	18.622
279.87	18.327
280.23	18.563
280.60	16.441
280.97	17.560
281.34	16.814
281.71	17.455
282.08	18.426
282.45	16.364
282.82	15.986
283.19	16.578
283.56	17.018
283.92	17.090
284.29	16.755
284.66	16.515
285.03	15.371
285.40	13.380
285.77	14.141
286.14	15.544
286.51	16.667
286.87	15.897
287.24	15.147
287.61	15.570
287.98	15.097
288.35	16.006
288.72	14.486
289.08	17.214
289.45	15.815
289.82	15.610
290.19	15.385
290.56	15.314
290.93	14.048
291.29	14.571
291.66	15.929
292.03	18.314
292.40	15.419
292.77	15.089
293.13	14.478
293.50	14.869
293.87	13.333
294.24	14.222
294.60	13.100
294.97	14.390
295.34	16.502
295.71	15.341
296.08	14.672
296.44	12.792
296.81	12.682
297.18	14.905
297.55	12.929
297.91	13.852
298.28	14.324
298.65	14.099
299.02	14.097
299.38	12.882
299.75	12.534
300.12	11.622
300.48	12.875
300.85	12.454
301.22	12.739
301.59	12.374
301.95	12.720
302.32	13.992
302.69	12.903
303.05	13.212
303.42	13.086
303.79	12.797
304.15	12.354
304.52	12.283
304.89	12.544
305.25	12.877
305.62	12.684
305.99	13.105
306.35	11.409
306.72	13.565
307.09	13.541
307.45	14.077
307.82	12.946
308.19	12.804
308.55	13.592
308.92	13.212
309.29	12.460
309.65	12.831
310.02	13.531
310.38	13.656
310.75	13.622
311.12	13.818
311.48	13.898
311.85	14.570
312.22	13.632
312.58	14.345
312.95	14.572
313.31	14.175
313.68	14.553
314.05	14.990
314.41	14.774
314.78	15.005
315.14	14.995
315.51	15.654
315.87	16.040
316.24	14.896
316.61	15.107
316.97	14.873
317.34	14.971
317.70	15.966
318.07	16.266
318.43	16.438
318.80	16.870
319.16	16.290
319.53	16.698
319.89	16.095
320.26	17.900
320.62	17.659
320.99	17.980
321.35	16.970
321.72	19.918
322.08	19.250
322.45	20.100
322.81	20.058
323.18	20.520
323.54	19.481
323.91	19.057
324.27	20.268
324.64	20.596
325.00	20.379
325.37	22.202
325.73	21.724
326.10	21.977
326.46	21.774
326.83	22.519
327.19	22.630
327.56	22.561
327.92	24.322
328.29	24.490
328.65	23.849
329.01	23.466
329.38	24.237
329.74	24.377
330.11	24.222
330.47	24.702
330.84	26.287
331.20	22.860
331.56	24.862
331.93	24.352
332.29	23.957
332.66	24.867
333.02	24.954
333.38	24.842
333.75	25.490
334.11	25.801
334.48	24.933
334.84	26.379
335.20	25.545
335.57	26.383
335.93	24.554
336.29	25.916
336.66	24.256
337.02	23.891
337.38	25.463
337.75	25.223
338.11	25.604
338.47	24.770
338.84	25.023
339.20	25.138
339.56	27.190
339.93	24.182
340.29	23.732
340.65	25.668
341.02	26.265
341.38	24.822
341.74	25.175
342.11	25.590
342.47	25.551
342.83	26.284
343.20	26.580
343.56	25.527
343.92	25.000
344.28	26.105
344.65	26.483
345.01	24.832
345.37	24.014
345.73	25.635
346.10	24.723
346.46	25.678
346.82	25.865
347.19	24.812
347.55	24.138
347.91	25.405
348.27	26.705
348.63	26.505
349.00	25.647
349.36	25.452
349.72	25.662
350.08	25.041
350.45	26.282
350.81	25.183
351.17	25.041
351.53	25.471
351.89	25.413
352.26	26.283
352.62	25.822
352.98	25.365
353.34	24.979
353.70	23.650
354.07	26.452
354.43	25.238
354.79	24.940
355.15	25.938
355.51	26.139
355.87	26.449
356.24	26.059
356.60	25.341
356.96	26.146
357.32	25.511
357.68	25.906
358.04	26.524
358.40	26.999
358.77	25.822
359.13	26.598
359.49	25.882
359.85	24.524
360.21	25.678
360.57	27.004
360.93	26.769
361.29	25.548
361.66	26.471
362.02	27.313
362.38	27.224
362.74	26.265
363.10	25.833
363.46	25.238
363.82	25.926
364.18	26.432
364.54	25.409
364.90	26.841
365.26	27.500
365.62	26.881
365.98	25.712
366.35	25.788
366.71	26.392
367.07	27.385
367.43	26.996
367.79	27.837
368.15	27.658
368.51	26.163
368.87	28.194
369.23	27.798
369.59	28.313
369.95	27.721
370.31	27.920
370.67	26.377
371.03	28.464
371.39	27.478
371.75	26.838
372.11	27.596
372.47	27.566
372.83	29.107
373.19	27.890
373.55	28.751
373.91	28.645
374.27	28.660
374.63	28.000
374.99	28.955
375.35	28.402
375.71	28.033
376.07	29.081
376.42	27.992
376.78	29.225
377.14	28.562
377.50	29.007
377.86	28.391
378.22	28.319
378.58	28.759
378.94	28.536
379.30	28.817
379.66	28.553
380.02	29.300
380.38	29.144
380.74	29.532
381.09	30.012
381.45	30.424
381.81	30.344
382.17	30.446
382.53	29.057
382.89	30.494
383.25	29.331
383.61	30.917
383.97	30.331
384.32	30.942
384.68	29.802
385.04	30.117
385.40	30.279
385.76	30.098
386.12	30.311
386.48	31.152
386.83	31.174
387.19	31.849
387.55	31.540
387.91	31.681
388.27	30.901
388.62	32.207
388.98	31.327
389.34	31.602
389.70	30.717
390.06	32.383
390.42	31.453
390.77	32.888
391.13	32.674
391.49	32.678
391.85	32.463
392.20	31.735
392.56	32.513
392.92	31.960
393.28	31.006
393.64	31.835
393.99	31.888
394.35	32.568
394.71	32.434
395.07	31.402
395.42	32.695
395.78	33.397
396.14	33.457
396.50	33.459
396.85	32.613
397.21	32.799
397.57	32.052
397.92	32.392
398.28	32.735
398.64	33.453
399.00	32.904
399.35	32.487
399.71	33.391
400.07	33.235
400.42	32.822
400.78	33.836
401.14	34.024
401.49	32.418
401.85	33.878
402.21	32.994
402.57	32.943
402.92	34.111
403.28	33.791
403.63	32.302
403.99	34.013
404.35	33.636
404.70	33.933
405.06	32.499
405.42	32.502
405.77	33.600
406.13	33.409
406.49	34.004
406.84	34.672
407.20	33.392
407.55	33.567
407.91	34.933
408.27	34.461
408.62	33.414
408.98	34.559
409.34	33.087
409.69	33.226
410.05	33.767
410.40	34.067
410.76	34.050
411.11	34.439
411.47	33.930
411.83	33.720
412.18	33.828
412.54	34.433
412.89	34.277
413.25	33.825
413.60	34.836
413.96	32.665
414.31	34.022
414.67	34.918
415.03	33.907
415.38	33.570
415.74	35.498
416.09	34.879
416.45	34.471
416.80	34.765
417.16	36.260
417.51	34.373
417.87	33.911
418.22	36.151
418.58	35.636
418.93	34.521
419.29	35.264
419.64	35.894
420.00	35.000
420.35	35.884
420.71	35.206
421.06	34.368
421.42	35.322
421.77	34.809
422.12	34.026
422.48	34.161
422.83	35.236
423.19	34.807
423.54	35.519
423.90	35.768
424.25	35.790
424.61	35.536
424.96	35.860
425.31	35.770
425.67	34.326
426.02	35.486
426.38	36.691
426.73	35.225
427.09	35.805
427.44	35.078
427.79	36.170
428.15	36.190
428.50	35.342
428.85	36.830
429.21	34.898
429.56	35.977
429.92	35.632
430.27	35.948
430.62	35.586
430.98	36.689
431.33	35.928
431.68	36.178
432.04	35.517
432.39	36.436
432.74	36.086
433.10	36.729
433.45	37.609
433.80	37.417
434.16	35.897
434.51	36.000
434.86	36.203
435.22	36.687
435.57	36.778
435.92	36.396
436.28	37.722
436.63	37.969
436.98	37.264
437.34	37.984
437.69	37.223
438.04	36.594
438.39	37.254
438.75	37.362
439.10	37.542
439.45	37.190
439.81	37.885
440.16	36.815
440.51	37.844
440.86	38.448
441.22	37.764
441.57	37.898
441.92	38.178
442.27	38.536
442.63	37.388
442.98	38.479
443.33	38.152
443.68	37.997
444.03	37.921
444.39	37.293
444.74	38.420
445.09	37.358
445.44	37.726
445.79	37.556
446.15	38.592
446.50	38.395
446.85	38.643
447.20	38.450
447.55	38.861
447.91	39.051
448.26	39.009
448.61	38.383
448.96	39.203
449.31	39.539
449.66	38.886
450.02	37.382
450.37	38.549
450.72	39.255
451.07	38.635
451.42	37.568
451.77	39.225
452.12	38.453
452.47	40.361
452.83	39.685
453.18	39.670
453.53	39.085
453.88	40.165
454.23	39.211
454.58	38.886
454.93	39.860
455.28	39.651
455.63	39.138
455.98	40.774
456.34	38.693
456.69	39.574
457.04	38.204
457.39	39.158
457.74	40.395
458.09	39.850
458.44	39.624
458.79	38.395
459.14	40.576
459.49	39.171
459.84	39.668
460.19	38.539
460.54	38.368
460.89	39.715
461.24	39.709
461.59	41.371
461.94	39.457
462.29	39.644
462.64	40.779
462.99	39.297
463.34	40.667
463.69	40.588
464.04	40.870
464.39	40.928
464.74	38.919
465.09	40.410
465.44	39.280
465.79	39.038
466.14	39.299
466.49	39.822
466.84	40.806
467.19	40.314
467.54	40.188
467.89	40.636
468.24	40.198
468.59	40.415
468.94	39.279
469.29	41.131
469.64	40.629
469.99	41.475
470.34	40.291
470.68	40.589
471.03	41.224
471.38	41.279
471.73	41.772
472.08	42.434
472.43	41.080
472.78	40.487
473.13	40.886
473.48	40.886
473.83	42.012
474.17	41.008
474.52	41.873
474.87	42.440
475.22	41.207
475.57	40.570
475.92	40.414
476.27	40.643
476.61	41.864
476.96	41.341
477.31	40.555
477.66	41.521
478.01	40.826
478.36	41.830
478.70	40.343
479.05	40.522
479.40	42.375
479.75	41.434
480.10	41.402
480.45	40.600
480.79	40.755
481.14	40.998
481.49	42.098
481.84	41.655
482.19	41.527
482.53	41.101
482.88	41.461
483.23	41.682
483.58	41.219
483.92	41.471
484.27	40.349
484.62	40.388
484.97	41.230
485.31	41.507
485.66	40.265
486.01	38.559
486.36	37.415
486.70	36.072
487.05	37.506
487.40	37.896
487.75	38.335
488.09	38.975
488.44	39.326
488.79	40.434
489.13	40.718
489.48	40.905
489.83	41.044
490.17	42.087
490.52	41.010
490.87	41.113
491.22	40.791
491.56	41.321
491.91	40.717
492.26	41.112
492.60	41.705
492.95	40.692
493.30	41.075
493.64	42.184
493.99	41.318
494.34	41.304
494.68	41.209
495.03	42.246
495.37	41.228
495.72	41.862
496.07	42.274
496.41	40.929
496.76	41.205
497.11	42.098
497.45	41.546
497.80	41.123
498.14	41.353
498.49	42.195
498.84	42.138
499.18	41.667
499.53	42.593
499.87	42.265
500.22	41.969
500.56	43.350
500.91	42.308
501.26	42.200
501.60	42.715
501.95	41.705
502.29	42.737
502.64	42.318
502.98	41.702
503.33	41.636
503.67	42.227
504.02	42.142
504.36	41.928
504.71	41.915
505.06	42.361
505.40	42.586
505.75	43.009
506.09	42.177
506.44	43.513
506.78	43.010
507.13	43.311
507.47	43.434
507.82	43.414
508.16	43.212
508.51	43.988
508.85	43.347
509.19	43.929
509.54	43.265
509.88	43.277
510.23	43.702
510.57	44.066
510.92	44.899
511.26	42.600
511.61	44.191
511.95	43.006
512.30	43.690
512.64	44.492
512.98	43.730
513.33	44.861
513.67	43.917
514.02	43.831
514.36	45.385
514.70	44.992
515.05	44.228
515.39	45.429
515.74	45.946
516.08	44.662
516.42	45.006
516.77	46.656
517.11	44.562
517.46	46.388
517.80	45.819
518.14	44.818
518.49	46.733
518.83	46.250
519.17	46.594
519.52	46.293
519.86	45.636
520.20	45.549
520.55	47.217
520.89	46.776
521.23	47.286
521.58	46.639
521.92	46.173
522.26	45.272
522.61	46.604
522.95	46.347
523.29	47.109
523.64	47.866
523.98	47.443
524.32	47.045
524.66	47.204
525.01	46.998
525.35	46.902
525.69	46.983
526.04	47.975
526.38	46.980
526.72	47.178
527.06	48.462
527.41	45.792
527.75	48.167
528.09	49.261
528.43	47.929
528.78	48.371
529.12	46.061
529.46	47.397
529.80	48.391
530.15	48.287
530.49	46.892
530.83	48.481
531.17	49.543
531.51	49.222
531.86	48.323
532.20	49.283
532.54	47.726
532.88	49.294
533.22	46.846
533.57	47.099
533.91	47.742
534.25	47.813
534.59	47.895
534.93	46.282
535.27	47.013
535.62	47.924
535.96	47.646
536.30	46.917
536.64	49.002
536.98	47.843
537.32	48.519
537.66	48.800
538.01	48.124
538.35	47.188
538.69	47.926
539.03	47.173
539.37	47.093
539.71	46.662
540.05	47.059
540.39	48.372
540.73	46.636
541.07	48.994
541.42	48.141
541.76	47.806
542.10	47.995
542.44	49.205
542.78	48.090
543.12	46.065
543.46	47.213
543.80	48.406
544.14	46.983
544.48	47.810
544.82	47.274
545.16	49.317
545.50	46.272
545.84	47.513
546.18	48.283
546.52	48.451
546.86	47.698
547.20	48.753
547.54	46.760
547.88	47.513
548.22	47.260
548.56	47.358
548.90	47.695
549.24	46.397
549.58	48.295
549.92	47.321
550.26	48.295
550.60	47.234
550.94	49.155
551.28	48.135
551.62	47.520
551.96	46.737
552.30	49.147
552.64	47.059
552.98	48.881
553.32	48.146
553.66	48.330
554.00	47.701
554.34	48.102
554.68	48.140
555.02	47.884
555.36	48.225
555.69	46.346
556.03	47.510
556.37	48.090
556.71	46.385
557.05	47.549
557.39	47.866
557.73	47.636
558.07	49.456
558.41	47.323
558.75	47.759
559.08	48.024
559.42	48.602
559.76	48.676
560.10	47.252
560.44	47.379
560.78	46.640
561.12	46.240
561.45	47.327
561.79	47.462
562.13	47.619
562.47	47.404
562.81	48.605
563.15	47.090
563.48	46.950
563.82	48.271
564.16	47.351
564.50	47.135
564.84	45.386
565.17	47.941
565.51	47.476
565.85	46.764
566.19	46.337
566.52	46.992
566.86	45.871
567.20	46.934
567.54	45.605
567.88	45.084
568.21	46.190
568.55	45.753
568.89	46.839
569.23	44.162
569.56	43.563
569.90	43.774
570.24	42.806
570.57	42.605
570.91	42.017
571.25	41.600
571.59	42.062
571.92	41.100
572.26	41.306
572.60	41.471
572.93	40.660
573.27	41.733
573.61	41.904
573.95	41.189
574.28	40.628
574.62	41.472
574.96	40.000
575.29	40.058
575.63	40.346
575.97	40.302
576.30	40.574
576.64	40.713
576.98	40.180
577.31	40.827
577.65	40.608
577.98	40.310
578.32	39.416
578.66	39.958
578.99	39.991
579.33	39.869
579.67	39.844
580.00	40.110
580.34	40.721
580.67	40.416
581.01	40.499
581.35	40.438
581.68	40.413
582.02	39.269
582.35	39.584
582.69	39.530
583.02	39.736
583.36	39.728
583.70	40.110
584.03	40.230
584.37	41.265
584.70	41.327
585.04	40.166
585.37	40.098
585.71	40.578
586.04	39.816
586.38	40.596
586.72	40.376
587.05	40.098
587.39	40.000
587.72	40.814
588.06	40.235
588.39	40.521
588.73	40.452
589.06	40.137
589.40	41.582
589.73	41.359
590.07	40.961
590.40	40.994
590.73	41.881
591.07	42.694
591.40	42.303
591.74	43.160
592.07	42.670
592.41	42.952
592.74	40.674
593.08	41.106
593.41	40.335
593.75	39.944
594.08	40.664
594.41	41.216
594.75	41.220
595.08	40.873
595.42	41.191
595.75	41.061
596.09	41.344
596.42	40.864
596.75	41.579
597.09	42.165
597.42	41.062
597.75	42.087
598.09	42.174
598.42	41.022
598.76	40.819
599.09	39.871
599.42	40.320
599.76	40.666
600.09	40.364
600.42	40.979
600.76	39.393
601.09	39.818
601.42	40.715
601.76	40.000
602.09	40.237
602.42	40.446
602.76	41.475
603.09	40.519
603.42	41.234
603.76	40.473
604.09	40.597
604.42	40.603
604.76	41.038
605.09	41.328
605.42	40.829
605.75	40.935
606.09	40.464
606.42	40.458
606.75	40.066
607.09	41.189
607.42	41.164
607.75	38.987
608.08	40.078
608.42	41.372
608.75	40.848
609.08	40.056
609.41	40.885
609.75	39.924
610.08	41.282
610.41	41.387
610.74	40.965
611.07	41.996
611.41	40.186
611.74	40.925
612.07	41.356
612.40	41.763
612.73	41.211
613.07	42.403
613.40	42.075
613.73	40.850
614.06	40.860
614.39	40.378
614.72	41.421
615.06	41.282
615.39	41.348
615.72	40.235
616.05	40.617
616.38	41.523
616.71	43.171
617.05	42.226
617.38	42.333
617.71	41.321
618.04	42.608
618.37	40.982
618.70	42.439
619.03	42.368
619.36	42.363
619.69	42.676
620.03	43.613
620.36	42.380
620.69	43.904
621.02	43.732
621.35	41.738
621.68	43.769
622.01	43.266
622.34	42.738
622.67	42.814
623.00	42.260
623.33	41.387
623.66	42.173
623.99	42.857
624.32	42.083
624.65	43.362
624.99	41.856
625.32	42.433
625.65	42.074
625.98	43.198
626.31	43.390
626.64	43.592
626.97	44.140
627.30	44.638
627.63	43.396
627.96	43.734
628.29	44.444
628.62	43.641
628.95	45.660
629.28	43.248
629.61	45.096
629.94	44.571
630.26	43.661
630.59	43.756
630.92	43.103
631.25	44.423
631.58	44.144
631.91	45.132
632.24	44.831
632.57	46.065
632.90	46.930
633.23	45.190
633.56	46.554
633.89	45.866
634.22	45.630
634.55	47.101
634.88	46.826
635.20	47.312
635.53	47.952
635.86	46.163
636.19	46.824
636.52	45.213
636.85	45.132
637.18	43.548
637.51	47.163
637.83	45.006
638.16	48.465
638.49	45.718
638.82	47.282
639.15	45.625
639.48	47.880
639.81	46.113
640.13	46.354
640.46	46.040
640.79	44.782
641.12	43.604
641.45	46.089
641.77	48.159
642.10	47.076
642.43	46.396
642.76	48.452
643.09	48.160
643.41	46.889
643.74	49.228
644.07	47.561
644.40	50.613
644.73	47.402
645.05	49.128
645.38	47.551
645.71	49.436
646.04	49.834
646.36	51.419
646.69	52.174
647.02	48.639
647.35	48.625
647.67	49.381
648.00	46.829
648.33	44.719
648.66	47.273
648.98	47.376
649.31	46.637
649.64	47.534
649.96	46.796
650.29	47.551
650.62	45.793
650.94	47.002
651.27	49.324
651.60	48.752
651.92	47.764
652.25	47.394
652.58	45.016
652.90	46.761
653.23	43.760
653.56	46.457
653.88	46.593
654.21	46.603
654.54	44.389
654.86	45.171
655.19	42.568
655.52	32.875
655.84	30.393
656.17	38.669
656.49	51.905
656.82	52.088
657.15	38.696
657.47	28.776
657.80	22.589
658.13	23.518
658.45	34.992
658.78	33.824
659.10	34.593
659.43	36.760
659.75	38.231
660.08	41.519
660.41	45.531
660.73	47.903
661.06	47.611
661.38	48.909
661.71	50.385
662.03	48.915
662.36	44.533
662.68	48.394
663.01	49.091
663.33	48.408
663.66	49.370
663.98	51.188
664.31	49.790
664.63	46.761
664.96	47.082
665.28	48.770
665.61	44.639
665.93	45.272
666.26	49.290
666.58	48.117
666.91	47.569
667.23	49.213
667.56	47.948
667.88	48.504
668.21	48.188
668.53	48.590
668.86	48.052
669.18	48.614
669.50	48.478
669.83	50.327
670.15	51.111
670.48	48.148
670.80	48.060
671.13	48.408
671.45	42.340
671.77	47.454
672.10	45.471
672.42	42.403
672.75	42.123
673.07	45.423
673.39	43.038
673.72	44.336
674.04	47.059
674.37	44.854
674.69	46.012
675.01	46.025
675.34	48.255
675.66	50.526
675.98	43.992
676.31	48.109
676.63	46.497
676.95	46.331
677.28	46.729
677.60	48.352
677.92	47.468
678.25	44.969
678.57	45.418
678.89	45.090
679.22	44.794
679.54	42.748
679.86	44.954
680.18	45.259
680.51	44.681
680.83	41.815
681.15	45.094
681.48	41.777
681.80	45.841
682.12	43.295
682.44	41.973
682.77	45.825
683.09	50.000
683.41	48.337
683.73	47.682
684.06	46.694
684.38	43.249
684.70	45.543
685.02	43.152
685.34	42.491
685.67	43.182
685.99	39.347
686.31	40.444
686.63	40.459
686.96	40.714
687.28	41.877
687.60	41.848
687.92	44.973
688.24	44.297
688.56	45.382
688.89	43.983
689.21	42.140
689.53	44.050
689.85	43.459
690.17	43.064
690.49	44.586
690.82	46.028
691.14	43.750
691.46	42.405
691.78	43.775
692.10	45.661
692.42	43.513
692.74	42.739
693.06	45.532
693.39	44.969
693.71	42.140
694.03	43.579
694.35	40.693
694.67	43.478
694.99	44.634
695.31	42.892
695.63	45.694
695.95	44.499
696.27	43.909
696.59	47.150
696.91	43.782
697.23	40.141
697.56	42.857
697.88	39.468
698.20	40.833
698.52	43.441
698.84	42.316
699.16	41.705
699.48	43.943
699.80	43.237
700.12	51.169
700.44	44.562
700.76	46.961
701.08	47.414
701.40	41.620
701.72	46.647
702.04	52.273
702.36	40.510
702.68	47.309
703.00	46.814
703.32	41.489
703.64	41.823
703.96	47.354
704.28	44.477
704.60	46.334
704.91	41.840
705.23	46.921
705.55	50.831
705.87	53.488
706.19	50.530
706.51	47.975
706.83	50.909
707.15	43.697
707.47	42.929
707.79	39.803
708.11	43.836
708.43	42.619
708.74	41.071
709.06	45.195
709.38	44.357
709.70	44.186
710.02	43.917
710.34	42.727
710.66	46.866
710.98	46.023
711.29	42.733
711.61	46.313
711.93	46.154
712.25	44.373
712.57	49.265
712.89	45.329
713.20	47.112
713.52	45.066
713.84	46.203
714.16	41.463
714.48	46.264
714.80	49.848
715.11	43.516
715.43	43.917
715.75	44.058
716.07	41.853
716.39	42.947
716.70	48.173
717.02	46.403
717.34	43.816
717.66	50.000
717.97	48.606
718.29	47.407
718.61	44.161
718.93	45.956
719.24	47.059
719.56	45.085
719.88	45.424
720.20	47.973
720.51	47.387
720.83	50.558
721.15	44.030
721.46	42.553
721.78	46.237
722.10	44.151
722.42	46.992
722.73	49.064
723.05	45.902
723.37	45.344
723.68	45.560
724.00	48.374
724.32	47.177
724.63	45.935
724.95	51.464
725.27	48.988
725.58	46.484
725.90	46.715
726.22	47.170
726.53	44.444
726.85	46.758
727.16	48.043
727.48	43.972
727.80	45.833
728.11	43.841
728.43	42.692
728.74	43.011
729.06	47.810
729.38	45.956
729.69	48.043
730.01	43.686
730.32	40.972
730.64	42.809
730.96	40.594
731.27	45.033
731.59	44.954
731.90	42.857
732.22	42.236
732.53	40.248
732.85	41.987
733.16	37.942
733.48	40.864
733.80	41.883
734.11	42.675
734.43	38.462
734.74	37.429
735.06	38.395
735.37	43.931
735.69	41.401
736.00	43.137
736.32	43.614
736.63	40.575
736.95	42.173
737.26	35.374
737.58	35.484
737.89	40.134
738.21	43.686
738.52	37.857
738.83	41.509
739.15	44.231
739.46	45.985
739.78	44.444
740.09	37.538
740.41	39.677
740.72	42.160
741.04	41.481
741.35	40.833
741.66	49.333
741.98	39.151
742.29	44.019
742.61	48.707
742.92	42.986
743.23	38.462
743.55	46.800
743.86	44.298
744.18	47.788
744.49	47.368
744.80	49.765
745.12	50.455
745.43	44.053
745.74	49.099
746.06	44.954
746.37	46.188
746.68	45.701
747.00	42.593
747.31	50.952
747.62	44.248
747.94	46.256
748.25	44.681
748.56	49.339
748.88	47.525
749.19	53.000
749.50	46.512
749.82	45.935
750.13	42.857
750.44	39.051
750.75	44.211
751.07	43.408
751.38	44.599
751.69	39.350
752.01	42.857
752.32	42.238
752.63	43.617
752.94	45.902
753.26	50.000
753.57	42.683
753.88	42.969
754.19	38.571
754.51	42.361
754.82	42.960
755.13	46.038
755.44	41.729
755.75	42.336
756.07	35.816
756.38	41.241
756.69	40.940
757.00	38.024
757.31	40.653
757.63	36.550
757.94	36.997
758.25	36.765
758.56	33.827
758.87	37.097
759.18	36.667
759.50	36.677
759.81	39.564
760.12	36.562
760.43	39.828
760.74	35.598
761.05	40.960
761.36	37.166
761.67	33.239
761.99	37.888
762.30	39.236
762.61	42.748
762.92	44.531
763.23	43.277
763.54	44.000
763.85	38.281
764.16	45.385
764.47	41.445
764.78	39.576
765.10	32.278
765.41	38.053
765.72	36.826
766.03	40.125
766.34	36.667
766.65	46.809
766.96	43.162
767.27	46.193
767.58	46.354
767.89	43.158
768.20	47.701
768.51	41.624
768.82	42.661
769.13	38.618
769.44	43.320
769.75	39.914
770.06	33.486
770.37	45.249
770.68	43.981
770.99	38.667
771.30	37.705
771.61	45.291
771.92	41.393
772.23	46.639
772.54	38.974
772.85	46.597
773.16	47.340
773.47	40.217
773.78	48.731
774.09	48.214
774.39	47.953
774.70	46.914
775.01	58.696
775.32	49.020
775.63	52.632
775.94	44.604
776.25	66.142
776.56	58.209
776.87	53.279
777.18	53.906
777.48	50.382
777.79	54.545
778.10	56.296
778.41	63.393
778.72	48.175
779.03	50.336
779.34	53.691
779.65	44.595
779.95	47.853
780.26	50.327
780.57	52.414
780.88	55.469
781.19	47.368
781.50	52.027
781.80	47.799
782.11	41.243
782.42	46.203
782.73	39.877
783.04	52.703
783.34	52.817
783.65	59.589
783.96	58.209
784.27	52.448
784.57	41.007
784.88	48.148
785.19	61.111
785.50	53.774
785.81	53.731
786.11	56.557
786.42	54.264
786.73	51.327
787.04	54.717
787.34	52.679
787.65	57.000
787.96	57.658
788.26	57.851
788.57	59.322
788.88	67.769
789.19	48.611
789.49	61.364
789.80	53.435
790.11	64.762
790.41	60.396
790.72	59.036
791.03	56.522
791.33	51.163
791.64	57.732
791.95	58.416
792.25	71.111
792.56	77.922
792.87	79.487
793.17	69.620
793.48	71.264
793.79	65.517
794.09	73.864
794.40	57.983
794.70	48.529
795.01	50.370
795.32	47.482
795.62	52.756
795.93	54.310
796.23	51.327
796.54	56.471
796.85	66.216
797.15	90.141
797.46	62.121
797.76	66.265
798.07	74.684
798.37	56.923
798.68	86.364
798.99	47.887
799.29	75.325
799.60	63.636
799.90	79.452
800.21	94.030
800.51	77.586
800.82	91.228
801.12	81.967
801.43	74.242
801.73	66.216
802.04	80.952
802.34	75.309
802.65	65.625
802.95	89.831
803.26	103.125
803.56	55.714
803.87	76.923
804.17	66.176
804.48	88.889
804.78	63.793
805.09	61.765
805.39	94.231
805.70	76.786
806.00	78.689
806.30	53.030
806.61	65.854
806.91	63.291
807.22	75.000
807.52	64.179
807.83	64.789
808.13	81.250
808.43	106.667
808.74	59.211
809.04	73.913
809.35	88.060
809.65	71.053
809.95	91.935
810.26	66.102
810.56	88.889
810.86	93.182
811.17	121.429
811.47	91.667
811.77	74.074
812.08	109.091
812.38	118.000
812.69	105.556
812.99	106.818
813.29	91.837
813.59	66.667
813.90	93.878
814.20	96.364
814.50	73.846
814.81	82.353
815.11	100.000
815.41	88.525
815.72	102.381
816.02	101.818
816.32	104.762
816.62	72.500
816.93	107.317
817.23	121.429
817.53	113.636
817.84	118.182
818.14	110.870
818.44	91.111
818.74	129.412
819.04	117.500
819.35	122.857
819.65	111.765
819.95	100.000
820.25	165.000
820.56	110.256
820.86	106.818
821.16	141.860
821.46	84.615
821.76	130.000
822.07	168.571
822.37	122.500
822.67	130.303
822.97	88.235
823.27	150.000
823.57	108.108
823.88	117.500
824.18	166.667
824.48	116.667
824.78	168.000
825.08	150.000
825.38	91.892
825.69	129.268
825.99	204.167
826.29	103.448
826.59	107.895
826.89	121.053
827.19	105.882
827.49	125.806
827.79	136.364
828.09	102.273
828.39	78.723
828.70	100.000
829.00	100.000
829.30	125.806
829.60	97.500
829.90	260.000
830.20	114.286
830.50	121.739
830.80	165.217
831.10	150.000
831.40	123.333
831.70	143.478
832.00	161.538
832.30	155.556
832.60	131.250
832.90	173.333
833.20	328.571
833.50	135.484
833.80	120.690
834.10	143.750
834.40	165.385
834.70	233.333
835.00	185.714
835.30	111.429
835.60	223.077
835.90	148.276
836.20	228.571
836.50	127.586
836.80	164.000
837.10	152.778
837.40	195.238
837.70	170.588
838.00	144.444
838.30	109.524
838.60	219.048
838.90	192.308
839.19	150.000
839.49	314.286
839.79	175.000
840.09	205.000
840.39	209.524
840.69	191.304
840.99	233.333
841.29	260.000
841.59	266.667
841.88	250.000
842.18	165.517
842.48	223.810
842.78	166.667
843.08	126.087
843.38	140.625
843.68	750.000
843.97	169.231
844.27	175.862
844.57	252.381
844.87	212.500
845.17	144.444
845.47	1100.000
845.76	311.111
846.06	135.294
846.36	325.000
846.66	278.571
846.96	162.500
847.25	345.455
847.55	254.545
847.85	213.043
848.15	360.000
848.44	300.000
848.74	188.889
849.04	176.471
849.34	490.000
849.63	178.947
849.93	254.545
850.23	580.000
850.53	314.286
850.82	1550.000
851.12	-2600.000
851.42	2400.000
851.71	165.000
852.01	-900.000
852.31	170.833
852.61	966.667
852.90	133.333
853.20	148.000
853.50	235.294
853.79	204.762
854.09	162.500
854.39	262.500
854.68	121.622
854.98	116.129
855.28	126.667
855.57	175.862
855.87	166.667
856.17	94.737
856.46	106.667
856.76	176.471
857.05	100.000
857.35	154.167
857.65	333.333
857.94	160.870
858.24	196.154
858.53	165.000
858.83	150.000
859.13	213.333
859.42	0.000
859.72	311.111
860.01	354.545
860.31	213.636
860.60	184.211
860.90	178.261
861.20	411.111
861.49	325.000
861.79	-3500.000
862.08	425.000
862.38	161.905
862.67	223.077
862.97	252.941
863.26	377.778
863.56	172.222
863.85	208.333
864.15	325.000
864.44	286.667
864.74	466.667
865.03	500.000
865.33	226.316
865.62	218.182
865.92	292.308
866.21	300.000
866.51	0.000
866.80	245.455
867.10	840.000
867.39	292.308
867.69	263.636
867.98	210.526
868.27	281.818
868.57	178.947
868.86	-3100.000
869.16	231.250
869.45	1250.000
869.75	-2900.000
870.04	241.667
870.33	514.286
870.63	575.000
870.92	2100.000
871.22	542.857
871.51	217.647
871.80	142.857
872.10	221.429
>>>>>End Processed Spectral Data<<<<<
