SpectraSuite Data File
++++++++++++++++++++++++++++++++++++
Date: Wed May 13 16:42:49 PDT 2015
User: schluterlab
Dark Spectrum Present: Yes
Reference Spectrum Present: Yes
Number of Sampled Component Spectra: 1
Spectrometers: USB2E3373
Integration Time (usec): 3000 (USB2E3373)
Spectra Averaged: 3 (USB2E3373)
Boxcar Smoothing: 0 (USB2E3373)
Correct for Electrical Dark: No (USB2E3373)
Strobe/Lamp Enabled: No (USB2E3373)
Correct for Detector Non-linearity: No (USB2E3373)
Correct for Stray Light: No (USB2E3373)
Number of Pixels in Processed Spectrum: 2048
>>>>>Begin Processed Spectral Data<<<<<
178.53	0.000
178.91	-1275.000
179.29	-1200.000
179.67	-183.333
180.04	-1150.000
180.42	2350.000
180.80	1040.000
181.18	-1175.000
181.56	757.143
181.94	0.000
182.31	-671.429
182.69	1533.333
183.07	-600.000
183.45	-522.222
183.83	490.909
184.20	-240.000
184.58	2750.000
184.96	5400.000
185.34	-860.000
185.72	-587.500
186.09	-2350.000
186.47	2600.000
186.85	2550.000
187.23	5300.000
187.61	-1566.667
187.98	1325.000
188.36	563.636
188.74	481.818
189.12	-920.000
189.49	560.000
189.87	-4700.000
190.25	-1225.000
190.63	464.286
191.00	446.154
191.38	716.667
191.76	-1325.000
192.14	1325.000
192.51	625.000
192.89	950.000
193.27	625.000
193.65	-1150.000
194.02	520.000
194.40	1100.000
194.78	500.000
195.15	550.000
195.53	670.000
195.91	-2050.000
196.29	312.500
196.66	310.526
197.04	-320.000
197.42	0.000
197.79	600.000
198.17	-5400.000
198.55	600.000
198.92	675.000
199.30	1000.000
199.68	0.000
200.05	322.222
200.43	600.000
200.81	4800.000
201.18	1566.667
201.56	-1500.000
201.94	488.889
202.31	655.556
202.69	441.667
203.07	550.000
203.44	0.000
203.82	1300.000
204.19	700.000
204.57	392.857
204.95	687.500
205.32	1633.333
205.70	454.545
206.08	378.571
206.45	2350.000
206.83	368.750
207.20	900.000
207.58	800.000
207.96	261.111
208.33	762.500
208.71	-766.667
209.08	814.286
209.46	544.444
209.84	472.727
210.21	-1466.667
210.59	1450.000
210.96	-437.500
211.34	2650.000
211.71	580.000
212.09	733.333
212.46	0.000
212.84	2000.000
213.22	1275.000
213.59	-4300.000
213.97	966.667
214.34	657.143
214.72	563.636
215.09	960.000
215.47	-2150.000
215.84	-2050.000
216.22	1266.667
216.59	371.429
216.97	1125.000
217.34	490.909
217.72	-800.000
218.09	0.000
218.47	-4600.000
218.84	633.333
219.22	600.000
219.59	1733.333
219.97	-685.714
220.34	900.000
220.72	-1766.667
221.09	392.857
221.47	1325.000
221.84	-966.667
222.22	0.000
222.59	1300.000
222.97	-2450.000
223.34	1140.000
223.72	430.769
224.09	940.000
224.46	1850.000
224.84	-4900.000
225.21	-900.000
225.59	-3900.000
225.96	600.000
226.34	310.000
226.71	2950.000
227.08	575.000
227.46	610.000
227.83	-1025.000
228.21	-2150.000
228.58	577.778
228.95	-2000.000
229.33	-2350.000
229.70	1500.000
230.08	657.143
230.45	-880.000
230.82	383.333
231.20	850.000
231.57	571.429
231.95	458.333
232.32	240.909
232.69	400.000
233.07	600.000
233.44	369.231
233.81	-1300.000
234.19	310.526
234.56	491.667
234.93	391.667
235.31	490.909
235.68	300.000
236.05	328.571
236.43	178.788
236.80	189.474
237.17	4600.000
237.55	223.810
237.92	182.143
238.29	247.619
238.67	170.968
239.04	162.069
239.41	138.889
239.79	117.391
240.16	140.476
240.53	113.636
240.91	94.118
241.28	94.000
241.65	80.000
242.02	81.159
242.40	75.806
242.77	70.000
243.14	55.914
243.51	73.034
243.89	58.824
244.26	50.000
244.63	49.462
245.00	47.872
245.38	49.505
245.75	49.533
246.12	42.202
246.49	48.175
246.87	51.200
247.24	36.923
247.61	33.571
247.98	37.908
248.36	24.324
248.73	26.115
249.10	37.580
249.47	29.944
249.84	31.016
250.22	25.668
250.59	21.893
250.96	27.778
251.33	29.384
251.70	24.752
252.08	21.429
252.45	20.628
252.82	25.652
253.19	24.681
253.56	22.353
253.94	21.577
254.31	21.094
254.68	23.846
255.05	22.140
255.42	20.325
255.79	22.059
256.16	19.495
256.54	20.848
256.91	18.505
257.28	12.230
257.65	20.462
258.02	19.255
258.39	17.981
258.76	16.054
259.14	20.238
259.51	16.717
259.88	13.975
260.25	16.616
260.62	15.896
260.99	13.043
261.36	16.517
261.73	15.759
262.10	12.791
262.47	17.465
262.85	13.649
263.22	10.826
263.59	18.519
263.96	15.385
264.33	15.405
264.70	11.579
265.07	13.299
265.44	13.384
265.81	10.706
266.18	14.322
266.55	11.707
266.92	11.794
267.29	12.731
267.66	11.927
268.03	14.091
268.40	13.785
268.77	10.263
269.14	12.838
269.51	14.673
269.88	13.287
270.25	11.287
270.62	10.787
270.99	12.903
271.36	13.948
271.73	11.682
272.10	11.739
272.47	10.108
272.84	12.338
273.21	13.208
273.58	12.009
273.95	10.482
274.32	14.463
274.69	11.777
275.06	9.646
275.43	11.702
275.80	9.820
276.17	12.424
276.54	12.266
276.91	11.660
277.28	11.719
277.65	12.186
278.02	11.180
278.39	11.719
278.76	12.182
279.13	9.245
279.50	11.732
279.87	9.960
280.23	10.978
280.60	7.930
280.97	9.797
281.34	10.619
281.71	10.909
282.08	10.940
282.45	10.000
282.82	10.835
283.19	8.734
283.56	10.000
283.92	10.660
284.29	11.993
284.66	8.530
285.03	9.222
285.40	8.627
285.77	10.438
286.14	8.117
286.51	9.833
286.87	8.547
287.24	10.749
287.61	9.470
287.98	10.714
288.35	8.558
288.72	10.436
289.08	10.329
289.45	10.214
289.82	8.943
290.19	7.535
290.56	7.198
290.93	7.402
291.29	8.589
291.66	8.407
292.03	9.593
292.40	10.426
292.77	8.580
293.13	8.657
293.50	9.038
293.87	8.593
294.24	8.593
294.60	8.006
294.97	8.576
295.34	10.860
295.71	7.386
296.08	7.265
296.44	8.253
296.81	8.322
297.18	9.756
297.55	7.652
297.91	8.047
298.28	8.568
298.65	8.616
299.02	8.564
299.38	7.570
299.75	6.604
300.12	7.407
300.48	7.875
300.85	7.891
301.22	7.516
301.59	7.955
301.95	8.690
302.32	8.087
302.69	8.124
303.05	7.636
303.42	8.272
303.79	7.361
304.15	7.576
304.52	6.257
304.89	6.736
305.25	9.049
305.62	7.928
305.99	8.146
306.35	7.494
306.72	8.184
307.09	7.991
307.45	8.784
307.82	6.808
308.19	7.506
308.55	9.061
308.92	8.271
309.29	7.920
309.65	7.529
310.02	8.034
310.38	7.312
310.75	8.553
311.12	8.086
311.48	7.524
311.85	8.281
312.22	8.221
312.58	7.588
312.95	7.709
313.31	7.476
313.68	7.900
314.05	8.974
314.41	8.040
314.78	8.056
315.14	8.540
315.51	7.827
315.87	7.327
316.24	7.349
316.61	7.895
316.97	7.828
317.34	7.143
317.70	7.648
318.07	7.796
318.43	7.632
318.80	8.529
319.16	7.533
319.53	7.692
319.89	9.048
320.26	8.300
320.62	8.036
320.99	8.384
321.35	7.273
321.72	8.316
322.08	8.193
322.45	9.851
322.81	8.140
323.18	9.345
323.54	8.905
323.91	8.962
324.27	7.553
324.64	6.803
325.00	7.574
325.37	8.280
325.73	8.169
326.10	8.120
326.46	7.079
326.83	8.973
327.19	7.430
327.56	7.578
327.92	7.699
328.29	7.897
328.65	7.182
329.01	7.671
329.38	7.401
329.74	7.018
330.11	7.069
330.47	7.163
330.84	9.835
331.20	8.197
331.56	7.706
331.93	6.667
332.29	7.986
332.66	8.496
333.02	7.678
333.38	8.220
333.75	7.932
334.11	8.452
334.48	8.252
334.84	7.261
335.20	7.455
335.57	7.706
335.93	6.250
336.29	7.509
336.66	8.386
337.02	7.149
337.38	7.130
337.75	7.576
338.11	7.073
338.47	7.182
338.84	7.516
339.20	5.596
339.56	7.664
339.93	7.273
340.29	6.612
340.65	6.417
341.02	7.155
341.38	7.117
341.74	7.719
342.11	6.550
342.47	8.106
342.83	6.849
343.20	8.312
343.56	7.245
343.92	6.930
344.28	7.653
344.65	7.137
345.01	7.492
345.37	6.175
345.73	7.530
346.10	7.928
346.46	7.034
346.82	7.414
347.19	6.266
347.55	6.814
347.91	7.443
348.27	7.313
348.63	6.940
349.00	6.796
349.36	6.158
349.72	7.378
350.08	7.374
350.45	6.753
350.81	6.499
351.17	6.483
351.53	6.061
351.89	6.518
352.26	7.261
352.62	7.217
352.98	6.807
353.34	6.081
353.70	6.301
354.07	7.097
354.43	6.746
354.79	7.401
355.15	5.587
355.51	6.954
355.87	6.531
356.24	6.678
356.60	6.175
356.96	7.160
357.32	6.296
357.68	6.693
358.04	6.176
358.40	7.205
358.77	6.260
359.13	5.919
359.49	7.137
359.85	5.952
360.21	4.944
360.57	6.693
360.93	6.615
361.29	6.576
361.66	5.418
362.02	7.313
362.38	6.540
362.74	7.217
363.10	5.774
363.46	6.456
363.82	6.274
364.18	5.874
364.54	6.761
364.90	7.082
365.26	6.765
365.62	5.332
365.98	5.405
366.35	6.304
366.71	6.146
367.07	5.754
367.43	6.241
367.79	6.995
368.15	7.328
368.51	5.233
368.87	6.138
369.23	5.779
369.59	6.517
369.95	5.441
370.31	5.840
370.67	6.449
371.03	7.341
371.39	6.487
371.75	6.176
372.11	6.401
372.47	7.258
372.83	6.628
373.19	6.575
373.55	5.543
373.91	6.848
374.27	5.842
374.63	6.255
374.99	6.638
375.35	5.932
375.71	5.689
376.07	6.653
376.42	5.915
376.78	6.362
377.14	5.767
377.50	6.291
377.86	5.984
378.22	5.815
378.58	5.514
378.94	5.908
379.30	5.789
379.66	5.964
380.02	6.388
380.38	5.100
380.74	6.423
381.09	7.152
381.45	5.716
381.81	6.511
382.17	6.752
382.53	5.535
382.89	6.605
383.25	5.879
383.61	6.196
383.97	7.317
384.32	6.114
384.68	6.134
385.04	5.839
385.40	6.130
385.76	6.081
386.12	5.570
386.48	6.167
386.83	6.735
387.19	6.926
387.55	5.937
387.91	6.106
388.27	6.254
388.62	6.454
388.98	5.958
389.34	6.946
389.70	5.886
390.06	6.844
390.42	6.161
390.77	6.361
391.13	6.254
391.49	6.536
391.85	6.047
392.20	4.858
392.56	5.619
392.92	5.709
393.28	5.089
393.64	6.115
393.99	6.414
394.35	5.955
394.71	5.834
395.07	5.483
395.42	6.057
395.78	6.298
396.14	6.890
396.50	6.579
396.85	6.421
397.21	6.289
397.57	5.828
397.92	6.310
398.28	5.774
398.64	6.571
399.00	5.932
399.35	5.415
399.71	5.498
400.07	6.742
400.42	6.135
400.78	6.333
401.14	6.098
401.49	5.851
401.85	5.384
402.21	5.868
402.57	5.552
402.92	5.738
403.28	5.434
403.63	5.446
403.99	5.669
404.35	6.424
404.70	5.396
405.06	5.591
405.42	5.053
405.77	5.143
406.13	5.305
406.49	5.441
406.84	5.493
407.20	4.433
407.55	5.807
407.91	5.533
408.27	4.978
408.62	5.840
408.98	5.699
409.34	5.043
409.69	5.613
410.05	5.576
410.40	5.505
410.76	4.540
411.11	5.489
411.47	4.984
411.83	5.681
412.18	5.751
412.54	5.355
412.89	5.482
413.25	5.490
413.60	5.497
413.96	4.614
414.31	5.346
414.67	5.513
415.03	5.762
415.38	5.735
415.74	5.723
416.09	5.291
416.45	5.489
416.80	4.296
417.16	5.228
417.51	6.437
417.87	4.881
418.22	5.804
418.58	5.746
418.93	5.835
419.29	5.602
419.64	5.668
420.00	5.549
420.35	5.681
420.71	5.081
421.06	5.191
421.42	5.673
421.77	5.830
422.12	4.267
422.48	4.209
422.83	5.533
423.19	5.138
423.54	5.049
423.90	5.739
424.25	5.416
424.61	5.536
424.96	5.131
425.31	5.260
425.67	4.775
426.02	5.429
426.38	5.983
426.73	4.974
427.09	5.593
427.44	4.773
427.79	4.715
428.15	6.250
428.50	5.325
428.85	5.483
429.21	5.411
429.56	5.391
429.92	5.133
430.27	4.866
430.62	4.762
430.98	4.722
431.33	5.258
431.68	4.398
432.04	5.485
432.39	4.740
432.74	5.386
433.10	4.980
433.45	5.656
433.80	5.044
434.16	5.075
434.51	5.526
434.86	5.245
435.22	4.725
435.57	5.593
435.92	4.506
436.28	5.279
436.63	6.236
436.98	5.209
437.34	5.784
437.69	6.359
438.04	5.790
438.39	4.955
438.75	6.275
439.10	5.642
439.45	5.844
439.81	5.015
440.16	5.195
440.51	5.097
440.86	6.022
441.22	5.284
441.57	5.467
441.92	5.783
442.27	5.274
442.63	4.897
442.98	6.254
443.33	5.761
443.68	5.576
444.03	5.076
444.39	4.625
444.74	5.303
445.09	6.092
445.44	5.303
445.79	5.542
446.15	6.353
446.50	5.493
446.85	5.550
447.20	5.660
447.55	5.081
447.91	5.074
448.26	5.342
448.61	5.936
448.96	5.703
449.31	5.849
449.66	5.459
450.02	5.460
450.37	5.442
450.72	5.302
451.07	5.667
451.42	5.653
451.77	6.400
452.12	5.716
452.47	5.846
452.83	5.944
453.18	6.112
453.53	6.061
453.88	5.729
454.23	5.678
454.58	6.965
454.93	7.311
455.28	6.421
455.63	5.097
455.98	6.607
456.34	6.093
456.69	6.074
457.04	6.254
457.39	6.020
457.74	6.036
458.09	6.843
458.44	5.758
458.79	5.911
459.14	6.321
459.49	6.480
459.84	5.651
460.19	5.303
460.54	5.903
460.89	6.199
461.24	6.072
461.59	6.973
461.94	5.919
462.29	6.409
462.64	6.318
462.99	5.986
463.34	7.067
463.69	6.629
464.04	6.319
464.39	6.551
464.74	6.298
465.09	5.368
465.44	5.873
465.79	5.481
466.14	5.911
466.49	5.339
466.84	6.246
467.19	6.337
467.54	6.625
467.89	5.642
468.24	6.457
468.59	6.899
468.94	5.864
469.29	5.977
469.64	6.493
469.99	6.766
470.34	5.350
470.68	6.106
471.03	7.075
471.38	6.185
471.73	6.063
472.08	6.579
472.43	6.658
472.78	5.925
473.13	6.739
473.48	6.242
473.83	6.159
474.17	5.600
474.52	5.893
474.87	6.713
475.22	6.326
475.57	5.965
475.92	5.842
476.27	5.355
476.61	6.012
476.96	5.278
477.31	5.442
477.66	5.963
478.01	5.489
478.36	5.870
478.70	4.725
479.05	6.177
479.40	5.629
479.75	5.236
480.10	4.622
480.45	5.283
480.79	5.065
481.14	5.039
481.49	5.600
481.84	4.893
482.19	5.225
482.53	5.780
482.88	5.537
483.23	5.654
483.58	5.369
483.92	5.155
484.27	4.749
484.62	5.388
484.97	5.006
485.31	5.034
485.66	4.130
486.01	3.795
486.36	3.674
486.70	3.569
487.05	4.105
487.40	4.162
487.75	4.162
488.09	4.368
488.44	4.336
488.79	4.702
489.13	5.042
489.48	4.405
489.83	5.524
490.17	5.261
490.52	4.916
490.87	5.654
491.22	5.593
491.56	4.784
491.91	4.793
492.26	4.869
492.60	5.253
492.95	4.397
493.30	5.514
493.64	5.180
493.99	4.828
494.34	4.903
494.68	5.769
495.03	5.874
495.37	5.212
495.72	4.971
496.07	5.058
496.41	5.221
496.76	5.145
497.11	5.223
497.45	5.403
497.80	4.990
498.14	5.266
498.49	4.634
498.84	5.609
499.18	5.000
499.53	5.128
499.87	5.219
500.22	4.946
500.56	5.728
500.91	5.096
501.26	4.931
501.60	5.221
501.95	4.904
502.29	5.248
502.64	5.074
502.98	5.657
503.33	5.210
503.67	5.615
504.02	5.285
504.36	5.709
504.71	5.471
505.06	5.590
505.40	5.153
505.75	5.400
506.09	5.734
506.44	4.785
506.78	5.407
507.13	5.704
507.47	5.455
507.82	6.130
508.16	5.623
508.51	5.632
508.85	5.462
509.19	5.153
509.54	5.459
509.88	5.049
510.23	5.861
510.57	5.728
510.92	5.593
511.26	5.190
511.61	5.654
511.95	5.376
512.30	5.302
512.64	6.072
512.98	5.627
513.33	5.514
513.67	5.816
514.02	5.195
514.36	5.680
514.70	5.811
515.05	4.908
515.39	5.496
515.74	5.462
516.08	6.596
516.42	5.938
516.77	6.689
517.11	5.716
517.46	6.377
517.80	5.807
518.14	5.269
518.49	5.834
518.83	6.193
519.17	5.716
519.52	5.659
519.86	6.104
520.20	6.474
520.55	6.044
520.89	5.353
521.23	6.815
521.58	6.062
521.92	5.879
522.26	4.820
522.61	5.981
522.95	6.016
523.29	6.026
523.64	6.159
523.98	6.531
524.32	6.333
524.66	6.735
525.01	5.637
525.35	6.568
525.69	5.788
526.04	5.732
526.38	5.674
526.72	6.074
527.06	5.775
527.41	5.012
527.75	6.045
528.09	5.652
528.43	6.437
528.78	6.269
529.12	5.818
529.46	6.124
529.80	6.002
530.15	6.667
530.49	5.538
530.83	6.139
531.17	5.875
531.51	6.809
531.86	5.935
532.20	6.780
532.54	6.662
532.88	6.354
533.22	5.434
533.57	6.173
533.91	6.201
534.25	5.772
534.59	6.284
534.93	6.008
535.27	5.311
535.62	5.922
535.96	5.650
536.30	5.467
536.64	5.666
536.98	5.508
537.32	5.398
537.66	5.733
538.01	6.517
538.35	5.236
538.69	6.509
539.03	5.718
539.37	4.792
539.71	4.990
540.05	6.209
540.39	5.847
540.73	5.304
541.07	6.035
541.42	5.936
541.76	6.903
542.10	6.468
542.44	5.894
542.78	6.851
543.12	5.438
543.46	6.885
543.80	5.856
544.14	5.263
544.48	6.032
544.82	5.645
545.16	6.116
545.50	5.206
545.84	5.444
546.18	5.455
546.52	5.712
546.86	5.842
547.20	6.001
547.54	6.012
547.88	7.079
548.22	5.853
548.56	6.101
548.90	5.122
549.24	5.724
549.58	6.958
549.92	5.907
550.26	6.534
550.60	6.362
550.94	5.986
551.28	4.901
551.62	5.607
551.96	5.614
552.30	6.553
552.64	6.829
552.98	6.712
553.32	6.001
553.66	6.067
554.00	6.658
554.34	5.935
554.68	6.581
555.02	5.571
555.36	6.193
555.69	5.954
556.03	6.326
556.37	5.457
556.71	6.617
557.05	6.513
557.39	6.158
557.73	6.704
558.07	6.019
558.41	6.151
558.75	6.319
559.08	6.637
559.42	5.971
559.76	6.397
560.10	6.709
560.44	5.451
560.78	6.387
561.12	5.673
561.45	6.323
561.79	5.274
562.13	6.372
562.47	5.738
562.81	6.137
563.15	5.753
563.48	6.101
563.82	6.327
564.16	5.821
564.50	4.818
564.84	6.258
565.17	6.242
565.51	5.751
565.85	6.218
566.19	5.949
566.52	5.573
566.86	5.847
567.20	6.309
567.54	5.251
567.88	5.378
568.21	5.291
568.55	5.056
568.89	5.107
569.23	4.679
569.56	4.777
569.90	4.792
570.24	4.629
570.57	4.386
570.91	4.396
571.25	4.107
571.59	4.006
571.92	4.176
572.26	4.015
572.60	4.174
572.93	3.928
573.27	4.348
573.61	4.355
573.95	4.393
574.28	3.970
574.62	3.912
574.96	3.823
575.29	3.928
575.63	3.786
575.97	3.879
576.30	4.169
576.64	3.841
576.98	3.865
577.31	4.043
577.65	3.626
577.98	3.559
578.32	3.654
578.66	3.669
578.99	3.789
579.33	3.728
579.67	3.722
580.00	3.956
580.34	3.868
580.67	3.805
581.01	3.935
581.35	3.723
581.68	3.906
582.02	3.708
582.35	3.743
582.69	3.733
583.02	3.662
583.36	3.828
583.70	4.096
584.03	3.918
584.37	4.269
584.70	3.866
585.04	4.207
585.37	4.171
585.71	4.441
586.04	4.204
586.38	4.154
586.72	4.695
587.05	4.265
587.39	4.063
587.72	3.839
588.06	3.869
588.39	4.417
588.73	4.195
589.06	4.519
589.40	4.444
589.73	4.541
590.07	4.804
590.40	4.275
590.73	5.191
591.07	4.721
591.40	4.682
591.74	5.281
592.07	4.625
592.41	5.126
592.74	4.644
593.08	5.230
593.41	4.461
593.75	4.435
594.08	4.526
594.41	4.949
594.75	4.621
595.08	4.832
595.42	4.658
595.75	4.630
596.09	4.732
596.42	5.383
596.75	5.572
597.09	5.628
597.42	4.890
597.75	5.088
598.09	5.348
598.42	5.369
598.76	5.229
599.09	4.333
599.42	5.131
599.76	5.015
600.09	5.100
600.42	4.565
600.76	4.893
601.09	5.137
601.42	5.023
601.76	5.123
602.09	5.534
602.42	5.175
602.76	5.320
603.09	5.075
603.42	4.764
603.76	4.916
604.09	4.963
604.42	5.300
604.76	6.073
605.09	5.068
605.42	5.301
605.75	4.884
606.09	5.205
606.42	4.863
606.75	4.728
607.09	5.274
607.42	5.178
607.75	5.274
608.08	5.167
608.42	5.379
608.75	5.816
609.08	5.597
609.41	5.474
609.75	5.098
610.08	6.173
610.41	4.981
610.74	5.251
611.07	5.089
611.41	5.692
611.74	6.083
612.07	5.694
612.40	5.719
612.73	5.632
613.07	5.873
613.40	6.372
613.73	5.087
614.06	6.022
614.39	6.397
614.72	6.211
615.06	5.830
615.39	5.679
615.72	5.419
616.05	5.210
616.38	6.059
616.71	6.235
617.05	6.419
617.38	5.532
617.71	5.886
618.04	6.490
618.37	6.091
618.70	6.409
619.03	6.711
619.36	6.585
619.69	6.479
620.03	6.250
620.36	7.487
620.69	7.192
621.02	7.448
621.35	5.638
621.68	6.620
622.01	6.656
622.34	7.716
622.67	6.616
623.00	6.456
623.33	6.648
623.66	7.076
623.99	6.038
624.32	6.919
624.65	6.568
624.99	6.232
625.32	6.517
625.65	6.536
625.98	6.995
626.31	6.921
626.64	8.000
626.97	6.733
627.30	6.983
627.63	6.891
627.96	7.906
628.29	8.311
628.62	7.594
628.95	8.679
629.28	7.755
629.61	8.708
629.94	7.429
630.26	8.198
630.59	7.531
630.92	7.663
631.25	7.700
631.58	8.509
631.91	7.606
632.24	7.806
632.57	7.870
632.90	9.320
633.23	8.277
633.56	10.734
633.89	8.947
634.22	7.946
634.55	8.639
634.88	7.066
635.20	9.200
635.53	10.602
635.86	8.540
636.19	9.412
636.52	8.997
636.85	8.935
637.18	8.756
637.51	8.865
637.83	6.782
638.16	9.463
638.49	10.579
638.82	10.746
639.15	9.500
639.48	10.723
639.81	9.920
640.13	11.068
640.46	9.933
640.79	10.172
641.12	7.153
641.45	9.497
641.77	8.542
642.10	10.526
642.43	9.910
642.76	8.824
643.09	10.583
643.41	10.470
643.74	10.031
644.07	10.823
644.40	9.049
644.73	13.386
645.05	12.520
645.38	10.269
645.71	11.594
646.04	11.296
646.36	11.853
646.69	13.211
647.02	12.075
647.35	12.543
647.67	10.973
648.00	12.195
648.33	11.386
648.66	11.061
648.98	12.744
649.31	8.670
649.64	10.762
649.96	10.730
650.29	10.585
650.62	9.871
650.94	12.156
651.27	11.655
651.60	10.649
651.92	10.863
652.25	8.795
652.58	10.903
652.90	12.322
653.23	10.324
653.56	10.866
653.88	9.192
654.21	12.164
654.54	10.891
654.86	10.436
655.19	8.649
655.52	5.081
655.84	3.868
656.17	4.271
656.49	5.804
656.82	5.695
657.15	4.461
657.47	3.191
657.80	2.621
658.13	2.662
658.45	4.065
658.78	4.129
659.10	4.572
659.43	5.208
659.75	5.538
660.08	6.392
660.41	7.076
660.73	10.038
661.06	11.465
661.38	10.727
661.71	12.692
662.03	15.779
662.36	12.326
662.68	14.056
663.01	13.131
663.33	12.951
663.66	12.395
663.98	11.447
664.31	14.076
664.63	13.765
664.96	12.676
665.28	12.500
665.61	11.696
665.93	12.072
666.26	14.199
666.58	12.971
666.91	15.011
667.23	13.708
667.56	10.367
667.88	15.812
668.21	15.778
668.53	13.666
668.86	12.121
669.18	15.352
669.50	13.913
669.83	15.033
670.15	13.556
670.48	12.200
670.80	12.500
671.13	13.588
671.45	15.106
671.77	14.460
672.10	10.721
672.42	12.898
672.75	11.940
673.07	10.563
673.39	12.658
673.72	11.133
674.04	13.333
674.37	11.650
674.69	11.043
675.01	9.414
675.34	14.990
675.66	17.474
675.98	14.257
676.31	14.916
676.63	15.074
676.95	11.321
677.28	11.682
677.60	13.187
677.92	15.823
678.25	13.142
678.57	12.749
678.89	11.623
679.22	14.145
679.54	12.595
679.86	13.761
680.18	12.522
680.51	13.121
680.83	10.854
681.15	12.642
681.48	13.989
681.80	11.605
682.12	13.410
682.44	9.865
682.77	14.257
683.09	16.953
683.41	13.304
683.73	14.570
684.06	12.397
684.38	13.699
684.70	10.659
685.02	14.822
685.34	10.806
685.67	9.965
685.99	12.027
686.31	10.580
686.63	10.424
686.96	11.964
687.28	11.733
687.60	12.681
687.92	14.625
688.24	12.167
688.56	13.655
688.89	15.768
689.21	13.974
689.53	12.317
689.85	12.860
690.17	13.043
690.49	15.499
690.82	13.785
691.14	12.054
691.46	12.236
691.78	13.253
692.10	13.223
692.42	14.571
692.74	12.033
693.06	13.617
693.39	13.142
693.71	12.227
694.03	13.895
694.35	13.203
694.67	13.272
694.99	16.585
695.31	14.706
695.63	15.789
695.95	12.714
696.27	12.183
696.59	16.062
696.91	12.435
697.23	12.207
697.56	14.286
697.88	13.292
698.20	14.167
698.52	13.978
698.84	14.699
699.16	14.747
699.48	16.152
699.80	14.251
700.12	18.442
700.44	18.302
700.76	17.403
701.08	18.966
701.40	16.201
701.72	18.659
702.04	21.023
702.36	15.297
702.68	16.431
703.00	16.066
703.32	15.160
703.64	14.209
703.96	16.992
704.28	16.570
704.60	19.355
704.91	18.694
705.23	20.235
705.55	18.605
705.87	23.256
706.19	16.961
706.51	18.380
706.83	20.000
707.15	17.087
707.47	13.384
707.79	16.462
708.11	16.895
708.43	16.429
708.74	13.265
709.06	17.403
709.38	16.798
709.70	18.895
710.02	18.991
710.34	14.848
710.66	17.910
710.98	19.034
711.29	17.733
711.61	18.289
711.93	16.026
712.25	20.900
712.57	17.647
712.89	19.031
713.20	20.973
713.52	19.737
713.84	18.354
714.16	20.427
714.48	19.540
714.80	20.061
715.11	19.020
715.43	16.320
715.75	16.522
716.07	15.974
716.39	19.436
716.70	19.934
717.02	20.144
717.34	21.201
717.66	23.507
717.97	23.904
718.29	19.259
718.61	22.993
718.93	22.794
719.24	20.069
719.56	20.000
719.88	21.017
720.20	19.932
720.51	23.345
720.83	21.561
721.15	20.149
721.46	18.794
721.78	19.355
722.10	23.774
722.42	21.053
722.73	24.719
723.05	18.033
723.37	21.862
723.68	21.622
724.00	20.732
724.32	22.984
724.63	26.423
724.95	15.900
725.27	20.648
725.58	21.484
725.90	23.358
726.22	22.264
726.53	21.181
726.85	22.867
727.16	21.352
727.48	22.695
727.80	20.076
728.11	23.913
728.43	20.000
728.74	22.581
729.06	25.547
729.38	26.838
729.69	22.064
730.01	19.454
730.32	17.014
730.64	19.398
730.96	20.462
731.27	20.861
731.59	22.018
731.90	20.408
732.22	18.012
732.53	17.957
732.85	18.590
733.16	20.579
733.48	18.272
733.80	16.883
734.11	18.471
734.43	18.935
734.74	17.143
735.06	14.327
735.37	21.387
735.69	16.561
736.00	19.608
736.32	20.872
736.63	17.891
736.95	19.489
737.26	13.605
737.58	18.065
737.89	24.415
738.21	18.430
738.52	21.429
738.83	20.755
739.15	19.231
739.46	23.358
739.78	20.833
740.09	20.308
740.41	21.935
740.72	19.164
741.04	21.111
741.35	20.000
741.66	30.222
741.98	23.113
742.29	30.144
742.61	30.603
742.92	23.077
743.23	24.786
743.55	26.800
743.86	23.246
744.18	27.434
744.49	24.402
744.80	29.108
745.12	26.364
745.43	26.872
745.74	27.477
746.06	21.560
746.37	29.148
746.68	23.529
747.00	28.241
747.31	25.714
747.62	19.469
747.94	22.467
748.25	22.128
748.56	30.837
748.88	26.733
749.19	30.000
749.50	23.256
749.82	23.577
750.13	21.224
750.44	22.263
750.75	23.509
751.07	24.759
751.38	20.557
751.69	24.188
752.01	18.797
752.32	17.690
752.63	24.468
752.94	22.541
753.26	25.600
753.57	17.886
753.88	21.875
754.19	25.714
754.51	26.389
754.82	19.495
755.13	23.019
755.44	20.301
755.75	18.248
756.07	19.504
756.38	18.978
756.69	20.470
757.00	18.862
757.31	21.068
757.63	16.374
757.94	16.890
758.25	17.402
758.56	16.543
758.87	16.935
759.18	20.303
759.50	15.987
759.81	18.692
760.12	13.438
760.43	19.198
760.74	13.859
761.05	20.056
761.36	18.182
761.67	17.898
761.99	14.907
762.30	21.528
762.61	22.137
762.92	24.609
763.23	31.092
763.54	26.000
763.85	17.187
764.16	26.923
764.47	23.954
764.78	18.728
765.10	19.620
765.41	20.354
765.72	18.263
766.03	19.436
766.34	18.667
766.65	26.383
766.96	26.496
767.27	30.457
767.58	33.333
767.89	37.368
768.20	29.310
768.51	26.904
768.82	28.899
769.13	21.138
769.44	24.696
769.75	22.318
770.06	17.431
770.37	28.959
770.68	27.315
770.99	23.111
771.30	22.131
771.61	25.112
771.92	25.000
772.23	31.513
772.54	29.744
772.85	29.843
773.16	34.574
773.47	31.522
773.78	42.640
774.09	30.357
774.39	30.994
774.70	36.420
775.01	41.304
775.32	39.869
775.63	43.421
775.94	30.216
776.25	48.031
776.56	36.567
776.87	40.984
777.18	46.875
777.48	41.985
777.79	42.424
778.10	53.333
778.41	46.429
778.72	35.036
779.03	37.584
779.34	31.544
779.65	29.054
779.95	39.877
780.26	47.059
780.57	39.310
780.88	50.000
781.19	36.090
781.50	45.946
781.80	34.591
782.11	30.508
782.42	36.709
782.73	33.129
783.04	37.162
783.34	37.324
783.65	47.260
783.96	46.269
784.27	39.161
784.57	33.813
784.88	29.630
785.19	46.825
785.50	40.566
785.81	52.239
786.11	50.820
786.42	42.636
786.73	44.248
787.04	49.057
787.34	46.429
787.65	50.000
787.96	45.045
788.26	48.760
788.57	55.085
788.88	42.975
789.19	45.833
789.49	50.000
789.80	44.275
790.11	54.286
790.41	49.505
790.72	55.422
791.03	54.348
791.33	51.163
791.64	61.856
791.95	49.505
792.25	67.778
792.56	67.532
792.87	80.769
793.17	63.291
793.48	70.115
793.79	70.115
794.09	69.318
794.40	52.941
794.70	55.147
795.01	40.000
795.32	46.043
795.62	38.583
795.93	49.138
796.23	53.982
796.54	50.588
796.85	74.324
797.15	85.915
797.46	77.273
797.76	78.313
798.07	64.557
798.37	60.000
798.68	66.667
798.99	66.197
799.29	59.740
799.60	63.636
799.90	73.973
800.21	88.060
800.51	79.310
800.82	100.000
801.12	81.967
801.43	72.727
801.73	67.568
802.04	87.302
802.34	76.543
802.65	81.250
802.95	101.695
803.26	92.188
803.56	65.714
803.87	75.385
804.17	69.118
804.48	87.037
804.78	79.310
805.09	76.471
805.39	94.231
805.70	83.929
806.00	91.803
806.30	65.152
806.61	73.171
806.91	62.025
807.22	73.684
807.52	62.687
807.83	78.873
808.13	79.687
808.43	76.667
808.74	67.105
809.04	82.609
809.35	94.030
809.65	69.737
809.95	103.226
810.26	81.356
810.56	63.492
810.86	100.000
811.17	128.571
811.47	85.000
811.77	87.037
812.08	103.636
812.38	92.000
812.69	141.667
812.99	131.818
813.29	112.245
813.59	100.000
813.90	126.531
814.20	89.091
814.50	81.538
814.81	91.176
815.11	106.122
815.41	100.000
815.72	114.286
816.02	116.364
816.32	123.810
816.62	120.000
816.93	121.951
817.23	119.048
817.53	127.273
817.84	157.576
818.14	121.739
818.44	91.111
818.74	164.706
819.04	107.500
819.35	151.429
819.65	158.824
819.95	142.857
820.25	230.000
820.56	138.462
820.86	115.909
821.16	120.930
821.46	128.205
821.76	134.000
822.07	151.429
822.37	165.000
822.67	130.303
822.97	100.000
823.27	164.286
823.57	135.135
823.88	157.500
824.18	183.333
824.48	135.714
824.78	208.000
825.08	170.833
825.38	145.946
825.69	119.512
825.99	208.333
826.29	158.621
826.59	163.158
826.89	136.842
827.19	147.059
827.49	170.968
827.79	127.273
828.09	113.636
828.39	114.894
828.70	114.286
829.00	148.148
829.30	148.387
829.60	132.500
829.90	306.667
830.20	150.000
830.50	165.217
830.80	208.696
831.10	166.667
831.40	170.000
831.70	152.174
832.00	200.000
832.30	188.889
832.60	243.750
832.90	183.333
833.20	407.143
833.50	200.000
833.80	213.793
834.10	190.625
834.40	176.923
834.70	272.222
835.00	280.952
835.30	185.714
835.60	323.077
835.90	203.448
836.20	285.714
836.50	179.310
836.80	164.000
837.10	141.667
837.40	266.667
837.70	276.471
838.00	218.519
838.30	223.810
838.60	271.429
838.90	219.231
839.19	230.000
839.49	400.000
839.79	330.000
840.09	225.000
840.39	280.952
840.69	208.696
840.99	283.333
841.29	420.000
841.59	366.667
841.88	293.750
842.18	172.414
842.48	266.667
842.78	173.333
843.08	195.652
843.38	178.125
843.68	816.667
843.97	200.000
844.27	200.000
844.57	271.429
844.87	350.000
845.17	188.889
845.47	1266.667
845.76	400.000
846.06	294.118
846.36	512.500
846.66	364.286
846.96	268.750
847.25	409.091
847.55	418.182
847.85	226.087
848.15	460.000
848.44	321.429
848.74	227.778
849.04	258.824
849.34	550.000
849.63	294.737
849.93	381.818
850.23	1040.000
850.53	428.571
850.82	1850.000
851.12	-5000.000
851.42	5500.000
851.71	280.000
852.01	-1266.667
852.31	262.500
852.61	1766.667
852.90	247.619
853.20	208.000
853.50	282.353
853.79	252.381
854.09	208.333
854.39	281.250
854.68	164.865
854.98	154.839
855.28	166.667
855.57	203.448
855.87	207.407
856.17	236.842
856.46	260.000
856.76	288.235
857.05	179.310
857.35	187.500
857.65	293.333
857.94	239.130
858.24	230.769
858.53	300.000
858.83	263.636
859.13	360.000
859.42	0.000
859.72	655.556
860.01	409.091
860.31	277.273
860.60	205.263
860.90	230.435
861.20	533.333
861.49	516.667
861.79	-3600.000
862.08	762.500
862.38	252.381
862.67	384.615
862.97	317.647
863.26	511.111
863.56	283.333
863.85	333.333
864.15	675.000
864.44	366.667
864.74	900.000
865.03	587.500
865.33	284.211
865.62	400.000
865.92	423.077
866.21	400.000
866.51	0.000
866.80	409.091
867.10	1000.000
867.39	430.769
867.69	436.364
867.98	273.684
868.27	463.636
868.57	300.000
868.86	-4000.000
869.16	318.750
869.45	2100.000
869.75	-4300.000
870.04	475.000
870.33	771.429
870.63	1025.000
870.92	2800.000
871.22	657.143
871.51	300.000
871.80	214.286
872.10	378.571
>>>>>End Processed Spectral Data<<<<<
