SpectraSuite Data File
++++++++++++++++++++++++++++++++++++
Date: Wed May 13 16:20:17 PDT 2015
User: schluterlab
Dark Spectrum Present: Yes
Reference Spectrum Present: Yes
Number of Sampled Component Spectra: 1
Spectrometers: USB2E3373
Integration Time (usec): 3000 (USB2E3373)
Spectra Averaged: 3 (USB2E3373)
Boxcar Smoothing: 0 (USB2E3373)
Correct for Electrical Dark: No (USB2E3373)
Strobe/Lamp Enabled: No (USB2E3373)
Correct for Detector Non-linearity: No (USB2E3373)
Correct for Stray Light: No (USB2E3373)
Number of Pixels in Processed Spectrum: 2048
>>>>>Begin Processed Spectral Data<<<<<
178.53	0.000
178.91	-1100.000
179.29	-1275.000
179.67	-222.222
180.04	-1375.000
180.42	2550.000
180.80	900.000
181.18	-975.000
181.56	628.571
181.94	0.000
182.31	-600.000
182.69	1633.333
183.07	-462.500
183.45	-444.444
183.83	463.636
184.20	-300.000
184.58	1850.000
184.96	4300.000
185.34	-880.000
185.72	-562.500
186.09	-2350.000
186.47	2600.000
186.85	2050.000
187.23	4400.000
187.61	-1466.667
187.98	1100.000
188.36	490.909
188.74	554.545
189.12	-600.000
189.49	490.000
189.87	-4300.000
190.25	-1275.000
190.63	342.857
191.00	476.923
191.38	783.333
191.76	-925.000
192.14	1200.000
192.51	600.000
192.89	666.667
193.27	500.000
193.65	-850.000
194.02	490.000
194.40	880.000
194.78	570.000
195.15	400.000
195.53	540.000
195.91	-2050.000
196.29	368.750
196.66	284.211
197.04	-280.000
197.42	0.000
197.79	580.000
198.17	-4400.000
198.55	600.000
198.92	700.000
199.30	740.000
199.68	0.000
200.05	288.889
200.43	728.571
200.81	3900.000
201.18	1600.000
201.56	-1366.667
201.94	422.222
202.31	577.778
202.69	425.000
203.07	520.000
203.44	0.000
203.82	1150.000
204.19	714.286
204.57	400.000
204.95	562.500
205.32	1266.667
205.70	409.091
206.08	314.286
206.45	2500.000
206.83	275.000
207.20	666.667
207.58	700.000
207.96	261.111
208.33	712.500
208.71	-750.000
209.08	728.571
209.46	611.111
209.84	390.909
210.21	-1300.000
210.59	1225.000
210.96	-412.500
211.34	2100.000
211.71	440.000
212.09	733.333
212.46	0.000
212.84	1566.667
213.22	1075.000
213.59	-3800.000
213.97	633.333
214.34	842.857
214.72	536.364
215.09	800.000
215.47	-1800.000
215.84	-1950.000
216.22	1433.333
216.59	264.286
216.97	1275.000
217.34	481.818
217.72	-716.667
218.09	0.000
218.47	-4600.000
218.84	555.556
219.22	857.143
219.59	1700.000
219.97	-514.286
220.34	760.000
220.72	-1800.000
221.09	385.714
221.47	1500.000
221.84	-866.667
222.22	0.000
222.59	1350.000
222.97	-2350.000
223.34	1060.000
223.72	300.000
224.09	960.000
224.46	1900.000
224.84	-4000.000
225.21	-940.000
225.59	-4500.000
225.96	570.000
226.34	275.000
226.71	2950.000
227.08	500.000
227.46	440.000
227.83	-1000.000
228.21	-1850.000
228.58	422.222
228.95	-1900.000
229.33	-2300.000
229.70	1533.333
230.08	528.571
230.45	-740.000
230.82	441.667
231.20	750.000
231.57	542.857
231.95	458.333
232.32	168.182
232.69	272.727
233.07	685.714
233.44	261.538
233.81	-1400.000
234.19	263.158
234.56	458.333
234.93	233.333
235.31	409.091
235.68	246.154
236.05	300.000
236.43	163.636
236.80	231.579
237.17	2500.000
237.55	209.524
237.92	142.857
238.29	190.476
238.67	151.613
239.04	175.862
239.41	155.556
239.79	106.522
240.16	123.810
240.53	81.818
240.91	90.196
241.28	98.000
241.65	62.000
242.02	79.710
242.40	64.516
242.77	68.333
243.14	58.065
243.51	69.663
243.89	65.882
244.26	55.556
244.63	55.914
245.00	58.511
245.38	42.574
245.75	42.056
246.12	45.872
246.49	54.015
246.87	52.000
247.24	50.000
247.61	40.000
247.98	42.484
248.36	39.865
248.73	33.121
249.10	38.217
249.47	40.678
249.84	36.898
250.22	39.037
250.59	31.361
250.96	38.889
251.33	42.654
251.70	36.634
252.08	32.857
252.45	32.735
252.82	31.739
253.19	30.638
253.56	28.627
253.94	29.046
254.31	32.812
254.68	29.231
255.05	28.782
255.42	26.016
255.79	30.515
256.16	26.715
256.54	27.915
256.91	26.690
257.28	24.820
257.65	27.063
258.02	27.950
258.39	26.183
258.76	26.421
259.14	24.405
259.51	24.924
259.88	19.876
260.25	25.076
260.62	25.723
260.99	22.671
261.36	24.925
261.73	24.928
262.10	22.674
262.47	26.479
262.85	25.627
263.22	19.943
263.59	22.792
263.96	23.077
264.33	24.021
264.70	21.053
265.07	21.995
265.44	24.495
265.81	22.141
266.18	25.126
266.55	19.512
266.92	24.570
267.29	22.454
267.66	21.101
268.03	22.500
268.40	24.299
268.77	18.377
269.14	20.270
269.51	21.896
269.88	24.009
270.25	20.993
270.62	21.798
270.99	20.430
271.36	19.528
271.73	19.393
272.10	21.739
272.47	22.366
272.84	20.779
273.21	21.384
273.58	17.249
273.95	21.174
274.32	19.628
274.69	21.842
275.06	18.898
275.43	20.213
275.80	19.439
276.17	19.756
276.54	21.830
276.91	20.553
277.28	18.945
277.65	18.762
278.02	18.841
278.39	19.336
278.76	19.455
279.13	20.000
279.50	19.181
279.87	20.319
280.23	20.758
280.60	18.956
280.97	17.190
281.34	20.885
281.71	20.364
282.08	21.113
282.45	17.455
282.82	18.650
283.19	16.578
283.56	18.596
283.92	21.320
284.29	18.695
284.66	18.330
285.03	19.892
285.40	18.838
285.77	17.508
286.14	16.580
286.51	20.000
286.87	18.120
287.24	19.218
287.61	18.459
287.98	19.481
288.35	16.482
288.72	19.003
289.08	17.840
289.45	18.287
289.82	16.911
290.19	16.797
290.56	16.998
290.93	14.955
291.29	17.791
291.66	16.667
292.03	17.733
292.40	19.090
292.77	17.308
293.13	17.164
293.50	15.452
293.87	16.741
294.24	15.259
294.60	15.575
294.97	15.698
295.34	17.207
295.71	14.915
296.08	14.387
296.44	16.369
296.81	14.267
297.18	15.989
297.55	12.665
297.91	15.567
298.28	17.001
298.65	15.274
299.02	15.415
299.38	15.936
299.75	12.938
300.12	14.815
300.48	14.250
300.85	15.660
301.22	14.268
301.59	14.646
301.95	15.743
302.32	15.148
302.69	13.501
303.05	14.182
303.42	15.926
303.79	14.723
304.15	13.403
304.52	14.948
304.89	13.240
305.25	13.573
305.62	14.609
305.99	16.529
306.35	14.094
306.72	15.359
307.09	16.537
307.45	15.428
307.82	13.616
308.19	14.018
308.55	15.965
308.92	15.252
309.29	14.678
309.65	14.846
310.02	15.222
310.38	14.731
310.75	14.784
311.12	15.455
311.48	15.674
311.85	15.723
312.22	15.401
312.58	15.073
312.95	16.579
313.31	16.117
313.68	15.177
314.05	17.751
314.41	16.281
314.78	15.710
315.14	16.187
315.51	15.139
315.87	16.337
316.24	16.187
316.61	17.057
316.97	15.362
317.34	16.341
317.70	16.635
318.07	16.651
318.43	17.319
318.80	17.901
319.16	17.985
319.53	16.979
319.89	17.714
320.26	19.300
320.62	18.353
320.99	18.283
321.35	18.485
321.72	18.789
322.08	19.447
322.45	20.398
322.81	18.895
323.18	20.135
323.54	19.481
323.91	19.623
324.27	20.076
324.64	19.199
325.00	19.567
325.37	19.927
325.73	21.544
326.10	20.653
326.46	21.595
326.83	22.088
327.19	21.264
327.56	21.516
327.92	22.135
328.29	22.804
328.65	21.547
329.01	21.119
329.38	21.554
329.74	22.345
330.11	22.526
330.47	21.763
330.84	22.886
331.20	21.858
331.56	21.743
331.93	22.593
332.29	22.538
332.66	23.363
333.02	22.212
333.38	22.493
333.75	22.549
334.11	22.776
334.48	22.005
334.84	23.437
335.20	23.273
335.57	22.031
335.93	21.250
336.29	22.436
336.66	24.076
337.02	22.262
337.38	23.241
337.75	22.549
338.11	23.098
338.47	22.099
338.84	23.831
339.20	22.569
339.56	23.723
339.93	24.545
340.29	23.279
340.65	22.816
341.02	22.949
341.38	23.932
341.74	22.895
342.11	23.843
342.47	23.877
342.83	22.774
343.20	23.463
343.56	22.999
343.92	22.632
344.28	22.789
344.65	23.302
345.01	23.316
345.37	22.727
345.73	22.927
346.10	23.529
346.46	23.390
346.82	22.900
347.19	23.058
347.55	23.317
347.91	22.816
348.27	23.665
348.63	23.077
349.00	22.977
349.36	22.578
349.72	23.176
350.08	22.042
350.45	23.190
350.81	23.152
351.17	22.771
351.53	23.751
351.89	21.782
352.26	24.073
352.62	24.459
352.98	23.582
353.34	23.500
353.70	22.831
354.07	23.065
354.43	23.413
354.79	23.170
355.15	23.304
355.51	25.020
355.87	24.327
356.24	25.081
356.60	23.657
356.96	24.216
357.32	23.794
357.68	24.961
358.04	23.515
358.40	24.228
358.77	23.944
359.13	23.362
359.49	23.922
359.85	23.095
360.21	24.242
360.57	24.125
360.93	24.462
361.29	24.414
361.66	23.916
362.02	23.955
362.38	24.106
362.74	24.851
363.10	23.390
363.46	23.258
363.82	23.734
364.18	24.670
364.54	25.483
364.90	24.788
365.26	24.044
365.62	23.886
365.98	23.740
366.35	23.496
366.71	24.801
367.07	24.545
367.43	24.020
367.79	25.625
368.15	25.359
368.51	25.000
368.87	25.054
369.23	25.677
369.59	24.692
369.95	24.779
370.31	24.858
370.67	24.783
371.03	26.891
371.39	25.802
371.75	25.956
372.11	25.320
372.47	26.466
372.83	26.153
373.19	25.650
373.55	25.647
373.91	26.657
374.27	24.880
374.63	25.891
374.99	27.048
375.35	26.099
375.71	25.908
376.07	25.995
376.42	26.960
376.78	26.044
377.14	27.205
377.50	27.947
377.86	26.197
378.22	27.244
378.58	26.441
378.94	25.896
379.30	26.209
379.66	27.538
380.02	27.273
380.38	27.080
380.74	27.851
381.09	28.117
381.45	28.273
381.81	28.133
382.17	28.025
382.53	27.673
382.89	28.580
383.25	27.892
383.61	27.633
383.97	28.018
384.32	28.759
384.68	27.571
385.04	29.072
385.40	28.978
385.76	28.931
386.12	29.469
386.48	29.075
386.83	30.019
387.19	29.561
387.55	29.314
387.91	28.658
388.27	28.878
388.62	29.502
388.98	28.317
389.34	29.850
389.70	29.798
390.06	30.292
390.42	30.091
390.77	30.025
391.13	29.930
391.49	29.695
391.85	28.644
392.20	29.653
392.56	30.429
392.92	29.959
393.28	28.580
393.64	29.616
393.99	29.811
394.35	28.908
394.71	29.925
395.07	29.221
395.42	30.532
395.78	29.898
396.14	29.547
396.50	30.952
396.85	31.087
397.21	29.716
397.57	29.758
397.92	30.950
398.28	29.596
398.64	30.406
399.00	30.162
399.35	29.498
399.71	30.613
400.07	29.273
400.42	30.307
400.78	30.398
401.14	30.305
401.49	29.373
401.85	28.796
402.21	29.341
402.57	30.167
402.92	30.265
403.28	29.669
403.63	30.446
403.99	30.000
404.35	28.667
404.70	29.616
405.06	29.179
405.42	30.131
405.77	28.914
406.13	29.345
406.49	29.687
406.84	29.120
407.20	28.723
407.55	29.994
407.91	29.667
408.27	29.228
408.62	29.380
408.98	29.167
409.34	29.336
409.69	29.419
410.05	28.996
410.40	28.991
410.76	29.211
411.11	29.795
411.47	28.882
411.83	28.894
412.18	29.004
412.54	28.954
412.89	28.795
413.25	28.571
413.60	29.092
413.96	28.172
414.31	28.615
414.67	29.341
415.03	28.808
415.38	29.253
415.74	29.068
416.09	28.870
416.45	28.380
416.80	28.553
417.16	30.094
417.51	28.799
417.87	28.131
418.22	28.959
418.58	28.535
418.93	29.730
419.29	29.726
419.64	30.101
420.00	29.268
420.35	28.986
420.71	29.528
421.06	28.938
421.42	28.947
421.77	28.195
422.12	27.906
422.48	27.577
422.83	28.305
423.19	27.790
423.54	28.903
423.90	28.812
424.25	28.085
424.61	28.095
424.96	28.338
425.31	27.630
425.67	26.854
426.02	27.714
426.38	28.388
426.73	27.501
427.09	27.416
427.44	27.315
427.79	28.005
428.15	28.393
428.50	27.501
428.85	28.427
429.21	27.112
429.56	27.320
429.92	27.076
430.27	27.607
430.62	26.882
430.98	27.556
431.33	27.216
431.68	27.749
432.04	27.050
432.39	27.870
432.74	27.050
433.10	27.731
433.45	27.522
433.80	26.718
434.16	26.335
434.51	26.421
434.86	27.822
435.22	27.071
435.57	28.085
435.92	27.150
436.28	27.521
436.63	27.539
436.98	26.789
437.34	27.013
437.69	26.838
438.04	27.600
438.39	26.806
438.75	27.600
439.10	27.486
439.45	27.273
439.81	27.251
440.16	26.256
440.51	27.241
440.86	27.446
441.22	26.363
441.57	26.911
441.92	27.636
442.27	26.911
442.63	27.067
442.98	27.944
443.33	26.522
443.68	27.775
444.03	26.891
444.39	25.901
444.74	27.219
445.09	26.577
445.44	26.463
445.79	26.274
446.15	26.522
446.50	26.710
446.85	26.259
447.20	26.364
447.55	26.410
447.91	26.696
448.26	26.099
448.61	25.947
448.96	26.855
449.31	25.984
449.66	25.999
450.02	25.905
450.37	25.907
450.72	26.565
451.07	26.325
451.42	26.018
451.77	26.541
452.12	25.808
452.47	25.498
452.83	27.389
453.18	26.222
453.53	26.840
453.88	25.399
454.23	26.121
454.58	26.772
454.93	27.146
455.28	25.748
455.63	26.942
455.98	26.667
456.34	26.131
456.69	26.612
457.04	26.687
457.39	26.300
457.74	26.175
458.09	26.452
458.44	26.112
458.79	25.217
459.14	27.088
459.49	25.978
459.84	25.263
460.19	25.810
460.54	25.810
460.89	25.782
461.24	26.351
461.59	26.089
461.94	25.586
462.29	26.350
462.64	25.399
462.99	25.569
463.34	26.333
463.69	26.141
464.04	26.493
464.39	25.623
464.74	25.015
465.09	25.694
465.44	24.820
465.79	25.280
466.14	24.959
466.49	24.082
466.84	24.752
467.19	25.709
467.54	25.125
467.89	24.430
468.24	25.015
468.59	26.435
468.94	24.618
469.29	25.064
469.64	26.238
469.99	25.846
470.34	24.505
470.68	26.580
471.03	25.374
471.38	26.546
471.73	25.316
472.08	25.197
472.43	25.377
472.78	25.675
473.13	26.187
473.48	25.718
473.83	25.366
474.17	24.642
474.52	24.566
474.87	25.044
475.22	24.840
475.57	24.664
475.92	24.376
476.27	24.352
476.61	24.766
476.96	23.914
477.31	23.496
477.66	24.836
478.01	24.307
478.36	24.643
478.70	23.416
479.05	24.654
479.40	24.719
479.75	24.657
480.10	24.056
480.45	23.084
480.79	23.507
481.14	24.364
481.49	23.873
481.84	23.548
482.19	23.989
482.53	23.440
482.88	24.151
483.23	24.112
483.58	23.612
483.92	23.336
484.27	22.179
484.62	22.845
484.97	22.389
485.31	23.253
485.66	22.394
486.01	21.168
486.36	20.400
486.70	19.619
487.05	20.794
487.40	21.527
487.75	21.331
488.09	21.929
488.44	21.614
488.79	22.676
489.13	22.383
489.48	23.532
489.83	22.400
490.17	23.498
490.52	22.498
490.87	22.614
491.22	22.874
491.56	22.460
491.91	22.987
492.26	23.105
492.60	23.041
492.95	23.152
493.30	22.617
493.64	22.538
493.99	22.098
494.34	22.387
494.68	23.214
495.03	23.872
495.37	22.057
495.72	22.758
496.07	22.367
496.41	21.903
496.76	22.647
497.11	22.287
497.45	21.938
497.80	22.265
498.14	22.271
498.49	22.927
498.84	22.531
499.18	22.286
499.53	21.842
499.87	22.600
500.22	22.138
500.56	22.670
500.91	22.260
501.26	22.523
501.60	23.161
501.95	21.769
502.29	22.446
502.64	21.788
502.98	22.066
503.33	21.435
503.67	21.578
504.02	21.749
504.36	21.666
504.71	21.739
505.06	22.602
505.40	22.217
505.75	22.276
506.09	22.255
506.44	22.447
506.78	22.163
507.13	22.362
507.47	22.727
507.82	21.986
508.16	22.543
508.51	23.338
508.85	22.195
509.19	21.684
509.54	21.888
509.88	22.617
510.23	21.594
510.57	23.168
510.92	22.009
511.26	21.840
511.61	22.873
511.95	21.347
512.30	21.686
512.64	21.870
512.98	22.079
513.33	22.645
513.67	21.878
514.02	21.591
514.36	22.556
514.70	21.693
515.05	22.142
515.39	23.331
515.74	22.917
516.08	22.806
516.42	22.752
516.77	21.851
517.11	22.253
517.46	22.686
517.80	23.287
518.14	22.293
518.49	22.112
518.83	22.784
519.17	22.575
519.52	21.788
519.86	22.419
520.20	22.832
520.55	22.861
520.89	22.871
521.23	23.100
521.58	22.989
521.92	23.209
522.26	22.270
522.61	22.118
522.95	22.406
523.29	22.581
523.64	23.720
523.98	22.551
524.32	22.437
524.66	22.369
525.01	22.672
525.35	22.739
525.69	22.722
526.04	23.240
526.38	22.087
526.72	21.656
527.06	22.913
527.41	20.730
527.75	23.215
528.09	22.864
528.43	22.690
528.78	22.250
529.12	22.182
529.46	22.290
529.80	21.473
530.15	21.682
530.49	21.600
530.83	21.899
531.17	23.107
531.51	22.698
531.86	22.194
532.20	22.947
532.54	22.998
532.88	22.593
533.22	22.111
533.57	21.667
533.91	21.734
534.25	22.053
534.59	21.293
534.93	21.535
535.27	21.666
535.62	21.673
535.96	21.657
536.30	21.233
536.64	22.601
536.98	21.699
537.32	21.593
537.66	22.800
538.01	21.132
538.35	22.883
538.69	22.080
539.03	21.248
539.37	20.319
539.71	20.544
540.05	21.242
540.39	21.462
540.73	21.928
541.07	21.999
541.42	21.396
541.76	22.710
542.10	21.863
542.44	21.457
542.78	22.530
543.12	20.218
543.46	22.164
543.80	21.861
544.14	21.502
544.48	21.714
544.82	21.103
545.16	21.535
545.50	20.630
545.84	21.573
546.18	21.684
546.52	21.817
546.86	21.375
547.20	21.376
547.54	20.908
547.88	21.747
548.22	20.859
548.56	21.447
548.90	21.127
549.24	20.000
549.58	20.668
549.92	21.978
550.26	21.236
550.60	21.162
550.94	21.620
551.28	21.507
551.62	21.423
551.96	21.123
552.30	22.594
552.64	21.636
552.98	21.898
553.32	21.510
553.66	21.813
554.00	21.345
554.34	21.877
554.68	21.316
555.02	21.227
555.36	20.738
555.69	20.568
556.03	20.323
556.37	20.873
556.71	20.532
557.05	21.078
557.39	21.414
557.73	21.242
558.07	21.392
558.41	21.129
558.75	21.014
559.08	21.849
559.42	22.071
559.76	21.250
560.10	21.556
560.44	21.034
560.78	20.027
561.12	20.778
561.45	22.034
561.79	20.501
562.13	20.389
562.47	21.038
562.81	21.130
563.15	20.201
563.48	20.623
563.82	19.961
564.16	20.275
564.50	19.792
564.84	20.480
565.17	20.399
565.51	20.319
565.85	20.368
566.19	20.225
566.52	19.633
566.86	19.831
567.20	20.932
567.54	18.721
567.88	18.903
568.21	19.312
568.55	18.857
568.89	17.996
569.23	18.182
569.56	17.571
569.90	17.358
570.24	17.582
570.57	17.273
570.91	16.807
571.25	16.831
571.59	17.261
571.92	16.878
572.26	17.187
572.60	16.997
572.93	16.612
573.27	16.859
573.61	16.778
573.95	16.563
574.28	16.533
574.62	16.108
574.96	16.081
575.29	15.786
575.63	15.981
575.97	16.428
576.30	16.622
576.64	16.376
576.98	16.091
577.31	16.104
577.65	16.308
577.98	15.661
578.32	15.310
578.66	15.597
578.99	15.910
579.33	15.977
579.67	15.909
580.00	15.991
580.34	16.303
580.67	16.285
581.01	16.303
581.35	15.279
581.68	15.548
582.02	15.445
582.35	15.624
582.69	15.444
583.02	15.547
583.36	15.817
583.70	15.959
584.03	16.301
584.37	16.495
584.70	16.092
585.04	16.071
585.37	15.960
585.71	15.719
586.04	16.212
586.38	16.040
586.72	16.294
587.05	16.110
587.39	15.937
587.72	15.486
588.06	15.688
588.39	16.269
588.73	15.752
589.06	16.391
589.40	16.734
589.73	16.473
590.07	16.726
590.40	16.807
590.73	17.057
591.07	16.606
591.40	17.124
591.74	17.489
592.07	17.103
592.41	17.115
592.74	16.142
593.08	16.522
593.41	16.387
593.75	15.896
594.08	15.890
594.41	16.154
594.75	15.896
595.08	16.321
595.42	16.532
595.75	16.275
596.09	16.598
596.42	17.171
596.75	16.927
597.09	17.359
597.42	16.610
597.75	16.990
598.09	16.739
598.42	17.139
598.76	16.336
599.09	16.230
599.42	15.830
599.76	16.288
600.09	15.665
600.42	16.326
600.76	16.143
601.09	16.102
601.42	16.362
601.76	16.319
602.09	16.364
602.42	16.919
602.76	17.130
603.09	16.247
603.42	17.103
603.76	16.349
604.09	16.363
604.42	16.429
604.76	17.334
605.09	16.994
605.42	16.888
605.75	16.929
606.09	15.779
606.42	16.142
606.75	16.549
607.09	16.953
607.42	16.132
607.75	16.034
608.08	16.283
608.42	16.898
608.75	16.637
609.08	16.975
609.41	16.564
609.75	17.008
610.08	17.248
610.41	16.201
610.74	16.840
611.07	17.787
611.41	17.566
611.74	16.792
612.07	16.925
612.40	17.524
612.73	16.842
613.07	16.918
613.40	17.483
613.73	16.938
614.06	16.882
614.39	16.466
614.72	17.000
615.06	17.595
615.39	16.189
615.72	16.820
616.05	16.162
616.38	17.065
616.71	17.280
617.05	18.198
617.38	17.739
617.71	18.619
618.04	17.969
618.37	17.800
618.70	18.108
619.03	18.224
619.36	18.873
619.69	18.310
620.03	17.995
620.36	18.650
620.69	18.973
621.02	18.584
621.35	19.264
621.68	18.069
622.01	19.892
622.34	17.700
622.67	18.023
623.00	17.828
623.33	18.728
623.66	19.228
623.99	18.925
624.32	18.260
624.65	18.644
624.99	17.280
625.32	18.320
625.65	19.234
625.98	19.293
626.31	19.362
626.64	19.265
626.97	19.950
627.30	18.371
627.63	18.950
627.96	20.606
628.29	20.385
628.62	21.500
628.95	22.075
629.28	20.347
629.61	20.073
629.94	20.476
630.26	20.782
630.59	20.114
630.92	21.360
631.25	20.928
631.58	20.420
631.91	21.400
632.24	19.409
632.57	20.776
632.90	20.943
633.23	21.253
633.56	23.051
633.89	21.518
634.22	22.020
634.55	21.775
634.88	22.275
635.20	22.820
635.53	24.096
635.86	23.020
636.19	20.706
636.52	21.799
636.85	20.619
637.18	20.507
637.51	22.459
637.83	20.962
638.16	21.867
638.49	21.788
638.82	24.526
639.15	22.125
639.48	22.070
639.81	23.056
640.13	23.958
640.46	23.758
640.79	23.118
641.12	22.971
641.45	24.302
641.77	22.975
642.10	22.807
642.43	22.973
642.76	24.458
643.09	23.006
643.41	22.155
643.74	24.691
644.07	23.323
644.40	25.767
644.73	25.669
645.05	24.564
645.38	21.801
645.71	27.536
646.04	24.419
646.36	26.544
646.69	26.923
647.02	24.490
647.35	25.086
647.67	26.195
648.00	25.854
648.33	23.927
648.66	22.576
648.98	25.787
649.31	22.422
649.64	23.916
649.96	22.057
650.29	22.433
650.62	24.110
650.94	23.663
651.27	23.142
651.60	25.125
651.92	24.601
652.25	23.453
652.58	23.676
652.90	22.275
653.23	21.263
653.56	24.252
653.88	22.662
654.21	23.697
654.54	24.752
654.86	23.520
655.19	21.486
655.52	13.987
655.84	11.257
656.17	13.781
656.49	18.829
656.82	19.402
657.15	14.188
657.47	10.828
657.80	8.661
658.13	8.989
658.45	13.868
658.78	14.057
659.10	14.588
659.43	15.963
659.75	16.838
660.08	18.101
660.41	22.253
660.73	23.507
661.06	23.248
661.38	24.364
661.71	28.077
662.03	25.247
662.36	24.652
662.68	25.100
663.01	26.869
663.33	24.628
663.66	26.681
663.98	26.782
664.31	23.319
664.63	25.709
664.96	22.736
665.28	24.590
665.61	26.316
665.93	26.358
666.26	24.746
666.58	25.941
666.91	28.753
667.23	27.191
667.56	23.326
667.88	25.427
668.21	28.145
668.53	27.332
668.86	25.758
669.18	25.373
669.50	27.174
669.83	28.322
670.15	26.667
670.48	25.272
670.80	26.724
671.13	27.813
671.45	24.681
671.77	26.477
672.10	25.139
672.42	23.852
672.75	22.222
673.07	21.655
673.39	24.051
673.72	22.852
674.04	24.118
674.37	24.466
674.69	23.722
675.01	25.105
675.34	26.283
675.66	26.737
675.98	27.699
676.31	26.471
676.63	25.902
676.95	25.577
677.28	25.234
677.60	24.396
677.92	29.325
678.25	24.846
678.57	24.502
678.89	23.046
679.22	25.344
679.54	23.473
679.86	24.954
680.18	23.256
680.51	24.291
680.83	23.843
681.15	25.849
681.48	25.331
681.80	24.565
682.12	24.330
682.44	22.824
682.77	25.051
683.09	28.970
683.41	28.381
683.73	27.815
684.06	24.793
684.38	24.070
684.70	25.775
685.02	25.141
685.34	22.894
685.67	22.203
685.99	22.680
686.31	21.502
686.63	20.141
686.96	22.500
687.28	22.563
687.60	22.464
687.92	24.497
688.24	22.243
688.56	25.703
688.89	26.141
689.21	30.786
689.53	25.261
689.85	26.386
690.17	23.188
690.49	24.841
690.82	24.533
691.14	24.107
691.46	25.316
691.78	26.506
692.10	25.207
692.42	24.152
692.74	23.237
693.06	24.894
693.39	24.641
693.71	22.052
694.03	25.684
694.35	25.758
694.67	26.773
694.99	28.049
695.31	23.529
695.63	27.751
695.95	25.672
696.27	25.888
696.59	28.497
696.91	26.684
697.23	24.648
697.56	24.947
697.88	20.654
698.20	21.458
698.52	25.161
698.84	24.053
699.16	25.576
699.48	26.128
699.80	24.879
700.12	31.688
700.44	28.117
700.76	28.177
701.08	29.885
701.40	28.492
701.72	27.697
702.04	31.818
702.36	24.079
702.68	26.629
703.00	27.701
703.32	25.798
703.64	27.346
703.96	26.462
704.28	27.907
704.60	26.979
704.91	26.409
705.23	29.619
705.55	26.910
705.87	32.558
706.19	30.035
706.51	29.283
706.83	33.333
707.15	27.731
707.47	24.747
707.79	27.518
708.11	26.484
708.43	26.429
708.74	23.724
709.06	29.610
709.38	25.197
709.70	24.419
710.02	29.080
710.34	28.485
710.66	27.761
710.98	29.545
711.29	29.651
711.61	30.678
711.93	24.679
712.25	30.225
712.57	27.206
712.89	32.872
713.20	29.179
713.52	32.895
713.84	30.380
714.16	29.878
714.48	27.011
714.80	30.395
715.11	29.395
715.43	25.816
715.75	29.855
716.07	32.907
716.39	31.661
716.70	30.897
717.02	29.856
717.34	34.629
717.66	30.970
717.97	31.873
718.29	30.000
718.61	32.847
718.93	30.882
719.24	34.256
719.56	30.847
719.88	31.186
720.20	31.757
720.51	33.449
720.83	29.368
721.15	28.358
721.46	31.560
721.78	30.466
722.10	32.830
722.42	32.331
722.73	30.337
723.05	31.148
723.37	30.364
723.68	35.135
724.00	35.366
724.32	30.242
724.63	36.992
724.95	30.544
725.27	32.794
725.58	31.250
725.90	30.657
726.22	33.208
726.53	30.208
726.85	29.693
727.16	29.537
727.48	30.851
727.80	32.197
728.11	32.246
728.43	29.615
728.74	29.032
729.06	32.847
729.38	36.397
729.69	33.452
730.01	27.645
730.32	30.208
730.64	30.769
730.96	27.723
731.27	27.815
731.59	28.135
731.90	26.822
732.22	25.776
732.53	27.864
732.85	28.526
733.16	28.296
733.48	30.233
733.80	28.896
734.11	30.573
734.43	26.036
734.74	28.286
735.06	22.636
735.37	28.324
735.69	26.433
736.00	28.431
736.32	28.349
736.63	25.879
736.95	32.588
737.26	19.388
737.58	25.806
737.89	30.435
738.21	30.034
738.52	30.000
738.83	30.943
739.15	27.308
739.46	36.131
739.78	27.778
740.09	28.308
740.41	31.613
740.72	26.481
741.04	31.852
741.35	35.000
741.66	33.333
741.98	36.321
742.29	37.799
742.61	36.207
742.92	33.937
743.23	33.761
743.55	34.000
743.86	35.526
744.18	39.823
744.49	34.928
744.80	36.150
745.12	36.364
745.43	33.921
745.74	40.991
746.06	33.028
746.37	32.287
746.68	34.842
747.00	32.870
747.31	34.762
747.62	28.319
747.94	30.396
748.25	28.085
748.56	37.885
748.88	29.703
749.19	43.000
749.50	35.349
749.82	30.081
750.13	29.388
750.44	29.197
750.75	28.772
751.07	30.547
751.38	30.662
751.69	31.408
752.01	30.451
752.32	29.603
752.63	28.723
752.94	31.148
753.26	37.600
753.57	30.894
753.88	33.203
754.19	25.000
754.51	34.028
754.82	25.993
755.13	29.434
755.44	28.571
755.75	32.117
756.07	28.014
756.38	27.737
756.69	25.168
757.00	26.946
757.31	26.113
757.63	24.854
757.94	24.665
758.25	24.265
758.56	22.222
758.87	23.656
759.18	26.667
759.50	24.765
759.81	27.726
760.12	25.312
760.43	27.221
760.74	25.272
761.05	27.966
761.36	22.193
761.67	25.000
761.99	23.913
762.30	30.556
762.61	27.099
762.92	35.156
763.23	28.571
763.54	33.200
763.85	26.953
764.16	31.923
764.47	32.319
764.78	29.329
765.10	22.468
765.41	25.369
765.72	26.048
766.03	28.527
766.34	26.000
766.65	36.170
766.96	33.761
767.27	36.548
767.58	40.625
767.89	40.526
768.20	39.080
768.51	34.010
768.82	37.156
769.13	29.268
769.44	27.935
769.75	27.897
770.06	25.688
770.37	37.104
770.68	32.870
770.99	34.222
771.30	27.049
771.61	32.735
771.92	31.148
772.23	35.714
772.54	29.744
772.85	43.455
773.16	41.489
773.47	34.239
773.78	41.624
774.09	38.690
774.39	43.860
774.70	35.185
775.01	41.304
775.32	49.020
775.63	44.737
775.94	39.568
776.25	46.457
776.56	42.537
776.87	54.098
777.18	50.781
777.48	51.145
777.79	46.212
778.10	46.667
778.41	50.000
778.72	47.445
779.03	37.584
779.34	42.953
779.65	40.541
779.95	39.877
780.26	41.830
780.57	41.379
780.88	53.125
781.19	51.128
781.50	43.919
781.80	41.509
782.11	39.548
782.42	37.342
782.73	38.037
783.04	48.649
783.34	45.070
783.65	50.685
783.96	48.507
784.27	44.755
784.57	39.568
784.88	41.667
785.19	56.349
785.50	59.434
785.81	47.015
786.11	60.656
786.42	51.163
786.73	42.478
787.04	54.717
787.34	46.429
787.65	67.000
787.96	53.153
788.26	59.504
788.57	61.017
788.88	54.545
789.19	45.139
789.49	50.758
789.80	50.382
790.11	60.000
790.41	67.327
790.72	63.855
791.03	51.087
791.33	55.814
791.64	67.010
791.95	55.446
792.25	67.778
792.56	75.325
792.87	88.462
793.17	72.152
793.48	70.115
793.79	59.770
794.09	61.364
794.40	48.739
794.70	47.059
795.01	42.222
795.32	38.129
795.62	45.669
795.93	51.724
796.23	55.752
796.54	69.412
796.85	78.378
797.15	81.690
797.46	72.727
797.76	81.928
798.07	70.886
798.37	76.923
798.68	74.242
798.99	57.746
799.29	71.429
799.60	61.364
799.90	95.890
800.21	89.552
800.51	82.759
800.82	77.193
801.12	77.049
801.43	95.455
801.73	60.811
802.04	93.651
802.34	81.481
802.65	73.438
802.95	91.525
803.26	100.000
803.56	80.000
803.87	72.308
804.17	85.294
804.48	101.852
804.78	75.862
805.09	79.412
805.39	88.462
805.70	96.429
806.00	93.443
806.30	78.788
806.61	76.829
806.91	58.228
807.22	65.789
807.52	64.179
807.83	76.056
808.13	75.000
808.43	70.000
808.74	59.211
809.04	85.507
809.35	86.567
809.65	78.947
809.95	103.226
810.26	72.881
810.56	84.127
810.86	113.636
811.17	116.667
811.47	98.333
811.77	90.741
812.08	92.727
812.38	116.000
812.69	122.222
812.99	134.091
813.29	108.163
813.59	92.857
813.90	116.327
814.20	94.545
814.50	70.769
814.81	95.588
815.11	106.122
815.41	83.607
815.72	111.905
816.02	92.727
816.32	119.048
816.62	127.500
816.93	102.439
817.23	126.190
817.53	102.273
817.84	118.182
818.14	100.000
818.44	115.556
818.74	141.176
819.04	122.500
819.35	134.286
819.65	144.118
819.95	146.429
820.25	175.000
820.56	146.154
820.86	113.636
821.16	132.558
821.46	102.564
821.76	100.000
822.07	162.857
822.37	112.500
822.67	136.364
822.97	98.039
823.27	146.429
823.57	137.838
823.88	132.500
824.18	176.667
824.48	130.952
824.78	188.000
825.08	166.667
825.38	116.216
825.69	107.317
825.99	162.500
826.29	151.724
826.59	123.684
826.89	144.737
827.19	147.059
827.49	158.065
827.79	125.000
828.09	104.545
828.39	121.277
828.70	102.041
829.00	107.407
829.30	148.387
829.60	115.000
829.90	333.333
830.20	189.286
830.50	182.609
830.80	173.913
831.10	196.667
831.40	163.333
831.70	204.348
832.00	219.231
832.30	159.259
832.60	268.750
832.90	166.667
833.20	371.429
833.50	154.839
833.80	179.310
834.10	168.750
834.40	196.154
834.70	261.111
835.00	238.095
835.30	134.286
835.60	246.154
835.90	155.172
836.20	314.286
836.50	168.966
836.80	128.000
837.10	161.111
837.40	204.762
837.70	311.765
838.00	211.111
838.30	190.476
838.60	257.143
838.90	215.385
839.19	230.000
839.49	414.286
839.79	330.000
840.09	275.000
840.39	209.524
840.69	217.391
840.99	216.667
841.29	400.000
841.59	300.000
841.88	306.250
842.18	175.862
842.48	252.381
842.78	160.000
843.08	213.043
843.38	168.750
843.68	800.000
843.97	173.077
844.27	158.621
844.57	233.333
844.87	337.500
845.17	181.481
845.47	1100.000
845.76	444.444
846.06	276.471
846.36	362.500
846.66	300.000
846.96	231.250
847.25	345.455
847.55	318.182
847.85	234.783
848.15	410.000
848.44	278.571
848.74	244.444
849.04	270.588
849.34	370.000
849.63	194.737
849.93	336.364
850.23	660.000
850.53	385.714
850.82	1700.000
851.12	-4400.000
851.42	3600.000
851.71	195.000
852.01	-1000.000
852.31	175.000
852.61	1466.667
852.90	242.857
853.20	192.000
853.50	264.706
853.79	176.190
854.09	220.833
854.39	343.750
854.68	156.757
854.98	187.097
855.28	166.667
855.57	193.103
855.87	192.593
856.17	236.842
856.46	226.667
856.76	229.412
857.05	155.172
857.35	208.333
857.65	280.000
857.94	221.739
858.24	226.923
858.53	240.000
858.83	268.182
859.13	360.000
859.42	0.000
859.72	433.333
860.01	390.909
860.31	263.636
860.60	263.158
860.90	178.261
861.20	433.333
861.49	441.667
861.79	-4100.000
862.08	500.000
862.38	257.143
862.67	238.462
862.97	317.647
863.26	588.889
863.56	211.111
863.85	383.333
864.15	612.500
864.44	340.000
864.74	650.000
865.03	625.000
865.33	278.947
865.62	454.545
865.92	407.692
866.21	333.333
866.51	0.000
866.80	254.545
867.10	880.000
867.39	369.231
867.69	409.091
867.98	215.789
868.27	409.091
868.57	263.158
868.86	-3000.000
869.16	318.750
869.45	1700.000
869.75	-3600.000
870.04	391.667
870.33	671.429
870.63	750.000
870.92	2200.000
871.22	728.571
871.51	282.353
871.80	247.619
872.10	371.429
>>>>>End Processed Spectral Data<<<<<
