SpectraSuite Data File
++++++++++++++++++++++++++++++++++++
Date: Wed May 13 16:10:09 PDT 2015
User: schluterlab
Dark Spectrum Present: Yes
Reference Spectrum Present: Yes
Number of Sampled Component Spectra: 1
Spectrometers: USB2E3373
Integration Time (usec): 3000 (USB2E3373)
Spectra Averaged: 3 (USB2E3373)
Boxcar Smoothing: 0 (USB2E3373)
Correct for Electrical Dark: No (USB2E3373)
Strobe/Lamp Enabled: No (USB2E3373)
Correct for Detector Non-linearity: No (USB2E3373)
Correct for Stray Light: No (USB2E3373)
Number of Pixels in Processed Spectrum: 2048
>>>>>Begin Processed Spectral Data<<<<<
178.53	0.000
178.91	-1125.000
179.29	-950.000
179.67	-166.667
180.04	-750.000
180.42	1500.000
180.80	800.000
181.18	-625.000
181.56	457.143
181.94	0.000
182.31	-471.429
182.69	1066.667
183.07	-425.000
183.45	-344.444
183.83	381.818
184.20	-240.000
184.58	1750.000
184.96	4000.000
185.34	-720.000
185.72	-487.500
186.09	-1500.000
186.47	2000.000
186.85	1750.000
187.23	3700.000
187.61	-1300.000
187.98	1075.000
188.36	427.273
188.74	490.909
189.12	-660.000
189.49	530.000
189.87	-2800.000
190.25	-950.000
190.63	314.286
191.00	315.385
191.38	716.667
191.76	-825.000
192.14	1050.000
192.51	575.000
192.89	666.667
193.27	387.500
193.65	-1175.000
194.02	410.000
194.40	840.000
194.78	340.000
195.15	408.333
195.53	510.000
195.91	-1550.000
196.29	250.000
196.66	184.211
197.04	-230.000
197.42	0.000
197.79	430.000
198.17	-4100.000
198.55	500.000
198.92	450.000
199.30	640.000
199.68	0.000
200.05	238.889
200.43	471.429
200.81	3200.000
201.18	900.000
201.56	-1166.667
201.94	533.333
202.31	488.889
202.69	333.333
203.07	440.000
203.44	0.000
203.82	1200.000
204.19	585.714
204.57	307.143
204.95	475.000
205.32	1000.000
205.70	463.636
206.08	328.571
206.45	1800.000
206.83	300.000
207.20	733.333
207.58	500.000
207.96	255.556
208.33	550.000
208.71	-533.333
209.08	557.143
209.46	366.667
209.84	345.455
210.21	-1200.000
210.59	1225.000
210.96	-362.500
211.34	1900.000
211.71	340.000
212.09	616.667
212.46	0.000
212.84	1133.333
213.22	900.000
213.59	-3400.000
213.97	566.667
214.34	585.714
214.72	427.273
215.09	660.000
215.47	-1300.000
215.84	-1800.000
216.22	1033.333
216.59	314.286
216.97	925.000
217.34	290.909
217.72	-500.000
218.09	0.000
218.47	-3700.000
218.84	511.111
219.22	671.429
219.59	1133.333
219.97	-528.571
220.34	740.000
220.72	-1300.000
221.09	292.857
221.47	1225.000
221.84	-650.000
222.22	0.000
222.59	825.000
222.97	-2050.000
223.34	940.000
223.72	346.154
224.09	1100.000
224.46	1750.000
224.84	-3700.000
225.21	-660.000
225.59	-3400.000
225.96	440.000
226.34	275.000
226.71	2300.000
227.08	537.500
227.46	360.000
227.83	-950.000
228.21	-1700.000
228.58	466.667
228.95	-2050.000
229.33	-1600.000
229.70	1600.000
230.08	542.857
230.45	-620.000
230.82	308.333
231.20	550.000
231.57	500.000
231.95	266.667
232.32	159.091
232.69	309.091
233.07	542.857
233.44	246.154
233.81	-1066.667
234.19	247.368
234.56	400.000
234.93	308.333
235.31	254.545
235.68	253.846
236.05	214.286
236.43	136.364
236.80	247.368
237.17	3400.000
237.55	152.381
237.92	182.143
238.29	223.810
238.67	116.129
239.04	162.069
239.41	147.222
239.79	113.043
240.16	135.714
240.53	118.182
240.91	100.000
241.28	104.000
241.65	88.000
242.02	84.058
242.40	98.387
242.77	91.667
243.14	79.570
243.51	82.022
243.89	72.941
244.26	66.667
244.63	73.118
245.00	68.085
245.38	78.218
245.75	58.879
246.12	59.633
246.49	67.153
246.87	60.800
247.24	64.615
247.61	59.286
247.98	60.784
248.36	54.730
248.73	53.503
249.10	57.325
249.47	52.542
249.84	54.545
250.22	55.080
250.59	53.254
250.96	55.556
251.33	55.450
251.70	52.970
252.08	48.571
252.45	44.395
252.82	47.826
253.19	53.617
253.56	50.588
253.94	54.357
254.31	49.609
254.68	53.462
255.05	50.185
255.42	50.000
255.79	48.162
256.16	48.014
256.54	47.350
256.91	48.043
257.28	42.806
257.65	47.855
258.02	43.789
258.39	45.110
258.76	44.147
259.14	44.048
259.51	44.985
259.88	40.683
260.25	43.505
260.62	46.821
260.99	43.789
261.36	45.345
261.73	42.407
262.10	44.477
262.47	47.324
262.85	42.618
263.22	42.165
263.59	46.724
263.96	39.835
264.33	40.209
264.70	39.474
265.07	41.688
265.44	40.152
265.81	38.443
266.18	40.452
266.55	40.488
266.92	41.278
267.29	40.046
267.66	38.761
268.03	42.045
268.40	39.486
268.77	40.573
269.14	39.414
269.51	39.052
269.88	42.424
270.25	41.309
270.62	40.899
270.99	42.151
271.36	40.558
271.73	40.421
272.10	37.609
272.47	41.935
272.84	39.610
273.21	40.671
273.58	39.738
273.95	38.574
274.32	38.430
274.69	39.829
275.06	36.811
275.43	38.511
275.80	38.878
276.17	38.900
276.54	40.956
276.91	40.909
277.28	38.281
277.65	36.944
278.02	39.959
278.39	41.602
278.76	36.909
279.13	35.472
279.50	38.547
279.87	37.649
280.23	37.325
280.60	38.104
280.97	37.338
281.34	38.761
281.71	36.727
282.08	38.004
282.45	35.818
282.82	36.767
283.19	37.433
283.56	36.316
283.92	36.210
284.29	35.802
284.66	36.116
285.03	35.986
285.40	36.268
285.77	35.185
286.14	35.924
286.51	36.333
286.87	33.675
287.24	36.645
287.61	33.387
287.98	35.552
288.35	34.231
288.72	33.489
289.08	33.803
289.45	34.102
289.82	35.610
290.19	31.240
290.56	31.240
290.93	30.363
291.29	34.356
291.66	32.301
292.03	34.593
292.40	33.627
292.77	31.509
293.13	31.493
293.50	30.466
293.87	31.556
294.24	32.000
294.60	30.277
294.97	29.651
295.34	31.735
295.71	31.392
296.08	29.487
296.44	30.124
296.81	29.855
297.18	30.759
297.55	26.517
297.91	29.288
298.28	29.719
298.65	28.068
299.02	30.171
299.38	28.287
299.75	28.167
300.12	28.352
300.48	28.500
300.85	28.483
301.22	27.261
301.59	27.904
301.95	26.952
302.32	28.626
302.69	27.718
303.05	27.030
303.42	27.407
303.79	27.293
304.15	27.622
304.52	25.724
304.89	27.294
305.25	27.958
305.62	27.973
305.99	28.217
306.35	27.517
306.72	27.130
307.09	28.635
307.45	28.716
307.82	26.562
308.19	27.042
308.55	28.587
308.92	27.390
309.29	26.822
309.65	27.996
310.02	26.850
310.38	27.204
310.75	27.983
311.12	27.738
311.48	27.377
311.85	27.673
312.22	28.616
312.58	26.091
312.95	28.617
313.31	26.893
313.68	28.898
314.05	30.178
314.41	27.940
314.78	28.298
315.14	27.507
315.51	29.248
315.87	29.505
316.24	29.394
316.61	30.214
316.97	28.669
317.34	28.963
317.70	30.019
318.07	29.933
318.43	29.843
318.80	31.490
319.16	31.733
319.53	29.644
319.89	30.571
320.26	31.600
320.62	30.159
320.99	30.101
321.35	31.010
321.72	29.877
322.08	31.293
322.45	33.532
322.81	32.849
323.18	34.104
323.54	32.282
323.91	32.453
324.27	33.652
324.64	32.339
325.00	31.470
325.37	33.940
325.73	33.393
326.10	33.892
326.46	34.409
326.83	35.030
327.19	34.159
327.56	35.540
327.92	34.121
328.29	35.404
328.65	35.543
329.01	34.928
329.38	34.783
329.74	34.811
330.11	35.156
330.47	34.986
330.84	36.029
331.20	34.335
331.56	35.963
331.93	35.648
332.29	34.871
332.66	37.168
333.02	35.558
333.38	36.134
333.75	35.651
334.11	34.964
334.48	36.114
334.84	35.294
335.20	35.545
335.57	35.358
335.93	32.679
336.29	35.531
336.66	34.806
337.02	34.299
337.38	34.722
337.75	34.046
338.11	35.363
338.47	35.820
338.84	36.205
339.20	34.037
339.56	37.226
339.93	34.636
340.29	33.152
340.65	34.046
341.02	35.253
341.38	36.566
341.74	35.526
342.11	36.245
342.47	35.154
342.83	33.562
343.20	35.844
343.56	34.120
343.92	34.737
344.28	34.184
344.65	35.512
345.01	34.007
345.37	32.933
345.73	34.433
346.10	35.124
346.46	34.237
346.82	33.937
347.19	35.422
347.55	33.908
347.91	34.466
348.27	34.675
348.63	34.114
349.00	33.657
349.36	34.483
349.72	34.804
350.08	34.765
350.45	35.476
350.81	34.444
351.17	34.927
351.53	35.627
351.89	34.323
352.26	36.622
352.62	35.365
352.98	34.360
353.34	35.168
353.70	33.961
354.07	35.484
354.43	33.810
354.79	34.191
355.15	33.998
355.51	35.252
355.87	35.102
356.24	34.691
356.60	33.921
356.96	34.916
357.32	35.568
357.68	34.961
358.04	34.679
358.40	36.817
358.77	34.977
359.13	34.491
359.49	35.373
359.85	34.683
360.21	34.848
360.57	35.720
360.93	35.538
361.29	34.392
361.66	35.139
362.02	36.119
362.38	35.894
362.74	34.301
363.10	34.345
363.46	34.996
363.82	35.072
364.18	35.536
364.54	35.067
364.90	35.694
365.26	35.074
365.62	35.866
365.98	34.843
366.35	34.885
366.71	34.707
367.07	34.377
367.43	35.631
367.79	36.188
368.15	36.782
368.51	35.974
368.87	36.046
369.23	37.015
369.59	36.640
369.95	35.735
370.31	36.325
370.67	35.870
371.03	38.052
371.39	37.682
371.75	36.250
372.11	36.486
372.47	38.050
372.83	37.896
373.19	36.777
373.55	36.881
373.91	37.850
374.27	37.045
374.63	36.727
374.99	38.347
375.35	37.823
375.71	38.177
376.07	37.380
376.42	37.827
376.78	38.038
377.14	37.381
377.50	38.675
377.86	38.098
378.22	37.800
378.58	38.910
378.94	38.843
379.30	39.567
379.66	39.277
380.02	39.558
380.38	38.373
380.74	39.796
381.09	39.181
381.45	40.504
381.81	40.172
382.17	40.000
382.53	40.629
382.89	41.235
383.25	39.775
383.61	41.512
383.97	41.088
384.32	39.800
384.68	41.140
385.04	42.532
385.40	40.495
385.76	41.278
386.12	40.026
386.48	42.857
386.83	42.976
387.19	42.610
387.55	41.991
387.91	41.898
388.27	41.324
388.62	42.963
388.98	42.076
389.34	43.554
389.70	42.244
390.06	43.599
390.42	43.645
390.77	42.939
391.13	43.906
391.49	42.893
391.85	43.285
392.20	43.659
392.56	43.308
392.92	44.379
393.28	42.367
393.64	43.165
393.99	43.555
394.35	43.672
394.71	44.166
395.07	42.928
395.42	44.808
395.78	44.529
396.14	44.382
396.50	44.987
396.85	45.073
397.21	43.403
397.57	44.265
397.92	44.772
398.28	43.330
398.64	44.026
399.00	44.096
399.35	44.162
399.71	44.907
400.07	44.944
400.42	46.503
400.78	45.597
401.14	45.000
401.49	45.672
401.85	44.162
402.21	44.910
402.57	45.466
402.92	45.965
403.28	45.472
403.63	45.421
403.99	45.541
404.35	46.485
404.70	45.324
405.06	44.846
405.42	45.290
405.77	45.371
406.13	45.655
406.49	44.352
406.84	45.186
407.20	44.976
407.55	45.884
407.91	46.800
408.27	47.415
408.62	45.816
408.98	46.324
409.34	45.387
409.69	46.323
410.05	45.477
410.40	46.239
410.76	45.639
411.11	45.838
411.47	45.751
411.83	45.632
412.18	45.516
412.54	46.451
412.89	45.181
413.25	46.517
413.60	45.522
413.96	43.959
414.31	45.626
414.67	45.817
415.03	44.702
415.38	46.198
415.74	47.588
416.09	46.310
416.45	46.452
416.80	45.671
417.16	46.314
417.51	46.450
417.87	45.793
418.22	46.183
418.58	46.482
418.93	46.007
419.29	46.467
419.64	46.096
420.00	46.280
420.35	46.957
420.71	46.145
421.06	45.764
421.42	46.433
421.77	46.637
422.12	45.255
422.48	45.062
422.83	46.418
423.19	46.022
423.54	46.431
423.90	46.029
424.25	46.790
424.61	46.190
424.96	45.131
425.31	45.847
425.67	45.562
426.02	46.057
426.38	47.680
426.73	45.758
427.09	46.991
427.44	46.348
427.79	46.578
428.15	46.548
428.50	45.933
428.85	46.841
429.21	46.052
429.56	45.464
429.92	45.747
430.27	45.730
430.62	45.622
430.98	45.252
431.33	45.206
431.68	45.602
432.04	44.941
432.39	46.602
432.74	46.320
433.10	46.463
433.45	47.930
433.80	47.395
434.16	46.421
434.51	46.526
434.86	47.377
435.22	46.804
435.57	45.897
435.92	47.221
436.28	47.568
436.63	46.247
436.98	46.136
437.34	47.823
437.69	47.666
438.04	46.037
438.39	47.881
438.75	47.763
439.10	47.039
439.45	47.344
439.81	46.828
440.16	46.584
440.51	46.749
440.86	48.292
441.22	47.219
441.57	47.665
441.92	47.595
442.27	47.201
442.63	46.340
442.98	47.042
443.33	46.141
443.68	46.928
444.03	46.608
444.39	46.397
444.74	47.294
445.09	47.062
445.44	46.528
445.79	45.819
446.15	45.315
446.50	46.150
446.85	46.403
447.20	46.915
447.55	48.074
447.91	46.553
448.26	47.078
448.61	46.637
448.96	46.678
449.31	46.738
449.66	46.820
450.02	46.295
450.37	45.805
450.72	46.757
451.07	45.887
451.42	45.836
451.77	47.211
452.12	46.305
452.47	47.077
452.83	46.503
453.18	46.271
453.53	46.939
453.88	46.722
454.23	45.906
454.58	45.790
454.93	48.697
455.28	46.758
455.63	47.512
455.98	48.393
456.34	46.545
456.69	48.528
457.04	46.997
457.39	46.698
457.74	47.591
458.09	47.039
458.44	46.351
458.79	45.174
459.14	47.122
459.49	47.169
459.84	46.759
460.19	46.671
460.54	45.197
460.89	47.230
461.24	47.298
461.59	47.066
461.94	45.129
462.29	46.825
462.64	46.969
462.99	45.153
463.34	47.867
463.69	46.842
464.04	46.667
464.39	46.725
464.74	46.583
465.09	46.019
465.44	46.260
465.79	45.861
466.14	45.375
466.49	45.606
466.84	45.184
467.19	46.470
467.54	46.437
467.89	45.918
468.24	45.899
468.59	47.192
468.94	46.243
469.29	46.979
469.64	46.854
469.99	48.173
470.34	47.424
470.68	48.060
471.03	46.667
471.38	47.116
471.73	46.835
472.08	48.355
472.43	46.734
472.78	47.070
473.13	46.406
473.48	47.316
473.83	46.829
474.17	45.364
474.52	46.588
474.87	46.818
475.22	45.792
475.57	45.298
475.92	46.150
476.27	45.490
476.61	45.394
476.96	45.629
477.31	43.851
477.66	46.444
478.01	44.381
478.36	45.373
478.70	45.898
479.05	45.261
479.40	46.366
479.75	45.094
480.10	44.384
480.45	44.693
480.79	44.912
481.14	45.254
481.49	44.993
481.84	45.405
482.19	45.343
482.53	44.633
482.88	45.556
483.23	45.374
483.58	44.950
483.92	45.033
484.27	43.181
484.62	44.353
484.97	45.014
485.31	45.137
485.66	43.830
486.01	43.147
486.36	41.170
486.70	39.660
487.05	41.385
487.40	42.314
487.75	42.278
488.09	43.100
488.44	43.362
488.79	43.942
489.13	44.118
489.48	44.494
489.83	44.195
490.17	44.717
490.52	43.623
490.87	44.188
491.22	44.475
491.56	43.918
491.91	44.020
492.26	42.995
492.60	44.424
492.95	44.107
493.30	44.299
493.64	44.517
493.99	43.965
494.34	43.340
494.68	44.505
495.03	43.938
495.37	43.834
495.72	44.981
496.07	44.594
496.41	43.363
496.76	44.371
497.11	43.539
497.45	43.549
497.80	43.666
498.14	44.300
498.49	43.512
498.84	45.062
499.18	44.190
499.53	44.349
499.87	43.989
500.22	43.759
500.56	45.243
500.91	44.087
501.26	44.239
501.60	44.518
501.95	42.805
502.29	43.533
502.64	43.855
502.98	43.852
503.33	42.276
503.67	44.037
504.02	43.873
504.36	43.098
504.71	42.941
505.06	44.771
505.40	43.899
505.75	43.732
506.09	43.975
506.44	44.450
506.78	43.790
507.13	44.725
507.47	44.394
507.82	45.390
508.16	44.428
508.51	44.647
508.85	43.595
509.19	44.235
509.54	43.827
509.88	43.895
510.23	43.496
510.57	45.562
510.92	44.692
511.26	44.039
511.61	44.502
511.95	43.841
512.30	43.796
512.64	44.546
512.98	44.319
513.33	44.325
513.67	43.650
514.02	45.130
514.36	45.330
514.70	44.162
515.05	44.116
515.39	44.924
515.74	45.158
516.08	44.606
516.42	45.560
516.77	44.816
517.11	44.395
517.46	45.147
517.80	45.587
518.14	44.354
518.49	44.574
518.83	44.091
519.17	45.497
519.52	44.595
519.86	45.009
520.20	45.838
520.55	45.123
520.89	45.864
521.23	45.597
521.58	44.958
521.92	45.070
522.26	43.502
522.61	45.607
522.95	44.751
523.29	44.614
523.64	45.549
523.98	45.287
524.32	45.115
524.66	44.979
525.01	44.485
525.35	44.238
525.69	44.581
526.04	44.735
526.38	45.027
526.72	43.804
527.06	46.139
527.41	43.502
527.75	45.723
528.09	45.279
528.43	44.869
528.78	43.762
529.12	44.242
529.46	45.377
529.80	45.050
530.15	44.798
530.49	44.308
530.83	44.241
531.17	46.018
531.51	46.174
531.86	44.387
532.20	44.720
532.54	44.523
532.88	46.341
533.22	43.285
533.57	43.889
533.91	43.769
534.25	45.079
534.59	43.868
534.93	43.843
535.27	43.512
535.62	43.895
535.96	44.884
536.30	43.547
536.64	45.074
536.98	43.862
537.32	44.240
537.66	44.267
538.01	45.820
538.35	45.120
538.69	45.501
539.03	44.444
539.37	43.706
539.71	42.255
540.05	45.163
540.39	44.518
540.73	43.014
541.07	44.322
541.42	44.879
541.76	44.258
542.10	43.855
542.44	44.305
542.78	44.664
543.12	42.802
543.46	43.213
543.80	45.218
544.14	43.261
544.48	43.683
544.82	42.976
545.16	43.917
545.50	43.380
545.84	42.809
546.18	43.636
546.52	43.772
546.86	44.192
547.20	45.246
547.54	43.754
547.88	44.069
548.22	42.653
548.56	43.333
548.90	43.214
549.24	43.434
549.58	43.929
549.92	43.475
550.26	43.537
550.60	43.292
550.94	44.085
551.28	43.307
551.62	44.357
551.96	43.088
552.30	43.686
552.64	43.408
552.98	43.525
553.32	44.572
553.66	43.354
554.00	44.063
554.34	43.892
554.68	44.278
555.02	43.653
555.36	43.911
555.69	42.558
556.03	42.194
556.37	43.179
556.71	42.633
557.05	43.277
557.39	42.897
557.73	42.978
558.07	44.743
558.41	43.198
558.75	44.306
559.08	44.146
559.42	43.613
559.76	42.868
560.10	42.612
560.44	43.187
560.78	41.450
561.12	42.480
561.45	43.025
561.79	42.320
562.13	42.388
562.47	43.169
562.81	43.166
563.15	42.742
563.48	43.568
563.82	42.661
564.16	44.212
564.50	43.034
564.84	42.351
565.17	42.535
565.51	42.812
565.85	42.069
566.19	42.267
566.52	42.812
566.86	40.928
567.20	43.160
567.54	42.808
567.88	42.042
568.21	42.381
568.55	41.456
568.89	41.148
569.23	41.310
569.56	39.757
569.90	39.283
570.24	39.505
570.57	39.442
570.91	37.686
571.25	38.573
571.59	38.233
571.92	37.932
572.26	38.793
572.60	39.129
572.93	38.441
573.27	38.480
573.61	38.526
573.95	38.630
574.28	38.141
574.62	38.144
574.96	37.754
575.29	37.633
575.63	38.618
575.97	38.375
576.30	38.184
576.64	38.337
576.98	38.065
577.31	38.401
577.65	37.676
577.98	38.118
578.32	37.331
578.66	37.044
578.99	37.754
579.33	36.771
579.67	36.804
580.00	37.761
580.34	38.348
580.67	37.532
581.01	37.733
581.35	38.188
581.68	37.456
582.02	37.205
582.35	37.034
582.69	37.085
583.02	37.079
583.36	37.537
583.70	38.611
584.03	38.401
584.37	38.920
584.70	38.297
585.04	37.549
585.37	37.232
585.71	37.735
586.04	37.110
586.38	37.879
586.72	38.249
587.05	37.164
587.39	37.757
587.72	37.593
588.06	38.100
588.39	37.997
588.73	38.076
589.06	38.174
589.40	38.384
589.73	39.106
590.07	38.292
590.40	38.875
590.73	39.266
591.07	39.113
591.40	39.350
591.74	40.390
592.07	39.311
592.41	38.942
592.74	38.689
593.08	38.807
593.41	38.152
593.75	37.477
594.08	37.613
594.41	38.600
594.75	38.669
595.08	37.795
595.42	38.634
595.75	38.177
596.09	38.979
596.42	38.625
596.75	38.455
597.09	39.264
597.42	38.617
597.75	39.327
598.09	40.043
598.42	38.660
598.76	38.306
599.09	38.540
599.42	37.846
599.76	37.921
600.09	38.106
600.42	37.290
600.76	37.321
601.09	37.486
601.42	37.938
601.76	38.178
602.09	38.419
602.42	38.854
602.76	38.412
603.09	38.867
603.42	39.438
603.76	37.957
604.09	38.736
604.42	37.709
604.76	38.043
605.09	38.139
605.42	38.050
605.75	39.156
606.09	39.284
606.42	38.333
606.75	37.951
607.09	38.301
607.42	38.639
607.75	38.228
608.08	37.950
608.42	38.906
608.75	38.188
609.08	37.789
609.41	38.458
609.75	38.971
610.08	39.020
610.41	37.384
610.74	38.458
611.07	39.279
611.41	38.763
611.74	39.517
612.07	39.286
612.40	40.031
612.73	39.842
613.07	39.817
613.40	40.021
613.73	38.437
614.06	39.409
614.39	38.647
614.72	39.526
615.06	38.971
615.39	38.588
615.72	38.548
616.05	38.118
616.38	39.689
616.71	40.321
617.05	40.989
617.38	39.808
617.71	40.120
618.04	40.325
618.37	40.035
618.70	40.075
619.03	40.592
619.36	40.801
619.69	40.352
620.03	40.453
620.36	40.040
620.69	41.027
621.02	41.667
621.35	40.564
621.68	40.576
622.01	41.796
622.34	40.696
622.67	40.989
623.00	40.279
623.33	39.528
623.66	40.315
623.99	42.342
624.32	41.583
624.65	41.314
624.99	40.085
625.32	40.478
625.65	40.721
625.98	42.583
626.31	41.835
626.64	41.796
626.97	42.643
627.30	41.563
627.63	42.166
627.96	41.884
628.29	41.907
628.62	42.177
628.95	43.962
629.28	43.522
629.61	43.905
629.94	44.952
630.26	41.849
630.59	42.803
630.92	42.337
631.25	41.066
631.58	41.041
631.91	43.306
632.24	42.405
632.57	43.652
632.90	43.092
633.23	43.736
633.56	43.729
633.89	43.148
634.22	44.381
634.55	46.391
634.88	42.874
635.20	44.444
635.53	45.904
635.86	45.668
636.19	43.176
636.52	45.329
636.85	42.841
637.18	41.475
637.51	42.435
637.83	41.307
638.16	43.734
638.49	45.466
638.82	44.880
639.15	43.750
639.48	44.763
639.81	45.845
640.13	45.312
640.46	43.356
640.79	45.178
641.12	43.741
641.45	44.972
641.77	46.392
642.10	45.468
642.43	44.595
642.76	46.904
643.09	46.472
643.41	44.917
643.74	46.605
644.07	44.970
644.40	46.779
644.73	47.717
645.05	46.276
645.38	45.498
645.71	45.089
646.04	47.176
646.36	47.245
646.69	45.819
647.02	47.619
647.35	47.079
647.67	46.549
648.00	46.504
648.33	45.545
648.66	44.545
648.98	45.577
649.31	43.647
649.64	44.843
649.96	45.156
650.29	45.972
650.62	44.175
650.94	46.191
651.27	48.142
651.60	46.256
651.92	46.006
652.25	44.300
652.58	42.368
652.90	45.340
653.23	44.376
653.56	44.882
653.88	43.740
654.21	45.656
654.54	45.050
654.86	43.302
655.19	43.243
655.52	34.429
655.84	32.108
656.17	40.231
656.49	54.111
656.82	54.498
657.15	40.765
657.47	30.278
657.80	23.463
658.13	24.585
658.45	36.759
658.78	37.074
659.10	37.474
659.43	39.278
659.75	41.358
660.08	43.544
660.41	47.858
660.73	49.174
661.06	48.567
661.38	51.091
661.71	49.231
662.03	49.704
662.36	44.334
662.68	47.992
663.01	46.869
663.33	47.558
663.66	49.160
663.98	47.732
664.31	48.950
664.63	47.773
664.96	47.485
665.28	49.795
665.61	45.614
665.93	48.893
666.26	47.262
666.58	48.745
666.91	48.414
667.23	48.539
667.56	47.084
667.88	48.291
668.21	47.761
668.53	50.325
668.86	45.455
669.18	50.107
669.50	50.870
669.83	47.930
670.15	45.778
670.48	45.969
670.80	46.552
671.13	50.318
671.45	49.787
671.77	46.640
672.10	48.429
672.42	45.053
672.75	43.947
673.07	44.718
673.39	47.197
673.72	45.703
674.04	46.275
674.37	46.019
674.69	45.808
675.01	48.536
675.34	47.228
675.66	50.316
675.98	47.047
676.31	47.269
676.63	45.223
676.95	45.493
677.28	49.533
677.60	47.912
677.92	49.367
678.25	46.612
678.57	46.215
678.89	48.096
679.22	46.365
679.54	45.611
679.86	48.073
680.18	46.154
680.51	45.567
680.83	43.594
681.15	44.906
681.48	45.936
681.80	46.228
682.12	46.935
682.44	46.035
682.77	50.305
683.09	47.210
683.41	49.002
683.73	47.461
684.06	47.107
684.38	45.597
684.70	45.349
685.02	47.280
685.34	44.505
685.67	42.832
685.99	42.440
686.31	43.515
686.63	42.580
686.96	43.750
687.28	44.043
687.60	42.391
687.92	47.166
688.24	43.156
688.56	48.193
688.89	47.510
689.21	46.725
689.53	42.797
689.85	48.337
690.17	44.720
690.49	46.497
690.82	49.065
691.14	45.312
691.46	45.570
691.78	45.181
692.10	47.314
692.42	46.307
692.74	44.398
693.06	45.319
693.39	47.023
693.71	45.852
694.03	46.526
694.35	45.455
694.67	48.970
694.99	49.512
695.31	47.549
695.63	45.933
695.95	47.922
696.27	46.193
696.59	46.373
696.91	46.891
697.23	43.662
697.56	44.563
697.88	41.718
698.20	46.458
698.52	46.882
698.84	45.657
699.16	43.088
699.48	45.843
699.80	45.652
700.12	51.948
700.44	46.684
700.76	45.580
701.08	51.724
701.40	50.000
701.72	53.061
702.04	52.557
702.36	45.892
702.68	49.292
703.00	47.645
703.32	44.947
703.64	45.308
703.96	52.368
704.28	49.419
704.60	49.267
704.91	46.588
705.23	48.094
705.55	54.485
705.87	54.817
706.19	50.883
706.51	49.533
706.83	48.788
707.15	49.300
707.47	47.222
707.79	47.174
708.11	45.890
708.43	45.476
708.74	46.173
709.06	49.351
709.38	47.244
709.70	49.709
710.02	51.335
710.34	48.788
710.66	47.463
710.98	48.295
711.29	52.326
711.61	48.673
711.93	47.436
712.25	55.627
712.57	55.515
712.89	51.557
713.20	45.289
713.52	45.066
713.84	50.633
714.16	45.427
714.48	50.000
714.80	54.407
715.11	48.415
715.43	48.368
715.75	45.217
716.07	49.201
716.39	47.022
716.70	53.156
717.02	56.475
717.34	47.350
717.66	51.493
717.97	58.964
718.29	51.111
718.61	56.204
718.93	50.735
719.24	50.173
719.56	50.847
719.88	46.780
720.20	53.716
720.51	50.871
720.83	53.903
721.15	50.000
721.46	48.582
721.78	50.179
722.10	53.585
722.42	50.376
722.73	53.184
723.05	52.459
723.37	56.680
723.68	50.965
724.00	52.846
724.32	51.613
724.63	52.439
724.95	47.280
725.27	51.822
725.58	57.422
725.90	50.365
726.22	51.698
726.53	45.833
726.85	48.123
727.16	53.025
727.48	53.191
727.80	53.030
728.11	48.913
728.43	48.462
728.74	49.821
729.06	54.015
729.38	51.838
729.69	50.890
730.01	48.805
730.32	50.694
730.64	48.161
730.96	45.875
731.27	48.675
731.59	48.318
731.90	45.481
732.22	49.379
732.53	45.511
732.85	45.513
733.16	49.518
733.48	47.176
733.80	50.000
734.11	50.955
734.43	47.041
734.74	43.429
735.06	43.266
735.37	48.266
735.69	47.452
736.00	51.961
736.32	47.975
736.63	46.326
736.95	48.243
737.26	43.878
737.58	45.484
737.89	48.161
738.21	48.123
738.52	48.214
738.83	48.679
739.15	46.154
739.46	44.891
739.78	49.653
740.09	47.692
740.41	48.710
740.72	49.477
741.04	52.222
741.35	51.667
741.66	56.889
741.98	50.943
742.29	56.459
742.61	59.914
742.92	52.941
743.23	53.419
743.55	54.400
743.86	55.702
744.18	58.407
744.49	55.502
744.80	58.216
745.12	57.273
745.43	53.744
745.74	50.901
746.06	56.422
746.37	53.812
746.68	53.394
747.00	56.481
747.31	60.476
747.62	51.770
747.94	51.101
748.25	54.468
748.56	57.269
748.88	53.465
749.19	56.000
749.50	54.419
749.82	47.154
750.13	51.020
750.44	47.080
750.75	52.281
751.07	47.588
751.38	49.129
751.69	46.931
752.01	50.376
752.32	49.458
752.63	50.709
752.94	52.049
753.26	59.200
753.57	46.341
753.88	53.906
754.19	46.429
754.51	48.958
754.82	45.848
755.13	51.698
755.44	53.008
755.75	45.620
756.07	47.163
756.38	45.985
756.69	48.993
757.00	46.108
757.31	41.840
757.63	45.322
757.94	42.091
758.25	44.118
758.56	40.741
758.87	41.667
759.18	47.576
759.50	46.708
759.81	48.287
760.12	41.562
760.43	46.418
760.74	45.109
761.05	44.068
761.36	41.711
761.67	48.295
761.99	45.652
762.30	48.611
762.61	46.183
762.92	51.953
763.23	47.479
763.54	50.000
763.85	44.141
764.16	53.462
764.47	52.471
764.78	45.230
765.10	44.620
765.41	43.658
765.72	46.108
766.03	47.962
766.34	46.000
766.65	51.064
766.96	50.000
767.27	57.360
767.58	56.250
767.89	55.263
768.20	64.943
768.51	49.746
768.82	55.046
769.13	48.374
769.44	46.559
769.75	47.639
770.06	47.248
770.37	53.846
770.68	51.389
770.99	51.111
771.30	39.754
771.61	54.709
771.92	48.770
772.23	57.983
772.54	55.385
772.85	54.974
773.16	54.787
773.47	60.870
773.78	48.731
774.09	60.714
774.39	53.216
774.70	55.556
775.01	67.391
775.32	62.745
775.63	57.237
775.94	61.151
776.25	66.142
776.56	58.209
776.87	66.393
777.18	70.313
777.48	66.412
777.79	57.576
778.10	63.704
778.41	68.750
778.72	57.664
779.03	61.074
779.34	60.403
779.65	56.757
779.95	58.282
780.26	68.627
780.57	62.759
780.88	70.312
781.19	58.647
781.50	63.514
781.80	60.377
782.11	55.367
782.42	55.696
782.73	54.601
783.04	66.216
783.34	57.746
783.65	64.384
783.96	66.418
784.27	55.944
784.57	56.835
784.88	57.407
785.19	62.698
785.50	65.094
785.81	68.657
786.11	65.574
786.42	55.814
786.73	67.257
787.04	68.868
787.34	65.179
787.65	61.000
787.96	56.757
788.26	63.636
788.57	69.492
788.88	70.248
789.19	65.278
789.49	66.667
789.80	72.519
790.11	69.524
790.41	69.307
790.72	80.723
791.03	75.000
791.33	73.256
791.64	58.763
791.95	72.277
792.25	67.778
792.56	74.026
792.87	92.308
793.17	91.139
793.48	80.460
793.79	77.011
794.09	71.591
794.40	57.983
794.70	61.765
795.01	68.889
795.32	54.676
795.62	56.693
795.93	62.931
796.23	75.221
796.54	72.941
796.85	82.432
797.15	84.507
797.46	71.212
797.76	75.904
798.07	78.481
798.37	83.077
798.68	72.727
798.99	87.324
799.29	75.325
799.60	75.000
799.90	106.849
800.21	105.970
800.51	89.655
800.82	110.526
801.12	93.443
801.43	95.455
801.73	82.432
802.04	104.762
802.34	91.358
802.65	90.625
802.95	94.915
803.26	101.563
803.56	78.571
803.87	84.615
804.17	91.176
804.48	125.926
804.78	98.276
805.09	83.824
805.39	101.923
805.70	96.429
806.00	91.803
806.30	80.303
806.61	75.610
806.91	78.481
807.22	69.737
807.52	68.657
807.83	84.507
808.13	95.312
808.43	93.333
808.74	78.947
809.04	84.058
809.35	91.045
809.65	84.211
809.95	108.065
810.26	93.220
810.56	107.937
810.86	122.727
811.17	161.905
811.47	110.000
811.77	109.259
812.08	98.182
812.38	118.000
812.69	141.667
812.99	131.818
813.29	128.571
813.59	69.048
813.90	106.122
814.20	100.000
814.50	78.462
814.81	102.941
815.11	100.000
815.41	95.082
815.72	123.810
816.02	123.636
816.32	111.905
816.62	107.500
816.93	102.439
817.23	111.905
817.53	115.909
817.84	172.727
818.14	128.261
818.44	126.667
818.74	155.882
819.04	137.500
819.35	114.286
819.65	155.882
819.95	164.286
820.25	200.000
820.56	128.205
820.86	115.909
821.16	125.581
821.46	117.949
821.76	110.000
822.07	131.429
822.37	130.000
822.67	169.697
822.97	96.078
823.27	153.571
823.57	121.622
823.88	150.000
824.18	170.000
824.48	147.619
824.78	180.000
825.08	175.000
825.38	121.622
825.69	129.268
825.99	187.500
826.29	151.724
826.59	121.053
826.89	128.947
827.19	150.000
827.49	161.290
827.79	120.455
828.09	115.909
828.39	104.255
828.70	116.327
829.00	185.185
829.30	125.806
829.60	112.500
829.90	246.667
830.20	167.857
830.50	134.783
830.80	178.261
831.10	163.333
831.40	170.000
831.70	178.261
832.00	200.000
832.30	151.852
832.60	218.750
832.90	163.333
833.20	285.714
833.50	161.290
833.80	144.828
834.10	184.375
834.40	203.846
834.70	277.778
835.00	276.190
835.30	134.286
835.60	230.769
835.90	186.207
836.20	271.429
836.50	165.517
836.80	136.000
837.10	172.222
837.40	190.476
837.70	252.941
838.00	162.963
838.30	195.238
838.60	209.524
838.90	230.769
839.19	230.000
839.49	307.143
839.79	280.000
840.09	215.000
840.39	204.762
840.69	208.696
840.99	233.333
841.29	370.000
841.59	241.667
841.88	268.750
842.18	186.207
842.48	247.619
842.78	140.000
843.08	160.870
843.38	159.375
843.68	550.000
843.97	161.538
844.27	158.621
844.57	209.524
844.87	287.500
845.17	174.074
845.47	1066.667
845.76	344.444
846.06	258.824
846.36	425.000
846.66	314.286
846.96	268.750
847.25	300.000
847.55	381.818
847.85	204.348
848.15	340.000
848.44	300.000
848.74	172.222
849.04	241.176
849.34	430.000
849.63	189.474
849.93	418.182
850.23	580.000
850.53	328.571
850.82	1800.000
851.12	-3200.000
851.42	3100.000
851.71	230.000
852.01	-1033.333
852.31	187.500
852.61	1066.667
852.90	209.524
853.20	188.000
853.50	241.176
853.79	204.762
854.09	145.833
854.39	287.500
854.68	143.243
854.98	135.484
855.28	140.000
855.57	210.345
855.87	166.667
856.17	215.789
856.46	220.000
856.76	205.882
857.05	151.724
857.35	154.167
857.65	213.333
857.94	195.652
858.24	219.231
858.53	250.000
858.83	236.364
859.13	273.333
859.42	0.000
859.72	444.444
860.01	390.909
860.31	209.091
860.60	210.526
860.90	169.565
861.20	488.889
861.49	466.667
861.79	-3300.000
862.08	575.000
862.38	233.333
862.67	192.308
862.97	282.353
863.26	322.222
863.56	211.111
863.85	375.000
864.15	337.500
864.44	313.333
864.74	683.333
865.03	425.000
865.33	200.000
865.62	345.455
865.92	292.308
866.21	183.333
866.51	0.000
866.80	327.273
867.10	880.000
867.39	315.385
867.69	227.273
867.98	221.053
868.27	300.000
868.57	205.263
868.86	-3200.000
869.16	256.250
869.45	1350.000
869.75	-2600.000
870.04	375.000
870.33	585.714
870.63	950.000
870.92	1900.000
871.22	585.714
871.51	241.176
871.80	138.095
872.10	314.286
>>>>>End Processed Spectral Data<<<<<
