SpectraSuite Data File
++++++++++++++++++++++++++++++++++++
Date: Wed May 13 16:51:29 PDT 2015
User: schluterlab
Dark Spectrum Present: Yes
Reference Spectrum Present: Yes
Number of Sampled Component Spectra: 1
Spectrometers: USB2E3373
Integration Time (usec): 3000 (USB2E3373)
Spectra Averaged: 3 (USB2E3373)
Boxcar Smoothing: 0 (USB2E3373)
Correct for Electrical Dark: No (USB2E3373)
Strobe/Lamp Enabled: No (USB2E3373)
Correct for Detector Non-linearity: No (USB2E3373)
Correct for Stray Light: No (USB2E3373)
Number of Pixels in Processed Spectrum: 2048
>>>>>Begin Processed Spectral Data<<<<<
178.53	0.000
178.91	-1275.000
179.29	-900.000
179.67	-183.333
180.04	-1350.000
180.42	2600.000
180.80	1060.000
181.18	-1175.000
181.56	728.571
181.94	0.000
182.31	-442.857
182.69	1400.000
183.07	-512.500
183.45	-522.222
183.83	536.364
184.20	-400.000
184.58	2800.000
184.96	6100.000
185.34	-940.000
185.72	-512.500
186.09	-2250.000
186.47	2150.000
186.85	2250.000
187.23	4200.000
187.61	-1666.667
187.98	1350.000
188.36	509.091
188.74	518.182
189.12	-980.000
189.49	570.000
189.87	-5300.000
190.25	-1050.000
190.63	342.857
191.00	384.615
191.38	800.000
191.76	-975.000
192.14	1250.000
192.51	587.500
192.89	816.667
193.27	562.500
193.65	-1050.000
194.02	460.000
194.40	1000.000
194.78	470.000
195.15	450.000
195.53	620.000
195.91	-2400.000
196.29	387.500
196.66	342.105
197.04	-320.000
197.42	0.000
197.79	500.000
198.17	-4000.000
198.55	614.286
198.92	662.500
199.30	920.000
199.68	0.000
200.05	355.556
200.43	771.429
200.81	3900.000
201.18	1766.667
201.56	-1600.000
201.94	577.778
202.31	644.444
202.69	433.333
203.07	640.000
203.44	0.000
203.82	950.000
204.19	914.286
204.57	485.714
204.95	662.500
205.32	1266.667
205.70	581.818
206.08	421.429
206.45	2450.000
206.83	356.250
207.20	966.667
207.58	860.000
207.96	327.778
208.33	762.500
208.71	-850.000
209.08	800.000
209.46	611.111
209.84	527.273
210.21	-1833.333
210.59	1425.000
210.96	-412.500
211.34	2800.000
211.71	550.000
212.09	800.000
212.46	0.000
212.84	1600.000
213.22	1025.000
213.59	-4200.000
213.97	950.000
214.34	728.571
214.72	545.455
215.09	960.000
215.47	-2500.000
215.84	-2350.000
216.22	1766.667
216.59	407.143
216.97	1450.000
217.34	454.545
217.72	-900.000
218.09	0.000
218.47	-4000.000
218.84	611.111
219.22	785.714
219.59	1566.667
219.97	-542.857
220.34	960.000
220.72	-1633.333
221.09	407.143
221.47	1625.000
221.84	-766.667
222.22	0.000
222.59	1375.000
222.97	-2150.000
223.34	1160.000
223.72	407.692
224.09	1060.000
224.46	2200.000
224.84	-5200.000
225.21	-1020.000
225.59	-3800.000
225.96	650.000
226.34	300.000
226.71	2650.000
227.08	687.500
227.46	500.000
227.83	-925.000
228.21	-2300.000
228.58	544.444
228.95	-2150.000
229.33	-2250.000
229.70	1633.333
230.08	728.571
230.45	-740.000
230.82	416.667
231.20	916.667
231.57	585.714
231.95	408.333
232.32	218.182
232.69	345.455
233.07	571.429
233.44	323.077
233.81	-1666.667
234.19	268.421
234.56	441.667
234.93	358.333
235.31	354.545
235.68	346.154
236.05	321.429
236.43	184.848
236.80	263.158
237.17	4000.000
237.55	147.619
237.92	207.143
238.29	247.619
238.67	170.968
239.04	158.621
239.41	130.556
239.79	102.174
240.16	119.048
240.53	118.182
240.91	84.314
241.28	92.000
241.65	90.000
242.02	81.159
242.40	64.516
242.77	81.667
243.14	59.140
243.51	67.416
243.89	56.471
244.26	57.778
244.63	60.215
245.00	42.553
245.38	36.634
245.75	42.056
246.12	41.284
246.49	40.146
246.87	48.000
247.24	37.692
247.61	38.571
247.98	37.255
248.36	33.108
248.73	33.758
249.10	32.484
249.47	33.333
249.84	32.086
250.22	33.690
250.59	24.260
250.96	31.818
251.33	24.171
251.70	30.198
252.08	25.238
252.45	23.767
252.82	20.870
253.19	20.426
253.56	23.529
253.94	29.876
254.31	21.484
254.68	25.000
255.05	23.247
255.42	22.764
255.79	21.691
256.16	22.744
256.54	16.254
256.91	20.641
257.28	14.748
257.65	20.462
258.02	21.739
258.39	20.505
258.76	14.716
259.14	17.857
259.51	20.973
259.88	13.975
260.25	14.804
260.62	18.497
260.99	17.081
261.36	21.622
261.73	15.473
262.10	14.826
262.47	17.465
262.85	15.320
263.22	12.536
263.59	17.094
263.96	16.209
264.33	15.927
264.70	15.000
265.07	15.601
265.44	13.889
265.81	11.922
266.18	14.573
266.55	13.659
266.92	14.988
267.29	14.583
267.66	12.615
268.03	14.318
268.40	14.720
268.77	11.933
269.14	12.838
269.51	14.221
269.88	13.287
270.25	14.221
270.62	13.258
270.99	16.774
271.36	13.948
271.73	13.084
272.10	11.304
272.47	13.333
272.84	14.286
273.21	13.836
273.58	13.100
273.95	12.788
274.32	12.810
274.69	14.775
275.06	11.811
275.43	11.277
275.80	13.226
276.17	11.813
276.54	11.435
276.91	11.858
277.28	12.695
277.65	11.219
278.02	12.008
278.39	13.086
278.76	11.636
279.13	11.321
279.50	12.477
279.87	12.151
280.23	12.575
280.60	12.573
280.97	12.384
281.34	11.858
281.71	12.909
282.08	14.395
282.45	10.545
282.82	10.835
283.19	9.447
283.56	10.702
283.92	12.183
284.29	11.817
284.66	11.071
285.03	9.403
285.40	10.739
285.77	11.616
286.14	8.636
286.51	11.500
286.87	10.256
287.24	11.726
287.61	11.236
287.98	11.039
288.35	10.935
288.72	9.657
289.08	10.172
289.45	9.061
289.82	11.057
290.19	10.518
290.56	8.882
290.93	9.215
291.29	9.969
291.66	8.997
292.03	11.047
292.40	11.747
292.77	10.651
293.13	10.149
293.50	10.058
293.87	9.037
294.24	7.852
294.60	9.025
294.97	7.994
295.34	11.566
295.71	10.085
296.08	10.826
296.44	9.216
296.81	8.983
297.18	9.350
297.55	7.124
297.91	9.103
298.28	8.969
298.65	8.616
299.02	9.618
299.38	9.031
299.75	6.199
300.12	7.918
300.48	9.125
300.85	8.261
301.22	8.662
301.59	7.576
301.95	9.320
302.32	9.114
302.69	9.080
303.05	6.667
303.42	9.383
303.79	8.154
304.15	8.508
304.52	8.575
304.89	7.898
305.25	8.237
305.62	10.419
305.99	9.209
306.35	7.606
306.72	8.408
307.09	10.100
307.45	10.135
307.82	7.366
308.19	9.161
308.55	8.954
308.92	9.452
309.29	9.398
309.65	8.271
310.02	10.359
310.38	8.495
310.75	9.715
311.12	11.157
311.48	9.718
311.85	11.426
312.22	10.406
312.58	10.395
312.95	11.088
313.31	10.388
313.68	11.331
314.05	12.426
314.41	11.457
314.78	11.883
315.14	11.817
315.51	12.667
315.87	12.079
316.24	12.612
316.61	12.476
316.97	11.937
317.34	13.307
317.70	14.532
318.07	14.629
318.43	14.579
318.80	14.152
319.16	15.725
319.53	14.916
319.89	15.810
320.26	17.100
320.62	14.683
320.99	17.576
321.35	17.677
321.72	18.583
322.08	19.447
322.45	20.000
322.81	18.992
323.18	19.461
323.54	19.944
323.91	21.038
324.27	22.275
324.64	20.224
325.00	21.371
325.37	22.202
325.73	24.057
326.10	23.477
326.46	22.670
326.83	24.763
327.19	24.509
327.56	24.390
327.92	25.809
328.29	27.152
328.65	27.808
329.01	27.708
329.38	26.735
329.74	27.239
330.11	27.333
330.47	27.181
330.84	28.493
331.20	28.415
331.56	27.431
331.93	28.333
332.29	29.104
332.66	27.876
333.02	28.245
333.38	28.636
333.75	28.342
334.11	28.559
334.48	28.128
334.84	28.676
335.20	29.636
335.57	28.830
335.93	28.571
336.29	28.114
336.66	29.757
337.02	28.416
337.38	28.796
337.75	28.431
338.11	29.006
338.47	29.466
338.84	29.789
339.20	29.266
339.56	29.106
339.93	29.000
340.29	29.167
340.65	28.788
341.02	29.058
341.38	30.694
341.74	28.772
342.11	29.694
342.47	28.722
342.83	28.938
343.20	31.169
343.56	28.812
343.92	29.123
344.28	30.527
344.65	29.837
345.01	29.125
345.37	28.473
345.73	30.541
346.10	28.900
346.46	29.915
346.82	29.077
347.19	29.073
347.55	29.475
347.91	30.097
348.27	30.649
348.63	30.017
349.00	30.178
349.36	30.049
349.72	29.270
350.08	30.146
350.45	30.431
350.81	29.732
351.17	30.146
351.53	30.057
351.89	29.290
352.26	31.097
352.62	30.072
352.98	29.254
353.34	29.992
353.70	29.542
354.07	29.919
354.43	29.365
354.79	28.801
355.15	30.806
355.51	30.296
355.87	30.367
356.24	30.537
356.60	28.869
356.96	29.686
357.32	30.989
357.68	31.102
358.04	30.800
358.40	30.008
358.77	30.908
359.13	30.466
359.49	29.569
359.85	29.762
360.21	28.947
360.57	31.051
360.93	30.769
361.29	30.385
361.66	30.031
362.02	30.373
362.38	29.582
362.74	30.208
363.10	29.756
363.46	30.301
363.82	31.141
364.18	30.323
364.54	31.649
364.90	30.099
365.26	30.735
365.62	30.679
365.98	29.876
366.35	30.731
366.71	30.658
367.07	31.245
367.43	31.277
367.79	31.834
368.15	31.897
368.51	31.105
368.87	31.763
369.23	32.114
369.59	31.354
369.95	31.985
370.31	31.980
370.67	31.739
371.03	31.685
371.39	31.851
371.75	31.176
372.11	31.508
372.47	31.891
372.83	32.277
373.19	32.298
373.55	32.742
373.91	33.432
374.27	31.615
374.63	32.655
374.99	32.698
375.35	32.031
375.71	32.557
376.07	32.853
376.42	33.494
376.78	33.267
377.14	32.157
377.50	33.113
377.86	32.380
378.22	32.743
378.58	31.266
378.94	32.558
379.30	33.588
379.66	33.629
380.02	33.661
380.38	32.908
380.74	32.893
381.09	33.007
381.45	33.989
381.81	33.292
382.17	34.395
382.53	33.899
382.89	34.444
383.25	34.271
383.61	34.882
383.97	34.647
384.32	33.125
384.68	33.643
385.04	34.173
385.40	32.384
385.76	34.029
386.12	34.780
386.48	34.172
386.83	34.766
387.19	35.374
387.55	34.694
387.91	34.160
388.27	35.071
388.62	34.972
388.98	34.275
389.34	34.856
389.70	34.457
390.06	35.995
390.42	35.084
390.77	35.369
391.13	35.609
391.49	35.152
391.85	35.391
392.20	34.574
392.56	34.280
392.92	33.961
393.28	34.320
393.64	34.892
393.99	34.270
394.35	34.429
394.71	34.128
395.07	34.081
395.42	35.352
395.78	34.860
396.14	34.513
396.50	36.216
396.85	35.029
397.21	33.970
397.57	34.842
397.92	35.036
398.28	33.184
398.64	34.588
399.00	33.352
399.35	33.785
399.71	33.912
400.07	35.482
400.42	35.031
400.78	33.896
401.14	34.512
401.49	34.866
401.85	32.849
402.21	33.653
402.57	34.423
402.92	35.246
403.28	34.603
403.63	34.839
403.99	34.140
404.35	34.061
404.70	34.412
405.06	32.848
405.42	34.124
405.77	33.600
406.13	32.393
406.49	33.412
406.84	33.963
407.20	32.506
407.55	33.376
407.91	33.133
408.27	32.802
408.62	33.474
408.98	33.272
409.34	33.333
409.69	34.194
410.05	33.457
410.40	33.394
410.76	34.827
411.11	32.509
411.47	33.099
411.83	33.354
412.18	32.962
412.54	33.437
412.89	33.373
413.25	32.999
413.60	33.354
413.96	32.119
414.31	33.597
414.67	33.333
415.03	32.715
415.38	34.343
415.74	32.990
416.09	32.920
416.45	34.070
416.80	33.708
417.16	34.048
417.51	33.444
417.87	32.755
418.22	33.249
418.58	34.022
418.93	32.801
419.29	33.355
419.64	33.438
420.00	33.232
420.35	33.101
420.71	33.293
421.06	32.160
421.42	33.626
421.77	33.352
422.12	32.566
422.48	32.650
422.83	34.188
423.19	33.315
423.54	32.966
423.90	32.580
424.25	32.663
424.61	33.333
424.96	33.353
425.31	33.112
425.67	32.416
426.02	32.971
426.38	33.089
426.73	32.124
427.09	32.644
427.44	34.963
427.79	32.605
428.15	32.619
428.50	32.768
428.85	33.373
429.21	32.413
429.56	33.437
429.92	33.065
430.27	33.217
430.62	32.668
430.98	32.693
431.33	32.113
431.68	32.827
432.04	32.428
432.39	32.267
432.74	32.555
433.10	32.994
433.45	32.420
433.80	32.871
434.16	32.212
434.51	32.000
434.86	32.668
435.22	33.130
435.57	33.313
435.92	32.709
436.28	33.749
436.63	32.561
436.98	32.570
437.34	33.154
437.69	33.022
438.04	33.165
438.39	32.239
438.75	33.585
439.10	32.570
439.45	32.940
439.81	32.568
440.16	32.806
440.51	32.396
440.86	32.484
441.22	33.148
441.57	32.325
441.92	33.112
442.27	32.454
442.63	32.649
442.98	33.408
443.33	33.370
443.68	32.370
444.03	32.699
444.39	31.938
444.74	32.630
445.09	31.375
445.44	32.039
445.79	31.865
446.15	32.345
446.50	32.256
446.85	32.220
447.20	32.534
447.55	32.998
447.91	32.653
448.26	33.111
448.61	32.561
448.96	33.056
449.31	33.015
449.66	32.696
450.02	31.253
450.37	31.463
450.72	32.431
451.07	31.993
451.42	31.611
451.77	33.353
452.12	31.755
452.47	32.276
452.83	32.401
453.18	31.785
453.53	32.653
453.88	32.073
454.23	31.680
454.58	32.950
454.93	32.804
455.28	30.736
455.63	32.039
455.98	33.512
456.34	31.910
456.69	32.498
457.04	32.693
457.39	31.444
457.74	32.327
458.09	31.972
458.44	32.440
458.79	30.043
459.14	32.280
459.49	32.224
459.84	30.914
460.19	31.762
460.54	30.845
460.89	32.090
461.24	32.665
461.59	33.120
461.94	31.443
462.29	32.641
462.64	32.227
462.99	32.010
463.34	32.400
463.69	31.645
464.04	31.710
464.39	31.072
464.74	31.907
465.09	31.785
465.44	30.637
465.79	30.313
466.14	30.870
466.49	30.701
466.84	31.524
467.19	30.779
467.54	31.375
467.89	31.032
468.24	31.763
468.59	32.051
468.94	30.971
469.29	32.326
469.64	32.463
469.99	31.800
470.34	31.176
470.68	32.328
471.03	31.361
471.38	31.411
471.73	32.112
472.08	32.434
472.43	31.407
472.78	30.612
473.13	31.194
473.48	32.022
473.83	30.610
474.17	30.989
474.52	31.203
474.87	31.349
475.22	31.109
475.57	29.608
475.92	29.952
476.27	30.496
476.61	29.730
476.96	30.511
477.31	30.665
477.66	30.142
478.01	29.744
478.36	30.936
478.70	30.633
479.05	30.032
479.40	29.939
479.75	29.588
480.10	30.368
480.45	29.319
480.79	29.240
481.14	30.724
481.49	29.521
481.84	29.081
482.19	29.396
482.53	29.817
482.88	29.642
483.23	29.252
483.58	29.117
483.92	28.960
484.27	28.671
484.62	28.793
484.97	28.577
485.31	30.308
485.66	28.884
486.01	27.856
486.36	26.603
486.70	25.604
487.05	26.387
487.40	26.890
487.75	27.108
488.09	27.540
488.44	27.318
488.79	28.463
489.13	28.113
489.48	28.793
489.83	28.269
490.17	29.242
490.52	28.344
490.87	28.810
491.22	26.739
491.56	27.745
491.91	28.060
492.26	28.250
492.60	27.880
492.95	27.689
493.30	28.178
493.64	28.698
493.99	28.041
494.34	28.677
494.68	27.656
495.03	28.853
495.37	27.594
495.72	28.070
496.07	27.610
496.41	26.991
496.76	26.957
497.11	26.880
497.45	27.247
497.80	27.207
498.14	26.957
498.49	27.220
498.84	27.948
499.18	27.048
499.53	27.540
499.87	27.726
500.22	26.990
500.56	27.233
500.91	27.500
501.26	27.738
501.60	27.954
501.95	27.085
502.29	27.554
502.64	27.142
502.98	27.583
503.33	26.005
503.67	27.425
504.02	26.848
504.36	26.439
504.71	26.429
505.06	27.566
505.40	26.835
505.75	26.615
506.09	26.482
506.44	27.035
506.78	26.790
507.13	26.805
507.47	27.323
507.82	26.950
508.16	26.596
508.51	27.549
508.85	26.216
509.19	26.939
509.54	26.480
509.88	27.048
510.23	26.581
510.57	26.883
510.92	26.774
511.26	26.670
511.61	27.178
511.95	26.409
512.30	25.928
512.64	26.545
512.98	26.956
513.33	26.392
513.67	24.973
514.02	26.136
514.36	26.761
514.70	26.065
515.05	25.321
515.39	26.697
515.74	26.239
516.08	26.328
516.42	26.360
516.77	26.087
517.11	24.362
517.46	26.354
517.80	26.597
518.14	25.651
518.49	26.429
518.83	26.364
519.17	25.115
519.52	26.372
519.86	26.070
520.20	26.705
520.55	27.349
520.89	26.886
521.23	26.719
521.58	25.930
521.92	26.761
522.26	25.320
522.61	25.857
522.95	26.151
523.29	25.015
523.64	25.915
523.98	26.741
524.32	25.513
524.66	24.895
525.01	25.674
525.35	25.960
525.69	24.754
526.04	24.735
526.38	25.808
526.72	25.706
527.06	24.984
527.41	24.134
527.75	25.466
528.09	25.819
528.43	25.621
528.78	26.060
529.12	24.727
529.46	24.985
529.80	25.000
530.15	25.670
530.49	24.492
530.83	26.076
531.17	25.457
531.51	26.135
531.86	25.226
532.20	25.619
532.54	24.920
532.88	24.968
533.22	24.735
533.57	25.556
533.91	24.383
534.25	24.423
534.59	24.527
534.93	24.152
535.27	25.166
535.62	24.420
535.96	24.796
536.30	24.730
536.64	24.726
536.98	25.680
537.32	25.477
537.66	24.800
538.01	24.951
538.35	25.145
538.69	25.016
539.03	24.366
539.37	23.898
539.71	22.942
540.05	24.575
540.39	23.987
540.73	24.644
541.07	24.075
541.42	24.723
541.76	25.161
542.10	24.321
542.44	23.974
542.78	24.835
543.12	22.841
543.46	24.721
543.80	23.748
544.14	24.069
544.48	24.127
544.82	23.797
545.16	23.227
545.50	23.843
545.84	24.126
546.18	23.569
546.52	24.295
546.86	23.643
547.20	23.533
547.54	24.449
547.88	24.426
548.22	23.973
548.56	22.956
548.90	23.367
549.24	23.771
549.58	24.216
549.92	23.764
550.26	24.077
550.60	23.651
550.94	23.451
551.28	23.336
551.62	23.796
551.96	23.228
552.30	24.778
552.64	23.191
552.98	24.136
553.32	22.589
553.66	23.722
554.00	23.610
554.34	23.671
554.68	23.677
555.02	22.355
555.36	23.243
555.69	22.192
556.03	22.275
556.37	23.192
556.71	22.510
557.05	23.319
557.39	22.533
557.73	21.454
558.07	22.770
558.41	23.444
558.75	22.777
559.08	22.968
559.42	23.885
559.76	23.235
560.10	22.555
560.44	23.340
560.78	21.823
561.12	21.966
561.45	22.816
561.79	22.544
562.13	21.797
562.47	22.404
562.81	22.524
563.15	22.074
563.48	22.016
563.82	21.526
564.16	21.910
564.50	20.703
564.84	21.681
565.17	21.815
565.51	21.661
565.85	22.335
566.19	21.102
566.52	22.546
566.86	21.218
567.20	21.639
567.54	22.546
567.88	21.076
568.21	21.481
568.55	21.082
568.89	21.012
569.23	20.722
569.56	20.202
569.90	19.849
570.24	20.093
570.57	20.095
570.91	19.586
571.25	19.796
571.59	19.175
571.92	19.268
572.26	19.209
572.60	19.550
572.93	18.471
573.27	19.284
573.61	20.045
573.95	19.380
574.28	18.920
574.62	18.780
574.96	18.829
575.29	18.453
575.63	18.725
575.97	18.953
576.30	19.012
576.64	18.524
576.98	18.741
577.31	18.554
577.65	18.675
577.98	18.737
578.32	18.249
578.66	18.532
578.99	18.306
579.33	18.276
579.67	18.511
580.00	18.629
580.34	18.533
580.67	17.892
581.01	18.642
581.35	18.163
581.68	18.412
582.02	17.789
582.35	17.794
582.69	18.078
583.02	18.246
583.36	18.238
583.70	18.207
584.03	18.339
584.37	19.025
584.70	18.574
585.04	18.346
585.37	18.453
585.71	18.210
586.04	18.483
586.38	18.260
586.72	18.641
587.05	18.120
587.39	18.285
587.72	18.707
588.06	18.223
588.39	18.436
588.73	18.187
589.06	18.573
589.40	18.485
589.73	18.726
590.07	18.968
590.40	18.560
590.73	19.243
591.07	19.740
591.40	19.570
591.74	19.307
592.07	18.848
592.41	19.471
592.74	19.064
593.08	18.188
593.41	18.507
593.75	18.270
594.08	18.639
594.41	18.487
594.75	18.447
595.08	18.540
595.42	18.179
595.75	17.984
596.09	18.438
596.42	19.175
596.75	19.080
597.09	19.221
597.42	18.002
597.75	18.370
598.09	18.609
598.42	18.299
598.76	17.957
599.09	17.978
599.42	17.431
599.76	17.826
600.09	17.996
600.42	17.750
600.76	17.286
601.09	17.923
601.42	18.341
601.76	17.875
602.09	18.261
602.42	18.551
602.76	18.541
603.09	18.883
603.42	18.626
603.76	18.140
604.09	18.030
604.42	18.100
604.76	19.359
605.09	18.261
605.42	18.598
605.75	18.046
606.09	17.731
606.42	17.613
606.75	18.291
607.09	18.418
607.42	17.929
607.75	17.300
608.08	17.325
608.42	18.826
608.75	17.854
609.08	18.640
609.41	18.134
609.75	18.866
610.08	18.285
610.41	18.296
610.74	18.543
611.07	18.824
611.41	19.087
611.74	18.753
612.07	18.789
612.40	19.203
612.73	18.105
613.07	19.504
613.40	18.747
613.73	18.039
614.06	18.817
614.39	18.458
614.72	18.316
615.06	18.540
615.39	18.206
615.72	18.047
616.05	17.544
616.38	18.510
616.71	19.181
617.05	18.787
617.38	18.942
617.71	18.318
618.04	18.990
618.37	18.924
618.70	19.415
619.03	19.605
619.36	19.552
619.69	18.944
620.03	19.505
620.36	18.650
620.69	20.068
621.02	18.879
621.35	17.463
621.68	19.159
622.01	19.969
622.34	19.213
622.67	19.924
623.00	18.562
623.33	18.370
623.66	19.157
623.99	19.219
624.32	20.043
624.65	18.644
624.99	17.847
625.32	18.755
625.65	19.159
625.98	19.370
626.31	19.673
626.64	19.184
626.97	20.615
627.30	18.454
627.63	19.196
627.96	19.596
628.29	19.598
628.62	20.037
628.95	20.660
629.28	20.347
629.61	19.523
629.94	20.476
630.26	18.875
630.59	19.447
630.92	19.349
631.25	19.743
631.58	20.521
631.91	19.675
632.24	19.620
632.57	21.301
632.90	20.504
633.23	20.022
633.56	20.678
633.89	20.951
634.22	19.637
634.55	21.775
634.88	19.880
635.20	20.669
635.53	20.843
635.86	22.153
636.19	20.353
636.52	20.300
636.85	20.160
637.18	21.429
637.51	21.277
637.83	19.975
638.16	22.251
638.49	20.781
638.82	20.607
639.15	21.125
639.48	22.818
639.81	21.180
640.13	22.266
640.46	22.550
640.79	20.872
641.12	19.532
641.45	20.391
641.77	20.913
642.10	21.053
642.43	21.772
642.76	22.446
643.09	24.080
643.41	20.941
643.74	22.685
644.07	22.104
644.40	23.620
644.73	23.465
645.05	24.723
645.38	20.853
645.71	22.383
646.04	22.591
646.36	25.376
646.69	24.582
647.02	22.109
647.35	23.196
647.67	23.009
648.00	23.252
648.33	21.617
648.66	20.909
648.98	22.339
649.31	20.329
649.64	20.628
649.96	22.504
650.29	23.065
650.62	21.036
650.94	23.015
651.27	22.635
651.60	22.629
651.92	21.885
652.25	19.707
652.58	22.274
652.90	22.907
653.23	20.801
653.56	21.575
653.88	23.772
654.21	22.749
654.54	23.762
654.86	22.274
655.19	21.622
655.52	14.585
655.84	12.353
656.17	15.666
656.49	21.527
656.82	22.186
657.15	16.571
657.47	12.381
657.80	9.628
658.13	10.110
658.45	14.932
658.78	15.418
659.10	16.015
659.43	16.678
659.75	17.820
660.08	19.937
660.41	22.067
660.73	23.634
661.06	23.726
661.38	25.455
661.71	25.000
662.03	24.260
662.36	21.471
662.68	27.108
663.01	25.455
663.33	22.293
663.66	23.739
663.98	23.110
664.31	24.160
664.63	24.494
664.96	21.932
665.28	25.410
665.61	22.807
665.93	21.730
666.26	22.110
666.58	21.967
666.91	24.947
667.23	24.270
667.56	23.974
667.88	25.214
668.21	26.866
668.53	24.512
668.86	23.810
669.18	23.241
669.50	26.522
669.83	25.926
670.15	22.889
670.48	25.490
670.80	22.629
671.13	23.567
671.45	22.766
671.77	25.458
672.10	23.660
672.42	23.852
672.75	22.222
673.07	22.711
673.39	22.061
673.72	23.633
674.04	21.569
674.37	21.942
674.69	22.290
675.01	22.594
675.34	24.846
675.66	25.053
675.98	24.033
676.31	24.370
676.63	24.628
676.95	24.109
677.28	24.299
677.60	22.418
677.92	26.371
678.25	22.587
678.57	21.912
678.89	22.445
679.22	21.611
679.54	24.046
679.86	24.954
680.18	20.036
680.51	21.277
680.83	23.310
681.15	24.340
681.48	23.251
681.80	21.470
682.12	24.138
682.44	19.729
682.77	21.996
683.09	26.609
683.41	23.503
683.73	22.296
684.06	24.793
684.38	21.722
684.70	23.256
685.02	21.764
685.34	21.795
685.67	19.406
685.99	20.447
686.31	19.795
686.63	19.258
686.96	20.536
687.28	21.300
687.60	21.377
687.92	22.121
688.24	22.243
688.56	22.088
688.89	23.444
689.21	24.236
689.53	24.426
689.85	23.947
690.17	22.360
690.49	24.628
690.82	23.131
691.14	21.875
691.46	22.996
691.78	23.896
692.10	22.934
692.42	22.954
692.74	20.124
693.06	22.766
693.39	22.998
693.71	24.236
694.03	22.316
694.35	21.212
694.67	23.570
694.99	23.415
695.31	24.265
695.63	20.574
695.95	24.939
696.27	20.051
696.59	24.870
696.91	26.684
697.23	19.953
697.56	25.373
697.88	20.450
698.20	23.750
698.52	21.935
698.84	24.499
699.16	23.041
699.48	23.990
699.80	25.121
700.12	25.455
700.44	25.464
700.76	26.243
701.08	27.011
701.40	27.654
701.72	30.321
702.04	28.693
702.36	24.363
702.68	24.929
703.00	23.823
703.32	25.798
703.64	23.861
703.96	26.741
704.28	25.291
704.60	26.393
704.91	28.190
705.23	25.513
705.55	29.568
705.87	26.246
706.19	23.322
706.51	29.595
706.83	30.303
707.15	26.891
707.47	23.990
707.79	24.816
708.11	26.712
708.43	25.952
708.74	24.235
709.06	24.156
709.38	21.522
709.70	25.000
710.02	30.267
710.34	26.667
710.66	25.970
710.98	26.136
711.29	27.035
711.61	27.729
711.93	26.603
712.25	28.296
712.57	27.206
712.89	28.374
713.20	26.444
713.52	30.921
713.84	26.582
714.16	26.524
714.48	27.874
714.80	27.356
715.11	25.937
715.43	27.300
715.75	26.957
716.07	25.879
716.39	28.213
716.70	29.900
717.02	29.496
717.34	30.742
717.66	33.582
717.97	31.873
718.29	30.741
718.61	28.102
718.93	29.779
719.24	30.104
719.56	25.763
719.88	26.780
720.20	27.703
720.51	33.101
720.83	30.855
721.15	26.119
721.46	30.496
721.78	26.523
722.10	29.811
722.42	33.459
722.73	29.588
723.05	28.279
723.37	26.316
723.68	34.363
724.00	28.455
724.32	30.242
724.63	30.488
724.95	29.707
725.27	35.223
725.58	28.125
725.90	34.307
726.22	28.679
726.53	30.208
726.85	27.304
727.16	28.470
727.48	28.723
727.80	27.273
728.11	29.348
728.43	28.462
728.74	29.391
729.06	27.372
729.38	31.618
729.69	28.826
730.01	22.867
730.32	27.083
730.64	27.759
730.96	23.762
731.27	31.126
731.59	28.135
731.90	29.155
732.22	26.708
732.53	27.864
732.85	27.885
733.16	26.045
733.48	28.239
733.80	28.896
734.11	28.662
734.43	27.219
734.74	24.857
735.06	23.209
735.37	24.277
735.69	25.159
736.00	28.431
736.32	31.153
736.63	26.198
736.95	28.435
737.26	18.707
737.58	24.194
737.89	28.094
738.21	29.352
738.52	29.643
738.83	30.566
739.15	26.154
739.46	27.007
739.78	26.736
740.09	27.077
740.41	28.065
740.72	25.436
741.04	25.556
741.35	29.583
741.66	34.667
741.98	26.415
742.29	35.407
742.61	36.207
742.92	26.244
743.23	30.342
743.55	33.600
743.86	30.263
744.18	30.531
744.49	31.579
744.80	32.394
745.12	36.364
745.43	29.515
745.74	36.486
746.06	34.862
746.37	35.874
746.68	29.864
747.00	36.574
747.31	35.238
747.62	28.319
747.94	30.837
748.25	30.638
748.56	30.396
748.88	32.673
749.19	35.500
749.50	29.767
749.82	29.268
750.13	25.714
750.44	28.102
750.75	28.070
751.07	28.939
751.38	32.404
751.69	27.437
752.01	27.068
752.32	31.408
752.63	29.433
752.94	31.967
753.26	34.000
753.57	26.423
753.88	31.250
754.19	28.571
754.51	33.681
754.82	23.466
755.13	27.547
755.44	27.068
755.75	24.818
756.07	30.142
756.38	26.642
756.69	20.805
757.00	23.353
757.31	24.629
757.63	25.146
757.94	23.592
758.25	22.059
758.56	20.988
758.87	23.118
759.18	26.667
759.50	28.527
759.81	23.988
760.12	20.938
760.43	24.928
760.74	21.467
761.05	25.424
761.36	24.332
761.67	26.420
761.99	24.534
762.30	26.389
762.61	28.244
762.92	31.250
763.23	31.513
763.54	32.000
763.85	26.953
764.16	31.923
764.47	29.278
764.78	21.201
765.10	25.949
765.41	26.549
765.72	23.353
766.03	23.824
766.34	25.000
766.65	31.489
766.96	30.342
767.27	35.025
767.58	32.292
767.89	40.526
768.20	35.057
768.51	32.995
768.82	34.404
769.13	30.894
769.44	27.530
769.75	34.335
770.06	27.064
770.37	33.937
770.68	34.259
770.99	30.222
771.30	22.131
771.61	33.632
771.92	27.049
772.23	33.193
772.54	37.436
772.85	40.838
773.16	36.170
773.47	37.500
773.78	44.670
774.09	36.905
774.39	41.520
774.70	41.358
775.01	43.478
775.32	49.020
775.63	42.105
775.94	51.079
776.25	48.819
776.56	45.522
776.87	49.180
777.18	43.750
777.48	53.435
777.79	49.242
778.10	52.593
778.41	50.000
778.72	40.146
779.03	48.322
779.34	38.926
779.65	34.459
779.95	40.491
780.26	43.137
780.57	44.138
780.88	49.219
781.19	35.338
781.50	42.568
781.80	39.623
782.11	41.243
782.42	37.342
782.73	42.945
783.04	43.243
783.34	43.662
783.65	49.315
783.96	45.522
784.27	39.860
784.57	45.324
784.88	50.000
785.19	50.000
785.50	47.170
785.81	48.507
786.11	51.639
786.42	52.713
786.73	48.673
787.04	46.226
787.34	50.000
787.65	56.000
787.96	55.856
788.26	53.719
788.57	55.932
788.88	52.066
789.19	51.389
789.49	53.788
789.80	42.748
790.11	69.524
790.41	59.406
790.72	60.241
791.03	59.783
791.33	56.977
791.64	53.608
791.95	63.366
792.25	62.222
792.56	85.714
792.87	84.615
793.17	86.076
793.48	71.264
793.79	62.069
794.09	70.455
794.40	55.462
794.70	50.000
795.01	49.630
795.32	48.201
795.62	49.606
795.93	58.621
796.23	43.363
796.54	51.765
796.85	70.270
797.15	87.324
797.46	71.212
797.76	75.904
798.07	64.557
798.37	72.308
798.68	68.182
798.99	73.239
799.29	59.740
799.60	56.818
799.90	76.712
800.21	79.104
800.51	75.862
800.82	91.228
801.12	83.607
801.43	95.455
801.73	66.216
802.04	90.476
802.34	80.247
802.65	92.188
802.95	122.034
803.26	90.625
803.56	75.714
803.87	80.000
804.17	82.353
804.48	107.407
804.78	94.828
805.09	77.941
805.39	86.538
805.70	112.500
806.00	83.607
806.30	71.212
806.61	64.634
806.91	67.089
807.22	67.105
807.52	61.194
807.83	81.690
808.13	79.687
808.43	96.667
808.74	67.105
809.04	92.754
809.35	85.075
809.65	71.053
809.95	117.742
810.26	86.441
810.56	95.238
810.86	138.636
811.17	138.095
811.47	103.333
811.77	100.000
812.08	100.000
812.38	102.000
812.69	150.000
812.99	115.909
813.29	114.286
813.59	92.857
813.90	132.653
814.20	109.091
814.50	69.231
814.81	79.412
815.11	108.163
815.41	108.197
815.72	130.952
816.02	103.636
816.32	109.524
816.62	135.000
816.93	102.439
817.23	121.429
817.53	118.182
817.84	163.636
818.14	119.565
818.44	122.222
818.74	155.882
819.04	107.500
819.35	125.714
819.65	164.706
819.95	164.286
820.25	190.000
820.56	120.513
820.86	122.727
821.16	151.163
821.46	110.256
821.76	120.000
822.07	142.857
822.37	127.500
822.67	163.636
822.97	103.922
823.27	192.857
823.57	108.108
823.88	157.500
824.18	200.000
824.48	133.333
824.78	212.000
825.08	200.000
825.38	145.946
825.69	124.390
825.99	212.500
826.29	106.897
826.59	142.105
826.89	155.263
827.19	150.000
827.49	170.968
827.79	147.727
828.09	131.818
828.39	119.149
828.70	124.490
829.00	140.741
829.30	174.194
829.60	157.500
829.90	226.667
830.20	164.286
830.50	173.913
830.80	152.174
831.10	203.333
831.40	166.667
831.70	226.087
832.00	184.615
832.30	203.704
832.60	306.250
832.90	196.667
833.20	364.286
833.50	190.323
833.80	175.862
834.10	159.375
834.40	242.308
834.70	266.667
835.00	295.238
835.30	157.143
835.60	261.538
835.90	200.000
836.20	307.143
836.50	189.655
836.80	224.000
837.10	169.444
837.40	252.381
837.70	288.235
838.00	222.222
838.30	285.714
838.60	228.571
838.90	219.231
839.19	310.000
839.49	342.857
839.79	365.000
840.09	245.000
840.39	300.000
840.69	243.478
840.99	277.778
841.29	310.000
841.59	433.333
841.88	287.500
842.18	151.724
842.48	219.048
842.78	180.000
843.08	243.478
843.38	181.250
843.68	950.000
843.97	215.385
844.27	172.414
844.57	276.190
844.87	337.500
845.17	214.815
845.47	1633.333
845.76	366.667
846.06	323.529
846.36	500.000
846.66	350.000
846.96	231.250
847.25	381.818
847.55	509.091
847.85	213.043
848.15	420.000
848.44	314.286
848.74	216.667
849.04	276.471
849.34	610.000
849.63	242.105
849.93	418.182
850.23	740.000
850.53	371.429
850.82	2200.000
851.12	-4600.000
851.42	3500.000
851.71	240.000
852.01	-1200.000
852.31	241.667
852.61	1533.333
852.90	261.905
853.20	248.000
853.50	264.706
853.79	257.143
854.09	187.500
854.39	256.250
854.68	175.676
854.98	187.097
855.28	180.000
855.57	196.552
855.87	211.111
856.17	226.316
856.46	253.333
856.76	282.353
857.05	155.172
857.35	225.000
857.65	326.667
857.94	204.348
858.24	215.385
858.53	235.000
858.83	227.273
859.13	320.000
859.42	0.000
859.72	466.667
860.01	400.000
860.31	227.273
860.60	278.947
860.90	213.043
861.20	466.667
861.49	508.333
861.79	-4400.000
862.08	737.500
862.38	200.000
862.67	376.923
862.97	364.706
863.26	522.222
863.56	172.222
863.85	425.000
864.15	612.500
864.44	320.000
864.74	716.667
865.03	662.500
865.33	273.684
865.62	436.364
865.92	384.615
866.21	375.000
866.51	0.000
866.80	354.545
867.10	960.000
867.39	438.462
867.69	454.545
867.98	273.684
868.27	518.182
868.57	268.421
868.86	-3400.000
869.16	262.500
869.45	2350.000
869.75	-4000.000
870.04	425.000
870.33	642.857
870.63	900.000
870.92	2350.000
871.22	671.429
871.51	329.412
871.80	180.952
872.10	428.571
>>>>>End Processed Spectral Data<<<<<
