SpectraSuite Data File
++++++++++++++++++++++++++++++++++++
Date: Wed May 13 16:19:53 PDT 2015
User: schluterlab
Dark Spectrum Present: Yes
Reference Spectrum Present: Yes
Number of Sampled Component Spectra: 1
Spectrometers: USB2E3373
Integration Time (usec): 3000 (USB2E3373)
Spectra Averaged: 3 (USB2E3373)
Boxcar Smoothing: 0 (USB2E3373)
Correct for Electrical Dark: No (USB2E3373)
Strobe/Lamp Enabled: No (USB2E3373)
Correct for Detector Non-linearity: No (USB2E3373)
Correct for Stray Light: No (USB2E3373)
Number of Pixels in Processed Spectrum: 2048
>>>>>Begin Processed Spectral Data<<<<<
178.53	0.000
178.91	-1175.000
179.29	-1075.000
179.67	-205.556
180.04	-1225.000
180.42	2200.000
180.80	880.000
181.18	-825.000
181.56	657.143
181.94	0.000
182.31	-514.286
182.69	1600.000
183.07	-562.500
183.45	-488.889
183.83	454.545
184.20	-400.000
184.58	1950.000
184.96	3700.000
185.34	-680.000
185.72	-537.500
186.09	-1950.000
186.47	2350.000
186.85	2100.000
187.23	3900.000
187.61	-1566.667
187.98	1275.000
188.36	500.000
188.74	554.545
189.12	-960.000
189.49	470.000
189.87	-3400.000
190.25	-1025.000
190.63	357.143
191.00	400.000
191.38	600.000
191.76	-925.000
192.14	1200.000
192.51	487.500
192.89	833.333
193.27	600.000
193.65	-925.000
194.02	490.000
194.40	860.000
194.78	420.000
195.15	475.000
195.53	540.000
195.91	-1750.000
196.29	300.000
196.66	247.368
197.04	-250.000
197.42	0.000
197.79	600.000
198.17	-4400.000
198.55	700.000
198.92	712.500
199.30	620.000
199.68	0.000
200.05	355.556
200.43	728.571
200.81	4300.000
201.18	1400.000
201.56	-1400.000
201.94	588.889
202.31	488.889
202.69	358.333
203.07	450.000
203.44	0.000
203.82	1025.000
204.19	628.571
204.57	328.571
204.95	575.000
205.32	1333.333
205.70	509.091
206.08	407.143
206.45	2050.000
206.83	343.750
207.20	983.333
207.58	760.000
207.96	316.667
208.33	650.000
208.71	-766.667
209.08	628.571
209.46	544.444
209.84	427.273
210.21	-1333.333
210.59	1250.000
210.96	-562.500
211.34	2400.000
211.71	500.000
212.09	800.000
212.46	0.000
212.84	1400.000
213.22	1150.000
213.59	-4000.000
213.97	766.667
214.34	600.000
214.72	463.636
215.09	760.000
215.47	-2100.000
215.84	-1650.000
216.22	1533.333
216.59	385.714
216.97	1225.000
217.34	454.545
217.72	-666.667
218.09	0.000
218.47	-4700.000
218.84	566.667
219.22	628.571
219.59	1666.667
219.97	-585.714
220.34	780.000
220.72	-1433.333
221.09	371.429
221.47	1400.000
221.84	-816.667
222.22	0.000
222.59	1350.000
222.97	-2200.000
223.34	1200.000
223.72	369.231
224.09	960.000
224.46	2200.000
224.84	-4700.000
225.21	-900.000
225.59	-3900.000
225.96	540.000
226.34	265.000
226.71	2550.000
227.08	575.000
227.46	480.000
227.83	-1000.000
228.21	-2100.000
228.58	511.111
228.95	-1850.000
229.33	-1650.000
229.70	1766.667
230.08	642.857
230.45	-720.000
230.82	375.000
231.20	716.667
231.57	714.286
231.95	400.000
232.32	286.364
232.69	418.182
233.07	742.857
233.44	338.462
233.81	-1600.000
234.19	321.053
234.56	383.333
234.93	316.667
235.31	354.545
235.68	284.615
236.05	321.429
236.43	160.606
236.80	257.895
237.17	5100.000
237.55	300.000
237.92	221.429
238.29	190.476
238.67	177.419
239.04	234.483
239.41	172.222
239.79	130.435
240.16	135.714
240.53	175.000
240.91	121.569
241.28	118.000
241.65	136.000
242.02	124.638
242.40	132.258
242.77	118.333
243.14	97.849
243.51	108.989
243.89	98.824
244.26	95.556
244.63	105.376
245.00	87.234
245.38	91.089
245.75	79.439
246.12	91.743
246.49	82.482
246.87	86.400
247.24	86.923
247.61	87.857
247.98	78.431
248.36	79.730
248.73	76.433
249.10	77.070
249.47	75.141
249.84	77.005
250.22	65.775
250.59	73.964
250.96	73.737
251.33	71.090
251.70	75.248
252.08	69.524
252.45	64.574
252.82	64.783
253.19	66.383
253.56	61.176
253.94	68.880
254.31	69.531
254.68	64.231
255.05	64.207
255.42	66.260
255.79	65.074
256.16	70.036
256.54	61.837
256.91	64.057
257.28	61.511
257.65	59.736
258.02	61.491
258.39	60.252
258.76	60.201
259.14	61.607
259.51	59.271
259.88	58.696
260.25	61.631
260.62	59.538
260.99	60.559
261.36	62.462
261.73	59.885
262.10	59.012
262.47	62.254
262.85	54.875
263.22	56.980
263.59	60.969
263.96	57.418
264.33	56.136
264.70	63.158
265.07	56.777
265.44	61.616
265.81	55.474
266.18	57.538
266.55	57.073
266.92	60.688
267.29	57.870
267.66	58.257
268.03	58.636
268.40	54.673
268.77	54.415
269.14	53.604
269.51	54.853
269.88	55.944
270.25	55.982
270.62	57.528
270.99	57.849
271.36	57.940
271.73	57.009
272.10	55.217
272.47	54.624
272.84	54.762
273.21	53.249
273.58	52.620
273.95	49.686
274.32	55.372
274.69	54.176
275.06	51.378
275.43	55.745
275.80	53.707
276.17	54.379
276.54	53.846
276.91	53.360
277.28	51.563
277.65	52.805
278.02	54.865
278.39	53.516
278.76	52.000
279.13	53.019
279.50	52.142
279.87	52.390
280.23	52.894
280.60	52.611
280.97	54.159
281.34	52.920
281.71	51.273
282.08	53.551
282.45	50.000
282.82	50.977
283.19	49.198
283.56	51.930
283.92	51.438
284.29	49.030
284.66	52.087
285.03	50.452
285.40	50.880
285.77	51.852
286.14	50.777
286.51	49.833
286.87	49.060
287.24	48.860
287.61	46.709
287.98	48.214
288.35	48.177
288.72	47.819
289.08	49.296
289.45	48.270
289.82	47.154
290.19	46.468
290.56	47.626
290.93	46.224
291.29	48.466
291.66	46.755
292.03	46.221
292.40	47.283
292.77	47.337
293.13	43.284
293.50	45.044
293.87	46.519
294.24	43.704
294.60	46.579
294.97	44.477
295.34	45.275
295.71	43.608
296.08	44.302
296.44	44.154
296.81	43.725
297.18	42.818
297.55	41.425
297.91	42.612
298.28	44.043
298.65	43.864
299.02	44.664
299.38	43.825
299.75	41.644
300.12	41.635
300.48	42.625
300.85	42.293
301.22	43.057
301.59	39.773
301.95	40.176
302.32	41.720
302.69	42.772
303.05	41.576
303.42	42.593
303.79	42.582
304.15	41.259
304.52	40.440
304.89	42.509
305.25	41.531
305.62	40.657
305.99	42.621
306.35	40.604
306.72	44.170
307.09	41.620
307.45	43.018
307.82	40.960
308.19	42.053
308.55	42.611
308.92	42.320
309.29	41.499
309.65	41.039
310.02	43.552
310.38	43.011
310.75	43.189
311.12	42.068
311.48	42.947
311.85	43.396
312.22	42.456
312.58	43.763
312.95	42.661
313.31	42.233
313.68	44.802
314.05	45.759
314.41	44.322
314.78	44.411
315.14	43.992
315.51	44.799
315.87	46.535
316.24	45.184
316.61	45.127
316.97	45.010
317.34	44.423
317.70	46.845
318.07	45.525
318.43	47.652
318.80	47.235
319.16	47.269
319.53	45.310
319.89	46.476
320.26	48.200
320.62	47.123
320.99	46.667
321.35	47.071
321.72	49.076
322.08	47.878
322.45	51.841
322.81	49.322
323.18	53.083
323.54	51.020
323.91	50.943
324.27	51.912
324.64	52.842
325.00	50.586
325.37	54.049
325.73	55.027
326.10	53.928
326.46	53.405
326.83	54.271
327.19	53.459
327.56	55.749
327.92	58.880
328.29	56.699
328.65	57.919
329.01	57.671
329.38	58.557
329.74	56.602
330.11	60.038
330.47	58.310
330.84	58.088
331.20	58.015
331.56	57.523
331.93	59.537
332.29	57.764
332.66	57.699
333.02	59.781
333.38	59.801
333.75	58.200
334.11	60.498
334.48	59.006
334.84	60.478
335.20	60.727
335.57	59.927
335.93	57.143
336.29	60.073
336.66	59.333
337.02	59.638
337.38	58.611
337.75	57.665
338.11	58.192
338.47	59.208
338.84	59.762
339.20	60.275
339.56	60.858
339.93	58.545
340.29	57.971
340.65	60.250
341.02	58.988
341.38	61.655
341.74	58.509
342.11	59.127
342.47	59.383
342.83	60.445
343.20	59.740
343.56	57.540
343.92	61.754
344.28	59.779
344.65	59.501
345.01	58.081
345.37	58.062
345.73	57.783
346.10	59.932
346.46	57.712
346.82	59.473
347.19	57.978
347.55	58.374
347.91	58.819
348.27	59.819
348.63	59.114
349.00	58.333
349.36	59.195
349.72	58.059
350.08	58.833
350.45	58.096
350.81	58.489
351.17	58.671
351.53	60.278
351.89	58.581
352.26	59.195
352.62	60.144
352.98	58.266
353.34	59.901
353.70	59.411
354.07	59.194
354.43	58.413
354.79	59.212
355.15	59.457
355.51	61.311
355.87	61.061
356.24	59.935
356.60	59.262
356.96	61.223
357.32	60.425
357.68	60.315
358.04	59.541
358.40	60.887
358.77	59.624
359.13	58.564
359.49	60.392
359.85	60.079
360.21	60.766
360.57	61.167
360.93	61.231
361.29	59.033
361.66	60.294
362.02	59.925
362.38	61.521
362.74	60.342
363.10	61.214
363.46	60.602
363.82	61.678
364.18	59.398
364.54	60.773
364.90	61.119
365.26	60.221
365.62	60.263
365.98	60.701
366.35	60.458
366.71	60.014
367.07	61.690
367.43	61.538
367.79	61.242
368.15	63.362
368.51	61.265
368.87	63.597
369.23	63.277
369.59	62.563
369.95	62.500
370.31	61.396
370.67	62.319
371.03	62.022
371.39	61.370
371.75	62.279
372.11	61.451
372.47	63.710
372.83	64.193
373.19	62.789
373.55	63.489
373.91	65.464
374.27	61.581
374.63	64.655
374.99	64.054
375.35	62.945
375.71	61.960
376.07	62.483
376.42	63.411
376.78	63.419
377.14	63.026
377.50	64.106
377.86	62.832
378.22	63.211
378.58	63.033
378.94	64.111
379.30	63.995
379.66	64.657
380.02	64.128
380.38	63.024
380.74	64.826
381.09	63.631
381.45	66.073
381.81	64.926
382.17	65.414
382.53	64.151
382.89	66.111
383.25	66.229
383.61	65.304
383.97	65.166
384.32	65.190
384.68	65.366
385.04	64.597
385.40	64.582
385.76	63.575
386.12	65.479
386.48	66.016
386.83	67.287
387.19	67.285
387.55	66.543
387.91	65.599
388.27	64.255
388.62	65.888
388.98	64.865
389.34	65.519
389.70	65.297
390.06	66.033
390.42	66.732
390.77	64.440
391.13	67.326
391.49	65.926
391.85	65.436
392.20	65.489
392.56	65.783
392.92	66.451
393.28	64.438
393.64	65.827
393.99	65.119
394.35	64.268
394.71	65.433
395.07	64.922
395.42	66.007
395.78	64.377
396.14	66.294
396.50	65.539
396.85	65.353
397.21	63.933
397.57	65.406
397.92	65.505
398.28	63.901
398.64	64.695
399.00	64.186
399.35	64.016
399.71	63.426
400.07	64.341
400.42	64.601
400.78	64.174
401.14	65.854
401.49	64.060
401.85	64.186
402.21	62.934
402.57	63.356
402.92	64.691
403.28	64.272
403.63	64.171
403.99	65.096
404.35	62.485
404.70	62.530
405.06	62.551
405.42	65.066
405.77	62.171
406.13	61.625
406.49	62.626
406.84	63.083
407.20	60.757
407.55	62.795
407.91	64.133
408.27	64.582
408.62	61.589
408.98	62.377
409.34	61.993
409.69	61.677
410.05	62.392
410.40	62.080
410.76	60.812
411.11	61.218
411.47	60.383
411.83	62.859
412.18	60.421
412.54	62.080
412.89	62.410
413.25	61.039
413.60	61.272
413.96	61.263
414.31	60.936
414.67	62.167
415.03	62.318
415.38	61.598
415.74	62.830
416.09	62.573
416.45	61.847
416.80	62.194
417.16	63.070
417.51	62.442
417.87	61.336
418.22	62.461
418.58	61.846
418.93	61.916
419.29	62.126
419.64	61.776
420.00	61.402
420.35	60.232
420.71	63.180
421.06	61.337
421.42	61.111
421.77	62.444
422.12	61.651
422.48	60.281
422.83	62.260
423.19	63.425
423.54	62.972
423.90	63.710
424.25	62.535
424.61	62.024
424.96	63.440
425.31	62.237
425.67	61.573
426.02	61.714
426.38	63.980
426.73	61.849
427.09	64.012
427.44	62.392
427.79	62.737
428.15	62.381
428.50	62.961
428.85	62.992
429.21	62.396
429.56	62.882
429.92	63.010
430.27	61.817
430.62	61.751
430.98	62.169
431.33	61.443
431.68	62.565
432.04	61.342
432.39	64.592
432.74	62.657
433.10	64.290
433.45	64.840
433.80	63.636
434.16	63.034
434.51	62.211
434.86	63.797
435.22	63.980
435.57	64.985
435.92	63.078
436.28	63.523
436.63	63.466
436.98	62.851
437.34	63.626
437.69	66.336
438.04	63.969
438.39	64.358
438.75	64.207
439.10	64.078
439.45	63.813
439.81	63.565
440.16	63.411
440.51	65.085
440.86	65.605
441.22	63.515
441.57	64.437
441.92	63.460
442.27	64.909
442.63	62.981
442.98	65.014
443.33	64.402
443.68	63.242
444.03	63.641
444.39	65.385
444.74	64.015
445.09	63.127
445.44	64.079
445.79	63.929
446.15	63.790
446.50	63.382
446.85	65.057
447.20	62.825
447.55	65.327
447.91	64.424
448.26	63.439
448.61	63.086
448.96	65.061
449.31	65.017
449.66	62.859
450.02	64.791
450.37	64.512
450.72	64.636
451.07	63.559
451.42	64.073
451.77	63.829
452.12	63.915
452.47	63.806
452.83	64.685
453.18	63.325
453.53	63.946
453.88	63.379
454.23	63.897
454.58	65.051
454.93	63.318
455.28	64.027
455.63	63.774
455.98	64.821
456.34	64.761
456.69	64.245
457.04	64.520
457.39	64.524
457.74	63.262
458.09	62.622
458.44	63.512
458.79	61.822
459.14	63.036
459.49	62.872
459.84	63.324
460.19	62.345
460.54	61.690
460.89	63.577
461.24	63.145
461.59	65.078
461.94	62.577
462.29	63.976
462.64	63.752
462.99	63.305
463.34	64.267
463.69	62.602
464.04	62.435
464.39	61.913
464.74	63.577
465.09	62.786
465.44	61.994
465.79	61.913
466.14	60.755
466.49	60.734
466.84	62.230
467.19	62.221
467.54	63.687
467.89	62.185
468.24	61.722
468.59	63.248
468.94	60.538
469.29	62.853
469.64	63.454
469.99	63.870
470.34	62.682
470.68	63.218
471.03	63.265
471.38	64.003
471.73	61.825
472.08	61.645
472.43	60.804
472.78	62.014
473.13	61.810
473.48	62.297
473.83	62.866
474.17	62.041
474.52	62.221
474.87	62.113
475.22	61.056
475.57	60.236
475.92	59.851
476.27	60.259
476.61	62.162
476.96	60.198
477.31	61.695
477.66	62.910
478.01	59.592
478.36	61.713
478.70	60.280
479.05	61.448
479.40	60.850
479.75	62.074
480.10	61.581
480.45	60.733
480.79	60.105
481.14	60.176
481.49	60.655
481.84	59.899
482.19	60.972
482.53	60.183
482.88	60.121
483.23	60.841
483.58	59.782
483.92	61.340
484.27	58.519
484.62	59.871
484.97	59.283
485.31	60.925
485.66	60.398
486.01	57.996
486.36	55.769
486.70	54.795
487.05	56.631
487.40	58.376
487.75	59.310
488.09	59.812
488.44	60.774
488.79	62.351
489.13	61.192
489.48	61.623
489.83	59.603
490.17	59.930
490.52	60.097
490.87	58.435
491.22	59.209
491.56	59.909
491.91	59.702
492.26	58.705
492.60	58.295
492.95	58.092
493.30	58.551
493.64	59.123
493.99	58.496
494.34	58.094
494.68	60.073
495.03	59.352
495.37	57.655
495.72	59.259
496.07	59.629
496.41	57.743
496.76	58.663
497.11	57.857
497.45	58.780
497.80	58.301
498.14	57.971
498.49	58.683
498.84	57.718
499.18	58.238
499.53	57.170
499.87	58.201
500.22	57.748
500.56	59.612
500.91	58.173
501.26	58.369
501.60	58.804
501.95	56.599
502.29	59.700
502.64	57.821
502.98	58.345
503.33	56.399
503.67	57.494
504.02	58.466
504.36	57.136
504.71	58.232
505.06	57.880
505.40	57.997
505.75	58.100
506.09	57.532
506.44	58.313
506.78	58.013
507.13	58.152
507.47	57.576
507.82	57.700
508.16	58.561
508.51	58.194
508.85	57.249
509.19	58.673
509.54	56.888
509.88	57.754
510.23	57.481
510.57	58.256
510.92	58.467
511.26	57.451
511.61	57.417
511.95	57.777
512.30	58.378
512.64	58.302
512.98	58.467
513.33	57.762
513.67	56.297
514.02	57.576
514.36	57.291
514.70	57.388
515.05	58.226
515.39	58.946
515.74	57.545
516.08	57.015
516.42	58.491
516.77	58.807
517.11	56.881
517.46	58.352
517.80	58.827
518.14	56.630
518.49	59.102
518.83	56.761
519.17	57.968
519.52	58.121
519.86	57.901
520.20	58.960
520.55	58.648
520.89	57.847
521.23	58.504
521.58	59.184
521.92	57.746
522.26	56.559
522.61	58.380
522.95	57.888
523.29	57.578
523.64	58.354
523.98	58.780
524.32	58.142
524.66	57.426
525.01	58.211
525.35	57.559
525.69	57.081
526.04	57.632
526.38	57.718
526.72	57.669
527.06	57.376
527.41	55.198
527.75	57.170
528.09	58.446
528.43	57.043
528.78	57.345
529.12	56.364
529.46	57.624
529.80	57.302
530.15	57.196
530.49	56.308
530.83	57.468
531.17	59.465
531.51	58.690
531.86	56.968
532.20	58.214
532.54	57.912
532.88	57.445
533.22	55.965
533.57	57.037
533.91	56.231
534.25	57.655
534.59	56.254
534.93	55.562
535.27	56.186
535.62	56.716
535.96	57.313
536.30	57.152
536.64	58.017
536.98	57.863
537.32	56.353
537.66	57.133
538.01	58.460
538.35	58.177
538.69	58.392
539.03	56.075
539.37	55.655
539.71	54.245
540.05	56.536
540.39	57.076
540.73	55.627
541.07	57.755
541.42	57.078
541.76	55.935
542.10	56.792
542.44	56.424
542.78	56.390
543.12	55.790
543.46	56.721
543.80	55.758
544.14	55.006
544.48	56.444
544.82	56.062
545.16	57.580
545.50	56.105
545.84	55.578
546.18	56.296
546.52	55.127
546.86	57.801
547.20	57.384
547.54	56.179
547.88	56.250
548.22	54.296
548.56	54.969
548.90	56.018
549.24	54.815
549.58	56.958
549.92	56.868
550.26	57.244
550.60	55.533
550.94	56.831
551.28	55.816
551.62	55.931
551.96	56.070
552.30	56.177
552.64	55.646
552.98	56.881
553.32	56.709
553.66	56.851
554.00	55.525
554.34	55.694
554.68	56.652
555.02	56.841
555.36	55.741
555.69	54.398
556.03	56.057
556.37	56.889
556.71	55.866
557.05	55.532
557.39	55.913
557.73	55.893
558.07	56.780
558.41	55.644
558.75	56.135
559.08	56.450
559.42	56.538
559.76	56.471
560.10	55.246
560.44	55.975
560.78	54.491
561.12	54.617
561.45	55.215
561.79	54.911
562.13	55.466
562.47	55.943
562.81	56.904
563.15	54.716
563.48	56.565
563.82	54.273
564.16	54.415
564.50	56.185
564.84	53.603
565.17	55.148
565.51	54.824
565.85	55.013
566.19	54.665
566.52	55.098
566.86	54.250
567.20	55.366
567.54	55.308
567.88	53.992
568.21	55.344
568.55	54.044
568.89	54.086
569.23	52.897
569.56	53.117
569.90	52.415
570.24	52.960
570.57	52.533
570.91	51.842
571.25	52.038
571.59	52.401
571.92	52.189
572.26	52.686
572.60	53.003
572.93	52.534
573.27	52.411
573.61	52.401
573.95	52.791
574.28	52.085
574.62	52.259
574.96	52.234
575.29	52.304
575.63	51.474
575.97	52.356
576.30	53.133
576.64	52.413
576.98	51.726
577.31	52.634
577.65	52.161
577.98	52.151
578.32	51.211
578.66	51.111
578.99	52.089
579.33	52.312
579.67	51.982
580.00	53.129
580.34	52.871
580.67	53.533
581.01	52.800
581.35	52.526
581.68	51.850
582.02	51.566
582.35	51.501
582.69	51.753
583.02	52.082
583.36	53.332
583.70	53.447
584.03	54.049
584.37	54.651
584.70	54.206
585.04	53.033
585.37	52.959
585.71	52.773
586.04	52.138
586.38	52.586
586.72	52.416
587.05	52.540
587.39	51.741
587.72	52.641
588.06	52.348
588.39	53.059
588.73	52.303
589.06	53.101
589.40	53.838
589.73	54.664
590.07	54.021
590.40	53.270
590.73	53.903
591.07	54.742
591.40	54.914
591.74	55.108
592.07	53.621
592.41	54.155
592.74	51.835
593.08	51.832
593.41	50.870
593.75	50.656
594.08	52.330
594.41	52.492
594.75	53.272
595.08	53.114
595.42	52.469
595.75	52.493
596.09	54.225
596.42	53.595
596.75	53.609
597.09	54.675
597.42	52.698
597.75	53.471
598.09	53.217
598.42	53.050
598.76	52.898
599.09	51.083
599.42	51.201
599.76	51.830
600.09	52.095
600.42	51.351
600.76	51.321
601.09	51.403
601.42	52.473
601.76	52.296
602.09	52.213
602.42	52.747
602.76	52.922
603.09	52.439
603.42	52.714
603.76	51.867
604.09	51.803
604.42	52.222
604.76	53.395
605.09	51.988
605.42	52.373
605.75	52.070
606.09	51.688
606.42	51.614
606.75	52.178
607.09	51.988
607.42	51.861
607.75	51.181
608.08	50.716
608.42	52.219
608.75	51.713
609.08	51.341
609.41	51.261
609.75	52.120
610.08	51.602
610.41	52.188
610.74	52.129
611.07	53.557
611.41	52.208
611.74	51.785
612.07	54.503
612.40	52.833
612.73	52.789
613.07	53.718
613.40	53.081
613.73	51.757
614.06	52.688
614.39	51.704
614.72	51.053
615.06	52.731
615.39	52.123
615.72	51.074
616.05	50.984
616.38	53.419
616.71	53.504
617.05	52.827
617.38	51.834
617.71	53.273
618.04	52.764
618.37	52.099
618.70	52.582
619.03	53.092
619.36	52.682
619.69	53.732
620.03	52.541
620.36	52.874
620.69	53.082
621.02	54.351
621.35	52.310
621.68	52.648
622.01	52.167
622.34	53.177
622.67	52.091
623.00	52.238
623.33	50.822
623.66	52.752
623.99	51.988
624.32	51.926
624.65	51.412
624.99	51.346
625.32	50.615
625.65	52.517
625.98	52.575
626.31	52.255
626.64	51.510
626.97	53.283
627.30	51.953
627.63	52.584
627.96	51.724
628.29	53.718
628.62	52.699
628.95	54.340
629.28	52.920
629.61	52.612
629.94	54.857
630.26	53.384
630.59	52.050
630.92	52.490
631.25	52.122
631.58	51.952
631.91	53.347
632.24	52.321
632.57	52.046
632.90	53.399
633.23	54.362
633.56	53.446
633.89	53.228
634.22	53.121
634.55	54.201
634.88	54.850
635.20	53.047
635.53	54.458
635.86	53.713
636.19	51.765
636.52	52.826
636.85	51.203
637.18	50.922
637.51	53.191
637.83	51.295
638.16	53.453
638.49	52.393
638.82	52.465
639.15	52.000
639.48	52.993
639.81	56.434
640.13	54.167
640.46	53.289
640.79	52.840
641.12	54.333
641.45	52.933
641.77	56.701
642.10	54.240
642.43	53.153
642.76	54.799
643.09	54.448
643.41	55.539
643.74	54.321
644.07	53.963
644.40	55.368
644.73	55.748
645.05	55.468
645.38	53.870
645.71	54.106
646.04	53.654
646.36	54.925
646.69	55.017
647.02	53.231
647.35	53.780
647.67	56.283
648.00	53.496
648.33	53.465
648.66	53.485
648.98	52.924
649.31	51.570
649.64	51.719
649.96	51.118
650.29	52.923
650.62	51.618
650.94	54.133
651.27	54.730
651.60	53.577
651.92	53.834
652.25	51.954
652.58	52.960
652.90	53.397
653.23	51.310
653.56	52.598
653.88	51.981
654.21	53.239
654.54	55.116
654.86	51.402
655.19	49.189
655.52	41.124
655.84	39.149
656.17	50.038
656.49	69.402
656.82	72.127
657.15	56.326
657.47	42.371
657.80	33.421
658.13	36.301
658.45	54.559
658.78	56.754
659.10	59.302
659.43	62.628
659.75	65.029
660.08	68.608
660.41	69.832
660.73	64.930
661.06	61.943
661.38	58.727
661.71	57.115
662.03	53.649
662.36	52.883
662.68	54.217
663.01	54.343
663.33	56.051
663.66	54.412
663.98	54.428
664.31	53.992
664.63	49.798
664.96	49.497
665.28	52.869
665.61	53.411
665.93	52.515
666.26	53.144
666.58	53.766
666.91	56.025
667.23	57.303
667.56	53.996
667.88	55.769
668.21	53.945
668.53	55.098
668.86	55.628
669.18	54.158
669.50	52.826
669.83	56.209
670.15	54.889
670.48	51.852
670.80	52.371
671.13	56.263
671.45	52.979
671.77	52.953
672.10	53.235
672.42	51.943
672.75	53.234
673.07	53.697
673.39	52.622
673.72	53.516
674.04	55.098
674.37	52.039
674.69	52.965
675.01	51.674
675.34	54.825
675.66	55.789
675.98	54.582
676.31	52.101
676.63	58.811
676.95	52.201
677.28	54.673
677.60	51.648
677.92	54.852
678.25	51.745
678.57	54.781
678.89	50.902
679.22	52.849
679.54	51.336
679.86	54.679
680.18	51.342
680.51	52.482
680.83	50.356
681.15	52.075
681.48	53.875
681.80	54.932
682.12	51.533
682.44	51.838
682.77	54.175
683.09	56.009
683.41	55.876
683.73	56.291
684.06	53.099
684.38	51.468
684.70	52.132
685.02	53.659
685.34	48.901
685.67	49.301
685.99	50.687
686.31	49.317
686.63	50.177
686.96	49.286
687.28	51.805
687.60	51.993
687.92	52.468
688.24	52.852
688.56	55.221
688.89	55.602
689.21	52.838
689.53	53.027
689.85	52.328
690.17	52.381
690.49	53.291
690.82	58.178
691.14	48.214
691.46	49.578
691.78	50.803
692.10	52.686
692.42	49.900
692.74	51.660
693.06	50.638
693.39	52.772
693.71	53.930
694.03	54.526
694.35	51.948
694.67	50.572
694.99	54.146
695.31	54.902
695.63	54.785
695.95	53.545
696.27	53.046
696.59	54.922
696.91	54.922
697.23	49.061
697.56	51.599
697.88	47.239
698.20	51.042
698.52	52.688
698.84	51.670
699.16	51.382
699.48	51.781
699.80	52.899
700.12	56.364
700.44	61.273
700.76	52.486
701.08	62.069
701.40	52.793
701.72	55.394
702.04	58.523
702.36	51.275
702.68	54.958
703.00	54.571
703.32	52.394
703.64	49.866
703.96	56.267
704.28	59.884
704.60	55.425
704.91	55.193
705.23	55.425
705.55	58.140
705.87	57.807
706.19	54.417
706.51	54.829
706.83	53.939
707.15	54.902
707.47	52.020
707.79	50.123
708.11	53.653
708.43	50.952
708.74	53.571
709.06	56.364
709.38	53.543
709.70	58.140
710.02	52.522
710.34	56.667
710.66	54.627
710.98	52.841
711.29	56.395
711.61	56.342
711.93	55.769
712.25	54.662
712.57	61.397
712.89	53.979
713.20	52.584
713.52	56.250
713.84	52.215
714.16	52.439
714.48	56.897
714.80	59.574
715.11	55.331
715.43	54.303
715.75	53.913
716.07	57.827
716.39	54.859
716.70	56.478
717.02	56.115
717.34	53.710
717.66	58.955
717.97	55.777
718.29	52.963
718.61	55.474
718.93	61.029
719.24	55.709
719.56	54.915
719.88	57.627
720.20	57.432
720.51	54.704
720.83	60.223
721.15	54.478
721.46	56.028
721.78	57.706
722.10	58.868
722.42	59.398
722.73	54.307
723.05	54.098
723.37	60.324
723.68	57.143
724.00	54.065
724.32	57.258
724.63	58.537
724.95	57.322
725.27	60.729
725.58	60.156
725.90	59.489
726.22	62.642
726.53	52.083
726.85	56.997
727.16	59.075
727.48	54.610
727.80	57.955
728.11	49.275
728.43	54.231
728.74	55.197
729.06	56.569
729.38	58.088
729.69	57.651
730.01	48.123
730.32	55.903
730.64	55.853
730.96	47.855
731.27	53.642
731.59	53.517
731.90	53.061
732.22	54.658
732.53	48.916
732.85	53.205
733.16	54.019
733.48	54.485
733.80	55.195
734.11	55.096
734.43	52.959
734.74	54.000
735.06	52.149
735.37	56.069
735.69	53.503
736.00	56.536
736.32	52.336
736.63	50.160
736.95	56.550
737.26	49.320
737.58	52.258
737.89	54.181
738.21	53.242
738.52	54.286
738.83	50.566
739.15	53.846
739.46	54.380
739.78	55.903
740.09	50.769
740.41	54.194
740.72	52.265
741.04	57.407
741.35	54.583
741.66	62.667
741.98	53.774
742.29	65.550
742.61	59.052
742.92	60.181
743.23	56.410
743.55	56.400
743.86	55.702
744.18	64.159
744.49	66.029
744.80	59.155
745.12	58.182
745.43	55.507
745.74	64.865
746.06	61.927
746.37	56.054
746.68	53.846
747.00	61.574
747.31	61.429
747.62	50.442
747.94	53.744
748.25	54.468
748.56	60.352
748.88	59.901
749.19	70.000
749.50	57.674
749.82	49.593
750.13	52.653
750.44	53.650
750.75	55.439
751.07	53.376
751.38	54.007
751.69	55.235
752.01	58.647
752.32	51.264
752.63	53.546
752.94	54.098
753.26	58.800
753.57	53.252
753.88	58.594
754.19	51.429
754.51	55.903
754.82	51.625
755.13	61.509
755.44	51.128
755.75	48.540
756.07	51.418
756.38	53.285
756.69	50.671
757.00	52.096
757.31	48.665
757.63	50.000
757.94	47.453
758.25	48.775
758.56	48.395
758.87	51.075
759.18	51.818
759.50	49.843
759.81	49.221
760.12	50.625
760.43	50.716
760.74	47.826
761.05	50.847
761.36	47.326
761.67	50.568
761.99	50.311
762.30	59.722
762.61	57.634
762.92	51.172
763.23	60.504
763.54	54.800
763.85	52.734
764.16	55.000
764.47	57.795
764.78	50.177
765.10	46.835
765.41	52.212
765.72	49.401
766.03	50.784
766.34	53.667
766.65	52.766
766.96	55.128
767.27	63.959
767.58	63.542
767.89	59.474
768.20	62.069
768.51	55.330
768.82	57.798
769.13	54.065
769.44	50.202
769.75	53.648
770.06	52.294
770.37	57.466
770.68	53.241
770.99	55.111
771.30	44.672
771.61	61.435
771.92	54.508
772.23	60.504
772.54	62.051
772.85	59.686
773.16	64.362
773.47	61.413
773.78	61.421
774.09	59.524
774.39	61.988
774.70	57.407
775.01	63.768
775.32	73.203
775.63	62.500
775.94	61.151
776.25	66.929
776.56	67.164
776.87	69.672
777.18	70.313
777.48	75.573
777.79	72.727
778.10	71.852
778.41	66.964
778.72	76.642
779.03	61.745
779.34	61.074
779.65	64.865
779.95	63.804
780.26	71.895
780.57	70.345
780.88	75.000
781.19	75.940
781.50	69.595
781.80	61.006
782.11	58.192
782.42	65.823
782.73	59.509
783.04	72.973
783.34	66.197
783.65	74.658
783.96	73.881
784.27	54.545
784.57	66.187
784.88	69.444
785.19	76.190
785.50	72.642
785.81	80.597
786.11	66.393
786.42	68.217
786.73	76.991
787.04	85.849
787.34	75.000
787.65	86.000
787.96	70.270
788.26	72.727
788.57	78.814
788.88	72.727
789.19	69.444
789.49	83.333
789.80	72.519
790.11	93.333
790.41	76.238
790.72	73.494
791.03	92.391
791.33	84.884
791.64	89.691
791.95	73.267
792.25	76.667
792.56	90.909
792.87	102.564
793.17	97.468
793.48	87.356
793.79	79.310
794.09	85.227
794.40	80.672
794.70	78.676
795.01	64.444
795.32	64.029
795.62	61.417
795.93	66.379
796.23	69.027
796.54	78.824
796.85	83.784
797.15	102.817
797.46	90.909
797.76	98.795
798.07	100.000
798.37	104.615
798.68	90.909
798.99	91.549
799.29	75.325
799.60	82.955
799.90	102.740
800.21	97.015
800.51	115.517
800.82	96.491
801.12	91.803
801.43	101.515
801.73	86.486
802.04	109.524
802.34	86.420
802.65	85.938
802.95	111.864
803.26	98.438
803.56	78.571
803.87	98.462
804.17	100.000
804.48	100.000
804.78	117.241
805.09	105.882
805.39	88.462
805.70	110.714
806.00	101.639
806.30	96.970
806.61	76.829
806.91	89.873
807.22	94.737
807.52	83.582
807.83	84.507
808.13	115.625
808.43	106.667
808.74	86.842
809.04	100.000
809.35	108.955
809.65	102.632
809.95	120.968
810.26	111.864
810.56	80.952
810.86	138.636
811.17	147.619
811.47	106.667
811.77	100.000
812.08	121.818
812.38	124.000
812.69	172.222
812.99	138.636
813.29	118.367
813.59	111.905
813.90	134.694
814.20	105.455
814.50	90.769
814.81	113.235
815.11	89.796
815.41	104.918
815.72	142.857
816.02	123.636
816.32	133.333
816.62	145.000
816.93	151.220
817.23	140.476
817.53	134.091
817.84	154.545
818.14	126.087
818.44	128.889
818.74	179.412
819.04	132.500
819.35	142.857
819.65	164.706
819.95	167.857
820.25	200.000
820.56	161.538
820.86	140.909
821.16	148.837
821.46	143.590
821.76	154.000
822.07	151.429
822.37	130.000
822.67	130.303
822.97	115.686
823.27	203.571
823.57	145.946
823.88	150.000
824.18	186.667
824.48	152.381
824.78	188.000
825.08	212.500
825.38	148.649
825.69	134.146
825.99	204.167
826.29	131.034
826.59	144.737
826.89	142.105
827.19	167.647
827.49	167.742
827.79	129.545
828.09	127.273
828.39	110.638
828.70	126.531
829.00	155.556
829.30	167.742
829.60	147.500
829.90	333.333
830.20	153.571
830.50	213.043
830.80	221.739
831.10	213.333
831.40	190.000
831.70	186.957
832.00	203.846
832.30	214.815
832.60	300.000
832.90	230.000
833.20	357.143
833.50	187.097
833.80	172.414
834.10	171.875
834.40	207.692
834.70	294.444
835.00	295.238
835.30	128.571
835.60	292.308
835.90	213.793
836.20	321.429
836.50	189.655
836.80	176.000
837.10	155.556
837.40	238.095
837.70	341.176
838.00	188.889
838.30	271.429
838.60	257.143
838.90	219.231
839.19	250.000
839.49	335.714
839.79	290.000
840.09	230.000
840.39	233.333
840.69	239.130
840.99	244.444
841.29	440.000
841.59	383.333
841.88	256.250
842.18	182.759
842.48	247.619
842.78	160.000
843.08	195.652
843.38	153.125
843.68	766.667
843.97	215.385
844.27	179.310
844.57	276.190
844.87	331.250
845.17	185.185
845.47	1200.000
845.76	455.556
846.06	311.765
846.36	387.500
846.66	328.571
846.96	262.500
847.25	263.636
847.55	354.545
847.85	239.130
848.15	480.000
848.44	292.857
848.74	250.000
849.04	311.765
849.34	390.000
849.63	294.737
849.93	409.091
850.23	900.000
850.53	364.286
850.82	2200.000
851.12	-3200.000
851.42	4100.000
851.71	250.000
852.01	-833.333
852.31	229.167
852.61	1200.000
852.90	223.810
853.20	228.000
853.50	276.471
853.79	223.810
854.09	200.000
854.39	325.000
854.68	159.459
854.98	158.065
855.28	146.667
855.57	186.207
855.87	225.926
856.17	215.789
856.46	213.333
856.76	294.118
857.05	220.690
857.35	208.333
857.65	366.667
857.94	195.652
858.24	219.231
858.53	265.000
858.83	200.000
859.13	280.000
859.42	0.000
859.72	588.889
860.01	454.545
860.31	259.091
860.60	231.579
860.90	186.957
861.20	466.667
861.49	508.333
861.79	-3900.000
862.08	575.000
862.38	219.048
862.67	292.308
862.97	341.176
863.26	555.556
863.56	266.667
863.85	383.333
864.15	637.500
864.44	333.333
864.74	750.000
865.03	650.000
865.33	263.158
865.62	372.727
865.92	376.923
866.21	341.667
866.51	0.000
866.80	463.636
867.10	900.000
867.39	361.538
867.69	418.182
867.98	215.789
868.27	463.636
868.57	294.737
868.86	-2900.000
869.16	312.500
869.45	1700.000
869.75	-4000.000
870.04	425.000
870.33	557.143
870.63	975.000
870.92	2000.000
871.22	728.571
871.51	300.000
871.80	223.810
872.10	414.286
>>>>>End Processed Spectral Data<<<<<
