SpectraSuite Data File
++++++++++++++++++++++++++++++++++++
Date: Wed May 13 16:46:51 PDT 2015
User: schluterlab
Dark Spectrum Present: Yes
Reference Spectrum Present: Yes
Number of Sampled Component Spectra: 1
Spectrometers: USB2E3373
Integration Time (usec): 3000 (USB2E3373)
Spectra Averaged: 3 (USB2E3373)
Boxcar Smoothing: 0 (USB2E3373)
Correct for Electrical Dark: No (USB2E3373)
Strobe/Lamp Enabled: No (USB2E3373)
Correct for Detector Non-linearity: No (USB2E3373)
Correct for Stray Light: No (USB2E3373)
Number of Pixels in Processed Spectrum: 2048
>>>>>Begin Processed Spectral Data<<<<<
178.53	0.000
178.91	-1300.000
179.29	-1325.000
179.67	-211.111
180.04	-1400.000
180.42	2600.000
180.80	920.000
181.18	-925.000
181.56	728.571
181.94	0.000
182.31	-528.571
182.69	1633.333
183.07	-525.000
183.45	-544.444
183.83	427.273
184.20	-380.000
184.58	2700.000
184.96	6100.000
185.34	-960.000
185.72	-487.500
186.09	-2150.000
186.47	3200.000
186.85	2050.000
187.23	4700.000
187.61	-1666.667
187.98	1250.000
188.36	527.273
188.74	527.273
189.12	-840.000
189.49	560.000
189.87	-4100.000
190.25	-1075.000
190.63	428.571
191.00	446.154
191.38	666.667
191.76	-1050.000
192.14	1250.000
192.51	587.500
192.89	850.000
193.27	600.000
193.65	-950.000
194.02	470.000
194.40	680.000
194.78	480.000
195.15	491.667
195.53	600.000
195.91	-1700.000
196.29	306.250
196.66	257.895
197.04	-400.000
197.42	0.000
197.79	560.000
198.17	-4400.000
198.55	685.714
198.92	662.500
199.30	800.000
199.68	0.000
200.05	366.667
200.43	885.714
200.81	4900.000
201.18	1666.667
201.56	-1633.333
201.94	611.111
202.31	500.000
202.69	450.000
203.07	530.000
203.44	0.000
203.82	1375.000
204.19	800.000
204.57	421.429
204.95	650.000
205.32	1533.333
205.70	509.091
206.08	357.143
206.45	2000.000
206.83	350.000
207.20	933.333
207.58	560.000
207.96	250.000
208.33	575.000
208.71	-816.667
209.08	857.143
209.46	555.556
209.84	481.818
210.21	-1666.667
210.59	1200.000
210.96	-462.500
211.34	2400.000
211.71	460.000
212.09	716.667
212.46	0.000
212.84	1566.667
213.22	950.000
213.59	-4600.000
213.97	900.000
214.34	700.000
214.72	527.273
215.09	920.000
215.47	-2400.000
215.84	-2250.000
216.22	1533.333
216.59	407.143
216.97	1400.000
217.34	509.091
217.72	-650.000
218.09	0.000
218.47	-4800.000
218.84	644.444
219.22	785.714
219.59	2000.000
219.97	-600.000
220.34	800.000
220.72	-1633.333
221.09	414.286
221.47	1225.000
221.84	-683.333
222.22	0.000
222.59	1225.000
222.97	-2550.000
223.34	1060.000
223.72	369.231
224.09	840.000
224.46	2250.000
224.84	-4800.000
225.21	-640.000
225.59	-4400.000
225.96	470.000
226.34	310.000
226.71	2700.000
227.08	625.000
227.46	570.000
227.83	-1200.000
228.21	-2250.000
228.58	655.556
228.95	-2400.000
229.33	-2300.000
229.70	1600.000
230.08	785.714
230.45	-720.000
230.82	391.667
231.20	766.667
231.57	657.143
231.95	400.000
232.32	195.455
232.69	390.909
233.07	571.429
233.44	346.154
233.81	-1500.000
234.19	268.421
234.56	333.333
234.93	391.667
235.31	427.273
235.68	330.769
236.05	257.143
236.43	166.667
236.80	236.842
237.17	4100.000
237.55	209.524
237.92	182.143
238.29	252.381
238.67	167.742
239.04	175.862
239.41	125.000
239.79	100.000
240.16	111.905
240.53	125.000
240.91	98.039
241.28	94.000
241.65	86.000
242.02	73.913
242.40	66.129
242.77	65.000
243.14	69.892
243.51	67.416
243.89	67.059
244.26	47.778
244.63	47.312
245.00	53.191
245.38	54.455
245.75	38.318
246.12	46.789
246.49	45.985
246.87	48.000
247.24	44.615
247.61	34.286
247.98	37.908
248.36	28.378
248.73	34.395
249.10	43.949
249.47	34.463
249.84	32.086
250.22	33.155
250.59	33.728
250.96	31.313
251.33	30.332
251.70	32.673
252.08	23.333
252.45	26.457
252.82	28.696
253.19	26.383
253.56	25.490
253.94	27.801
254.31	25.000
254.68	27.692
255.05	25.830
255.42	23.171
255.79	21.324
256.16	24.910
256.54	19.788
256.91	22.420
257.28	18.705
257.65	24.092
258.02	21.429
258.39	16.088
258.76	19.064
259.14	19.643
259.51	21.884
259.88	16.460
260.25	19.033
260.62	19.075
260.99	18.323
261.36	19.219
261.73	19.484
262.10	17.151
262.47	17.746
262.85	18.942
263.22	12.821
263.59	18.803
263.96	14.560
264.33	19.060
264.70	15.789
265.07	18.414
265.44	16.667
265.81	16.058
266.18	17.839
266.55	16.098
266.92	16.462
267.29	17.824
267.66	13.761
268.03	17.727
268.40	15.888
268.77	14.558
269.14	14.414
269.51	18.962
269.88	17.249
270.25	12.641
270.62	15.730
270.99	16.129
271.36	15.880
271.73	13.084
272.10	14.130
272.47	15.484
272.84	16.450
273.21	15.514
273.58	14.629
273.95	11.530
274.32	13.017
274.69	16.274
275.06	13.976
275.43	14.894
275.80	15.030
276.17	12.220
276.54	15.385
276.91	16.008
277.28	14.453
277.65	14.894
278.02	13.251
278.39	14.258
278.76	13.091
279.13	13.585
279.50	15.270
279.87	15.936
280.23	13.573
280.60	13.346
280.97	11.830
281.34	14.159
281.71	14.364
282.08	14.971
282.45	14.182
282.82	14.565
283.19	12.478
283.56	12.456
283.92	11.506
284.29	11.287
284.66	12.886
285.03	12.839
285.40	13.908
285.77	12.963
286.14	13.817
286.51	13.167
286.87	12.821
287.24	14.007
287.61	12.681
287.98	13.149
288.35	11.252
288.72	10.903
289.08	12.207
289.45	11.862
289.82	13.008
290.19	11.774
290.56	11.639
290.93	12.991
291.29	11.656
291.66	11.652
292.03	15.552
292.40	14.684
292.77	11.686
293.13	12.687
293.50	12.391
293.87	12.148
294.24	10.963
294.60	10.626
294.97	11.628
295.34	12.553
295.71	11.080
296.08	10.399
296.44	12.380
296.81	10.568
297.18	13.279
297.55	8.971
297.91	11.082
298.28	11.245
298.65	11.358
299.02	12.121
299.38	11.288
299.75	8.895
300.12	9.962
300.48	9.625
300.85	10.358
301.22	10.318
301.59	11.490
301.95	10.705
302.32	10.655
302.69	10.992
303.05	11.030
303.42	10.988
303.79	10.646
304.15	9.674
304.52	10.081
304.89	9.640
305.25	10.557
305.62	11.438
305.99	10.862
306.35	11.521
306.72	11.659
307.09	11.765
307.45	10.698
307.82	10.379
308.19	11.038
308.55	11.003
308.92	10.311
309.29	10.032
309.65	11.241
310.02	11.734
310.38	10.108
310.75	12.038
311.12	10.645
311.48	11.076
311.85	11.845
312.22	11.759
312.58	10.187
312.95	12.144
313.31	10.388
313.68	11.954
314.05	12.821
314.41	11.256
314.78	11.380
315.14	11.817
315.51	10.917
315.87	12.079
316.24	10.626
316.61	11.111
316.97	11.057
317.34	10.861
317.70	11.663
318.07	12.031
318.43	12.035
318.80	12.277
319.16	11.676
319.53	11.163
319.89	12.857
320.26	12.400
320.62	12.004
320.99	12.222
321.35	12.626
321.72	11.704
322.08	11.747
322.45	12.935
322.81	11.628
323.18	13.487
323.54	11.224
323.91	11.981
324.27	11.472
324.64	11.743
325.00	12.083
325.37	11.647
325.73	13.016
326.10	11.474
326.46	10.932
326.83	12.856
327.19	12.383
327.56	11.411
327.92	11.899
328.29	12.156
328.65	12.707
329.01	12.004
329.38	11.378
329.74	11.173
330.11	11.310
330.47	12.029
330.84	12.224
331.20	11.384
331.56	12.477
331.93	10.926
332.29	12.245
332.66	11.858
333.02	13.528
333.38	11.382
333.75	12.567
334.11	12.100
334.48	11.624
334.84	10.294
335.20	10.818
335.57	10.879
335.93	11.964
336.29	11.813
336.66	11.181
337.02	10.950
337.38	11.019
337.75	10.428
338.11	11.191
338.47	11.971
338.84	12.374
339.20	10.642
339.56	11.405
339.93	10.545
340.29	11.504
340.65	11.408
341.02	11.169
341.38	11.032
341.74	10.351
342.11	11.179
342.47	11.278
342.83	11.045
343.20	11.775
343.56	11.794
343.92	11.140
344.28	10.459
344.65	10.060
345.01	10.438
345.37	9.949
345.73	10.829
346.10	10.827
346.46	10.932
346.82	10.956
347.19	9.023
347.55	10.427
347.91	10.194
348.27	10.189
348.63	10.368
349.00	10.922
349.36	9.688
349.72	10.906
350.08	9.319
350.45	11.229
350.81	10.561
351.17	11.102
351.53	9.910
351.89	9.736
352.26	11.523
352.62	11.067
352.98	9.887
353.34	10.025
353.70	10.229
354.07	10.484
354.43	10.079
354.79	8.689
355.15	10.375
355.51	10.312
355.87	10.367
356.24	10.179
356.60	9.864
356.96	10.298
357.32	10.548
357.68	10.236
358.04	10.610
358.40	10.847
358.77	10.876
359.13	9.155
359.49	10.980
359.85	8.651
360.21	9.410
360.57	10.039
360.93	11.154
361.29	9.675
361.66	9.056
362.02	10.075
362.38	10.190
362.74	10.045
363.10	9.845
363.46	9.098
363.82	9.675
364.18	9.692
364.54	10.550
364.90	9.844
365.26	9.926
365.62	10.665
365.98	9.277
366.35	8.381
366.71	9.906
367.07	9.250
367.43	9.579
367.79	10.136
368.15	10.776
368.51	9.302
368.87	10.778
369.23	9.802
369.59	10.427
369.95	10.000
370.31	10.969
370.67	9.203
371.03	10.337
371.39	10.204
371.75	10.368
372.11	9.602
372.47	10.924
372.83	11.888
373.19	9.899
373.55	10.717
373.91	10.677
374.27	9.897
374.63	9.309
374.99	10.523
375.35	9.700
375.71	9.527
376.07	11.385
376.42	9.285
376.78	10.073
377.14	10.516
377.50	10.331
377.86	9.973
378.22	10.493
378.58	9.148
378.94	9.302
379.30	9.542
379.66	10.596
380.02	10.012
380.38	8.743
380.74	10.204
381.09	10.758
381.45	9.957
381.81	10.381
382.17	11.083
382.53	10.126
382.89	10.000
383.25	9.631
383.61	11.090
383.97	10.069
384.32	9.794
384.68	9.232
385.04	10.080
385.40	10.402
385.76	11.057
386.12	10.168
386.48	10.824
386.83	10.327
387.19	10.080
387.55	10.266
387.91	10.339
388.27	9.810
388.62	11.248
388.98	9.582
389.34	9.574
389.70	10.852
390.06	11.217
390.42	10.052
390.77	10.623
391.13	10.785
391.49	10.470
391.85	10.312
392.20	9.464
392.56	10.164
392.92	9.888
393.28	9.053
393.64	10.971
393.99	10.812
394.35	10.236
394.71	10.351
395.07	9.907
395.42	10.074
395.78	10.369
396.14	10.366
396.50	10.589
396.85	9.981
397.21	9.988
397.57	10.105
397.92	10.637
398.28	9.753
398.64	10.573
399.00	10.353
399.35	10.152
399.71	10.417
400.07	10.526
400.42	10.613
400.78	10.253
401.14	9.390
401.49	9.134
401.85	9.619
402.21	9.521
402.57	10.056
402.92	9.962
403.28	9.744
403.63	10.396
403.99	9.299
404.35	9.939
404.70	9.892
405.06	9.086
405.42	9.732
405.77	9.200
406.13	9.537
406.49	9.580
406.84	9.805
407.20	9.279
407.55	9.253
407.91	10.200
408.27	8.615
408.62	9.753
408.98	8.762
409.34	9.471
409.69	9.742
410.05	8.798
410.40	9.419
410.76	8.961
411.11	9.469
411.47	9.010
411.83	9.957
412.18	9.029
412.54	9.278
412.89	9.940
413.25	9.032
413.60	8.894
413.96	9.229
414.31	8.809
414.67	9.632
415.03	9.470
415.38	9.987
415.74	9.453
416.09	9.732
416.45	9.438
416.80	9.319
417.16	9.920
417.51	9.622
417.87	8.992
418.22	9.779
418.58	9.361
418.93	9.337
419.29	9.102
419.64	9.824
420.00	9.695
420.35	9.159
420.71	9.384
421.06	9.726
421.42	9.649
421.77	9.361
422.12	9.040
422.48	9.012
422.83	9.493
423.19	9.282
423.54	8.822
423.90	9.739
424.25	9.604
424.61	9.702
424.96	9.446
425.31	9.579
425.67	8.708
426.02	9.314
426.38	10.195
426.73	8.894
427.09	8.632
427.44	9.316
427.79	9.086
428.15	9.345
428.50	9.479
428.85	10.191
429.21	8.945
429.56	9.072
429.92	9.361
430.27	8.689
430.62	8.653
430.98	8.926
431.33	9.021
431.68	9.319
432.04	9.798
432.39	8.795
432.74	8.498
433.10	8.885
433.45	9.679
433.80	8.592
434.16	9.188
434.51	9.895
434.86	8.894
435.22	10.061
435.57	9.179
435.92	9.070
436.28	9.609
436.63	10.155
436.98	8.815
437.34	9.183
437.69	9.277
438.04	9.275
438.39	10.149
438.75	10.052
439.10	9.609
439.45	9.209
439.81	8.459
440.16	9.204
440.51	9.373
440.86	9.323
441.22	9.288
441.57	9.554
441.92	9.621
442.27	9.203
442.63	8.741
442.98	10.141
443.33	9.783
443.68	9.654
444.03	8.931
444.39	9.591
444.74	9.199
445.09	8.841
445.44	8.475
445.79	9.104
446.15	10.164
446.50	8.831
446.85	9.096
447.20	9.383
447.55	9.324
447.91	9.156
448.26	9.349
448.61	9.384
448.96	9.967
449.31	10.011
449.66	9.848
450.02	9.304
450.37	9.467
450.72	9.588
451.07	9.019
451.42	9.666
451.77	9.102
452.12	9.988
452.47	10.386
452.83	9.441
453.18	9.963
453.53	10.019
453.88	9.805
454.23	10.161
454.58	9.570
454.93	10.617
455.28	9.601
455.63	9.951
455.98	9.643
456.34	8.982
456.69	9.706
457.04	9.536
457.39	9.760
457.74	9.228
458.09	9.948
458.44	9.407
458.79	8.839
459.14	9.424
459.49	9.807
459.84	9.197
460.19	9.193
460.54	9.780
460.89	9.709
461.24	9.350
461.59	10.227
461.94	9.864
462.29	10.208
462.64	10.019
462.99	9.434
463.34	10.667
463.69	9.631
464.04	10.493
464.39	10.493
464.74	10.160
465.09	10.253
465.44	9.640
465.79	8.837
466.14	9.688
466.49	9.121
466.84	10.274
467.19	10.078
467.54	10.000
467.89	9.484
468.24	9.948
468.59	10.012
468.94	9.713
469.29	9.319
469.64	10.710
469.99	9.878
470.34	10.304
470.68	10.920
471.03	9.660
471.38	9.729
471.73	10.127
472.08	10.987
472.43	9.171
472.78	9.546
473.13	10.141
473.48	10.549
473.83	9.817
474.17	9.334
474.52	10.422
474.87	10.625
475.22	9.634
475.57	9.135
475.92	9.294
476.27	8.737
476.61	9.322
476.96	8.686
477.31	8.844
477.66	10.011
478.01	9.096
478.36	9.730
478.70	9.086
479.05	8.999
479.40	9.468
479.75	9.304
480.10	8.797
480.45	9.091
480.79	9.173
481.14	9.149
481.49	9.397
481.84	8.551
482.19	9.450
482.53	8.807
482.88	9.586
483.23	9.439
483.58	9.691
483.92	9.372
484.27	8.453
484.62	8.621
484.97	8.396
485.31	8.288
485.66	8.063
486.01	7.296
486.36	7.170
486.70	6.827
487.05	7.352
487.40	7.686
487.75	7.612
488.09	8.129
488.44	8.172
488.79	8.137
489.13	8.976
489.48	8.728
489.83	8.632
490.17	8.856
490.52	8.680
490.87	8.503
491.22	9.095
491.56	8.565
491.91	8.143
492.26	8.222
492.60	8.848
492.95	8.419
493.30	8.832
493.64	8.773
493.99	8.264
494.34	9.204
494.68	8.608
495.03	9.258
495.37	9.027
495.72	8.674
496.07	9.049
496.41	8.009
496.76	8.311
497.11	8.420
497.45	8.943
497.80	8.541
498.14	8.261
498.49	8.341
498.84	9.060
499.18	8.619
499.53	8.784
499.87	8.574
500.22	9.091
500.56	9.029
500.91	8.413
501.26	8.203
501.60	8.685
501.95	8.937
502.29	8.669
502.64	8.426
502.98	8.602
503.33	8.729
503.67	9.002
504.02	8.793
504.36	9.312
504.71	8.842
505.06	8.771
505.40	8.896
505.75	8.582
506.09	8.649
506.44	8.485
506.78	8.427
507.13	8.682
507.47	9.192
507.82	9.169
508.16	9.017
508.51	8.422
508.85	8.937
509.19	8.571
509.54	8.469
509.88	8.655
510.23	8.226
510.57	9.391
510.92	8.597
511.26	9.353
511.61	9.025
511.95	8.925
512.30	8.749
512.64	9.189
512.98	9.003
513.33	9.315
513.67	9.285
514.02	8.117
514.36	9.394
514.70	8.688
515.05	8.979
515.39	9.142
515.74	8.896
516.08	9.447
516.42	9.767
516.77	10.089
517.11	8.713
517.46	9.594
517.80	9.582
518.14	8.801
518.49	9.218
518.83	9.205
519.17	9.296
519.52	8.772
519.86	9.869
520.20	9.653
520.55	9.874
520.89	9.854
521.23	9.288
521.58	9.184
521.92	9.369
522.26	9.457
522.61	9.408
522.95	9.638
523.29	9.617
523.64	9.756
523.98	9.735
524.32	9.107
524.66	9.802
525.01	9.314
525.35	8.736
525.69	8.621
526.04	8.972
526.38	9.579
526.72	9.325
527.06	9.102
527.41	8.478
527.75	8.424
528.09	9.249
528.43	9.050
528.78	9.711
529.12	8.970
529.46	9.492
529.80	8.601
530.15	10.903
530.49	9.169
530.83	10.127
531.17	9.661
531.51	10.571
531.86	9.226
532.20	10.169
532.54	10.186
532.88	9.756
533.22	8.869
533.57	9.753
533.91	8.730
534.25	8.870
534.59	9.396
534.93	8.983
535.27	8.751
535.62	10.012
535.96	9.291
536.30	9.472
536.64	9.466
536.98	9.954
537.32	9.282
537.66	9.333
538.01	9.151
538.35	9.632
538.69	9.892
539.03	9.357
539.37	8.818
539.71	8.036
540.05	9.150
540.39	9.169
540.73	9.379
541.07	9.864
541.42	9.328
541.76	9.613
542.10	9.250
542.44	8.344
542.78	10.013
543.12	8.573
543.46	8.787
543.80	9.954
544.14	8.280
544.48	9.587
544.82	8.403
545.16	9.174
545.50	8.805
545.84	9.073
546.18	9.226
546.52	9.566
546.86	9.072
547.20	9.036
547.54	9.619
547.88	9.885
548.22	9.651
548.56	9.686
548.90	9.219
549.24	8.889
549.58	10.095
549.92	9.753
550.26	10.227
550.60	9.267
550.94	9.577
551.28	9.144
551.62	9.058
551.96	9.053
552.30	9.761
552.64	9.601
552.98	9.424
553.32	8.968
553.66	10.225
554.00	9.540
554.34	10.283
554.68	10.587
555.02	9.873
555.36	9.186
555.69	8.796
556.03	9.287
556.37	9.550
556.71	9.550
557.05	9.384
557.39	9.797
557.73	10.021
558.07	9.862
558.41	9.841
558.75	10.287
559.08	10.291
559.42	9.599
559.76	9.853
560.10	9.636
560.44	9.154
560.78	9.315
561.12	9.828
561.45	9.518
561.79	9.031
562.13	9.725
562.47	9.426
562.81	9.484
563.15	9.498
563.48	9.019
563.82	9.132
564.16	9.156
564.50	8.789
564.84	9.229
565.17	8.880
565.51	9.010
565.85	9.074
566.19	8.453
566.52	9.626
566.86	8.861
567.20	9.139
567.54	8.961
567.88	8.528
568.21	8.836
568.55	8.999
568.89	7.928
569.23	8.779
569.56	7.976
569.90	7.849
570.24	7.248
570.57	7.888
570.91	7.272
571.25	7.566
571.59	7.599
571.92	7.517
572.26	7.337
572.60	7.568
572.93	6.987
573.27	7.365
573.61	7.817
573.95	7.313
574.28	7.111
574.62	7.191
574.96	7.192
575.29	7.056
575.63	7.215
575.97	7.212
576.30	7.621
576.64	7.177
576.98	7.025
577.31	6.955
577.65	6.884
577.98	6.815
578.32	6.791
578.66	6.939
578.99	6.893
579.33	6.609
579.67	6.811
580.00	7.097
580.34	7.072
580.67	7.138
581.01	7.173
581.35	7.118
581.68	6.825
582.02	6.647
582.35	6.637
582.69	7.144
583.02	7.114
583.36	7.263
583.70	7.218
584.03	7.315
584.37	7.510
584.70	7.393
585.04	7.143
585.37	7.386
585.71	7.472
586.04	7.538
586.38	7.524
586.72	8.064
587.05	7.036
587.39	7.071
587.72	7.756
588.06	7.231
588.39	7.188
588.73	7.715
589.06	7.604
589.40	8.249
589.73	7.885
590.07	8.007
590.40	7.600
590.73	8.197
591.07	8.425
591.40	8.098
591.74	8.528
592.07	8.464
592.41	8.599
592.74	8.052
593.08	8.095
593.41	8.004
593.75	7.464
594.08	7.811
594.41	8.554
594.75	7.874
595.08	7.874
595.42	8.231
595.75	8.333
596.09	8.825
596.42	8.644
596.75	8.822
597.09	8.268
597.42	8.094
597.75	8.193
598.09	8.174
598.42	8.548
598.76	7.621
599.09	8.058
599.42	8.151
599.76	7.943
600.09	7.359
600.42	7.195
600.76	7.929
601.09	7.869
601.42	8.486
601.76	7.818
602.09	8.024
602.42	8.957
602.76	8.585
603.09	8.497
603.42	8.473
603.76	8.079
604.09	7.367
604.42	8.072
604.76	8.815
605.09	8.650
605.42	8.380
605.75	8.071
606.09	8.174
606.42	8.296
606.75	9.083
607.09	8.623
607.42	8.173
607.75	7.764
608.08	8.033
608.42	8.920
608.75	8.341
609.08	8.464
609.41	8.615
609.75	8.433
610.08	8.671
610.41	7.868
610.74	7.237
611.07	9.338
611.41	8.734
611.74	9.502
612.07	9.006
612.40	9.182
612.73	8.053
613.07	8.944
613.40	8.794
613.73	8.495
614.06	8.548
614.39	8.862
614.72	8.789
615.06	8.456
615.39	8.333
615.72	8.793
616.05	8.347
616.38	9.283
616.71	9.204
617.05	10.247
617.38	9.200
617.71	8.288
618.04	9.135
618.37	9.048
618.70	9.583
619.03	10.066
619.36	9.165
619.69	9.648
620.03	10.302
620.36	9.893
620.69	9.863
621.02	9.513
621.35	9.397
621.68	10.202
622.01	10.062
622.34	9.607
622.67	10.190
623.00	9.685
623.33	9.006
623.66	9.650
623.99	8.837
624.32	9.130
624.65	10.169
624.99	9.207
625.32	9.196
625.65	9.842
625.98	10.146
626.31	11.042
626.64	10.204
626.97	10.557
627.30	9.393
627.63	10.500
627.96	10.008
628.29	10.586
628.62	11.162
628.95	12.453
629.28	11.040
629.61	11.732
629.94	10.667
630.26	10.391
630.59	10.486
630.92	10.441
631.25	10.859
631.58	10.511
631.91	11.460
632.24	10.970
632.57	11.228
632.90	10.526
633.23	11.857
633.56	13.333
633.89	11.438
634.22	12.372
634.55	11.716
634.88	11.497
635.20	13.978
635.53	11.928
635.86	10.767
636.19	12.353
636.52	12.226
636.85	10.767
637.18	11.290
637.51	13.357
637.83	11.467
638.16	11.765
638.49	12.469
638.82	13.906
639.15	13.250
639.48	12.718
639.81	12.466
640.13	13.411
640.46	14.228
640.79	13.474
641.12	11.829
641.45	12.989
641.77	12.077
642.10	12.865
642.43	12.312
642.76	12.229
643.09	13.344
643.41	10.470
643.74	16.358
644.07	14.329
644.40	14.264
644.73	14.488
645.05	13.471
645.38	14.218
645.71	13.688
646.04	12.957
646.36	15.526
646.69	14.716
647.02	12.075
647.35	14.948
647.67	14.690
648.00	15.285
648.33	15.347
648.66	14.697
648.98	13.493
649.31	11.659
649.64	12.556
649.96	12.519
650.29	13.428
650.62	12.621
650.94	15.397
651.27	15.709
651.60	14.975
651.92	16.613
652.25	13.192
652.58	14.486
652.90	15.008
653.23	12.327
653.56	13.858
653.88	14.739
654.21	15.956
654.54	13.696
654.86	13.707
655.19	12.838
655.52	7.770
655.84	5.867
656.17	7.379
656.49	9.852
656.82	10.083
657.15	7.921
657.47	5.754
657.80	4.767
658.13	4.872
658.45	7.770
658.78	7.709
659.10	8.536
659.43	9.258
659.75	9.915
660.08	11.519
660.41	12.570
660.73	14.867
661.06	13.376
661.38	15.636
661.71	15.000
662.03	17.554
662.36	12.127
662.68	16.265
663.01	14.747
663.33	14.013
663.66	15.546
663.98	17.279
664.31	15.966
664.63	13.765
664.96	14.085
665.28	16.803
665.61	15.205
665.93	15.895
666.26	14.807
666.58	16.318
666.91	18.393
667.23	18.652
667.56	14.687
667.88	17.949
668.21	17.697
668.53	16.269
668.86	14.286
669.18	20.469
669.50	18.043
669.83	19.172
670.15	16.667
670.48	16.993
670.80	16.164
671.13	17.410
671.45	15.106
671.77	17.108
672.10	15.712
672.42	14.841
672.75	15.589
673.07	14.613
673.39	13.743
673.72	14.258
674.04	14.706
674.37	14.757
674.69	15.746
675.01	14.435
675.34	18.275
675.66	19.158
675.98	16.701
676.31	14.916
676.63	17.197
676.95	15.094
677.28	15.421
677.60	16.923
677.92	16.667
678.25	16.632
678.57	15.737
678.89	15.832
679.22	15.717
679.54	15.649
679.86	16.147
680.18	14.132
680.51	15.780
680.83	15.836
681.15	16.792
681.48	16.635
681.80	13.926
682.12	16.284
682.44	13.153
682.77	15.682
683.09	18.670
683.41	17.960
683.73	18.764
684.06	19.008
684.38	16.634
684.70	16.085
685.02	15.760
685.34	16.484
685.67	13.287
685.99	13.402
686.31	15.700
686.63	14.134
686.96	14.821
687.28	12.274
687.60	13.949
687.92	15.722
688.24	14.449
688.56	15.060
688.89	18.050
689.21	17.467
689.53	16.493
689.85	19.290
690.17	15.114
690.49	17.622
690.82	17.757
691.14	16.071
691.46	14.768
691.78	15.060
692.10	15.289
692.42	16.567
692.74	13.485
693.06	16.383
693.39	17.454
693.71	12.882
694.03	19.789
694.35	17.316
694.67	14.416
694.99	18.780
695.31	15.686
695.63	17.225
695.95	16.870
696.27	14.975
696.59	17.358
696.91	17.617
697.23	14.319
697.56	19.190
697.88	14.315
698.20	17.500
698.52	16.989
698.84	16.704
699.16	15.207
699.48	14.489
699.80	15.700
700.12	20.260
700.44	22.016
700.76	19.061
701.08	19.540
701.40	17.039
701.72	21.574
702.04	22.159
702.36	15.864
702.68	23.229
703.00	21.330
703.32	17.287
703.64	19.035
703.96	17.827
704.28	18.895
704.60	20.528
704.91	24.332
705.23	18.768
705.55	23.588
705.87	24.585
706.19	18.728
706.51	25.234
706.83	22.121
707.15	18.768
707.47	16.919
707.79	18.673
708.11	16.895
708.43	17.381
708.74	16.582
709.06	20.779
709.38	17.848
709.70	20.058
710.02	22.552
710.34	17.879
710.66	23.582
710.98	22.727
711.29	21.221
711.61	22.419
711.93	19.872
712.25	22.186
712.57	20.956
712.89	18.685
713.20	20.973
713.52	23.684
713.84	18.987
714.16	16.463
714.48	20.977
714.80	22.796
715.11	24.207
715.43	18.694
715.75	22.609
716.07	20.128
716.39	19.749
716.70	25.249
717.02	21.223
717.34	22.261
717.66	25.746
717.97	24.303
718.29	24.074
718.61	21.533
718.93	24.265
719.24	22.837
719.56	20.339
719.88	21.356
720.20	23.986
720.51	21.951
720.83	24.164
721.15	20.522
721.46	23.404
721.78	25.806
722.10	27.547
722.42	27.820
722.73	23.970
723.05	19.672
723.37	20.648
723.68	24.710
724.00	23.984
724.32	26.613
724.63	21.545
724.95	25.105
725.27	24.696
725.58	25.781
725.90	30.657
726.22	20.000
726.53	24.653
726.85	22.184
727.16	21.352
727.48	23.404
727.80	25.758
728.11	26.087
728.43	23.077
728.74	23.656
729.06	21.898
729.38	27.574
729.69	24.911
730.01	20.137
730.32	22.917
730.64	24.415
730.96	19.802
731.27	22.517
731.59	18.654
731.90	17.784
732.22	18.323
732.53	20.433
732.85	20.513
733.16	18.328
733.48	22.591
733.80	24.351
734.11	21.975
734.43	22.189
734.74	19.714
735.06	17.765
735.37	22.832
735.69	18.153
736.00	26.797
736.32	22.118
736.63	21.086
736.95	25.559
737.26	16.667
737.58	20.323
737.89	24.080
738.21	23.549
738.52	24.286
738.83	22.642
739.15	22.692
739.46	25.912
739.78	21.181
740.09	22.769
740.41	24.194
740.72	19.512
741.04	27.037
741.35	21.667
741.66	31.556
741.98	23.585
742.29	32.057
742.61	32.759
742.92	26.244
743.23	26.068
743.55	26.400
743.86	27.193
744.18	32.743
744.49	32.057
744.80	30.047
745.12	32.727
745.43	32.599
745.74	29.279
746.06	28.899
746.37	28.700
746.68	24.434
747.00	29.630
747.31	28.095
747.62	26.106
747.94	25.551
748.25	23.830
748.56	29.075
748.88	31.683
749.19	32.000
749.50	32.558
749.82	21.545
750.13	24.898
750.44	21.898
750.75	24.211
751.07	25.723
751.38	26.829
751.69	23.105
752.01	19.925
752.32	22.744
752.63	24.468
752.94	23.770
753.26	27.200
753.57	19.512
753.88	27.734
754.19	22.857
754.51	27.778
754.82	20.939
755.13	24.906
755.44	22.932
755.75	22.263
756.07	25.532
756.38	21.898
756.69	21.477
757.00	20.958
757.31	20.475
757.63	19.006
757.94	19.839
758.25	20.588
758.56	21.481
758.87	19.624
759.18	24.848
759.50	19.122
759.81	23.676
760.12	16.562
760.43	24.069
760.74	20.109
761.05	20.056
761.36	17.647
761.67	20.170
761.99	21.739
762.30	23.264
762.61	25.573
762.92	28.906
763.23	29.412
763.54	30.800
763.85	25.391
764.16	26.538
764.47	26.996
764.78	22.615
765.10	16.772
765.41	20.354
765.72	20.359
766.03	22.257
766.34	23.333
766.65	28.511
766.96	26.923
767.27	34.518
767.58	32.292
767.89	36.316
768.20	33.333
768.51	28.426
768.82	26.147
769.13	23.577
769.44	25.506
769.75	27.039
770.06	22.018
770.37	28.507
770.68	32.407
770.99	26.222
771.30	21.721
771.61	28.700
771.92	31.967
772.23	30.672
772.54	33.333
772.85	37.696
773.16	35.638
773.47	36.957
773.78	35.025
774.09	38.690
774.39	40.351
774.70	30.864
775.01	48.551
775.32	36.601
775.63	40.789
775.94	30.216
776.25	44.882
776.56	49.254
776.87	43.443
777.18	42.969
777.48	39.695
777.79	46.212
778.10	39.259
778.41	49.107
778.72	35.766
779.03	39.597
779.34	37.584
779.65	43.243
779.95	34.356
780.26	37.908
780.57	43.448
780.88	47.656
781.19	41.353
781.50	38.514
781.80	33.333
782.11	32.203
782.42	32.278
782.73	33.129
783.04	43.243
783.34	43.662
783.65	42.466
783.96	41.045
784.27	40.559
784.57	35.252
784.88	33.333
785.19	47.619
785.50	50.943
785.81	49.254
786.11	56.557
786.42	51.938
786.73	48.673
787.04	60.377
787.34	48.214
787.65	54.000
787.96	41.441
788.26	43.802
788.57	44.068
788.88	61.157
789.19	43.750
789.49	46.212
789.80	46.565
790.11	56.190
790.41	61.386
790.72	62.651
791.03	64.130
791.33	59.302
791.64	52.577
791.95	55.446
792.25	75.556
792.56	63.636
792.87	82.051
793.17	75.949
793.48	74.713
793.79	59.770
794.09	69.318
794.40	50.420
794.70	44.118
795.01	36.296
795.32	41.007
795.62	48.819
795.93	45.690
796.23	49.558
796.54	62.353
796.85	64.865
797.15	73.239
797.46	56.061
797.76	63.855
798.07	59.494
798.37	64.615
798.68	60.606
798.99	53.521
799.29	76.623
799.60	59.091
799.90	80.822
800.21	92.537
800.51	91.379
800.82	75.439
801.12	88.525
801.43	74.242
801.73	78.378
802.04	95.238
802.34	80.247
802.65	95.312
802.95	89.831
803.26	93.750
803.56	77.143
803.87	81.538
804.17	92.647
804.48	112.963
804.78	81.034
805.09	70.588
805.39	86.538
805.70	80.357
806.00	81.967
806.30	72.727
806.61	75.610
806.91	55.696
807.22	75.000
807.52	62.687
807.83	81.690
808.13	100.000
808.43	86.667
808.74	61.842
809.04	76.812
809.35	77.612
809.65	86.842
809.95	90.323
810.26	88.136
810.56	85.714
810.86	115.909
811.17	133.333
811.47	106.667
811.77	96.296
812.08	98.182
812.38	110.000
812.69	122.222
812.99	136.364
813.29	128.571
813.59	85.714
813.90	110.204
814.20	83.636
814.50	93.846
814.81	100.000
815.11	114.286
815.41	85.246
815.72	133.333
816.02	98.182
816.32	114.286
816.62	110.000
816.93	117.073
817.23	123.810
817.53	95.455
817.84	124.242
818.14	113.043
818.44	93.333
818.74	150.000
819.04	140.000
819.35	140.000
819.65	164.706
819.95	196.429
820.25	175.000
820.56	146.154
820.86	100.000
821.16	141.860
821.46	128.205
821.76	120.000
822.07	151.429
822.37	132.500
822.67	130.303
822.97	101.961
823.27	196.429
823.57	159.459
823.88	157.500
824.18	173.333
824.48	150.000
824.78	208.000
825.08	150.000
825.38	140.541
825.69	131.707
825.99	241.667
826.29	148.276
826.59	155.263
826.89	128.947
827.19	164.706
827.49	148.387
827.79	134.091
828.09	125.000
828.39	112.766
828.70	120.408
829.00	166.667
829.30	116.129
829.60	115.000
829.90	280.000
830.20	175.000
830.50	182.609
830.80	182.609
831.10	183.333
831.40	180.000
831.70	152.174
832.00	211.538
832.30	211.111
832.60	231.250
832.90	196.667
833.20	385.714
833.50	193.548
833.80	175.862
834.10	178.125
834.40	192.308
834.70	305.556
835.00	361.905
835.30	157.143
835.60	300.000
835.90	151.724
836.20	271.429
836.50	172.414
836.80	188.000
837.10	158.333
837.40	271.429
837.70	276.471
838.00	185.185
838.30	223.810
838.60	300.000
838.90	196.154
839.19	255.000
839.49	357.143
839.79	310.000
840.09	230.000
840.39	300.000
840.69	260.870
840.99	261.111
841.29	410.000
841.59	400.000
841.88	331.250
842.18	165.517
842.48	257.143
842.78	183.333
843.08	243.478
843.38	190.625
843.68	733.333
843.97	207.692
844.27	172.414
844.57	257.143
844.87	362.500
845.17	196.296
845.47	1500.000
845.76	388.889
846.06	288.235
846.36	575.000
846.66	328.571
846.96	337.500
847.25	345.455
847.55	418.182
847.85	230.435
848.15	540.000
848.44	385.714
848.74	233.333
849.04	305.882
849.34	590.000
849.63	205.263
849.93	390.909
850.23	840.000
850.53	350.000
850.82	2350.000
851.12	-3400.000
851.42	4900.000
851.71	260.000
852.01	-1200.000
852.31	245.833
852.61	1133.333
852.90	261.905
853.20	224.000
853.50	329.412
853.79	252.381
854.09	179.167
854.39	262.500
854.68	167.568
854.98	209.677
855.28	150.000
855.57	193.103
855.87	200.000
856.17	189.474
856.46	280.000
856.76	241.176
857.05	158.621
857.35	200.000
857.65	366.667
857.94	217.391
858.24	261.538
858.53	245.000
858.83	222.727
859.13	353.333
859.42	0.000
859.72	433.333
860.01	381.818
860.31	231.818
860.60	289.474
860.90	208.696
861.20	377.778
861.49	416.667
861.79	-3600.000
862.08	712.500
862.38	309.524
862.67	346.154
862.97	341.176
863.26	511.111
863.56	266.667
863.85	408.333
864.15	537.500
864.44	406.667
864.74	683.333
865.03	687.500
865.33	252.632
865.62	418.182
865.92	438.462
866.21	441.667
866.51	0.000
866.80	354.545
867.10	1240.000
867.39	323.077
867.69	418.182
867.98	294.737
868.27	400.000
868.57	268.421
868.86	-4400.000
869.16	287.500
869.45	2000.000
869.75	-3500.000
870.04	358.333
870.33	600.000
870.63	975.000
870.92	2500.000
871.22	657.143
871.51	288.235
871.80	242.857
872.10	385.714
>>>>>End Processed Spectral Data<<<<<
