SpectraSuite Data File
++++++++++++++++++++++++++++++++++++
Date: Wed May 13 16:23:25 PDT 2015
User: schluterlab
Dark Spectrum Present: Yes
Reference Spectrum Present: Yes
Number of Sampled Component Spectra: 1
Spectrometers: USB2E3373
Integration Time (usec): 3000 (USB2E3373)
Spectra Averaged: 3 (USB2E3373)
Boxcar Smoothing: 0 (USB2E3373)
Correct for Electrical Dark: No (USB2E3373)
Strobe/Lamp Enabled: No (USB2E3373)
Correct for Detector Non-linearity: No (USB2E3373)
Correct for Stray Light: No (USB2E3373)
Number of Pixels in Processed Spectrum: 2048
>>>>>Begin Processed Spectral Data<<<<<
178.53	0.000
178.91	-1300.000
179.29	-1100.000
179.67	-233.333
180.04	-1150.000
180.42	2550.000
180.80	800.000
181.18	-975.000
181.56	571.429
181.94	0.000
182.31	-671.429
182.69	1966.667
183.07	-400.000
183.45	-377.778
183.83	472.727
184.20	-350.000
184.58	2150.000
184.96	6800.000
185.34	-760.000
185.72	-475.000
186.09	-2200.000
186.47	2650.000
186.85	2500.000
187.23	5000.000
187.61	-1733.333
187.98	1200.000
188.36	445.455
188.74	463.636
189.12	-960.000
189.49	540.000
189.87	-5100.000
190.25	-1100.000
190.63	428.571
191.00	407.692
191.38	816.667
191.76	-1050.000
192.14	1350.000
192.51	562.500
192.89	1016.667
193.27	512.500
193.65	-1200.000
194.02	460.000
194.40	940.000
194.78	480.000
195.15	508.333
195.53	610.000
195.91	-2300.000
196.29	287.500
196.66	331.579
197.04	-270.000
197.42	0.000
197.79	580.000
198.17	-4800.000
198.55	528.571
198.92	537.500
199.30	720.000
199.68	0.000
200.05	294.444
200.43	700.000
200.81	5300.000
201.18	1533.333
201.56	-1500.000
201.94	544.444
202.31	488.889
202.69	425.000
203.07	470.000
203.44	0.000
203.82	950.000
204.19	842.857
204.57	457.143
204.95	650.000
205.32	1566.667
205.70	500.000
206.08	342.857
206.45	2500.000
206.83	393.750
207.20	983.333
207.58	800.000
207.96	350.000
208.33	775.000
208.71	-700.000
209.08	800.000
209.46	533.333
209.84	472.727
210.21	-1466.667
210.59	1475.000
210.96	-412.500
211.34	2350.000
211.71	580.000
212.09	750.000
212.46	0.000
212.84	1600.000
213.22	1350.000
213.59	-4800.000
213.97	766.667
214.34	871.429
214.72	563.636
215.09	980.000
215.47	-2500.000
215.84	-2150.000
216.22	1666.667
216.59	378.571
216.97	1225.000
217.34	481.818
217.72	-583.333
218.09	0.000
218.47	-4000.000
218.84	588.889
219.22	771.429
219.59	1733.333
219.97	-514.286
220.34	1020.000
220.72	-1766.667
221.09	464.286
221.47	1375.000
221.84	-950.000
222.22	0.000
222.59	1425.000
222.97	-2350.000
223.34	1060.000
223.72	430.769
224.09	1240.000
224.46	2200.000
224.84	-4300.000
225.21	-820.000
225.59	-4100.000
225.96	640.000
226.34	290.000
226.71	2550.000
227.08	612.500
227.46	570.000
227.83	-1125.000
228.21	-2300.000
228.58	622.222
228.95	-2500.000
229.33	-2050.000
229.70	1733.333
230.08	785.714
230.45	-860.000
230.82	358.333
231.20	750.000
231.57	657.143
231.95	525.000
232.32	263.636
232.69	427.273
233.07	657.143
233.44	400.000
233.81	-1733.333
234.19	331.579
234.56	466.667
234.93	308.333
235.31	600.000
235.68	323.077
236.05	378.571
236.43	169.697
236.80	278.947
237.17	4500.000
237.55	261.905
237.92	271.429
238.29	271.429
238.67	187.097
239.04	241.379
239.41	172.222
239.79	147.826
240.16	180.952
240.53	163.636
240.91	162.745
241.28	128.000
241.65	164.000
242.02	121.739
242.40	120.968
242.77	125.000
243.14	98.925
243.51	105.618
243.89	97.647
244.26	100.000
244.63	102.151
245.00	84.043
245.38	89.109
245.75	101.869
246.12	80.734
246.49	83.212
246.87	92.000
247.24	97.692
247.61	87.143
247.98	73.856
248.36	72.297
248.73	78.981
249.10	84.076
249.47	75.706
249.84	73.262
250.22	68.449
250.59	75.148
250.96	73.737
251.33	72.038
251.70	75.248
252.08	72.381
252.45	67.713
252.82	68.696
253.19	66.383
253.56	64.706
253.94	68.465
254.31	68.359
254.68	71.154
255.05	69.004
255.42	67.480
255.79	68.750
256.16	69.314
256.54	59.717
256.91	62.278
257.28	65.468
257.65	64.026
258.02	63.975
258.39	59.621
258.76	61.538
259.14	61.012
259.51	57.447
259.88	61.801
260.25	59.517
260.62	60.983
260.99	64.907
261.36	61.862
261.73	61.318
262.10	62.791
262.47	62.254
262.85	59.331
263.22	56.125
263.59	61.823
263.96	59.341
264.33	57.180
264.70	61.053
265.07	60.358
265.44	60.859
265.81	54.015
266.18	58.040
266.55	59.268
266.92	60.197
267.29	57.407
267.66	57.569
268.03	59.091
268.40	56.308
268.77	55.370
269.14	54.730
269.51	56.659
269.88	60.606
270.25	57.111
270.62	58.202
270.99	55.269
271.36	54.936
271.73	59.579
272.10	56.522
272.47	58.710
272.84	57.143
273.21	58.700
273.58	55.677
273.95	54.088
274.32	52.273
274.69	55.246
275.06	52.756
275.43	57.872
275.80	56.313
276.17	55.193
276.54	55.925
276.91	54.941
277.28	52.539
277.65	55.513
278.02	57.557
278.39	56.641
278.76	53.818
279.13	53.774
279.50	52.142
279.87	54.980
280.23	53.293
280.60	56.480
280.97	54.529
281.34	54.159
281.71	55.636
282.08	51.056
282.45	52.727
282.82	52.575
283.19	52.406
283.56	53.333
283.92	51.777
284.29	49.383
284.66	53.721
285.03	52.622
285.40	51.761
285.77	53.030
286.14	49.741
286.51	53.000
286.87	50.940
287.24	50.489
287.61	49.599
287.98	49.513
288.35	49.604
288.72	48.754
289.08	48.200
289.45	49.918
289.82	47.317
290.19	49.765
290.56	47.933
290.93	44.109
291.29	47.853
291.66	47.345
292.03	46.657
292.40	45.668
292.77	45.414
293.13	45.075
293.50	47.230
293.87	42.370
294.24	44.296
294.60	43.814
294.97	45.349
295.34	44.993
295.71	45.313
296.08	44.729
296.44	43.604
296.81	41.612
297.18	44.309
297.55	41.425
297.91	41.425
298.28	44.043
298.65	42.167
299.02	41.765
299.38	41.434
299.75	40.701
300.12	40.996
300.48	39.750
300.85	41.307
301.22	41.911
301.59	39.899
301.95	40.176
302.32	40.308
302.69	40.263
303.05	40.485
303.42	39.136
303.79	39.864
304.15	38.811
304.52	39.513
304.89	40.418
305.25	38.863
305.62	39.751
305.99	40.850
306.35	39.597
306.72	39.126
307.09	41.065
307.45	41.104
307.82	39.397
308.19	40.287
308.55	40.777
308.92	40.172
309.29	40.549
309.65	40.403
310.02	39.746
310.38	39.892
310.75	40.444
311.12	39.406
311.48	40.857
311.85	42.243
312.22	40.895
312.58	42.308
312.95	42.239
313.31	40.388
313.68	43.035
314.05	43.984
314.41	42.915
314.78	43.202
315.14	42.800
315.51	44.696
315.87	42.475
316.24	42.701
316.61	44.152
316.97	44.227
317.34	43.933
317.70	46.176
318.07	46.679
318.43	47.358
318.80	45.923
319.16	47.834
319.53	46.998
319.89	48.381
320.26	49.500
320.62	49.107
320.99	50.505
321.35	51.717
321.72	51.129
322.08	51.728
322.45	54.627
322.81	55.039
323.18	53.757
323.54	55.380
323.91	56.509
324.27	58.604
324.64	58.062
325.00	58.611
325.37	61.146
325.73	62.029
326.10	62.401
326.46	62.007
326.83	65.315
327.19	63.535
327.56	66.638
327.92	66.842
328.29	67.436
328.65	67.772
329.01	68.231
329.38	69.658
329.74	68.790
330.11	70.782
330.47	68.687
330.84	69.945
331.20	70.036
331.56	70.550
331.93	71.759
332.29	71.074
332.66	72.035
333.02	70.110
333.38	72.448
333.75	71.569
334.11	71.886
334.48	70.275
334.84	72.978
335.20	73.636
335.57	73.345
335.93	71.518
336.29	74.725
336.66	73.760
337.02	71.041
337.38	73.796
337.75	72.193
338.11	72.695
338.47	75.691
338.84	73.511
339.20	73.945
339.56	75.639
339.93	74.273
340.29	72.917
340.65	73.173
341.02	72.862
341.38	74.822
341.74	73.509
342.11	74.061
342.47	75.154
342.83	72.603
343.20	75.238
343.56	73.463
343.92	74.474
344.28	73.639
344.65	75.666
345.01	72.391
345.37	72.127
345.73	73.519
346.10	74.084
346.46	74.068
346.82	72.817
347.19	73.350
347.55	71.593
347.91	74.272
348.27	73.788
348.63	73.411
349.00	72.977
349.36	73.399
349.72	72.815
350.08	72.285
350.45	73.149
350.81	73.436
351.17	73.258
351.53	74.038
351.89	73.185
352.26	72.534
352.62	73.617
352.98	72.204
353.34	75.185
353.70	73.077
354.07	73.629
354.43	71.349
354.79	74.256
355.15	72.227
355.51	73.941
355.87	74.939
356.24	73.860
356.60	73.376
356.96	74.014
357.32	74.816
357.68	74.252
358.04	72.842
358.40	73.159
358.77	72.379
359.13	71.507
359.49	73.176
359.85	73.413
360.21	77.113
360.57	74.319
360.93	74.154
361.29	74.754
361.66	73.916
362.02	73.433
362.38	73.840
362.74	73.810
363.10	73.575
363.46	73.294
363.82	74.452
364.18	72.394
364.54	74.963
364.90	73.442
365.26	74.779
365.62	74.945
365.98	75.383
366.35	73.424
366.71	73.391
367.07	73.999
367.43	74.891
367.79	75.446
368.15	75.862
368.51	74.855
368.87	74.732
369.23	74.689
369.59	74.584
369.95	73.603
370.31	74.288
370.67	72.101
371.03	74.757
371.39	76.312
371.75	74.926
372.11	72.617
372.47	74.927
372.83	77.233
373.19	73.844
373.55	76.571
373.91	75.847
374.27	74.089
374.63	76.073
374.99	75.071
375.35	76.064
375.71	74.572
376.07	75.789
376.42	77.166
376.78	76.673
377.14	75.645
377.50	76.026
377.86	75.532
378.22	76.612
378.58	74.060
378.94	76.870
379.30	76.336
379.66	76.332
380.02	76.044
380.38	74.803
380.74	76.471
381.09	76.528
381.45	77.935
381.81	76.290
382.17	76.624
382.53	76.918
382.89	77.160
383.25	75.985
383.61	77.447
383.97	76.798
384.32	77.480
384.68	76.580
385.04	76.951
385.40	75.913
385.76	75.737
386.12	77.591
386.48	78.099
386.83	79.602
387.19	79.035
387.55	76.190
387.91	77.146
388.27	77.315
388.62	76.460
388.98	75.983
389.34	77.096
389.70	76.763
390.06	77.503
390.42	77.367
390.77	76.718
391.13	77.218
391.49	77.919
391.85	76.639
392.20	76.278
392.56	78.220
392.92	76.516
393.28	75.976
393.64	77.698
393.99	74.649
394.35	76.675
394.71	76.412
395.07	75.265
395.42	76.329
395.78	75.954
396.14	77.095
396.50	78.133
396.85	77.114
397.21	75.894
397.57	77.557
397.92	77.404
398.28	75.617
398.64	75.687
399.00	74.426
399.35	75.522
399.71	76.042
400.07	74.039
400.42	75.706
400.78	76.055
401.14	75.610
401.49	75.284
401.85	76.286
402.21	74.311
402.57	75.817
402.92	75.914
403.28	76.640
403.63	75.619
403.99	76.115
404.35	75.515
404.70	74.760
405.06	74.490
405.42	76.606
405.77	74.057
406.13	73.928
406.49	75.340
406.84	73.952
407.20	74.350
407.55	74.665
407.91	76.533
408.27	74.474
408.62	74.955
408.98	74.203
409.34	74.354
409.69	74.452
410.05	74.721
410.40	74.006
410.76	73.238
411.11	74.005
411.47	73.674
411.83	74.893
412.18	72.789
412.54	72.914
412.89	74.337
413.25	74.262
413.60	74.120
413.96	72.556
414.31	73.694
414.67	75.222
415.03	72.318
415.38	74.227
415.74	74.084
416.09	76.355
416.45	74.163
416.80	73.364
417.16	75.067
417.51	74.784
417.87	72.640
418.22	74.132
418.58	73.660
418.93	73.342
419.29	74.475
419.64	73.804
420.00	73.415
420.35	72.638
420.71	74.895
421.06	73.091
421.42	73.567
421.77	72.534
422.12	72.880
422.48	72.531
422.83	73.733
423.19	73.149
423.54	73.535
423.90	74.203
424.25	72.641
424.61	73.214
424.96	75.044
425.31	73.200
425.67	71.236
426.02	72.971
426.38	74.359
426.73	73.435
427.09	74.468
427.44	74.411
427.79	72.513
428.15	74.226
428.50	74.137
428.85	73.361
429.21	73.330
429.56	74.598
429.92	74.132
430.27	73.635
430.62	72.709
430.98	72.704
431.33	71.649
431.68	74.555
432.04	71.672
432.39	75.157
432.74	73.549
433.10	74.816
433.45	75.044
433.80	74.169
434.16	73.504
434.51	72.368
434.86	75.200
435.22	74.653
435.57	75.866
435.92	73.786
436.28	75.682
436.63	72.406
436.98	74.871
437.34	74.419
437.69	75.146
438.04	74.817
438.39	75.164
438.75	75.770
439.10	74.581
439.45	75.089
439.81	75.045
440.16	75.212
440.51	74.927
440.86	77.070
441.22	74.416
441.57	74.522
441.92	73.644
442.27	74.919
442.63	75.092
442.98	75.662
443.33	73.261
443.68	73.774
444.03	74.475
444.39	74.197
444.74	73.539
445.09	73.369
445.44	73.975
445.79	73.825
446.15	73.584
446.50	74.044
446.85	75.437
447.20	73.279
447.55	74.707
447.91	74.407
448.26	74.624
448.61	75.410
448.96	75.581
449.31	75.478
449.66	73.832
450.02	72.981
450.37	73.583
450.72	75.127
451.07	73.736
451.42	73.495
451.77	74.985
452.12	74.423
452.47	73.321
452.83	75.350
453.18	74.450
453.53	75.263
453.88	73.774
454.23	73.939
454.58	74.621
454.93	76.605
455.28	74.688
455.63	73.908
455.98	76.726
456.34	74.623
456.69	75.454
457.04	76.594
457.39	73.933
457.74	73.302
458.09	73.663
458.44	75.485
458.79	73.861
459.14	73.928
459.49	74.489
459.84	73.130
460.19	74.779
460.54	72.569
460.89	73.286
461.24	74.317
461.59	72.865
461.94	72.565
462.29	74.955
462.64	72.878
462.99	73.845
463.34	74.600
463.69	74.484
464.04	74.551
464.39	71.884
464.74	73.916
465.09	73.824
465.44	72.632
465.79	72.204
466.14	71.100
466.49	71.635
466.84	71.687
467.19	72.480
467.54	73.688
467.89	72.689
468.24	71.786
468.59	74.176
468.94	71.594
469.29	73.393
469.64	73.762
469.99	74.696
470.34	74.108
470.68	73.779
471.03	71.905
471.38	76.095
471.73	72.685
472.08	73.553
472.43	72.550
472.78	72.811
473.13	73.556
473.48	72.347
473.83	72.866
474.17	73.491
474.52	72.829
474.87	73.905
475.22	71.503
475.57	71.736
475.92	71.747
476.27	71.590
476.61	71.373
476.96	72.622
477.31	71.272
477.66	72.429
478.01	71.145
478.36	71.814
478.70	71.340
479.05	71.832
479.40	72.467
479.75	71.886
480.10	71.670
480.45	70.300
480.79	70.043
481.14	71.771
481.49	70.622
481.84	71.788
482.19	71.286
482.53	69.817
482.88	69.428
483.23	71.215
483.58	70.974
483.92	71.134
484.27	69.194
484.62	70.216
484.97	70.122
485.31	71.644
485.66	71.460
486.01	67.741
486.36	64.518
486.70	62.354
487.05	64.321
487.40	65.909
487.75	66.813
488.09	68.668
488.44	68.379
488.79	70.271
489.13	70.512
489.48	70.636
489.83	69.789
490.17	70.627
490.52	70.018
490.87	70.375
491.22	69.941
491.56	68.975
491.91	69.753
492.26	68.902
492.60	69.954
492.95	68.288
493.30	67.570
493.64	69.389
493.99	69.266
494.34	69.334
494.68	70.330
495.03	69.126
495.37	69.055
495.72	70.906
496.07	70.255
496.41	67.965
496.76	68.734
497.11	68.483
497.45	68.701
497.80	69.242
498.14	69.372
498.49	70.341
498.84	68.217
499.18	69.333
499.53	69.136
499.87	69.152
500.22	68.676
500.56	69.223
500.91	68.173
501.26	69.132
501.60	69.340
501.95	68.698
502.29	69.400
502.64	68.575
502.98	68.957
503.33	67.367
503.67	67.935
504.02	68.990
504.36	67.805
504.71	68.051
505.06	68.578
505.40	66.310
505.75	67.310
506.09	68.270
506.44	69.314
506.78	68.583
507.13	68.248
507.47	67.273
507.82	68.338
508.16	69.402
508.51	68.798
508.85	67.726
509.19	68.622
509.54	67.755
509.88	67.955
510.23	68.792
510.57	69.143
510.92	68.358
511.26	67.215
511.61	67.583
511.95	67.850
512.30	68.240
512.64	67.652
512.98	67.149
513.33	68.201
513.67	66.649
514.02	67.803
514.36	68.542
514.70	68.456
515.05	68.935
515.39	68.480
515.74	67.962
516.08	69.368
516.42	68.036
516.77	69.398
517.11	67.758
517.46	67.946
517.80	68.931
518.14	68.095
518.49	69.078
518.83	68.182
519.17	68.187
519.52	67.459
519.86	67.598
520.20	67.630
520.55	69.958
520.89	70.499
521.23	69.059
521.58	68.127
521.92	68.096
522.26	66.992
522.61	68.660
522.95	68.508
523.29	67.681
523.64	68.415
523.98	68.269
524.32	67.913
524.66	66.867
525.01	67.034
525.35	67.472
525.69	65.702
526.04	68.287
526.38	66.931
526.72	67.178
527.06	68.362
527.41	66.275
527.75	67.331
528.09	69.364
528.43	69.280
528.78	67.425
529.12	67.394
529.46	67.177
529.80	67.698
530.15	67.664
530.49	65.785
530.83	67.658
531.17	70.039
531.51	69.520
531.86	67.871
532.20	67.340
532.54	67.136
532.88	68.549
533.22	65.334
533.57	65.926
533.91	65.683
534.25	66.282
534.59	66.260
534.93	65.794
535.27	66.204
535.62	66.850
535.96	66.792
536.30	66.052
536.64	66.259
536.98	65.959
537.32	66.228
537.66	67.333
538.01	67.742
538.35	65.223
538.69	67.454
539.03	65.302
539.37	64.601
539.71	64.420
540.05	66.928
540.39	65.648
540.73	63.972
541.07	66.515
541.42	66.471
541.76	65.935
542.10	65.589
542.44	65.497
542.78	67.260
543.12	64.107
543.46	64.984
543.80	65.582
544.14	64.955
544.48	64.254
544.82	66.325
545.16	66.884
545.50	63.817
545.84	64.583
546.18	66.734
546.52	66.621
546.86	65.636
547.20	67.633
547.54	66.065
547.88	66.135
548.22	64.384
548.56	63.585
548.90	64.085
549.24	64.983
549.58	64.802
549.92	64.835
550.26	66.477
550.60	63.970
550.94	64.718
551.28	65.033
551.62	66.427
551.96	65.474
552.30	65.051
552.64	65.247
552.98	65.220
553.32	64.464
553.66	64.826
554.00	65.683
554.34	64.665
554.68	65.808
555.02	64.739
555.36	65.623
555.69	64.141
556.03	64.872
556.37	64.461
556.71	63.302
557.05	64.286
557.39	63.891
557.73	62.668
558.07	65.990
558.41	64.616
558.75	66.128
559.08	65.324
559.42	66.969
559.76	64.926
560.10	64.454
560.44	64.081
560.78	62.741
561.12	62.929
561.45	63.885
561.79	61.964
562.13	63.716
562.47	64.959
562.81	65.202
563.15	64.615
563.48	63.594
563.82	62.688
564.16	63.898
564.50	63.932
564.84	63.654
565.17	64.672
565.51	63.770
565.85	62.690
566.19	63.494
566.52	63.838
566.86	62.749
567.20	63.090
567.54	63.185
567.88	61.597
568.21	62.063
568.55	62.336
568.89	61.187
569.23	60.205
569.56	59.838
569.90	59.472
570.24	58.378
570.57	59.504
570.91	57.046
571.25	58.122
571.59	58.174
571.92	57.748
572.26	58.001
572.60	58.078
572.93	57.781
573.27	57.971
573.61	58.264
573.95	57.855
574.28	57.236
574.62	56.633
574.96	56.177
575.29	56.571
575.63	57.622
575.97	56.131
576.30	56.824
576.64	57.215
576.98	57.025
577.31	57.763
577.65	57.199
577.98	56.393
578.32	55.699
578.66	55.283
578.99	55.946
579.33	56.306
579.67	55.534
580.00	56.749
580.34	57.167
580.67	56.961
581.01	57.185
581.35	56.883
581.68	56.463
582.02	55.991
582.35	55.335
582.69	55.581
583.02	55.723
583.36	56.076
583.70	57.018
584.03	56.923
584.37	57.866
584.70	57.341
585.04	56.311
585.37	56.897
585.71	56.391
586.04	55.811
586.38	57.315
586.72	57.526
587.05	55.447
587.39	55.620
587.72	56.351
588.06	56.483
588.39	56.324
588.73	57.084
589.06	57.121
589.40	58.081
589.73	57.621
590.07	58.078
590.40	58.020
590.73	59.407
591.07	58.608
591.40	58.794
591.74	59.221
592.07	57.461
592.41	58.247
592.74	58.052
593.08	55.963
593.41	57.229
593.75	56.184
594.08	55.850
594.41	57.582
594.75	58.041
595.08	56.192
595.42	57.023
595.75	56.481
596.09	57.754
596.42	57.053
596.75	57.535
597.09	58.788
597.42	56.619
597.75	58.473
598.09	56.870
598.42	57.302
598.76	57.154
599.09	56.632
599.42	55.895
599.76	57.247
600.09	56.976
600.42	55.807
600.76	55.429
601.09	56.175
601.42	56.164
601.76	56.509
602.09	57.431
602.42	56.967
602.76	57.840
603.09	57.238
603.42	57.126
603.76	56.745
604.09	55.758
604.42	57.644
604.76	56.727
605.09	57.274
605.42	56.135
605.75	57.616
606.09	56.202
606.42	56.968
606.75	55.952
607.09	56.300
607.42	57.082
607.75	56.624
608.08	56.318
608.42	57.687
608.75	56.492
609.08	56.337
609.41	57.306
609.75	57.122
610.08	57.964
610.41	58.101
610.74	57.143
611.07	58.794
611.41	57.017
611.74	58.321
612.07	57.816
612.40	58.604
612.73	57.000
613.07	58.244
613.40	57.820
613.73	57.001
614.06	57.419
614.39	57.001
614.72	57.211
615.06	58.718
615.39	56.635
615.72	56.135
616.05	57.363
616.38	58.032
616.71	58.254
617.05	59.482
617.38	58.148
617.71	58.979
618.04	58.594
618.37	58.250
618.70	59.925
619.03	59.145
619.36	59.335
619.69	60.986
620.03	59.066
620.36	59.693
620.69	59.452
621.02	59.882
621.35	59.906
621.68	59.657
622.01	60.913
622.34	59.682
622.67	59.392
623.00	58.547
623.33	59.543
623.66	60.758
623.99	60.236
624.32	60.842
624.65	59.040
624.99	58.499
625.32	59.522
625.65	60.180
625.98	61.414
626.31	60.420
626.64	61.143
626.97	61.762
627.30	60.100
627.63	61.690
627.96	60.892
628.29	60.017
628.62	61.116
628.95	62.075
629.28	61.223
629.61	61.137
629.94	62.762
630.26	61.392
630.59	62.345
630.92	62.835
631.25	60.908
631.58	60.961
631.91	61.055
632.24	61.498
632.57	60.860
632.90	62.061
633.23	63.535
633.56	64.181
633.89	64.326
634.22	63.564
634.55	62.722
634.88	64.192
635.20	64.038
635.53	63.614
635.86	65.347
636.19	63.765
636.52	63.091
636.85	63.688
637.18	62.673
637.51	62.057
637.83	62.145
638.16	65.217
638.49	63.980
638.82	65.992
639.15	63.625
639.48	63.591
639.81	65.550
640.13	63.151
640.46	66.577
640.79	63.012
641.12	62.448
641.45	66.899
641.77	66.274
642.10	64.035
642.43	64.264
642.76	66.409
643.09	68.098
643.41	64.340
643.74	67.284
644.07	66.768
644.40	66.411
644.73	64.409
645.05	68.463
645.38	63.981
645.71	62.480
646.04	69.767
646.36	68.614
646.69	66.054
647.02	66.156
647.35	68.041
647.67	68.496
648.00	68.293
648.33	67.492
648.66	63.636
648.98	65.967
649.31	63.378
649.64	62.930
649.96	63.189
650.29	65.877
650.62	66.181
650.94	65.802
651.27	67.061
651.60	67.055
651.92	62.939
652.25	63.355
652.58	63.084
652.90	64.771
653.23	62.404
653.56	63.465
653.88	66.719
654.21	65.561
654.54	66.667
654.86	62.928
655.19	59.595
655.52	47.998
655.84	45.932
656.17	58.725
656.49	78.345
656.82	78.314
657.15	59.184
657.47	44.340
657.80	34.337
658.13	35.697
658.45	53.381
658.78	53.349
659.10	55.788
659.43	57.420
659.75	60.473
660.08	64.557
660.41	68.994
660.73	71.792
661.06	68.949
661.38	70.545
661.71	67.500
662.03	68.836
662.36	67.197
662.68	65.663
663.01	69.091
663.33	67.728
663.66	65.336
663.98	67.819
664.31	67.857
664.63	64.777
664.96	62.777
665.28	68.033
665.61	65.302
665.93	64.588
666.26	67.951
666.58	67.155
666.91	68.922
667.23	71.011
667.56	66.307
667.88	66.239
668.21	67.377
668.53	67.896
668.86	65.368
669.18	66.525
669.50	66.304
669.83	69.499
670.15	70.444
670.48	65.577
670.80	67.026
671.13	67.304
671.45	64.255
671.77	67.821
672.10	65.250
672.42	66.254
672.75	62.355
673.07	64.789
673.39	63.834
673.72	65.430
674.04	64.902
674.37	65.049
674.69	65.644
675.01	64.854
675.34	65.298
675.66	65.684
675.98	64.562
676.31	67.647
676.63	65.180
676.95	67.715
677.28	70.794
677.60	66.154
677.92	68.354
678.25	65.708
678.57	65.339
678.89	63.727
679.22	64.833
679.54	61.641
679.86	65.688
680.18	63.148
680.51	62.234
680.83	62.456
681.15	66.038
681.48	64.650
681.80	63.056
682.12	62.835
682.44	61.702
682.77	64.766
683.09	68.026
683.41	65.632
683.73	65.342
684.06	64.256
684.38	62.231
684.70	63.372
685.02	63.977
685.34	61.538
685.67	60.315
685.99	60.825
686.31	61.775
686.63	62.721
686.96	60.179
687.28	64.079
687.60	62.138
687.92	61.974
688.24	62.548
688.56	64.056
688.89	66.805
689.21	65.939
689.53	65.136
689.85	68.293
690.17	60.248
690.49	62.633
690.82	67.991
691.14	60.045
691.46	62.658
691.78	62.450
692.10	63.843
692.42	63.473
692.74	60.166
693.06	63.404
693.39	64.476
693.71	64.629
694.03	63.789
694.35	63.203
694.67	62.929
694.99	67.317
695.31	65.931
695.63	66.268
695.95	67.237
696.27	67.259
696.59	66.321
696.91	67.876
697.23	63.850
697.56	61.194
697.88	60.327
698.20	61.667
698.52	60.645
698.84	63.920
699.16	63.825
699.48	63.420
699.80	63.527
700.12	69.870
700.44	68.170
700.76	64.641
701.08	66.667
701.40	65.363
701.72	68.805
702.04	71.307
702.36	59.773
702.68	66.856
703.00	63.435
703.32	65.426
703.64	65.416
703.96	62.674
704.28	67.442
704.60	64.516
704.91	68.546
705.23	61.877
705.55	72.093
705.87	66.445
706.19	73.852
706.51	64.798
706.83	66.364
707.15	66.387
707.47	60.354
707.79	63.391
708.11	60.959
708.43	59.524
708.74	63.776
709.06	63.377
709.38	60.630
709.70	67.151
710.02	67.359
710.34	67.273
710.66	67.164
710.98	66.193
711.29	64.244
711.61	61.062
711.93	63.462
712.25	70.740
712.57	76.103
712.89	68.512
713.20	64.134
713.52	68.421
713.84	66.456
714.16	66.159
714.48	66.667
714.80	70.213
715.11	64.841
715.43	64.985
715.75	62.609
716.07	68.690
716.39	66.771
716.70	68.439
717.02	65.468
717.34	66.431
717.66	73.507
717.97	71.713
718.29	65.926
718.61	69.343
718.93	73.897
719.24	69.204
719.56	61.356
719.88	69.831
720.20	69.932
720.51	67.247
720.83	73.234
721.15	67.910
721.46	66.667
721.78	70.609
722.10	68.302
722.42	67.293
722.73	70.787
723.05	73.770
723.37	70.445
723.68	70.270
724.00	68.293
724.32	64.919
724.63	71.138
724.95	70.711
725.27	67.611
725.58	72.656
725.90	70.073
726.22	70.189
726.53	67.014
726.85	65.529
727.16	64.413
727.48	66.312
727.80	69.697
728.11	65.217
728.43	68.077
728.74	67.384
729.06	68.248
729.38	70.221
729.69	68.683
730.01	67.577
730.32	62.500
730.64	67.559
730.96	64.026
731.27	64.901
731.59	66.361
731.90	58.017
732.22	63.975
732.53	63.777
732.85	63.462
733.16	60.772
733.48	66.113
733.80	66.234
734.11	67.516
734.43	61.243
734.74	62.857
735.06	61.891
735.37	66.474
735.69	64.650
736.00	66.667
736.32	67.601
736.63	60.703
736.95	62.939
737.26	61.224
737.58	59.677
737.89	65.552
738.21	66.212
738.52	62.857
738.83	66.038
739.15	66.923
739.46	68.613
739.78	66.667
740.09	61.846
740.41	63.548
740.72	64.460
741.04	65.926
741.35	69.583
741.66	73.778
741.98	66.981
742.29	76.555
742.61	68.966
742.92	66.516
743.23	68.803
743.55	70.000
743.86	64.035
744.18	73.451
744.49	70.335
744.80	74.178
745.12	75.909
745.43	70.044
745.74	73.423
746.06	71.560
746.37	72.197
746.68	66.516
747.00	79.630
747.31	68.095
747.62	65.044
747.94	67.841
748.25	68.085
748.56	73.128
748.88	72.772
749.19	79.500
749.50	68.372
749.82	61.382
750.13	67.755
750.44	63.869
750.75	67.368
751.07	64.952
751.38	65.854
751.69	64.621
752.01	64.286
752.32	64.982
752.63	63.830
752.94	73.361
753.26	69.600
753.57	63.821
753.88	65.234
754.19	64.286
754.51	64.583
754.82	62.455
755.13	64.151
755.44	65.038
755.75	64.599
756.07	56.738
756.38	61.314
756.69	62.081
757.00	59.880
757.31	56.677
757.63	61.111
757.94	55.764
758.25	54.657
758.56	56.049
758.87	56.183
759.18	61.212
759.50	54.232
759.81	57.009
760.12	60.937
760.43	59.312
760.74	53.261
761.05	62.994
761.36	58.824
761.67	59.943
761.99	63.043
762.30	61.111
762.61	65.649
762.92	66.797
763.23	67.647
763.54	65.200
763.85	64.062
764.16	63.077
764.47	64.639
764.78	63.958
765.10	57.278
765.41	60.472
765.72	61.078
766.03	58.621
766.34	59.667
766.65	70.213
766.96	67.094
767.27	70.558
767.58	74.479
767.89	75.789
768.20	70.115
768.51	66.497
768.82	68.807
769.13	62.195
769.44	64.372
769.75	63.519
770.06	60.550
770.37	70.136
770.68	62.963
770.99	64.444
771.30	60.656
771.61	66.816
771.92	65.984
772.23	72.689
772.54	72.308
772.85	70.157
773.16	69.681
773.47	74.457
773.78	73.604
774.09	73.214
774.39	76.608
774.70	73.457
775.01	77.536
775.32	83.007
775.63	69.737
775.94	74.820
776.25	88.976
776.56	87.313
776.87	77.049
777.18	82.031
777.48	87.786
777.79	82.576
778.10	77.778
778.41	91.964
778.72	71.533
779.03	67.114
779.34	69.128
779.65	72.297
779.95	78.528
780.26	77.778
780.57	79.310
780.88	83.594
781.19	69.925
781.50	75.676
781.80	79.874
782.11	73.446
782.42	70.886
782.73	69.939
783.04	75.000
783.34	81.690
783.65	80.137
783.96	94.030
784.27	74.126
784.57	77.698
784.88	85.185
785.19	84.921
785.50	77.358
785.81	85.075
786.11	82.787
786.42	75.969
786.73	83.186
787.04	88.679
787.34	86.607
787.65	99.000
787.96	88.288
788.26	85.124
788.57	93.220
788.88	79.339
789.19	84.028
789.49	71.970
789.80	80.153
790.11	91.429
790.41	105.941
790.72	107.229
791.03	95.652
791.33	93.023
791.64	89.691
791.95	92.079
792.25	95.556
792.56	116.883
792.87	115.385
793.17	117.722
793.48	108.046
793.79	102.299
794.09	92.045
794.40	82.353
794.70	76.471
795.01	71.852
795.32	71.942
795.62	77.165
795.93	78.448
796.23	85.841
796.54	109.412
796.85	93.243
797.15	122.535
797.46	109.091
797.76	102.410
798.07	103.797
798.37	112.308
798.68	106.061
798.99	100.000
799.29	101.299
799.60	92.045
799.90	117.808
800.21	117.910
800.51	124.138
800.82	147.368
801.12	119.672
801.43	110.606
801.73	110.811
802.04	122.222
802.34	102.469
802.65	109.375
802.95	103.390
803.26	109.375
803.56	92.857
803.87	103.077
804.17	108.824
804.48	137.037
804.78	113.793
805.09	114.706
805.39	146.154
805.70	126.786
806.00	116.393
806.30	103.030
806.61	90.244
806.91	97.468
807.22	98.684
807.52	101.493
807.83	108.451
808.13	128.125
808.43	100.000
808.74	86.842
809.04	107.246
809.35	116.418
809.65	100.000
809.95	130.645
810.26	118.644
810.56	117.460
810.86	147.727
811.17	164.286
811.47	123.333
811.77	125.926
812.08	127.273
812.38	130.000
812.69	161.111
812.99	184.091
813.29	148.980
813.59	111.905
813.90	132.653
814.20	127.273
814.50	104.615
814.81	116.176
815.11	138.776
815.41	114.754
815.72	169.048
816.02	123.636
816.32	147.619
816.62	122.500
816.93	134.146
817.23	178.571
817.53	138.636
817.84	200.000
818.14	134.783
818.44	124.444
818.74	197.059
819.04	165.000
819.35	191.429
819.65	179.412
819.95	235.714
820.25	265.000
820.56	161.538
820.86	150.000
821.16	167.442
821.46	171.795
821.76	150.000
822.07	174.286
822.37	175.000
822.67	172.727
822.97	123.529
823.27	210.714
823.57	167.568
823.88	180.000
824.18	210.000
824.48	150.000
824.78	220.000
825.08	212.500
825.38	181.081
825.69	146.341
825.99	254.167
826.29	200.000
826.59	173.684
826.89	173.684
827.19	188.235
827.49	190.323
827.79	163.636
828.09	140.909
828.39	129.787
828.70	138.776
829.00	207.407
829.30	193.548
829.60	157.500
829.90	280.000
830.20	203.571
830.50	252.174
830.80	208.696
831.10	206.667
831.40	210.000
831.70	213.043
832.00	257.692
832.30	240.741
832.60	312.500
832.90	190.000
833.20	342.857
833.50	222.581
833.80	203.448
834.10	240.625
834.40	223.077
834.70	305.556
835.00	266.667
835.30	148.571
835.60	369.231
835.90	217.241
836.20	385.714
836.50	231.034
836.80	208.000
837.10	177.778
837.40	257.143
837.70	270.588
838.00	203.704
838.30	252.381
838.60	271.429
838.90	250.000
839.19	290.000
839.49	428.571
839.79	325.000
840.09	305.000
840.39	300.000
840.69	273.913
840.99	283.333
841.29	520.000
841.59	300.000
841.88	312.500
842.18	182.759
842.48	290.476
842.78	216.667
843.08	234.783
843.38	187.500
843.68	983.333
843.97	192.308
844.27	179.310
844.57	290.476
844.87	375.000
845.17	196.296
845.47	1500.000
845.76	522.222
846.06	329.412
846.36	600.000
846.66	314.286
846.96	300.000
847.25	427.273
847.55	427.273
847.85	247.826
848.15	410.000
848.44	400.000
848.74	277.778
849.04	405.882
849.34	450.000
849.63	315.789
849.93	472.727
850.23	860.000
850.53	450.000
850.82	2900.000
851.12	-4500.000
851.42	5100.000
851.71	300.000
852.01	-1366.667
852.31	208.333
852.61	1966.667
852.90	276.190
853.20	212.000
853.50	341.176
853.79	290.476
854.09	229.167
854.39	343.750
854.68	167.568
854.98	183.871
855.28	203.333
855.57	196.552
855.87	218.519
856.17	247.368
856.46	273.333
856.76	323.529
857.05	193.103
857.35	233.333
857.65	300.000
857.94	243.478
858.24	246.154
858.53	320.000
858.83	240.909
859.13	273.333
859.42	0.000
859.72	522.222
860.01	436.364
860.31	240.909
860.60	273.684
860.90	195.652
861.20	544.444
861.49	533.333
861.79	-5100.000
862.08	612.500
862.38	266.667
862.67	369.231
862.97	347.059
863.26	566.667
863.56	316.667
863.85	383.333
864.15	537.500
864.44	393.333
864.74	766.667
865.03	750.000
865.33	247.368
865.62	472.727
865.92	415.385
866.21	408.333
866.51	0.000
866.80	400.000
867.10	1440.000
867.39	353.846
867.69	463.636
867.98	252.632
868.27	454.545
868.57	268.421
868.86	-4400.000
869.16	381.250
869.45	2250.000
869.75	-4300.000
870.04	466.667
870.33	657.143
870.63	1425.000
870.92	2150.000
871.22	642.857
871.51	352.941
871.80	271.429
872.10	407.143
>>>>>End Processed Spectral Data<<<<<
