SpectraSuite Data File
++++++++++++++++++++++++++++++++++++
Date: Wed May 13 16:46:20 PDT 2015
User: schluterlab
Dark Spectrum Present: Yes
Reference Spectrum Present: Yes
Number of Sampled Component Spectra: 1
Spectrometers: USB2E3373
Integration Time (usec): 3000 (USB2E3373)
Spectra Averaged: 3 (USB2E3373)
Boxcar Smoothing: 0 (USB2E3373)
Correct for Electrical Dark: No (USB2E3373)
Strobe/Lamp Enabled: No (USB2E3373)
Correct for Detector Non-linearity: No (USB2E3373)
Correct for Stray Light: No (USB2E3373)
Number of Pixels in Processed Spectrum: 2048
>>>>>Begin Processed Spectral Data<<<<<
178.53	0.000
178.91	-1425.000
179.29	-1325.000
179.67	-261.111
180.04	-1125.000
180.42	2700.000
180.80	1060.000
181.18	-925.000
181.56	814.286
181.94	0.000
182.31	-600.000
182.69	1366.667
183.07	-550.000
183.45	-522.222
183.83	572.727
184.20	-370.000
184.58	2200.000
184.96	4500.000
185.34	-820.000
185.72	-525.000
186.09	-2650.000
186.47	2550.000
186.85	2150.000
187.23	4500.000
187.61	-1600.000
187.98	1250.000
188.36	518.182
188.74	445.455
189.12	-860.000
189.49	510.000
189.87	-4200.000
190.25	-1200.000
190.63	407.143
191.00	461.538
191.38	766.667
191.76	-1100.000
192.14	1225.000
192.51	787.500
192.89	983.333
193.27	687.500
193.65	-1425.000
194.02	520.000
194.40	900.000
194.78	610.000
195.15	491.667
195.53	610.000
195.91	-2000.000
196.29	325.000
196.66	263.158
197.04	-350.000
197.42	0.000
197.79	540.000
198.17	-5100.000
198.55	671.429
198.92	625.000
199.30	860.000
199.68	0.000
200.05	327.778
200.43	714.286
200.81	4800.000
201.18	1833.333
201.56	-1600.000
201.94	555.556
202.31	455.556
202.69	425.000
203.07	560.000
203.44	0.000
203.82	1075.000
204.19	742.857
204.57	457.143
204.95	587.500
205.32	1566.667
205.70	481.818
206.08	335.714
206.45	2550.000
206.83	368.750
207.20	900.000
207.58	920.000
207.96	272.222
208.33	650.000
208.71	-800.000
209.08	742.857
209.46	600.000
209.84	436.364
210.21	-1333.333
210.59	1250.000
210.96	-475.000
211.34	2250.000
211.71	580.000
212.09	900.000
212.46	0.000
212.84	1466.667
213.22	1275.000
213.59	-4100.000
213.97	866.667
214.34	814.286
214.72	636.364
215.09	1000.000
215.47	-1950.000
215.84	-2450.000
216.22	1466.667
216.59	364.286
216.97	1100.000
217.34	427.273
217.72	-633.333
218.09	0.000
218.47	-4600.000
218.84	700.000
219.22	800.000
219.59	1533.333
219.97	-485.714
220.34	1020.000
220.72	-1866.667
221.09	428.571
221.47	1400.000
221.84	-716.667
222.22	0.000
222.59	1150.000
222.97	-2400.000
223.34	1220.000
223.72	376.923
224.09	980.000
224.46	2150.000
224.84	-4700.000
225.21	-1100.000
225.59	-4500.000
225.96	560.000
226.34	295.000
226.71	2400.000
227.08	600.000
227.46	560.000
227.83	-925.000
228.21	-2350.000
228.58	588.889
228.95	-2650.000
229.33	-2250.000
229.70	1666.667
230.08	785.714
230.45	-940.000
230.82	391.667
231.20	716.667
231.57	642.857
231.95	441.667
232.32	245.455
232.69	327.273
233.07	585.714
233.44	346.154
233.81	-1466.667
234.19	284.211
234.56	400.000
234.93	308.333
235.31	400.000
235.68	323.077
236.05	328.571
236.43	142.424
236.80	205.263
237.17	4600.000
237.55	200.000
237.92	178.571
238.29	242.857
238.67	164.516
239.04	179.310
239.41	141.667
239.79	102.174
240.16	107.143
240.53	100.000
240.91	86.275
241.28	78.000
241.65	84.000
242.02	82.609
242.40	79.032
242.77	101.667
243.14	65.591
243.51	62.921
243.89	70.588
244.26	57.778
244.63	41.935
245.00	45.745
245.38	47.525
245.75	40.187
246.12	37.615
246.49	45.985
246.87	52.800
247.24	45.385
247.61	44.286
247.98	41.176
248.36	25.000
248.73	33.121
249.10	39.490
249.47	32.203
249.84	36.898
250.22	26.203
250.59	27.811
250.96	34.343
251.33	33.175
251.70	26.733
252.08	29.048
252.45	27.803
252.82	23.043
253.19	26.809
253.56	27.059
253.94	26.141
254.31	25.000
254.68	28.077
255.05	22.878
255.42	20.325
255.79	23.529
256.16	25.632
256.54	22.615
256.91	20.996
257.28	18.345
257.65	18.482
258.02	20.807
258.39	21.451
258.76	19.064
259.14	20.536
259.51	18.237
259.88	16.149
260.25	19.637
260.62	17.341
260.99	18.323
261.36	21.321
261.73	16.619
262.10	19.186
262.47	19.437
262.85	18.942
263.22	16.809
263.59	16.809
263.96	16.484
264.33	17.493
264.70	15.789
265.07	16.368
265.44	16.667
265.81	14.355
266.18	17.839
266.55	15.610
266.92	14.742
267.29	18.750
267.66	14.908
268.03	15.682
268.40	17.290
268.77	15.274
269.14	12.838
269.51	18.736
269.88	15.385
270.25	12.415
270.62	15.955
270.99	16.344
271.36	15.880
271.73	14.486
272.10	16.739
272.47	16.989
272.84	16.450
273.21	15.723
273.58	13.100
273.95	12.579
274.32	13.017
274.69	15.632
275.06	12.402
275.43	14.255
275.80	14.228
276.17	15.275
276.54	15.593
276.91	15.415
277.28	14.258
277.65	14.313
278.02	11.180
278.39	13.867
278.76	13.818
279.13	13.962
279.50	13.408
279.87	14.940
280.23	13.373
280.60	12.766
280.97	10.721
281.34	14.159
281.71	14.182
282.08	13.244
282.45	12.909
282.82	11.545
283.19	11.408
283.56	13.333
283.92	13.706
284.29	13.580
284.66	11.797
285.03	10.307
285.40	10.739
285.77	11.616
286.14	11.744
286.51	11.500
286.87	13.162
287.24	12.378
287.61	13.483
287.98	12.500
288.35	10.935
288.72	14.019
289.08	11.424
289.45	9.885
289.82	12.520
290.19	10.832
290.56	10.413
290.93	9.366
291.29	10.276
291.66	12.389
292.03	11.337
292.40	11.601
292.77	12.278
293.13	12.388
293.50	10.641
293.87	11.111
294.24	9.630
294.60	9.170
294.97	9.884
295.34	10.437
295.71	11.364
296.08	8.974
296.44	9.354
296.81	11.493
297.18	12.331
297.55	8.443
297.91	9.103
298.28	10.710
298.65	10.705
299.02	10.540
299.38	9.695
299.75	5.795
300.12	9.834
300.48	9.000
300.85	9.741
301.22	9.809
301.59	7.702
301.95	9.194
302.32	9.499
302.69	9.438
303.05	9.212
303.42	9.259
303.79	8.947
304.15	8.741
304.52	7.532
304.89	9.292
305.25	9.629
305.62	10.532
305.99	10.153
306.35	9.284
306.72	8.296
307.09	10.211
307.45	8.333
307.82	9.152
308.19	8.609
308.55	8.846
308.92	9.130
309.29	7.603
309.65	8.696
310.02	8.245
310.38	9.462
310.75	8.659
311.12	10.133
311.48	9.091
311.85	9.015
312.22	10.302
312.58	8.108
312.95	9.715
313.31	7.767
313.68	8.940
314.05	9.862
314.41	8.744
314.78	7.956
315.14	8.640
315.51	9.372
315.87	8.317
316.24	8.143
316.61	9.162
316.97	8.806
317.34	7.436
317.70	8.604
318.07	8.951
318.43	8.708
318.80	8.716
319.16	8.286
319.53	7.786
319.89	9.238
320.26	10.100
320.62	8.631
320.99	9.293
321.35	9.394
321.72	9.035
322.08	10.661
322.45	10.050
322.81	9.109
323.18	8.189
323.54	9.647
323.91	9.811
324.27	8.126
324.64	8.947
325.00	8.206
325.37	8.826
325.73	10.682
326.10	8.208
326.46	8.602
326.83	8.973
327.19	9.650
327.56	9.233
327.92	9.274
328.29	9.494
328.65	8.379
329.01	9.296
329.38	8.511
329.74	7.941
330.11	9.142
330.47	8.724
330.84	9.926
331.20	8.015
331.56	9.541
331.93	7.222
332.29	8.607
332.66	9.292
333.02	8.410
333.38	9.033
333.75	8.645
334.11	9.075
334.48	7.986
334.84	9.283
335.20	7.636
335.57	7.616
335.93	7.321
336.29	7.875
336.66	8.115
337.02	7.240
337.38	7.963
337.75	7.665
338.11	8.953
338.47	8.471
338.84	7.974
339.20	7.064
339.56	8.942
339.93	7.091
340.29	7.971
340.65	8.289
341.02	9.162
341.38	8.986
341.74	8.070
342.11	7.773
342.47	7.930
342.83	9.075
343.20	8.052
343.56	8.172
343.92	7.193
344.28	8.418
344.65	8.169
345.01	8.165
345.37	6.947
345.73	9.137
346.10	7.758
346.46	8.136
346.82	9.061
347.19	7.268
347.55	7.800
347.91	8.091
348.27	9.449
348.63	7.525
349.00	7.605
349.36	7.471
349.72	7.779
350.08	8.104
350.45	8.381
350.81	7.880
351.17	7.618
351.53	7.535
351.89	7.426
352.26	8.287
352.62	8.420
352.98	7.699
353.34	7.560
353.70	6.710
354.07	7.581
354.43	7.302
354.79	7.723
355.15	7.183
355.51	8.153
355.87	8.327
356.24	7.980
356.60	7.458
356.96	8.045
357.32	7.359
357.68	8.504
358.04	7.918
358.40	7.997
358.77	7.903
359.13	6.472
359.49	7.059
359.85	6.032
360.21	7.656
360.57	8.249
360.93	7.769
361.29	7.634
361.66	6.424
362.02	7.463
362.38	7.681
362.74	7.440
363.10	7.032
363.46	7.190
363.82	7.105
364.18	7.856
364.54	7.875
364.90	7.365
365.26	6.912
365.62	7.743
365.98	7.670
366.35	6.948
366.71	7.664
367.07	6.701
367.43	8.055
367.79	8.137
368.15	8.190
368.51	6.177
368.87	8.208
369.23	6.584
369.59	7.820
369.95	7.059
370.31	7.835
370.67	8.043
371.03	7.715
371.39	7.434
371.75	6.985
372.11	6.970
372.47	7.918
372.83	8.357
373.19	6.431
373.55	7.391
373.91	9.278
374.27	7.973
374.63	6.691
374.99	7.627
375.35	7.537
375.71	7.539
376.07	8.025
376.42	7.565
376.78	8.748
377.14	7.666
377.50	7.417
377.86	6.649
378.22	7.775
378.58	6.579
378.94	7.542
379.30	6.616
379.66	7.741
380.02	7.432
380.38	7.772
380.74	7.443
381.09	7.457
381.45	7.621
381.81	8.108
382.17	7.516
382.53	7.925
382.89	8.272
383.25	7.567
383.61	7.683
383.97	7.255
384.32	7.735
384.68	7.311
385.04	8.113
385.40	7.059
385.76	8.170
386.12	7.772
386.48	8.496
386.83	8.339
387.19	8.411
387.55	7.916
387.91	8.162
388.27	7.419
388.62	7.867
388.98	7.371
389.34	8.260
389.70	8.338
390.06	8.872
390.42	8.366
390.77	8.142
391.13	7.849
391.49	7.995
391.85	7.829
392.20	7.445
392.56	8.712
392.92	8.240
393.28	7.041
393.64	7.974
393.99	8.797
394.35	7.878
394.71	8.093
395.07	8.474
395.42	8.591
395.78	8.206
396.14	8.566
396.50	8.145
396.85	8.455
397.21	7.830
397.57	8.369
397.92	7.572
398.28	7.455
398.64	8.781
399.00	7.722
399.35	7.389
399.71	8.218
400.07	9.166
400.42	8.344
400.78	8.866
401.14	7.988
401.49	7.881
401.85	7.804
402.21	8.922
402.57	7.711
402.92	8.134
403.28	8.182
403.63	8.045
403.99	8.280
404.35	9.333
404.70	8.094
405.06	7.455
405.42	8.921
405.77	7.829
406.13	8.296
406.49	8.516
406.84	7.974
407.20	7.624
407.55	8.360
407.91	8.067
408.27	8.296
408.62	8.790
408.98	8.272
409.34	7.565
409.69	7.935
410.05	8.240
410.40	8.196
410.76	7.945
411.11	8.625
411.47	7.348
411.83	8.430
412.18	7.669
412.54	7.721
412.89	8.855
413.25	8.323
413.60	8.153
413.96	7.650
414.31	8.323
414.67	8.302
415.03	7.881
415.38	9.407
415.74	7.588
416.09	8.165
416.45	8.568
416.80	8.262
417.16	9.249
417.51	8.361
417.87	8.414
418.22	8.076
418.58	8.780
418.93	8.477
419.29	8.784
419.64	8.564
420.00	8.780
420.35	9.043
420.71	8.308
421.06	7.220
421.42	7.778
421.77	7.791
422.12	7.187
422.48	6.962
422.83	7.746
423.19	8.508
423.54	7.661
423.90	8.348
424.25	7.984
424.61	8.214
424.96	8.338
425.31	8.472
425.67	7.472
426.02	7.943
426.38	8.181
426.73	7.958
427.09	8.085
427.44	7.591
427.79	7.591
428.15	7.857
428.50	7.314
428.85	8.760
429.21	7.620
429.56	7.724
429.92	8.153
430.27	7.547
430.62	7.373
430.98	7.784
431.33	7.680
431.68	7.749
432.04	8.147
432.39	7.424
432.74	7.780
433.10	8.489
433.45	8.047
433.80	7.816
434.16	7.639
434.51	8.421
434.86	7.868
435.22	8.060
435.57	7.416
435.92	6.963
436.28	8.363
436.63	8.830
436.98	7.728
437.34	8.348
437.69	7.701
438.04	7.982
438.39	8.299
438.75	8.542
439.10	7.877
439.45	6.789
439.81	7.432
440.16	7.736
440.51	7.967
440.86	7.991
441.22	8.009
441.57	7.643
441.92	7.932
442.27	7.643
442.63	7.952
442.98	8.113
443.33	8.207
443.68	7.641
444.03	7.613
444.39	6.962
444.74	7.576
445.09	7.978
445.44	8.147
445.79	7.768
446.15	7.888
446.50	7.485
446.85	7.708
447.20	7.802
447.55	7.705
447.91	7.777
448.26	7.234
448.61	7.292
448.96	7.863
449.31	8.155
449.66	8.272
450.02	7.409
450.37	7.710
450.72	8.291
451.07	7.069
451.42	7.720
451.77	8.867
452.12	8.487
452.47	7.836
452.83	8.100
453.18	8.191
453.53	8.040
453.88	7.383
454.23	7.890
454.58	8.904
454.93	8.837
455.28	7.731
455.63	8.192
455.98	8.393
456.34	7.412
456.69	8.140
457.04	7.616
457.39	7.656
457.74	8.183
458.09	8.511
458.44	8.096
458.79	7.104
459.14	8.014
459.49	8.114
459.84	7.701
460.19	7.307
460.54	8.160
460.89	7.680
461.24	8.500
461.59	8.832
461.94	8.138
462.29	8.368
462.64	7.658
462.99	7.742
463.34	9.533
463.69	8.443
464.04	9.507
464.39	8.522
464.74	8.081
465.09	8.082
465.44	8.310
465.79	7.383
466.14	8.320
466.49	7.786
466.84	8.173
467.19	8.087
467.54	8.812
467.89	8.223
468.24	9.017
468.59	8.730
468.94	8.430
469.29	8.033
469.64	8.835
469.99	8.525
470.34	8.587
470.68	8.261
471.03	8.163
471.38	8.548
471.73	8.994
472.08	8.947
472.43	7.789
472.78	7.966
473.13	8.151
473.48	8.427
473.83	7.744
474.17	7.218
474.52	8.313
474.87	8.114
475.22	8.648
475.57	7.577
475.92	7.223
476.27	7.723
476.61	8.274
476.96	7.422
477.31	8.006
477.66	7.987
478.01	8.102
478.36	8.250
478.70	7.529
479.05	7.774
479.40	7.421
479.75	7.931
480.10	7.157
480.45	7.044
480.79	7.836
481.14	7.534
481.49	7.309
481.84	7.270
482.19	7.497
482.53	7.523
482.88	8.143
483.23	7.430
483.58	7.370
483.92	7.732
484.27	7.059
484.62	7.284
484.97	7.371
485.31	7.226
485.66	6.244
486.01	5.748
486.36	5.334
486.70	5.600
487.05	5.909
487.40	6.205
487.75	5.942
488.09	6.430
488.44	6.438
488.79	6.835
489.13	6.990
489.48	7.096
489.83	6.690
490.17	7.716
490.52	7.086
490.87	7.146
491.22	7.322
491.56	6.925
491.91	7.259
492.26	6.844
492.60	6.959
492.95	6.735
493.30	7.056
493.64	7.513
493.99	7.428
494.34	7.678
494.68	7.967
495.03	7.895
495.37	7.073
495.72	7.554
496.07	7.842
496.41	7.301
496.76	7.696
497.11	6.889
497.45	6.847
497.80	7.726
498.14	7.343
498.49	7.463
498.84	8.150
499.18	7.810
499.53	7.502
499.87	7.316
500.22	7.631
500.56	8.155
500.91	7.067
501.26	7.539
501.60	8.448
501.95	7.287
502.29	8.201
502.64	7.495
502.98	7.106
503.33	7.541
503.67	7.935
504.02	7.671
504.36	8.470
504.71	7.426
505.06	7.807
505.40	7.876
505.75	7.329
506.09	7.775
506.44	8.288
506.78	7.696
507.13	7.067
507.47	8.131
507.82	8.561
508.16	8.105
508.51	7.763
508.85	7.398
509.19	7.908
509.54	8.214
509.88	7.934
510.23	7.558
510.57	8.927
510.92	8.131
511.26	8.376
511.61	8.610
511.95	7.672
512.30	7.582
512.64	8.168
512.98	8.039
513.33	8.565
513.67	8.271
514.02	7.955
514.36	8.301
514.70	8.910
515.05	8.199
515.39	9.086
515.74	8.559
516.08	8.720
516.42	8.879
516.77	9.030
517.11	8.158
517.46	8.691
517.80	8.827
518.14	8.222
518.49	8.810
518.83	9.091
519.17	8.891
519.52	9.338
519.86	8.728
520.20	9.364
520.55	9.396
520.89	8.942
521.23	8.987
521.58	9.244
521.92	9.430
522.26	8.969
522.61	8.972
522.95	8.717
523.29	8.521
523.64	9.329
523.98	8.996
524.32	8.987
524.66	8.900
525.01	8.824
525.35	8.860
525.69	8.067
526.04	8.847
526.38	8.786
526.72	8.834
527.06	9.542
527.41	8.478
527.75	9.068
528.09	9.570
528.43	8.987
528.78	9.096
529.12	9.576
529.46	9.308
529.80	9.282
530.15	9.346
530.49	9.108
530.83	9.304
531.17	9.987
531.51	9.598
531.86	9.097
532.20	10.104
532.54	10.250
532.88	9.050
533.22	9.182
533.57	8.704
533.91	8.910
534.25	9.235
534.59	9.091
534.93	9.756
535.27	8.811
535.62	9.463
535.96	8.788
536.30	9.091
536.64	9.916
536.98	9.754
537.32	9.282
537.66	8.733
538.01	9.546
538.35	9.890
538.69	10.211
539.03	9.032
539.37	9.329
539.71	8.036
540.05	9.216
540.39	8.771
540.73	9.250
541.07	9.929
541.42	9.002
541.76	10.258
542.10	9.250
542.44	9.338
542.78	9.486
543.12	9.213
543.46	9.705
543.80	8.718
544.14	9.243
544.48	9.714
544.82	8.916
545.16	8.848
545.50	9.897
545.84	9.946
546.18	9.899
546.52	10.323
546.86	9.210
547.20	9.845
547.54	9.352
547.88	9.885
548.22	9.153
548.56	9.560
548.90	8.707
549.24	8.552
549.58	9.959
549.92	8.997
550.26	10.298
550.60	9.682
550.94	9.648
551.28	9.437
551.62	9.705
551.96	9.333
552.30	9.898
552.64	10.007
552.98	10.102
553.32	9.980
553.66	10.770
554.00	9.815
554.34	9.317
554.68	9.442
555.02	10.155
555.36	9.882
555.69	9.472
556.03	9.825
556.37	8.936
556.71	8.868
557.05	9.524
557.39	9.657
557.73	9.809
558.07	9.210
558.41	9.334
558.75	9.919
559.08	9.321
559.42	10.128
559.76	9.338
560.10	10.278
560.44	9.574
560.78	9.980
561.12	9.169
561.45	10.039
561.79	9.163
562.13	9.323
562.47	9.495
562.81	9.623
563.15	9.097
563.48	9.748
563.82	9.980
564.16	9.222
564.50	9.049
564.84	8.597
565.17	8.880
565.51	9.585
565.85	9.010
566.19	8.579
566.52	9.246
566.86	8.258
567.20	8.962
567.54	8.562
567.88	8.148
568.21	9.153
568.55	8.746
568.89	8.317
569.23	8.200
569.56	7.935
569.90	7.736
570.24	7.356
570.57	7.480
570.91	7.046
571.25	7.783
571.59	7.187
571.92	7.085
572.26	7.279
572.60	7.327
572.93	6.807
573.27	7.335
573.61	6.979
573.95	7.132
574.28	6.960
574.62	7.021
574.96	6.643
575.29	6.814
575.63	6.860
575.97	6.769
576.30	7.329
576.64	6.874
576.98	6.466
577.31	6.793
577.65	6.840
577.98	6.675
578.32	6.315
578.66	6.688
578.99	6.711
579.33	6.633
579.67	6.519
580.00	6.545
580.34	6.811
580.67	6.831
581.01	7.038
581.35	6.627
581.68	6.546
582.02	6.087
582.35	6.347
582.69	6.329
583.02	6.382
583.36	7.079
583.70	6.643
584.03	7.158
584.37	7.273
584.70	6.609
585.04	6.898
585.37	6.757
585.71	7.307
586.04	6.813
586.38	6.740
586.72	7.457
587.05	6.792
587.39	7.098
587.72	6.802
588.06	6.617
588.39	7.325
588.73	7.304
589.06	7.510
589.40	7.576
589.73	7.392
590.07	7.438
590.40	7.380
590.73	7.650
591.07	8.140
591.40	7.845
591.74	7.965
592.07	7.766
592.41	7.896
592.74	7.453
593.08	7.761
593.41	7.308
593.75	6.996
594.08	7.878
594.41	7.529
594.75	7.394
595.08	7.910
595.42	7.426
595.75	8.191
596.09	7.698
596.42	8.016
596.75	7.683
597.09	8.658
597.42	7.884
597.75	7.762
598.09	8.391
598.42	7.603
598.76	7.702
599.09	7.944
599.42	7.387
599.76	7.540
600.09	7.468
600.42	7.487
600.76	7.536
601.09	7.250
601.42	7.420
601.76	7.476
602.09	7.470
602.42	8.519
602.76	7.860
603.09	8.025
603.42	7.770
603.76	7.736
604.09	7.484
604.42	7.501
604.76	8.098
605.09	8.170
605.42	7.995
605.75	7.906
606.09	7.686
606.42	7.724
606.75	7.922
607.09	8.414
607.42	7.659
607.75	7.637
608.08	7.512
608.42	7.934
608.75	7.619
609.08	7.817
609.41	7.949
609.75	8.051
610.08	8.106
610.41	7.356
610.74	7.427
611.07	8.053
611.41	8.096
611.74	8.497
612.07	8.489
612.40	8.342
612.73	8.105
613.07	9.052
613.40	8.689
613.73	7.604
614.06	8.495
614.39	8.652
614.72	8.842
615.06	8.666
615.39	8.121
615.72	9.049
616.05	8.081
616.38	8.227
616.71	8.373
617.05	9.069
617.38	9.200
617.71	8.649
618.04	8.954
618.37	9.048
618.70	8.774
619.03	8.816
619.36	9.504
619.69	9.437
620.03	9.409
620.36	9.893
620.69	10.205
621.02	9.145
621.35	8.457
621.68	10.436
622.01	8.978
622.34	10.363
622.67	9.506
623.00	9.391
623.33	9.364
623.66	9.435
623.99	9.352
624.32	9.344
624.65	9.393
624.99	8.782
625.32	8.762
625.65	9.917
625.98	9.685
626.31	10.109
626.64	10.531
626.97	10.889
627.30	9.476
627.63	10.090
627.96	10.765
628.29	11.461
628.62	11.345
628.95	10.755
629.28	11.131
629.61	11.457
629.94	10.762
630.26	10.010
630.59	10.105
630.92	10.920
631.25	9.773
631.58	11.311
631.91	10.852
632.24	10.127
632.57	11.228
632.90	10.417
633.23	11.409
633.56	12.542
633.89	10.532
634.22	10.670
634.55	11.598
634.88	11.737
635.20	12.784
635.53	12.169
635.86	12.005
636.19	11.059
636.52	12.572
636.85	11.913
637.18	10.369
637.51	11.939
637.83	10.358
638.16	11.509
638.49	11.461
638.82	12.642
639.15	11.750
639.48	12.718
639.81	13.003
640.13	13.932
640.46	12.215
640.79	12.153
641.12	11.417
641.45	11.592
641.77	13.255
642.10	14.181
642.43	12.162
642.76	11.920
643.09	13.497
643.41	11.836
643.74	14.198
644.07	12.805
644.40	16.411
644.73	15.118
645.05	14.897
645.38	13.270
645.71	14.976
646.04	13.621
646.36	14.691
646.69	15.385
647.02	13.605
647.35	14.605
647.67	13.274
648.00	15.285
648.33	15.017
648.66	13.333
648.98	13.793
649.31	13.901
649.64	12.706
649.96	12.668
650.29	12.796
650.62	12.298
650.94	15.235
651.27	14.527
651.60	13.311
651.92	14.217
652.25	14.658
652.58	14.330
652.90	12.954
653.23	12.173
653.56	13.071
653.88	14.263
654.21	14.534
654.54	13.366
654.86	12.461
655.19	11.892
655.52	8.069
655.84	5.210
656.17	6.071
656.49	8.265
656.82	8.530
657.15	6.547
657.47	4.990
657.80	4.063
658.13	4.225
658.45	6.630
658.78	6.743
659.10	7.373
659.43	7.999
659.75	8.888
660.08	9.810
660.41	12.011
660.73	13.977
661.06	12.898
661.38	13.818
661.71	17.692
662.03	14.990
662.36	13.121
662.68	15.060
663.01	15.758
663.33	15.074
663.66	15.336
663.98	18.790
664.31	15.966
664.63	14.575
664.96	15.292
665.28	15.164
665.61	14.230
665.93	14.286
666.26	16.836
666.58	15.690
666.91	16.490
667.23	15.506
667.56	15.551
667.88	18.162
668.21	15.778
668.53	15.401
668.86	14.935
669.18	18.763
669.50	16.739
669.83	17.211
670.15	14.889
670.48	16.122
670.80	18.319
671.13	20.594
671.45	16.596
671.77	15.479
672.10	15.527
672.42	14.134
672.75	14.925
673.07	13.732
673.39	14.286
673.72	14.844
674.04	14.510
674.37	15.534
674.69	15.746
675.01	14.435
675.34	16.838
675.66	19.158
675.98	16.090
676.31	14.076
676.63	15.074
676.95	15.094
677.28	16.355
677.60	16.484
677.92	16.878
678.25	16.222
678.57	14.143
678.89	13.226
679.22	15.717
679.54	14.313
679.86	15.963
680.18	14.132
680.51	16.312
680.83	14.769
681.15	16.038
681.48	16.257
681.80	15.087
682.12	14.368
682.44	13.540
682.77	15.886
683.09	17.811
683.41	15.078
683.73	17.219
684.06	16.322
684.38	14.677
684.70	15.891
685.02	16.323
685.34	15.568
685.67	13.811
685.99	14.433
686.31	15.017
686.63	11.484
686.96	12.679
687.28	14.982
687.60	13.949
687.92	14.808
688.24	11.977
688.56	17.671
688.89	18.257
689.21	16.812
689.53	15.866
689.85	17.295
690.17	15.942
690.49	17.410
690.82	17.056
691.14	14.955
691.46	13.924
691.78	16.064
692.10	15.702
692.42	16.966
692.74	14.315
693.06	16.170
693.39	16.016
693.71	16.157
694.03	15.579
694.35	15.368
694.67	16.476
694.99	18.049
695.31	14.706
695.63	18.182
695.95	18.093
696.27	13.959
696.59	17.098
696.91	17.876
697.23	16.901
697.56	16.418
697.88	15.133
698.20	16.458
698.52	15.914
698.84	16.258
699.16	16.590
699.48	15.677
699.80	16.667
700.12	19.740
700.44	20.159
700.76	19.061
701.08	18.966
701.40	18.156
701.72	20.117
702.04	25.568
702.36	16.147
702.68	18.980
703.00	17.452
703.32	20.479
703.64	16.354
703.96	19.499
704.28	18.605
704.60	20.235
704.91	21.068
705.23	21.408
705.55	18.605
705.87	24.585
706.19	25.795
706.51	23.053
706.83	23.333
707.15	21.289
707.47	17.424
707.79	18.673
708.11	17.352
708.43	19.048
708.74	16.582
709.06	18.182
709.38	21.260
709.70	20.640
710.02	20.178
710.34	18.788
710.66	19.701
710.98	21.307
711.29	19.477
711.61	23.894
711.93	21.154
712.25	24.116
712.57	22.426
712.89	21.799
713.20	24.924
713.52	24.013
713.84	21.203
714.16	18.293
714.48	19.540
714.80	23.708
715.11	17.867
715.43	18.398
715.75	18.551
716.07	15.335
716.39	17.555
716.70	23.588
717.02	20.144
717.34	27.208
717.66	23.881
717.97	27.490
718.29	20.000
718.61	19.708
718.93	23.162
719.24	20.069
719.56	23.390
719.88	21.356
720.20	22.973
720.51	24.042
720.83	23.792
721.15	20.522
721.46	23.404
721.78	24.373
722.10	27.547
722.42	27.444
722.73	26.217
723.05	20.492
723.37	23.077
723.68	24.324
724.00	21.951
724.32	22.177
724.63	26.829
724.95	27.197
725.27	25.911
725.58	25.781
725.90	26.642
726.22	20.377
726.53	22.569
726.85	21.160
727.16	21.708
727.48	25.177
727.80	23.106
728.11	24.275
728.43	21.538
728.74	20.789
729.06	25.182
729.38	26.471
729.69	23.132
730.01	18.771
730.32	20.833
730.64	19.732
730.96	16.502
731.27	23.510
731.59	19.878
731.90	23.615
732.22	20.807
732.53	17.647
732.85	20.513
733.16	22.508
733.48	22.924
733.80	20.455
734.11	19.745
734.43	18.935
734.74	14.571
735.06	18.625
735.37	21.387
735.69	16.561
736.00	18.954
736.32	22.118
736.63	19.808
736.95	22.364
737.26	14.286
737.58	20.323
737.89	20.401
738.21	21.843
738.52	19.643
738.83	24.151
739.15	22.308
739.46	22.263
739.78	20.833
740.09	24.923
740.41	21.290
740.72	22.648
741.04	21.852
741.35	19.583
741.66	28.889
741.98	19.340
742.29	27.751
742.61	35.776
742.92	26.244
743.23	25.214
743.55	25.200
743.86	27.193
744.18	26.991
744.49	29.187
744.80	33.333
745.12	29.545
745.43	22.907
745.74	27.027
746.06	24.312
746.37	23.318
746.68	29.864
747.00	30.093
747.31	26.667
747.62	23.451
747.94	24.670
748.25	22.553
748.56	29.075
748.88	25.248
749.19	32.000
749.50	27.907
749.82	20.732
750.13	20.408
750.44	20.803
750.75	22.456
751.07	25.402
751.38	23.693
751.69	21.300
752.01	23.308
752.32	22.383
752.63	24.113
752.94	20.082
753.26	28.000
753.57	19.919
753.88	24.609
754.19	21.786
754.51	27.083
754.82	20.939
755.13	23.774
755.44	22.180
755.75	19.343
756.07	20.213
756.38	18.613
756.69	24.832
757.00	21.257
757.31	19.288
757.63	17.836
757.94	17.962
758.25	16.422
758.56	14.568
758.87	15.054
759.18	22.121
759.50	16.614
759.81	15.265
760.12	14.375
760.43	18.338
760.74	18.478
761.05	17.232
761.36	20.053
761.67	19.602
761.99	18.012
762.30	18.403
762.61	22.901
762.92	23.828
763.23	23.950
763.54	30.000
763.85	19.531
764.16	27.692
764.47	26.996
764.78	19.081
765.10	21.203
765.41	17.404
765.72	15.868
766.03	18.495
766.34	20.000
766.65	25.957
766.96	26.496
767.27	22.335
767.58	25.000
767.89	37.895
768.20	33.333
768.51	31.980
768.82	28.899
769.13	25.610
769.44	26.316
769.75	24.034
770.06	19.725
770.37	24.434
770.68	27.778
770.99	26.222
771.30	20.902
771.61	30.942
771.92	26.639
772.23	25.630
772.54	28.718
772.85	32.984
773.16	35.638
773.47	31.522
773.78	36.548
774.09	28.571
774.39	38.596
774.70	38.889
775.01	33.333
775.32	47.059
775.63	38.816
775.94	34.532
776.25	43.307
776.56	44.030
776.87	39.344
777.18	50.781
777.48	48.855
777.79	46.212
778.10	45.926
778.41	41.964
778.72	45.985
779.03	32.886
779.34	28.859
779.65	33.108
779.95	30.675
780.26	40.523
780.57	38.621
780.88	46.094
781.19	36.090
781.50	43.243
781.80	33.333
782.11	31.638
782.42	33.544
782.73	28.834
783.04	34.459
783.34	40.845
783.65	40.411
783.96	41.791
784.27	35.664
784.57	30.216
784.88	36.111
785.19	46.032
785.50	50.000
785.81	46.269
786.11	45.902
786.42	44.186
786.73	44.248
787.04	49.057
787.34	43.750
787.65	54.000
787.96	43.243
788.26	45.455
788.57	47.458
788.88	51.240
789.19	48.611
789.49	42.424
789.80	46.565
790.11	60.952
790.41	45.545
790.72	59.036
791.03	55.435
791.33	55.814
791.64	59.794
791.95	60.396
792.25	54.444
792.56	53.247
792.87	67.949
793.17	84.810
793.48	81.609
793.79	70.115
794.09	52.273
794.40	42.857
794.70	45.588
795.01	32.593
795.32	40.288
795.62	48.031
795.93	48.276
796.23	46.903
796.54	62.353
796.85	74.324
797.15	91.549
797.46	63.636
797.76	79.518
798.07	65.823
798.37	73.846
798.68	68.182
798.99	56.338
799.29	77.922
799.60	65.909
799.90	72.603
800.21	86.567
800.51	87.931
800.82	84.211
801.12	73.770
801.43	89.394
801.73	78.378
802.04	95.238
802.34	80.247
802.65	76.563
802.95	84.746
803.26	82.813
803.56	71.429
803.87	61.538
804.17	66.176
804.48	105.556
804.78	77.586
805.09	77.941
805.39	86.538
805.70	71.429
806.00	83.607
806.30	69.697
806.61	69.512
806.91	56.962
807.22	61.842
807.52	64.179
807.83	83.099
808.13	64.063
808.43	81.667
808.74	67.105
809.04	76.812
809.35	73.134
809.65	71.053
809.95	106.452
810.26	86.441
810.56	87.302
810.86	127.273
811.17	145.238
811.47	101.667
811.77	88.889
812.08	87.273
812.38	116.000
812.69	122.222
812.99	138.636
813.29	104.082
813.59	83.333
813.90	87.755
814.20	67.273
814.50	75.385
814.81	80.882
815.11	104.082
815.41	98.361
815.72	109.524
816.02	110.909
816.32	135.714
816.62	125.000
816.93	109.756
817.23	104.762
817.53	104.545
817.84	142.424
818.14	102.174
818.44	106.667
818.74	161.765
819.04	127.500
819.35	131.429
819.65	144.118
819.95	182.143
820.25	165.000
820.56	135.897
820.86	111.364
821.16	118.605
821.46	115.385
821.76	110.000
822.07	128.571
822.37	110.000
822.67	154.545
822.97	98.039
823.27	167.857
823.57	143.243
823.88	157.500
824.18	200.000
824.48	142.857
824.78	168.000
825.08	158.333
825.38	121.622
825.69	119.512
825.99	208.333
826.29	158.621
826.59	131.579
826.89	134.211
827.19	114.706
827.49	148.387
827.79	131.818
828.09	127.273
828.39	125.532
828.70	132.653
829.00	129.630
829.30	129.032
829.60	122.500
829.90	280.000
830.20	167.857
830.50	178.261
830.80	152.174
831.10	150.000
831.40	186.667
831.70	178.261
832.00	234.615
832.30	159.259
832.60	225.000
832.90	193.333
833.20	342.857
833.50	196.774
833.80	165.517
834.10	171.875
834.40	215.385
834.70	244.444
835.00	271.429
835.30	162.857
835.60	300.000
835.90	175.862
836.20	264.286
836.50	175.862
836.80	172.000
837.10	161.111
837.40	200.000
837.70	252.941
838.00	170.370
838.30	214.286
838.60	300.000
838.90	215.385
839.19	285.000
839.49	271.429
839.79	295.000
840.09	220.000
840.39	238.095
840.69	247.826
840.99	300.000
841.29	380.000
841.59	366.667
841.88	281.250
842.18	158.621
842.48	295.238
842.78	216.667
843.08	200.000
843.38	150.000
843.68	966.667
843.97	173.077
844.27	162.069
844.57	228.571
844.87	350.000
845.17	200.000
845.47	1233.333
845.76	444.444
846.06	241.176
846.36	450.000
846.66	342.857
846.96	275.000
847.25	381.818
847.55	390.909
847.85	208.696
848.15	460.000
848.44	392.857
848.74	233.333
849.04	276.471
849.34	560.000
849.63	236.842
849.93	409.091
850.23	1040.000
850.53	364.286
850.82	2600.000
851.12	-4400.000
851.42	3500.000
851.71	245.000
852.01	-1266.667
852.31	225.000
852.61	1500.000
852.90	238.095
853.20	196.000
853.50	282.353
853.79	252.381
854.09	154.167
854.39	318.750
854.68	151.351
854.98	203.226
855.28	170.000
855.57	162.069
855.87	181.481
856.17	236.842
856.46	220.000
856.76	258.824
857.05	175.862
857.35	200.000
857.65	346.667
857.94	200.000
858.24	223.077
858.53	240.000
858.83	218.182
859.13	286.667
859.42	0.000
859.72	544.444
860.01	409.091
860.31	259.091
860.60	294.737
860.90	217.391
861.20	566.667
861.49	466.667
861.79	-4500.000
862.08	562.500
862.38	247.619
862.67	369.231
862.97	294.118
863.26	533.333
863.56	250.000
863.85	416.667
864.15	625.000
864.44	333.333
864.74	766.667
865.03	575.000
865.33	257.895
865.62	409.091
865.92	346.154
866.21	350.000
866.51	0.000
866.80	381.818
867.10	1020.000
867.39	453.846
867.69	381.818
867.98	247.368
868.27	381.818
868.57	273.684
868.86	-4400.000
869.16	325.000
869.45	1850.000
869.75	-4500.000
870.04	408.333
870.33	671.429
870.63	950.000
870.92	2500.000
871.22	628.571
871.51	317.647
871.80	209.524
872.10	364.286
>>>>>End Processed Spectral Data<<<<<
