SpectraSuite Data File
++++++++++++++++++++++++++++++++++++
Date: Wed May 13 15:58:38 PDT 2015
User: schluterlab
Dark Spectrum Present: Yes
Reference Spectrum Present: Yes
Number of Sampled Component Spectra: 1
Spectrometers: USB2E3373
Integration Time (usec): 3000 (USB2E3373)
Spectra Averaged: 3 (USB2E3373)
Boxcar Smoothing: 0 (USB2E3373)
Correct for Electrical Dark: No (USB2E3373)
Strobe/Lamp Enabled: No (USB2E3373)
Correct for Detector Non-linearity: No (USB2E3373)
Correct for Stray Light: No (USB2E3373)
Number of Pixels in Processed Spectrum: 2048
>>>>>Begin Processed Spectral Data<<<<<
178.53	0.000
178.91	-350.000
179.29	25.000
179.67	66.667
180.04	-250.000
180.42	150.000
180.80	260.000
181.18	-25.000
181.56	57.143
181.94	0.000
182.31	-57.143
182.69	533.333
183.07	-37.500
183.45	-122.222
183.83	109.091
184.20	-20.000
184.58	50.000
184.96	1600.000
185.34	-60.000
185.72	-37.500
186.09	-200.000
186.47	850.000
186.85	300.000
187.23	600.000
187.61	-733.333
187.98	275.000
188.36	36.364
188.74	145.455
189.12	-160.000
189.49	110.000
189.87	-300.000
190.25	-225.000
190.63	128.571
191.00	100.000
191.38	250.000
191.76	-425.000
192.14	325.000
192.51	137.500
192.89	350.000
193.27	75.000
193.65	-375.000
194.02	60.000
194.40	220.000
194.78	200.000
195.15	191.667
195.53	220.000
195.91	-300.000
196.29	93.750
196.66	115.789
197.04	-60.000
197.42	0.000
197.79	120.000
198.17	-200.000
198.55	71.429
198.92	125.000
199.30	220.000
199.68	0.000
200.05	105.556
200.43	57.143
200.81	-600.000
201.18	466.667
201.56	-200.000
201.94	111.111
202.31	144.444
202.69	75.000
203.07	120.000
203.44	0.000
203.82	125.000
204.19	85.714
204.57	135.714
204.95	200.000
205.32	366.667
205.70	118.182
206.08	57.143
206.45	400.000
206.83	131.250
207.20	150.000
207.58	-180.000
207.96	105.556
208.33	237.500
208.71	-16.667
209.08	157.143
209.46	188.889
209.84	81.818
210.21	-66.667
210.59	525.000
210.96	-12.500
211.34	1050.000
211.71	250.000
212.09	0.000
212.46	0.000
212.84	500.000
213.22	400.000
213.59	-100.000
213.97	233.333
214.34	185.714
214.72	163.636
215.09	380.000
215.47	-250.000
215.84	-450.000
216.22	200.000
216.59	157.143
216.97	50.000
217.34	172.727
217.72	-83.333
218.09	0.000
218.47	-1100.000
218.84	233.333
219.22	200.000
219.59	566.667
219.97	57.143
220.34	20.000
220.72	-400.000
221.09	121.429
221.47	450.000
221.84	-300.000
222.22	0.000
222.59	250.000
222.97	-650.000
223.34	440.000
223.72	130.769
224.09	300.000
224.46	550.000
224.84	-1000.000
225.21	-340.000
225.59	-700.000
225.96	200.000
226.34	125.000
226.71	600.000
227.08	237.500
227.46	170.000
227.83	-100.000
228.21	-450.000
228.58	288.889
228.95	-400.000
229.33	-0.000
229.70	366.667
230.08	214.286
230.45	60.000
230.82	108.333
231.20	150.000
231.57	185.714
231.95	116.667
232.32	86.364
232.69	45.455
233.07	200.000
233.44	100.000
233.81	-333.333
234.19	84.211
234.56	216.667
234.93	116.667
235.31	145.455
235.68	38.462
236.05	121.429
236.43	66.667
236.80	126.316
237.17	2400.000
237.55	123.810
237.92	67.857
238.29	85.714
238.67	96.774
239.04	127.586
239.41	66.667
239.79	91.304
240.16	97.619
240.53	72.727
240.91	60.784
241.28	86.000
241.65	98.000
242.02	79.710
242.40	88.710
242.77	105.000
243.14	73.118
243.51	74.157
243.89	76.471
244.26	75.556
244.63	65.591
245.00	67.021
245.38	71.287
245.75	73.832
246.12	69.725
246.49	74.453
246.87	80.000
247.24	80.000
247.61	76.429
247.98	64.052
248.36	68.243
248.73	68.790
249.10	75.159
249.47	74.011
249.84	74.332
250.22	72.193
250.59	74.556
250.96	72.727
251.33	74.882
251.70	69.802
252.08	75.238
252.45	63.229
252.82	70.000
253.19	71.915
253.56	68.235
253.94	75.519
254.31	69.922
254.68	68.846
255.05	67.897
255.42	66.667
255.79	68.382
256.16	73.646
256.54	63.958
256.91	65.836
257.28	66.187
257.65	64.686
258.02	66.770
258.39	67.192
258.76	64.214
259.14	67.262
259.51	65.046
259.88	66.460
260.25	70.091
260.62	69.364
260.99	68.944
261.36	67.568
261.73	65.616
262.10	68.895
262.47	67.887
262.85	63.788
263.22	62.108
263.59	70.085
263.96	66.484
264.33	63.708
264.70	66.842
265.07	67.263
265.44	66.919
265.81	61.314
266.18	68.844
266.55	58.293
266.92	66.830
267.29	65.741
267.66	63.303
268.03	66.136
268.40	67.056
268.77	65.155
269.14	65.090
269.51	64.334
269.88	64.569
270.25	65.463
270.62	65.393
270.99	65.591
271.36	63.519
271.73	66.121
272.10	64.348
272.47	64.086
272.84	62.554
273.21	61.006
273.58	62.227
273.95	61.006
274.32	61.157
274.69	65.953
275.06	64.764
275.43	64.255
275.80	62.525
276.17	61.303
276.54	61.746
276.91	62.055
277.28	60.938
277.65	62.282
278.02	62.319
278.39	64.063
278.76	63.273
279.13	60.755
279.50	61.825
279.87	60.359
280.23	61.277
280.60	62.669
280.97	58.780
281.34	63.363
281.71	60.909
282.08	62.380
282.45	58.182
282.82	58.615
283.19	59.715
283.56	60.351
283.92	60.745
284.29	59.965
284.66	59.165
285.03	57.866
285.40	59.683
285.77	58.754
286.14	57.858
286.51	58.833
286.87	58.974
287.24	58.632
287.61	58.587
287.98	57.305
288.35	57.845
288.72	55.607
289.08	56.025
289.45	55.189
289.82	55.772
290.19	54.317
290.56	54.518
290.93	52.719
291.29	54.601
291.66	56.342
292.03	53.634
292.40	56.241
292.77	52.663
293.13	54.030
293.50	52.041
293.87	52.889
294.24	51.704
294.60	50.364
294.97	50.000
295.34	53.032
295.71	49.858
296.08	48.575
296.44	52.957
296.81	49.670
297.18	50.542
297.55	48.417
297.91	48.549
298.28	49.799
298.65	48.825
299.02	50.725
299.38	49.801
299.75	47.035
300.12	47.382
300.48	49.250
300.85	48.089
301.22	48.153
301.59	45.707
301.95	47.229
302.32	47.368
302.69	47.431
303.05	48.364
303.42	45.556
303.79	46.319
304.15	45.455
304.52	45.539
304.89	45.412
305.25	46.056
305.62	44.960
305.99	47.698
306.35	46.421
306.72	47.422
307.09	47.059
307.45	47.410
307.82	45.312
308.19	46.026
308.55	47.033
308.92	45.435
309.29	45.195
309.65	44.539
310.02	44.820
310.38	46.452
310.75	44.984
311.12	45.036
311.48	46.186
311.85	45.597
312.22	46.306
312.58	45.010
312.95	46.779
313.31	43.786
313.68	44.802
314.05	45.464
314.41	45.729
314.78	46.727
315.14	45.680
315.51	46.447
315.87	44.950
316.24	45.680
316.61	43.762
316.97	43.346
317.34	44.031
317.70	45.411
318.07	46.391
318.43	44.814
318.80	45.455
319.16	44.633
319.53	43.152
319.89	44.190
320.26	46.700
320.62	45.337
320.99	46.263
321.35	45.758
321.72	45.791
322.08	46.298
322.45	45.672
322.81	45.058
323.18	44.605
323.54	43.599
323.91	44.623
324.27	46.176
324.64	46.132
325.00	45.807
325.37	47.134
325.73	47.307
326.10	46.955
326.46	47.581
326.83	48.576
327.19	47.737
327.56	45.906
327.92	47.069
328.29	47.560
328.65	47.698
329.01	48.285
329.38	46.716
329.74	46.907
330.11	48.162
330.47	45.271
330.84	47.426
331.20	47.723
331.56	47.431
331.93	47.407
332.29	45.785
332.66	46.106
333.02	44.973
333.38	47.606
333.75	47.594
334.11	47.064
334.48	46.140
334.84	47.243
335.20	46.273
335.57	45.603
335.93	44.464
336.29	45.879
336.66	46.078
337.02	45.520
337.38	45.741
337.75	45.276
338.11	45.389
338.47	45.672
338.84	45.646
339.20	46.330
339.56	45.529
339.93	44.727
340.29	45.743
340.65	44.118
341.02	44.590
341.38	44.751
341.74	44.211
342.11	44.629
342.47	44.581
342.83	43.836
343.20	45.281
343.56	42.881
343.92	43.947
344.28	44.813
344.65	44.454
345.01	44.276
345.37	43.225
345.73	44.839
346.10	44.416
346.46	43.983
346.82	42.339
347.19	43.442
347.55	43.678
347.91	45.227
348.27	43.796
348.63	43.144
349.00	41.828
349.36	43.268
349.72	42.903
350.08	42.220
350.45	43.613
350.81	43.298
351.17	42.382
351.53	42.834
351.89	42.162
352.26	42.305
352.62	42.903
352.98	42.220
353.34	43.139
353.70	41.653
354.07	42.016
354.43	41.032
354.79	40.949
355.15	41.740
355.51	43.885
355.87	43.347
356.24	42.345
356.60	42.582
356.96	43.363
357.32	42.110
357.68	43.307
358.04	41.964
358.40	42.597
358.77	42.332
359.13	41.436
359.49	42.039
359.85	41.587
360.21	41.388
360.57	42.646
360.93	42.077
361.29	40.212
361.66	41.641
362.02	41.493
362.38	40.684
362.74	41.220
363.10	40.340
363.46	41.086
363.82	41.270
364.18	41.410
364.54	41.828
364.90	41.572
365.26	40.809
365.62	42.367
365.98	41.709
366.35	41.189
366.71	41.866
367.07	41.588
367.43	42.525
367.79	41.542
368.15	43.032
368.51	41.497
368.87	41.185
369.23	42.356
369.59	42.650
369.95	41.544
370.31	42.236
370.67	40.507
371.03	43.146
371.39	42.420
371.75	43.162
372.11	41.323
372.47	42.889
372.83	42.291
373.19	41.691
373.55	42.203
373.91	42.710
374.27	41.512
374.63	41.455
374.99	41.596
375.35	41.731
375.71	41.056
376.07	42.661
376.42	41.816
376.78	42.280
377.14	41.927
377.50	42.980
377.86	41.290
378.22	42.920
378.58	40.977
378.94	42.175
379.30	43.321
379.66	43.274
380.02	42.629
380.38	42.744
380.74	43.157
381.09	42.848
381.45	43.208
381.81	42.998
382.17	43.503
382.53	43.396
382.89	43.827
383.25	44.215
383.61	44.114
383.97	43.027
384.32	43.231
384.68	43.990
385.04	44.253
385.40	43.282
385.76	43.428
386.12	44.819
386.48	44.745
386.83	44.772
387.19	45.640
387.55	44.898
387.91	43.349
388.27	43.716
388.62	44.868
388.98	43.366
389.34	44.994
389.70	43.532
390.06	45.120
390.42	43.969
390.77	44.402
391.13	44.799
391.49	44.797
391.85	43.794
392.20	44.543
392.56	45.518
392.92	45.380
393.28	44.142
393.64	44.664
393.99	44.533
394.35	44.975
394.71	44.793
395.07	44.174
395.42	45.488
395.78	44.529
396.14	44.444
396.50	45.551
396.85	44.946
397.21	44.760
397.57	43.583
397.92	46.274
398.28	43.330
398.64	43.369
399.00	45.048
399.35	44.839
399.71	45.255
400.07	45.772
400.42	44.724
400.78	44.089
401.14	44.634
401.49	44.657
401.85	43.981
402.21	44.012
402.57	44.479
402.92	44.704
403.28	44.847
403.63	44.307
403.99	44.968
404.35	44.485
404.70	44.844
405.06	44.380
405.42	44.666
405.77	45.257
406.13	43.849
406.49	44.293
406.84	45.009
407.20	43.676
407.55	45.118
407.91	45.200
408.27	44.990
408.62	43.889
408.98	44.792
409.34	43.727
409.69	44.968
410.05	45.353
410.40	44.098
410.76	44.026
411.11	44.089
411.47	43.962
411.83	44.105
412.18	44.527
412.54	44.707
412.89	44.940
413.25	43.388
413.60	45.954
413.96	44.869
414.31	44.107
414.67	44.423
415.03	44.636
415.38	45.361
415.74	43.859
416.09	46.506
416.45	44.645
416.80	44.547
417.16	45.509
417.51	44.592
417.87	44.509
418.22	45.110
418.58	44.222
418.93	45.209
419.29	45.894
419.64	45.466
420.00	44.146
420.35	44.000
420.71	45.129
421.06	44.928
421.42	44.854
421.77	44.675
422.12	43.908
422.48	45.062
422.83	45.428
423.19	43.923
423.54	44.167
423.90	44.986
424.25	44.947
424.61	44.702
424.96	45.131
425.31	44.020
425.67	43.764
426.02	43.486
426.38	45.665
426.73	43.944
427.09	44.438
427.44	44.853
427.79	44.681
428.15	45.119
428.50	44.002
428.85	44.458
429.21	44.948
429.56	44.997
429.92	44.338
430.27	43.446
430.62	45.417
430.98	45.459
431.33	43.763
431.68	44.974
432.04	43.610
432.39	44.260
432.74	44.704
433.10	44.312
433.45	44.665
433.80	44.346
434.16	45.726
434.51	44.158
434.86	46.237
435.22	44.691
435.57	44.255
435.92	44.061
436.28	44.721
436.63	45.585
436.98	45.220
437.34	45.915
437.69	46.091
438.04	44.800
438.39	44.657
438.75	44.858
439.10	45.084
439.45	44.510
439.81	45.196
440.16	44.551
440.51	44.757
440.86	46.149
441.22	44.160
441.57	45.382
441.92	46.059
442.27	45.802
442.63	44.760
442.98	45.859
443.33	45.109
443.68	44.812
444.03	44.607
444.39	44.255
444.74	45.022
445.09	44.636
445.44	44.833
445.79	44.532
446.15	44.150
446.50	43.565
446.85	45.478
447.20	44.161
447.55	46.231
447.91	44.567
448.26	45.576
448.61	44.828
448.96	45.570
449.31	46.063
449.66	44.457
450.02	44.513
450.37	44.388
450.72	44.557
451.07	43.876
451.42	43.708
451.77	45.625
452.12	43.880
452.47	44.216
452.83	45.338
453.18	43.337
453.53	46.135
453.88	44.891
454.23	44.770
454.58	45.972
454.93	45.327
455.28	44.576
455.63	45.510
455.98	45.536
456.34	44.347
456.69	45.523
457.04	45.077
457.39	44.185
457.74	43.935
458.09	45.083
458.44	45.781
458.79	44.035
459.14	45.316
459.49	44.892
459.84	44.654
460.19	43.960
460.54	43.519
460.89	44.487
461.24	44.627
461.59	45.322
461.94	43.896
462.29	44.807
462.64	44.225
462.99	43.656
463.34	44.667
463.69	44.465
464.04	43.942
464.39	44.290
464.74	44.979
465.09	43.124
465.44	44.598
465.79	43.736
466.14	44.718
466.49	43.215
466.84	43.666
467.19	44.357
467.54	43.562
467.89	43.818
468.24	43.572
468.59	44.261
468.94	42.761
469.29	44.152
469.64	44.043
469.99	43.708
470.34	44.320
470.68	43.103
471.03	43.673
471.38	43.711
471.73	42.905
472.08	43.355
472.43	43.028
472.78	43.120
473.13	43.196
473.48	43.883
473.83	44.146
474.17	42.564
474.52	43.983
474.87	44.016
475.22	43.877
475.57	43.471
475.92	44.025
476.27	42.390
476.61	43.409
476.96	42.991
477.31	41.654
477.66	43.709
478.01	43.126
478.36	44.209
478.70	42.627
479.05	42.332
479.40	43.603
479.75	43.416
480.10	43.588
480.45	43.122
480.79	42.093
481.14	43.444
481.49	43.237
481.84	42.753
482.19	44.162
482.53	43.073
482.88	43.974
483.23	42.523
483.58	42.766
483.92	43.252
484.27	41.133
484.62	41.897
484.97	43.004
485.31	44.178
485.66	45.674
486.01	45.947
486.36	44.312
486.70	43.686
487.05	43.415
487.40	43.131
487.75	42.442
488.09	41.978
488.44	41.528
488.79	41.627
489.13	41.788
489.48	41.803
489.83	41.303
490.17	41.736
490.52	41.364
490.87	42.108
491.22	41.428
491.56	41.913
491.91	42.392
492.26	40.239
492.60	41.935
492.95	41.347
493.30	40.607
493.64	41.577
493.99	40.901
494.34	41.582
494.68	41.163
495.03	40.977
495.37	41.322
495.72	41.033
496.07	40.882
496.41	40.796
496.76	42.524
497.11	41.468
497.45	41.407
497.80	41.075
498.14	40.628
498.49	40.780
498.84	41.227
499.18	40.286
499.53	40.931
499.87	40.727
500.22	40.603
500.56	41.408
500.91	39.904
501.26	41.110
501.60	41.433
501.95	40.788
502.29	41.753
502.64	41.248
502.98	41.234
503.33	41.133
503.67	40.928
504.02	40.692
504.36	40.384
504.71	40.645
505.06	40.048
505.40	40.156
505.75	39.923
506.09	39.845
506.44	41.145
506.78	39.308
507.13	40.586
507.47	39.747
507.82	40.679
508.16	39.868
508.51	41.147
508.85	39.275
509.19	40.255
509.54	40.867
509.88	40.237
510.23	40.308
510.57	40.506
510.92	39.720
511.26	40.031
511.61	39.523
511.95	38.935
512.30	39.396
512.64	38.474
512.98	39.389
513.33	38.597
513.67	38.314
514.02	38.799
514.36	38.777
514.70	39.181
515.05	38.260
515.39	38.755
515.74	38.795
516.08	38.345
516.42	39.068
516.77	39.855
517.11	38.624
517.46	38.488
517.80	39.721
518.14	37.232
518.49	39.382
518.83	37.500
519.17	38.222
519.52	38.879
519.86	38.620
520.20	38.497
520.55	38.600
520.89	38.747
521.23	37.998
521.58	39.196
521.92	37.844
522.26	36.181
522.61	38.879
522.95	37.201
523.29	36.701
523.64	38.354
523.98	37.831
524.32	38.058
524.66	38.064
525.01	38.113
525.35	36.431
525.69	37.500
526.04	37.944
526.38	37.645
526.72	37.546
527.06	38.230
527.41	35.458
527.75	38.006
528.09	37.058
528.43	37.285
528.78	38.168
529.12	38.121
529.46	38.457
529.80	37.562
530.15	37.508
530.49	36.677
530.83	37.342
531.17	38.903
531.51	37.743
531.86	36.516
532.20	37.679
532.54	35.874
532.88	37.035
533.22	36.602
533.57	37.963
533.91	37.929
534.25	37.485
534.59	37.279
534.93	36.169
535.27	36.512
535.62	37.668
535.96	38.230
536.30	36.618
536.64	36.896
536.98	36.894
537.32	34.299
537.66	36.467
538.01	37.064
538.35	37.621
538.69	37.141
539.03	35.802
539.37	35.974
539.71	35.839
540.05	37.386
540.39	36.213
540.73	35.899
541.07	37.768
541.42	36.986
541.76	35.871
542.10	37.387
542.44	36.291
542.78	37.088
543.12	36.468
543.46	37.180
543.80	36.500
544.14	36.650
544.48	36.190
544.82	35.407
545.16	35.979
545.50	36.118
545.84	36.223
546.18	36.296
546.52	36.545
546.86	36.289
547.20	37.087
547.54	35.471
547.88	37.309
548.22	35.866
548.56	36.352
548.90	36.492
549.24	36.296
549.58	35.948
549.92	34.959
550.26	36.364
550.60	35.408
550.94	34.507
551.28	34.455
551.62	36.089
551.96	34.807
552.30	35.836
552.64	36.105
552.98	35.525
553.32	34.255
553.66	35.174
554.00	35.896
554.34	34.921
554.68	34.907
555.02	34.697
555.36	34.934
555.69	34.100
556.03	34.388
556.37	35.471
556.71	34.652
557.05	34.244
557.39	34.850
557.73	35.215
558.07	35.460
558.41	34.877
558.75	34.313
559.08	34.377
559.42	34.618
559.76	33.897
560.10	34.904
560.44	35.220
560.78	34.398
561.12	35.488
561.45	36.115
561.79	35.333
562.13	34.339
562.47	35.109
562.81	34.798
563.15	34.114
563.48	34.019
563.82	35.486
564.16	34.859
564.50	35.156
564.84	34.134
565.17	35.006
565.51	34.313
565.85	34.518
566.19	34.189
566.52	35.022
566.86	34.780
567.20	34.847
567.54	35.502
567.88	35.687
568.21	36.243
568.55	36.603
568.89	36.430
569.23	37.210
569.56	36.397
569.90	38.000
570.24	37.029
570.57	36.790
570.91	37.233
571.25	36.813
571.59	37.526
571.92	37.385
572.26	37.117
572.60	37.387
572.93	36.252
573.27	36.971
573.61	37.326
573.95	37.984
574.28	37.513
574.62	37.293
574.96	37.252
575.29	36.930
575.63	36.687
575.97	36.058
576.30	36.617
576.64	37.276
576.98	37.141
577.31	37.084
577.65	37.872
577.98	37.475
578.32	37.272
578.66	36.730
578.99	37.001
579.33	36.795
579.67	36.171
580.00	36.658
580.34	36.664
580.67	36.114
581.01	36.789
581.35	37.513
581.68	38.163
582.02	37.642
582.35	37.667
582.69	37.351
583.02	36.619
583.36	36.200
583.70	36.638
584.03	36.024
584.37	36.311
584.70	36.755
585.04	36.595
585.37	36.766
585.71	37.453
586.04	36.700
586.38	36.834
586.72	36.316
587.05	36.457
587.39	36.253
587.72	36.382
588.06	35.832
588.39	35.693
588.73	35.758
589.06	35.058
589.40	35.455
589.73	34.988
590.07	35.053
590.40	34.856
590.73	35.480
591.07	35.857
591.40	34.416
591.74	35.931
592.07	35.340
592.41	35.304
592.74	35.955
593.08	36.775
593.41	36.666
593.75	35.728
594.08	34.998
594.41	35.560
594.75	35.601
595.08	35.147
595.42	35.657
595.75	34.829
596.09	35.411
596.42	34.774
596.75	33.643
597.09	35.498
597.42	34.022
597.75	34.886
598.09	34.304
598.42	34.751
598.76	34.455
599.09	34.968
599.42	35.626
599.76	34.919
600.09	35.410
600.42	34.733
600.76	34.679
601.09	34.098
601.42	35.084
601.76	35.256
602.09	35.178
602.42	34.753
602.76	34.784
603.09	34.343
603.42	35.338
603.76	34.985
604.09	34.316
604.42	34.611
604.76	35.133
605.09	34.207
605.42	33.732
605.75	34.354
606.09	34.404
606.42	34.655
606.75	34.094
607.09	33.989
607.42	34.360
607.75	33.924
608.08	33.608
608.42	34.110
608.75	33.544
609.08	33.719
609.41	32.984
609.75	32.968
610.08	35.014
610.41	33.845
610.74	33.775
611.07	33.696
611.41	34.053
611.74	34.791
612.07	33.747
612.40	33.683
612.73	33.263
613.07	33.944
613.40	33.913
613.73	32.564
614.06	32.849
614.39	33.036
614.72	32.789
615.06	33.298
615.39	34.076
615.72	32.975
616.05	32.908
616.38	32.574
616.71	32.779
617.05	33.922
617.38	32.471
617.71	33.874
618.04	33.413
618.37	32.762
618.70	31.985
619.03	32.763
619.36	31.840
619.69	32.042
620.03	31.593
620.36	32.888
620.69	31.918
621.02	32.448
621.35	29.757
621.68	31.231
622.01	30.263
622.34	31.619
622.67	32.091
623.00	30.227
623.33	30.808
623.66	31.380
623.99	31.222
624.32	31.027
624.65	31.850
624.99	30.878
625.32	30.630
625.65	31.104
625.98	31.591
626.31	31.571
626.64	31.102
626.97	30.590
627.30	29.925
627.63	31.665
627.96	31.371
628.29	29.746
628.62	29.735
628.95	30.377
629.28	30.292
629.61	31.256
629.94	30.952
630.26	30.505
630.59	29.933
630.92	27.586
631.25	30.010
631.58	28.028
631.91	28.398
632.24	28.903
632.57	27.702
632.90	29.825
633.23	28.635
633.56	29.153
633.89	29.105
634.22	28.263
634.55	30.888
634.88	28.144
635.20	28.076
635.53	28.795
635.86	28.218
636.19	27.294
636.52	28.720
636.85	28.637
637.18	26.382
637.51	27.305
637.83	27.867
638.16	28.645
638.49	27.960
638.82	28.319
639.15	29.125
639.48	28.928
639.81	29.088
640.13	28.385
640.46	27.517
640.79	27.081
641.12	25.860
641.45	28.212
641.77	27.982
642.10	27.193
642.43	25.225
642.76	26.006
643.09	27.454
643.41	28.073
643.74	28.549
644.07	27.134
644.40	26.840
644.73	28.031
645.05	28.526
645.38	24.803
645.71	28.502
646.04	26.744
646.36	27.713
646.69	28.595
647.02	25.170
647.35	25.258
647.67	26.726
648.00	28.943
648.33	26.733
648.66	25.758
648.98	28.786
649.31	28.849
649.64	25.859
649.96	25.335
650.29	27.488
650.62	25.890
650.94	25.608
651.27	28.547
651.60	26.123
651.92	27.796
652.25	27.036
652.58	27.726
652.90	27.014
653.23	26.194
653.56	26.299
653.88	27.892
654.21	28.594
654.54	27.723
654.86	27.414
655.19	29.459
655.52	30.962
655.84	36.544
656.17	44.672
656.49	58.617
656.82	55.788
657.15	40.434
657.47	29.226
657.80	21.800
658.13	22.106
658.45	31.193
658.78	30.683
659.10	30.761
659.43	30.395
659.75	29.969
660.08	30.000
660.41	30.354
660.73	27.954
661.06	26.433
661.38	28.727
661.71	28.846
662.03	27.219
662.36	23.260
662.68	25.301
663.01	26.869
663.33	27.389
663.66	23.950
663.98	25.918
664.31	23.739
664.63	23.684
664.96	24.950
665.28	24.180
665.61	23.782
665.93	24.547
666.26	24.544
666.58	27.615
666.91	27.061
667.23	24.944
667.56	24.190
667.88	25.855
668.21	26.013
668.53	24.729
668.86	26.623
669.18	26.013
669.50	25.435
669.83	28.758
670.15	26.444
670.48	24.183
670.80	26.509
671.13	25.478
671.45	24.255
671.77	28.310
672.10	26.987
672.42	27.032
672.75	29.022
673.07	26.937
673.39	25.136
673.72	27.539
674.04	23.529
674.37	25.825
674.69	25.153
675.01	23.431
675.34	25.873
675.66	27.368
675.98	25.866
676.31	25.840
676.63	25.690
676.95	25.577
677.28	24.766
677.60	25.055
677.92	28.270
678.25	28.747
678.57	26.892
678.89	25.050
679.22	24.754
679.54	27.481
679.86	26.789
680.18	27.549
680.51	25.887
680.83	25.801
681.15	25.094
681.48	28.922
681.80	25.919
682.12	26.820
682.44	24.758
682.77	26.069
683.09	27.468
683.41	27.494
683.73	25.607
684.06	27.066
684.38	26.419
684.70	28.682
685.02	25.516
685.34	27.656
685.67	26.224
685.99	26.976
686.31	27.133
686.63	26.502
686.96	26.964
687.28	27.798
687.60	27.174
687.92	28.336
688.24	27.567
688.56	26.707
688.89	28.008
689.21	27.293
689.53	27.766
689.85	28.825
690.17	23.602
690.49	30.998
690.82	26.636
691.14	24.554
691.46	25.949
691.78	27.510
692.10	29.752
692.42	28.942
692.74	27.386
693.06	26.809
693.39	27.721
693.71	26.856
694.03	28.842
694.35	27.706
694.67	25.400
694.99	28.537
695.31	24.020
695.63	27.273
695.95	25.428
696.27	24.619
696.59	25.648
696.91	24.870
697.23	21.831
697.56	28.145
697.88	23.108
698.20	27.708
698.52	26.022
698.84	24.276
699.16	28.341
699.48	25.416
699.80	26.087
700.12	30.130
700.44	27.056
700.76	26.519
701.08	27.011
701.40	27.933
701.72	24.198
702.04	27.841
702.36	19.830
702.68	26.629
703.00	29.086
703.32	25.798
703.64	23.592
703.96	27.019
704.28	25.000
704.60	27.273
704.91	27.003
705.23	26.686
705.55	27.907
705.87	27.243
706.19	26.502
706.51	25.234
706.83	29.091
707.15	29.412
707.47	27.778
707.79	30.221
708.11	27.397
708.43	29.048
708.74	23.724
709.06	28.571
709.38	26.772
709.70	26.453
710.02	28.487
710.34	24.545
710.66	24.478
710.98	26.136
711.29	28.488
711.61	27.139
711.93	23.077
712.25	26.688
712.57	27.941
712.89	27.336
713.20	28.875
713.52	25.329
713.84	25.633
714.16	25.610
714.48	27.011
714.80	32.219
715.11	31.700
715.43	25.816
715.75	27.826
716.07	27.476
716.39	26.646
716.70	28.904
717.02	23.381
717.34	24.382
717.66	25.746
717.97	29.084
718.29	24.815
718.61	26.277
718.93	26.838
719.24	23.529
719.56	26.780
719.88	26.102
720.20	30.405
720.51	26.132
720.83	27.138
721.15	27.239
721.46	24.468
721.78	29.032
722.10	27.170
722.42	29.699
722.73	27.341
723.05	26.230
723.37	25.101
723.68	25.097
724.00	23.171
724.32	26.210
724.63	23.171
724.95	26.360
725.27	25.911
725.58	28.906
725.90	29.197
726.22	31.698
726.53	26.042
726.85	26.621
727.16	28.114
727.48	24.468
727.80	26.136
728.11	21.739
728.43	27.692
728.74	30.824
729.06	33.577
729.38	32.353
729.69	26.690
730.01	23.208
730.32	27.431
730.64	27.090
730.96	28.053
731.27	29.470
731.59	31.193
731.90	32.945
732.22	29.503
732.53	32.508
732.85	29.487
733.16	30.225
733.48	30.897
733.80	27.922
734.11	29.936
734.43	30.473
734.74	29.714
735.06	27.794
735.37	31.503
735.69	25.796
736.00	27.124
736.32	29.595
736.63	26.518
736.95	28.754
737.26	23.469
737.58	26.129
737.89	27.759
738.21	31.058
738.52	25.714
738.83	23.774
739.15	25.000
739.46	31.022
739.78	28.125
740.09	29.846
740.41	30.000
740.72	24.390
741.04	24.815
741.35	30.417
741.66	36.000
741.98	23.113
742.29	28.230
742.61	30.603
742.92	26.697
743.23	25.641
743.55	30.000
743.86	26.754
744.18	30.088
744.49	32.057
744.80	27.230
745.12	27.727
745.43	22.907
745.74	31.081
746.06	24.771
746.37	29.596
746.68	28.054
747.00	28.704
747.31	28.095
747.62	26.549
747.94	29.956
748.25	26.809
748.56	25.110
748.88	25.743
749.19	34.000
749.50	26.512
749.82	26.423
750.13	28.980
750.44	28.467
750.75	28.772
751.07	32.797
751.38	26.829
751.69	28.159
752.01	30.451
752.32	29.964
752.63	30.142
752.94	32.377
753.26	34.400
753.57	30.081
753.88	26.953
754.19	26.071
754.51	31.597
754.82	27.076
755.13	31.321
755.44	31.955
755.75	31.752
756.07	29.433
756.38	27.737
756.69	29.530
757.00	29.641
757.31	32.047
757.63	32.456
757.94	29.491
758.25	31.863
758.56	29.136
758.87	27.688
759.18	30.303
759.50	25.078
759.81	29.595
760.12	29.687
760.43	31.232
760.74	32.609
761.05	32.203
761.36	32.620
761.67	29.830
761.99	30.745
762.30	28.819
762.61	27.481
762.92	28.906
763.23	32.353
763.54	29.600
763.85	26.562
764.16	32.692
764.47	28.137
764.78	28.269
765.10	32.911
765.41	32.448
765.72	29.940
766.03	28.840
766.34	26.667
766.65	34.894
766.96	28.632
767.27	28.426
767.58	26.042
767.89	34.211
768.20	28.736
768.51	30.964
768.82	31.651
769.13	33.740
769.44	26.721
769.75	30.043
770.06	26.606
770.37	27.149
770.68	30.556
770.99	29.778
771.30	28.279
771.61	33.632
771.92	31.557
772.23	35.294
772.54	30.769
772.85	29.319
773.16	29.255
773.47	35.870
773.78	38.579
774.09	23.810
774.39	32.749
774.70	27.160
775.01	23.913
775.32	36.601
775.63	30.263
775.94	25.180
776.25	29.921
776.56	35.821
776.87	20.492
777.18	27.344
777.48	32.824
777.79	28.030
778.10	25.185
778.41	26.786
778.72	29.197
779.03	32.215
779.34	30.872
779.65	28.378
779.95	34.969
780.26	37.255
780.57	35.862
780.88	32.812
781.19	27.820
781.50	35.135
781.80	32.704
782.11	30.508
782.42	30.380
782.73	26.380
783.04	35.811
783.34	30.282
783.65	34.932
783.96	40.299
784.27	26.573
784.57	26.619
784.88	21.296
785.19	25.397
785.50	36.792
785.81	36.567
786.11	38.525
786.42	32.558
786.73	22.124
787.04	31.132
787.34	32.143
787.65	40.000
787.96	35.135
788.26	31.405
788.57	33.051
788.88	42.975
789.19	38.194
789.49	36.364
789.80	33.588
790.11	43.810
790.41	34.653
790.72	30.120
791.03	27.174
791.33	29.070
791.64	30.928
791.95	30.693
792.25	38.889
792.56	46.753
792.87	43.590
793.17	44.304
793.48	39.080
793.79	27.586
794.09	37.500
794.40	32.773
794.70	35.294
795.01	28.889
795.32	34.532
795.62	33.071
795.93	32.759
796.23	30.088
796.54	31.765
796.85	31.081
797.15	23.944
797.46	15.152
797.76	42.169
798.07	31.646
798.37	33.846
798.68	30.303
798.99	21.127
799.29	41.558
799.60	31.818
799.90	57.534
800.21	47.761
800.51	37.931
800.82	36.842
801.12	52.459
801.43	39.394
801.73	25.676
802.04	50.794
802.34	43.210
802.65	17.188
802.95	47.458
803.26	35.937
803.56	31.429
803.87	38.462
804.17	35.294
804.48	51.852
804.78	27.586
805.09	26.471
805.39	25.000
805.70	14.286
806.00	47.541
806.30	28.788
806.61	41.463
806.91	35.443
807.22	39.474
807.52	16.418
807.83	26.761
808.13	42.187
808.43	33.333
808.74	25.000
809.04	40.580
809.35	31.343
809.65	47.368
809.95	56.452
810.26	38.983
810.56	25.397
810.86	77.273
811.17	54.762
811.47	50.000
811.77	40.741
812.08	29.091
812.38	38.000
812.69	41.667
812.99	47.727
813.29	16.327
813.59	11.905
813.90	63.265
814.20	34.545
814.50	43.077
814.81	60.294
815.11	34.694
815.41	44.262
815.72	69.048
816.02	43.636
816.32	38.095
816.62	37.500
816.93	46.341
817.23	50.000
817.53	52.273
817.84	51.515
818.14	50.000
818.44	44.444
818.74	55.882
819.04	32.500
819.35	31.429
819.65	67.647
819.95	60.714
820.25	65.000
820.56	64.103
820.86	47.727
821.16	48.837
821.46	30.769
821.76	52.000
822.07	34.286
822.37	52.500
822.67	48.485
822.97	43.137
823.27	53.571
823.57	75.676
823.88	55.000
824.18	73.333
824.48	47.619
824.78	12.000
825.08	50.000
825.38	43.243
825.69	34.146
825.99	70.833
826.29	34.483
826.59	47.368
826.89	76.316
827.19	64.706
827.49	80.645
827.79	50.000
828.09	31.818
828.39	40.426
828.70	44.898
829.00	25.926
829.30	16.129
829.60	57.500
829.90	53.333
830.20	50.000
830.50	8.696
830.80	43.478
831.10	56.667
831.40	56.667
831.70	39.130
832.00	57.692
832.30	33.333
832.60	31.250
832.90	103.333
833.20	85.714
833.50	83.871
833.80	68.966
834.10	34.375
834.40	50.000
834.70	77.778
835.00	85.714
835.30	51.429
835.60	0.000
835.90	34.483
836.20	121.429
836.50	55.172
836.80	24.000
837.10	72.222
837.40	28.571
837.70	58.824
838.00	70.370
838.30	61.905
838.60	80.952
838.90	103.846
839.19	85.000
839.49	178.571
839.79	100.000
840.09	60.000
840.39	80.952
840.69	69.565
840.99	55.556
841.29	-20.000
841.59	16.667
841.88	50.000
842.18	51.724
842.48	114.286
842.78	66.667
843.08	69.565
843.38	46.875
843.68	166.667
843.97	65.385
844.27	65.517
844.57	114.286
844.87	75.000
845.17	44.444
845.47	100.000
845.76	11.111
846.06	41.176
846.36	12.500
846.66	85.714
846.96	62.500
847.25	54.545
847.55	27.273
847.85	91.304
848.15	50.000
848.44	7.143
848.74	11.111
849.04	82.353
849.34	110.000
849.63	47.368
849.93	118.182
850.23	120.000
850.53	64.286
850.82	250.000
851.12	-500.000
851.42	300.000
851.71	40.000
852.01	133.333
852.31	41.667
852.61	166.667
852.90	76.190
853.20	72.000
853.50	58.824
853.79	71.429
854.09	25.000
854.39	118.750
854.68	54.054
854.98	54.839
855.28	50.000
855.57	58.621
855.87	96.296
856.17	89.474
856.46	0.000
856.76	52.941
857.05	55.172
857.35	50.000
857.65	113.333
857.94	43.478
858.24	42.308
858.53	100.000
858.83	68.182
859.13	93.333
859.42	0.000
859.72	133.333
860.01	118.182
860.31	72.727
860.60	89.474
860.90	65.217
861.20	122.222
861.49	100.000
861.79	-400.000
862.08	175.000
862.38	52.381
862.67	53.846
862.97	82.353
863.26	33.333
863.56	66.667
863.85	133.333
864.15	100.000
864.44	100.000
864.74	183.333
865.03	100.000
865.33	26.316
865.62	63.636
865.92	176.923
866.21	25.000
866.51	0.000
866.80	18.182
867.10	180.000
867.39	84.615
867.69	45.455
867.98	63.158
868.27	109.091
868.57	63.158
868.86	-700.000
869.16	131.250
869.45	150.000
869.75	-300.000
870.04	166.667
870.33	-14.286
870.63	50.000
870.92	400.000
871.22	142.857
871.51	164.706
871.80	38.095
872.10	64.286
>>>>>End Processed Spectral Data<<<<<
