SpectraSuite Data File
++++++++++++++++++++++++++++++++++++
Date: Wed May 13 16:46:16 PDT 2015
User: schluterlab
Dark Spectrum Present: Yes
Reference Spectrum Present: Yes
Number of Sampled Component Spectra: 1
Spectrometers: USB2E3373
Integration Time (usec): 3000 (USB2E3373)
Spectra Averaged: 3 (USB2E3373)
Boxcar Smoothing: 0 (USB2E3373)
Correct for Electrical Dark: No (USB2E3373)
Strobe/Lamp Enabled: No (USB2E3373)
Correct for Detector Non-linearity: No (USB2E3373)
Correct for Stray Light: No (USB2E3373)
Number of Pixels in Processed Spectrum: 2048
>>>>>Begin Processed Spectral Data<<<<<
178.53	0.000
178.91	-1300.000
179.29	-1300.000
179.67	-272.222
180.04	-1275.000
180.42	2900.000
180.80	840.000
181.18	-1125.000
181.56	671.429
181.94	0.000
182.31	-785.714
182.69	1766.667
183.07	-537.500
183.45	-455.556
183.83	554.545
184.20	-400.000
184.58	2250.000
184.96	5300.000
185.34	-1020.000
185.72	-550.000
186.09	-2450.000
186.47	2700.000
186.85	2700.000
187.23	4600.000
187.61	-1433.333
187.98	1375.000
188.36	518.182
188.74	445.455
189.12	-940.000
189.49	540.000
189.87	-4000.000
190.25	-1300.000
190.63	385.714
191.00	353.846
191.38	733.333
191.76	-1050.000
192.14	1400.000
192.51	600.000
192.89	800.000
193.27	625.000
193.65	-1025.000
194.02	430.000
194.40	1040.000
194.78	520.000
195.15	466.667
195.53	600.000
195.91	-1700.000
196.29	325.000
196.66	300.000
197.04	-330.000
197.42	0.000
197.79	540.000
198.17	-4900.000
198.55	514.286
198.92	712.500
199.30	720.000
199.68	0.000
200.05	316.667
200.43	671.429
200.81	5000.000
201.18	1733.333
201.56	-1400.000
201.94	622.222
202.31	655.556
202.69	400.000
203.07	340.000
203.44	0.000
203.82	1250.000
204.19	771.429
204.57	414.286
204.95	675.000
205.32	1400.000
205.70	500.000
206.08	350.000
206.45	2450.000
206.83	350.000
207.20	983.333
207.58	800.000
207.96	277.778
208.33	700.000
208.71	-833.333
209.08	685.714
209.46	533.333
209.84	381.818
210.21	-1466.667
210.59	1150.000
210.96	-550.000
211.34	2750.000
211.71	530.000
212.09	766.667
212.46	0.000
212.84	1566.667
213.22	1025.000
213.59	-4500.000
213.97	750.000
214.34	628.571
214.72	509.091
215.09	840.000
215.47	-2100.000
215.84	-2100.000
216.22	1600.000
216.59	357.143
216.97	1300.000
217.34	509.091
217.72	-800.000
218.09	0.000
218.47	-4800.000
218.84	600.000
219.22	714.286
219.59	1533.333
219.97	-600.000
220.34	980.000
220.72	-1533.333
221.09	350.000
221.47	1525.000
221.84	-883.333
222.22	0.000
222.59	1325.000
222.97	-2350.000
223.34	1100.000
223.72	384.615
224.09	1220.000
224.46	2250.000
224.84	-5000.000
225.21	-960.000
225.59	-4600.000
225.96	530.000
226.34	245.000
226.71	2500.000
227.08	650.000
227.46	550.000
227.83	-925.000
228.21	-1950.000
228.58	588.889
228.95	-2450.000
229.33	-2000.000
229.70	1566.667
230.08	785.714
230.45	-800.000
230.82	491.667
231.20	883.333
231.57	600.000
231.95	425.000
232.32	240.909
232.69	418.182
233.07	585.714
233.44	323.077
233.81	-1400.000
234.19	273.684
234.56	441.667
234.93	333.333
235.31	363.636
235.68	292.308
236.05	357.143
236.43	175.758
236.80	236.842
237.17	4400.000
237.55	190.476
237.92	178.571
238.29	176.190
238.67	177.419
239.04	134.483
239.41	133.333
239.79	93.478
240.16	109.524
240.53	122.727
240.91	76.471
241.28	104.000
241.65	74.000
242.02	78.261
242.40	67.742
242.77	66.667
243.14	61.290
243.51	64.045
243.89	58.824
244.26	47.778
244.63	45.161
245.00	41.489
245.38	42.574
245.75	40.187
246.12	36.697
246.49	48.905
246.87	44.800
247.24	37.692
247.61	34.286
247.98	35.948
248.36	24.324
248.73	27.389
249.10	29.299
249.47	27.684
249.84	33.155
250.22	26.738
250.59	28.994
250.96	26.768
251.33	26.066
251.70	32.673
252.08	23.810
252.45	21.525
252.82	20.870
253.19	22.979
253.56	19.608
253.94	24.481
254.31	23.437
254.68	21.538
255.05	21.402
255.42	18.699
255.79	18.015
256.16	20.217
256.54	16.608
256.91	18.149
257.28	15.108
257.65	18.482
258.02	15.528
258.39	16.404
258.76	15.050
259.14	17.262
259.51	16.109
259.88	15.217
260.25	15.710
260.62	15.029
260.99	13.975
261.36	18.018
261.73	13.754
262.10	13.953
262.47	13.803
262.85	13.649
263.22	10.826
263.59	13.105
263.96	14.835
264.33	14.621
264.70	13.684
265.07	15.857
265.44	14.899
265.81	10.949
266.18	14.322
266.55	14.146
266.92	10.811
267.29	13.426
267.66	10.550
268.03	12.045
268.40	12.617
268.77	10.979
269.14	10.360
269.51	12.867
269.88	13.287
270.25	11.287
270.62	9.663
270.99	15.699
271.36	13.090
271.73	10.514
272.10	10.217
272.47	14.194
272.84	12.338
273.21	9.853
273.58	8.515
273.95	8.805
274.32	10.744
274.69	11.991
275.06	10.827
275.43	10.000
275.80	10.020
276.17	9.980
276.54	11.850
276.91	11.462
277.28	11.133
277.65	10.058
278.02	9.938
278.39	10.937
278.76	10.545
279.13	10.755
279.50	10.056
279.87	8.964
280.23	10.180
280.60	7.544
280.97	10.351
281.34	10.619
281.71	10.000
282.08	11.708
282.45	9.636
282.82	7.993
283.19	8.021
283.56	8.947
283.92	10.998
284.29	8.113
284.66	9.437
285.03	7.776
285.40	8.803
285.77	8.923
286.14	6.736
286.51	9.667
286.87	9.060
287.24	9.283
287.61	8.186
287.98	8.929
288.35	9.509
288.72	9.034
289.08	9.546
289.45	7.908
289.82	8.780
290.19	6.907
290.56	8.423
290.93	7.855
291.29	7.515
291.66	7.080
292.03	10.320
292.40	10.132
292.77	6.805
293.13	7.164
293.50	7.726
293.87	7.852
294.24	7.259
294.60	5.095
294.97	7.413
295.34	9.168
295.71	8.949
296.08	7.692
296.44	6.740
296.81	6.605
297.18	8.537
297.55	6.332
297.91	6.201
298.28	6.961
298.65	9.661
299.02	7.510
299.38	5.578
299.75	3.908
300.12	6.258
300.48	7.125
300.85	7.152
301.22	6.242
301.59	7.197
301.95	7.431
302.32	6.290
302.69	8.363
303.05	6.788
303.42	6.296
303.79	7.135
304.15	6.760
304.52	5.098
304.89	6.039
305.25	6.961
305.62	6.908
305.99	6.612
306.35	6.040
306.72	6.166
307.09	6.881
307.45	7.320
307.82	6.696
308.19	6.402
308.55	6.904
308.92	7.304
309.29	5.491
309.65	5.726
310.02	6.554
310.38	6.452
310.75	6.125
311.12	6.244
311.48	7.628
311.85	7.023
312.22	6.868
312.58	5.198
312.95	6.230
313.31	6.117
313.68	5.301
314.05	8.383
314.41	6.231
314.78	5.136
315.14	6.256
315.51	5.973
315.87	6.337
316.24	5.859
316.61	5.458
316.97	6.164
317.34	5.479
317.70	6.597
318.07	5.582
318.43	5.479
318.80	7.404
319.16	6.780
319.53	5.816
319.89	6.476
320.26	6.500
320.62	6.845
320.99	5.960
321.35	6.970
321.72	6.366
322.08	6.515
322.45	7.761
322.81	6.492
323.18	7.418
323.54	6.865
323.91	7.075
324.27	6.501
324.64	4.753
325.00	5.771
325.37	6.642
325.73	6.912
326.10	7.237
326.46	5.735
326.83	7.161
327.19	6.319
327.56	6.882
327.92	6.299
328.29	7.098
328.65	6.630
329.01	6.318
329.38	5.735
329.74	6.556
330.11	6.221
330.47	6.244
330.84	7.813
331.20	5.100
331.56	5.596
331.93	5.556
332.29	7.098
332.66	6.637
333.02	6.490
333.38	6.956
333.75	6.417
334.11	6.673
334.48	5.945
334.84	6.250
335.20	6.000
335.57	6.528
335.93	5.089
336.29	6.227
336.66	7.124
337.02	4.796
337.38	6.759
337.75	5.971
338.11	5.998
338.47	5.801
338.84	6.416
339.20	5.505
339.56	7.117
339.93	6.000
340.29	6.250
340.65	5.615
341.02	6.545
341.38	6.139
341.74	6.404
342.11	6.114
342.47	5.286
342.83	6.079
343.20	6.580
343.56	5.644
343.92	6.053
344.28	6.293
344.65	5.761
345.01	4.798
345.37	4.631
345.73	6.007
346.10	6.479
346.46	5.763
346.82	5.848
347.19	5.681
347.55	5.993
347.91	6.472
348.27	6.245
348.63	6.355
349.00	6.392
349.36	5.911
349.72	5.934
350.08	5.024
350.45	5.533
350.81	5.686
351.17	5.267
351.53	5.897
351.89	5.116
352.26	7.419
352.62	5.533
352.98	6.321
353.34	5.834
353.70	4.255
354.07	5.968
354.43	6.111
354.79	5.310
355.15	5.108
355.51	6.155
355.87	5.469
356.24	6.759
356.60	5.373
356.96	5.953
357.32	4.661
357.68	5.354
358.04	5.622
358.40	6.968
358.77	5.947
359.13	5.604
359.49	5.490
359.85	3.810
360.21	5.183
360.57	6.537
360.93	5.692
361.29	5.820
361.66	4.644
362.02	5.896
362.38	5.323
362.74	5.878
363.10	5.181
363.46	4.769
363.82	4.686
364.18	5.653
364.54	5.869
364.90	5.524
365.26	5.221
365.62	5.698
365.98	4.894
366.35	4.799
366.71	5.278
367.07	4.953
367.43	5.007
367.79	5.996
368.15	6.825
368.51	4.506
368.87	5.425
369.23	4.316
369.59	6.372
369.95	5.074
370.31	4.843
370.67	5.290
371.03	5.993
371.39	5.175
371.75	5.588
372.11	5.192
372.47	6.745
372.83	6.124
373.19	5.275
373.55	5.691
373.91	5.965
374.27	4.880
374.63	5.309
374.99	5.650
375.35	4.676
375.71	4.935
376.07	6.104
376.42	5.227
376.78	5.103
377.14	4.749
377.50	5.563
377.86	5.319
378.22	5.373
378.58	4.825
378.94	5.845
379.30	4.644
379.66	4.822
380.02	6.388
380.38	5.282
380.74	5.762
381.09	6.540
381.45	5.716
381.81	6.143
382.17	5.287
382.53	5.283
382.89	5.802
383.25	5.378
383.61	6.010
383.97	6.129
384.32	5.864
384.68	5.266
385.04	5.470
385.40	5.635
385.76	6.020
386.12	5.699
386.48	6.042
386.83	5.452
387.19	6.432
387.55	6.184
387.91	5.562
388.27	5.089
388.62	6.331
388.98	5.405
389.34	6.696
389.70	6.193
390.06	6.337
390.42	5.188
390.77	6.043
391.13	5.999
391.49	6.536
391.85	5.411
392.20	5.741
392.56	5.745
392.92	5.768
393.28	6.391
393.64	6.355
393.99	6.475
394.35	6.079
394.71	6.399
395.07	6.044
395.42	5.686
395.78	6.234
396.14	6.269
396.50	7.080
396.85	6.612
397.21	5.857
397.57	6.262
397.92	6.190
398.28	4.989
398.64	6.213
399.00	5.876
399.35	5.584
399.71	6.655
400.07	5.736
400.42	6.626
400.78	6.695
401.14	5.610
401.49	6.507
401.85	5.324
402.21	6.048
402.57	5.737
402.92	5.549
403.28	6.683
403.63	6.188
403.99	5.350
404.35	5.879
404.70	5.935
405.06	4.834
405.42	5.614
405.77	5.257
406.13	6.095
406.49	6.209
406.84	6.497
407.20	5.437
407.55	5.999
407.91	5.867
408.27	4.914
408.62	6.623
408.98	6.311
409.34	5.658
409.69	5.806
410.05	5.576
410.40	5.627
410.76	5.735
411.11	6.574
411.47	5.879
411.83	5.925
412.18	5.504
412.54	5.604
412.89	6.807
413.25	5.903
413.60	5.374
413.96	5.889
414.31	5.529
414.67	6.147
415.03	5.894
415.38	6.443
415.74	6.688
416.09	6.662
416.45	6.091
416.80	6.015
417.16	5.630
417.51	6.171
417.87	6.037
418.22	5.868
418.58	6.327
418.93	6.327
419.29	6.047
419.64	6.234
420.00	6.098
420.35	6.029
420.71	5.977
421.06	5.370
421.42	5.614
421.77	6.222
422.12	5.446
422.48	5.127
422.83	5.766
423.19	5.967
423.54	5.804
423.90	6.029
424.25	5.695
424.61	5.774
424.96	6.181
425.31	6.202
425.67	5.337
426.02	5.714
426.38	6.288
426.73	5.442
427.09	5.714
427.44	5.175
427.79	5.348
428.15	6.607
428.50	5.910
428.85	5.662
429.21	5.853
429.56	5.288
429.92	5.687
430.27	5.660
430.62	5.479
430.98	5.916
431.33	5.928
431.68	5.288
432.04	5.857
432.39	5.083
432.74	5.865
433.10	5.603
433.45	5.539
433.80	5.266
434.16	5.876
434.51	5.368
434.86	5.530
435.22	4.947
435.57	5.289
435.92	5.325
436.28	5.753
436.63	6.126
436.98	5.323
437.34	5.844
437.69	6.359
438.04	5.509
438.39	6.388
438.75	6.101
439.10	5.754
439.45	6.021
439.81	5.136
440.16	5.816
440.51	5.917
440.86	5.906
441.22	5.506
441.57	5.786
441.92	5.476
442.27	5.920
442.63	5.161
442.98	6.366
443.33	6.250
443.68	6.040
444.03	5.564
444.39	5.063
444.74	6.006
445.09	5.337
445.44	5.686
445.79	5.443
446.15	6.194
446.50	5.170
446.85	5.910
447.20	5.915
447.55	5.193
447.91	5.902
448.26	5.454
448.61	5.540
448.96	5.980
449.31	6.299
449.66	6.190
450.02	5.460
450.37	5.045
450.72	5.697
451.07	5.484
451.42	5.714
451.77	6.283
452.12	5.658
452.47	6.405
452.83	5.012
453.18	6.051
453.53	6.184
453.88	5.434
454.23	5.918
454.58	6.420
454.93	6.294
455.28	5.673
455.63	5.583
455.98	6.369
456.34	5.590
456.69	5.886
457.04	6.254
457.39	5.903
457.74	5.514
458.09	5.980
458.44	6.100
458.79	4.989
459.14	5.530
459.49	5.838
459.84	5.429
460.19	5.362
460.54	6.366
460.89	5.431
461.24	5.586
461.59	6.856
461.94	5.734
462.29	6.350
462.64	5.935
462.99	5.725
463.34	7.600
463.69	6.004
464.04	6.029
464.39	6.145
464.74	6.358
465.09	5.609
465.44	5.374
465.79	4.698
466.14	5.911
466.49	5.284
466.84	6.071
467.19	6.940
467.54	6.750
467.89	6.002
468.24	6.225
468.59	6.593
468.94	5.864
469.29	5.913
469.64	6.760
469.99	6.360
470.34	5.350
470.68	6.968
471.03	6.395
471.38	6.324
471.73	6.662
472.08	6.645
472.43	6.093
472.78	6.452
473.13	5.969
473.48	6.554
473.83	5.915
474.17	5.538
474.52	5.707
474.87	5.954
475.22	5.514
475.57	5.696
475.92	5.736
476.27	5.524
476.61	5.902
476.96	5.607
477.31	5.181
477.66	5.744
478.01	5.332
478.36	5.817
478.70	4.829
479.05	5.485
479.40	5.937
479.75	5.440
480.10	5.318
480.45	5.569
480.79	5.017
481.14	5.186
481.49	5.221
481.84	5.304
482.19	5.089
482.53	6.009
482.88	5.398
483.23	5.047
483.58	5.141
483.92	5.576
484.27	4.532
484.62	5.043
484.97	4.848
485.31	4.932
485.66	4.400
486.01	3.906
486.36	3.577
486.70	3.642
487.05	4.037
487.40	3.933
487.75	4.299
488.09	4.459
488.44	4.336
488.79	4.665
489.13	4.584
489.48	5.016
489.83	5.309
490.17	4.603
490.52	5.226
490.87	5.382
491.22	5.548
491.56	4.920
491.91	5.119
492.26	5.053
492.60	5.392
492.95	5.192
493.30	4.907
493.64	5.413
493.99	4.921
494.34	5.550
494.68	5.632
495.03	5.592
495.37	5.165
495.72	5.458
496.07	5.336
496.41	4.646
496.76	5.189
497.11	5.088
497.45	5.449
497.80	5.134
498.14	4.734
498.49	4.927
498.84	5.273
499.18	5.095
499.53	4.938
499.87	4.846
500.22	5.181
500.56	6.408
500.91	4.904
501.26	5.642
501.60	5.695
501.95	5.133
502.29	5.717
502.64	5.773
502.98	5.330
503.33	5.484
503.67	5.197
504.02	5.472
504.36	5.803
504.71	5.325
505.06	5.590
505.40	5.348
505.75	5.497
506.09	5.831
506.44	5.427
506.78	5.650
507.13	5.856
507.47	6.061
507.82	6.079
508.16	5.623
508.51	5.987
508.85	5.164
509.19	5.153
509.54	5.255
509.88	5.925
510.23	5.090
510.57	6.192
510.92	5.386
511.26	5.704
511.61	6.535
511.95	4.958
512.30	5.567
512.64	5.373
512.98	6.484
513.33	6.317
513.67	6.137
514.02	5.195
514.36	6.226
514.70	5.977
515.05	5.577
515.39	5.889
515.74	6.137
516.08	6.931
516.42	6.493
516.77	6.689
517.11	5.383
517.46	6.716
517.80	6.098
518.14	5.501
518.49	6.884
518.83	6.761
519.17	6.582
519.52	6.848
519.86	6.389
520.20	6.705
520.55	6.822
520.89	6.752
521.23	7.298
521.58	6.783
521.92	6.369
522.26	6.101
522.61	6.355
522.95	6.384
523.29	6.330
523.64	6.585
523.98	6.470
524.32	6.574
524.66	6.675
525.01	6.556
525.35	6.568
525.69	5.788
526.04	6.791
526.38	6.528
526.72	6.933
527.06	5.964
527.41	5.755
527.75	7.203
528.09	6.358
528.43	6.501
528.78	6.884
529.12	6.303
529.46	6.981
529.80	6.745
530.15	7.477
530.49	6.892
530.83	7.215
531.17	6.919
531.51	7.782
531.86	6.774
532.20	6.714
532.54	7.239
532.88	7.510
533.22	6.309
533.57	6.605
533.91	7.044
534.25	6.683
534.59	7.261
534.93	6.663
535.27	6.578
535.62	7.082
535.96	6.466
536.30	6.548
536.64	6.568
536.98	7.299
537.32	6.254
537.66	6.133
538.01	7.505
538.35	6.464
538.69	7.530
539.03	7.083
539.37	5.367
539.71	5.833
540.05	6.601
540.39	6.179
540.73	6.080
541.07	7.203
541.42	6.915
541.76	7.419
542.10	6.662
542.44	6.623
542.78	7.839
543.12	7.038
543.46	7.148
543.80	6.311
544.14	6.483
544.48	7.175
544.82	6.671
545.16	6.376
545.50	6.941
545.84	7.056
546.18	6.667
546.52	7.020
546.86	7.010
547.20	6.811
547.54	7.548
547.88	7.270
548.22	6.912
548.56	6.981
548.90	6.658
549.24	6.599
549.58	6.889
549.92	7.349
550.26	6.889
550.60	7.261
550.94	7.324
551.28	5.925
551.62	7.261
551.96	7.018
552.30	6.962
552.64	7.032
552.98	6.847
553.32	7.283
553.66	6.680
554.00	7.618
554.34	6.763
554.68	7.511
555.02	6.911
555.36	7.376
555.69	7.172
556.03	6.393
556.37	6.412
556.71	6.412
557.05	7.143
557.39	6.928
557.73	6.845
558.07	6.962
558.41	6.585
558.75	7.274
559.08	7.233
559.42	6.349
559.76	7.353
560.10	7.066
560.44	6.918
560.78	6.321
561.12	7.256
561.45	7.432
561.79	6.922
562.13	7.109
562.47	6.694
562.81	6.695
563.15	7.358
563.48	6.698
563.82	6.327
564.16	6.540
564.50	6.185
564.84	7.016
565.17	7.014
565.51	6.326
565.85	7.424
566.19	5.886
566.52	6.333
566.86	6.872
567.20	6.899
567.54	5.993
567.88	5.975
568.21	6.772
568.55	5.814
568.89	5.447
569.23	5.660
569.56	5.425
569.90	5.094
570.24	5.454
570.57	5.168
570.91	4.880
571.25	4.941
571.59	5.037
571.92	4.695
572.26	5.026
572.60	5.105
572.93	4.738
573.27	5.235
573.61	5.276
573.95	5.013
574.28	4.799
574.62	4.568
574.96	4.707
575.29	4.680
575.63	4.421
575.97	4.426
576.30	4.673
576.64	4.473
576.98	4.351
577.31	4.274
577.65	4.473
577.98	4.343
578.32	4.309
578.66	4.361
578.99	4.337
579.33	4.188
579.67	4.427
580.00	4.363
580.34	4.722
580.67	4.207
581.01	4.655
581.35	4.173
581.68	4.538
582.02	3.901
582.35	4.231
582.69	4.226
583.02	4.499
583.36	4.588
583.70	4.845
584.03	4.598
584.37	5.007
584.70	4.650
585.04	4.525
585.37	4.567
585.71	4.723
586.04	4.518
586.38	4.702
586.72	5.247
587.05	4.700
587.39	4.248
587.72	4.612
588.06	4.402
588.39	4.746
588.73	4.987
589.06	5.079
589.40	4.949
589.73	4.611
590.07	5.587
590.40	4.932
590.73	5.191
591.07	5.495
591.40	5.356
591.74	5.931
592.07	5.541
592.41	5.085
592.74	5.206
593.08	5.496
593.41	5.157
593.75	5.215
594.08	5.330
594.41	5.232
594.75	4.991
595.08	5.512
595.42	5.149
595.75	5.377
596.09	5.520
596.42	5.815
596.75	5.530
597.09	6.147
597.42	4.975
597.75	5.735
598.09	5.391
598.42	5.369
598.76	5.310
599.09	5.359
599.42	5.386
599.76	5.783
600.09	4.590
600.42	5.332
600.76	4.679
601.09	5.064
601.42	5.061
601.76	4.934
602.09	4.664
602.42	5.732
602.76	5.562
603.09	5.507
603.42	5.389
603.76	5.373
604.09	5.312
604.42	5.381
604.76	5.989
605.09	5.592
605.42	5.686
605.75	5.050
606.09	5.327
606.42	5.190
606.75	5.848
607.09	5.776
607.42	5.263
607.75	5.148
608.08	5.211
608.42	6.230
608.75	5.861
609.08	5.365
609.41	6.045
609.75	5.336
610.08	6.268
610.41	5.214
610.74	5.724
611.07	6.176
611.41	6.281
611.74	6.687
612.07	5.590
612.40	6.296
612.73	6.000
613.07	6.519
613.40	6.372
613.73	6.083
614.06	5.699
614.39	6.135
614.72	6.579
615.06	6.513
615.39	5.308
615.72	5.777
616.05	5.901
616.38	6.392
616.71	5.879
617.05	6.184
617.38	5.713
617.71	6.486
618.04	6.370
618.37	6.328
618.70	6.970
619.03	7.434
619.36	6.110
619.69	7.042
620.03	6.456
620.36	7.019
620.69	7.329
621.02	7.080
621.35	6.578
621.68	6.153
622.01	6.889
622.34	6.808
622.67	7.452
623.00	6.530
623.33	6.648
623.66	7.219
623.99	6.701
624.32	6.419
624.65	6.638
624.99	5.666
625.32	6.372
625.65	6.236
625.98	7.917
626.31	8.398
626.64	7.510
626.97	6.318
627.30	7.315
627.63	8.532
627.96	7.990
628.29	8.136
628.62	8.509
628.95	9.340
629.28	7.938
629.61	8.799
629.94	7.429
630.26	7.817
630.59	8.294
630.92	8.333
631.25	8.292
631.58	9.309
631.91	7.809
632.24	8.650
632.57	8.395
632.90	8.553
633.23	8.613
633.56	8.136
633.89	9.060
634.22	8.513
634.55	9.586
634.88	7.904
635.20	10.394
635.53	10.723
635.86	9.035
636.19	9.059
636.52	8.766
636.85	9.393
637.18	8.871
637.51	9.811
637.83	8.138
638.16	9.591
638.49	10.579
638.82	9.861
639.15	9.750
639.48	10.599
639.81	8.713
640.13	11.979
640.46	10.470
640.79	9.908
641.12	9.491
641.45	8.520
641.77	10.162
642.10	11.111
642.43	8.709
642.76	9.907
643.09	11.043
643.41	10.774
643.74	12.037
644.07	10.823
644.40	10.736
644.73	11.969
645.05	12.995
645.38	11.058
645.71	10.789
646.04	12.126
646.36	13.022
646.69	11.706
647.02	12.075
647.35	10.481
647.67	10.442
648.00	12.033
648.33	10.396
648.66	10.152
648.98	12.144
649.31	8.819
649.64	11.211
649.96	11.177
650.29	12.006
650.62	9.547
650.94	11.183
651.27	13.007
651.60	12.646
651.92	12.620
652.25	9.609
652.58	11.526
652.90	12.006
653.23	8.937
653.56	11.811
653.88	11.252
654.21	12.796
654.54	9.571
654.86	10.125
655.19	9.459
655.52	5.021
655.84	3.391
656.17	3.965
656.49	5.278
656.82	5.211
657.15	4.130
657.47	3.055
657.80	2.451
658.13	2.576
658.45	4.160
658.78	4.151
659.10	4.572
659.43	4.799
659.75	5.538
660.08	6.266
660.41	7.542
660.73	9.784
661.06	10.669
661.38	11.636
661.71	15.577
662.03	15.187
662.36	10.934
662.68	12.651
663.01	12.525
663.33	12.527
663.66	14.916
663.98	11.879
664.31	13.445
664.63	11.538
664.96	13.078
665.28	14.549
665.61	12.086
665.93	13.280
666.26	14.199
666.58	13.808
666.91	14.588
667.23	14.831
667.56	13.391
667.88	13.248
668.21	14.286
668.53	13.449
668.86	14.719
669.18	16.418
669.50	12.391
669.83	16.993
670.15	13.333
670.48	12.854
670.80	15.948
671.13	12.527
671.45	10.851
671.77	13.646
672.10	12.754
672.42	10.247
672.75	11.609
673.07	10.563
673.39	10.488
673.72	8.398
674.04	12.745
674.37	12.233
674.69	12.270
675.01	11.088
675.34	15.195
675.66	13.895
675.98	14.664
676.31	13.025
676.63	12.739
676.95	14.465
677.28	14.953
677.60	12.308
677.92	16.245
678.25	13.552
678.57	12.351
678.89	11.824
679.22	9.823
679.54	12.977
679.86	12.661
680.18	10.912
680.51	11.525
680.83	12.100
681.15	14.151
681.48	15.312
681.80	12.379
682.12	12.069
682.44	9.091
682.77	12.424
683.09	13.090
683.41	13.082
683.73	14.570
684.06	14.669
684.38	12.524
684.70	12.984
685.02	12.570
685.34	12.088
685.67	9.790
685.99	10.481
686.31	9.215
686.63	9.187
686.96	10.536
687.28	12.274
687.60	10.507
687.92	12.614
688.24	11.787
688.56	14.056
688.89	11.826
689.21	15.502
689.53	13.779
689.85	13.082
690.17	12.836
690.49	15.499
690.82	14.486
691.14	11.384
691.46	12.447
691.78	12.851
692.10	13.017
692.42	14.970
692.74	10.788
693.06	12.979
693.39	15.606
693.71	11.790
694.03	14.947
694.35	12.987
694.67	12.815
694.99	14.390
695.31	15.441
695.63	12.201
695.95	15.892
696.27	11.929
696.59	15.026
696.91	15.544
697.23	13.380
697.56	13.433
697.88	11.043
698.20	12.292
698.52	13.978
698.84	14.699
699.16	12.903
699.48	14.964
699.80	13.527
700.12	19.221
700.44	14.324
700.76	15.470
701.08	15.230
701.40	14.804
701.72	16.910
702.04	21.023
702.36	14.731
702.68	16.997
703.00	14.404
703.32	16.223
703.64	15.282
703.96	17.270
704.28	12.791
704.60	17.595
704.91	20.178
705.23	19.355
705.55	17.940
705.87	21.595
706.19	18.728
706.51	19.315
706.83	18.182
707.15	18.768
707.47	15.909
707.79	16.462
708.11	15.753
708.43	14.762
708.74	13.265
709.06	14.286
709.38	14.173
709.70	15.698
710.02	18.398
710.34	15.152
710.66	16.418
710.98	19.034
711.29	16.570
711.61	20.059
711.93	14.103
712.25	18.328
712.57	19.853
712.89	16.263
713.20	20.365
713.52	19.079
713.84	18.671
714.16	17.683
714.48	17.529
714.80	20.061
715.11	14.986
715.43	17.507
715.75	17.681
716.07	15.335
716.39	17.868
716.70	20.598
717.02	19.784
717.34	21.201
717.66	19.776
717.97	23.904
718.29	19.259
718.61	19.708
718.93	20.956
719.24	20.415
719.56	19.322
719.88	20.000
720.20	20.608
720.51	20.557
720.83	23.792
721.15	21.642
721.46	18.794
721.78	22.939
722.10	20.000
722.42	19.173
722.73	20.599
723.05	17.623
723.37	20.243
723.68	22.394
724.00	23.984
724.32	21.774
724.63	20.325
724.95	19.247
725.27	22.267
725.58	21.875
725.90	22.263
726.22	19.245
726.53	19.792
726.85	19.454
727.16	19.929
727.48	17.730
727.80	20.455
728.11	25.000
728.43	16.923
728.74	18.996
729.06	26.642
729.38	24.265
729.69	20.996
730.01	20.819
730.32	17.708
730.64	19.398
730.96	16.832
731.27	20.530
731.59	19.878
731.90	19.825
732.22	16.460
732.53	17.337
732.85	17.308
733.16	15.756
733.48	21.262
733.80	17.208
734.11	20.382
734.43	19.231
734.74	16.000
735.06	14.327
735.37	20.520
735.69	16.242
736.00	21.895
736.32	20.561
736.63	19.489
736.95	19.169
737.26	14.626
737.58	16.774
737.89	19.398
738.21	17.747
738.52	17.143
738.83	17.358
739.15	22.308
739.46	20.438
739.78	23.264
740.09	17.231
740.41	21.290
740.72	16.725
741.04	21.111
741.35	16.250
741.66	24.444
741.98	19.340
742.29	24.402
742.61	28.448
742.92	23.077
743.23	25.214
743.55	25.600
743.86	23.246
744.18	30.973
744.49	27.751
744.80	20.657
745.12	25.909
745.43	23.789
745.74	28.378
746.06	25.229
746.37	27.354
746.68	25.339
747.00	28.704
747.31	27.143
747.62	19.912
747.94	22.907
748.25	20.851
748.56	27.753
748.88	24.752
749.19	28.500
749.50	21.860
749.82	21.545
750.13	20.000
750.44	18.978
750.75	20.702
751.07	23.473
751.38	22.648
751.69	20.217
752.01	18.421
752.32	19.856
752.63	25.887
752.94	19.672
753.26	25.200
753.57	17.886
753.88	22.266
754.19	23.571
754.51	23.264
754.82	15.162
755.13	19.623
755.44	21.053
755.75	18.978
756.07	18.440
756.38	17.883
756.69	19.799
757.00	18.563
757.31	21.068
757.63	15.789
757.94	16.890
758.25	15.931
758.56	15.062
758.87	17.742
759.18	15.758
759.50	15.674
759.81	16.199
760.12	16.562
760.43	17.192
760.74	18.750
761.05	14.407
761.36	14.973
761.67	16.477
761.99	18.012
762.30	20.486
762.61	20.992
762.92	23.828
763.23	23.109
763.54	26.400
763.85	17.187
764.16	25.000
764.47	21.673
764.78	16.961
765.10	16.772
765.41	20.059
765.72	17.066
766.03	22.257
766.34	14.333
766.65	24.255
766.96	23.504
767.27	25.381
767.58	29.167
767.89	27.368
768.20	32.184
768.51	27.411
768.82	24.312
769.13	19.919
769.44	22.267
769.75	23.605
770.06	19.266
770.37	22.624
770.68	26.852
770.99	24.444
771.30	22.951
771.61	24.664
771.92	25.000
772.23	28.992
772.54	27.692
772.85	30.366
773.16	32.447
773.47	29.348
773.78	28.934
774.09	29.167
774.39	31.579
774.70	32.716
775.01	39.130
775.32	44.444
775.63	41.447
775.94	33.094
776.25	42.520
776.56	39.552
776.87	44.262
777.18	39.062
777.48	44.275
777.79	42.424
778.10	48.148
778.41	39.286
778.72	34.307
779.03	32.215
779.34	35.570
779.65	27.027
779.95	38.037
780.26	36.601
780.57	37.931
780.88	41.406
781.19	37.594
781.50	36.486
781.80	32.704
782.11	31.073
782.42	23.418
782.73	33.742
783.04	45.946
783.34	31.690
783.65	41.781
783.96	45.522
784.27	37.063
784.57	30.935
784.88	38.889
785.19	43.651
785.50	41.509
785.81	47.015
786.11	45.082
786.42	40.310
786.73	41.593
787.04	47.170
787.34	35.714
787.65	42.000
787.96	46.847
788.26	38.017
788.57	44.068
788.88	38.843
789.19	43.750
789.49	41.667
789.80	36.641
790.11	53.333
790.41	57.426
790.72	51.807
791.03	61.957
791.33	52.326
791.64	49.485
791.95	55.446
792.25	53.333
792.56	57.143
792.87	76.923
793.17	75.949
793.48	62.069
793.79	56.322
794.09	62.500
794.40	38.655
794.70	52.941
795.01	40.741
795.32	32.374
795.62	39.370
795.93	44.828
796.23	45.133
796.54	52.941
796.85	52.703
797.15	78.873
797.46	56.061
797.76	63.855
798.07	60.759
798.37	63.077
798.68	59.091
798.99	57.746
799.29	71.429
799.60	60.227
799.90	71.233
800.21	68.657
800.51	70.690
800.82	84.211
801.12	85.246
801.43	75.758
801.73	62.162
802.04	85.714
802.34	60.494
802.65	73.438
802.95	94.915
803.26	85.937
803.56	54.286
803.87	76.923
804.17	86.765
804.48	107.407
804.78	86.207
805.09	80.882
805.39	100.000
805.70	96.429
806.00	103.279
806.30	78.788
806.61	64.634
806.91	55.696
807.22	61.842
807.52	64.179
807.83	69.014
808.13	81.250
808.43	70.000
808.74	67.105
809.04	72.464
809.35	80.597
809.65	68.421
809.95	103.226
810.26	69.492
810.56	82.540
810.86	136.364
811.17	126.190
811.47	88.333
811.77	92.593
812.08	76.364
812.38	90.000
812.69	141.667
812.99	113.636
813.29	91.837
813.59	76.190
813.90	126.531
814.20	98.182
814.50	76.923
814.81	75.000
815.11	83.673
815.41	83.607
815.72	114.286
816.02	85.455
816.32	102.381
816.62	105.000
816.93	104.878
817.23	150.000
817.53	106.818
817.84	163.636
818.14	128.261
818.44	117.778
818.74	147.059
819.04	90.000
819.35	111.429
819.65	138.235
819.95	160.714
820.25	155.000
820.56	151.282
820.86	109.091
821.16	120.930
821.46	141.026
821.76	128.000
822.07	140.000
822.37	122.500
822.67	151.515
822.97	121.569
823.27	200.000
823.57	110.811
823.88	167.500
824.18	146.667
824.48	138.095
824.78	208.000
825.08	166.667
825.38	145.946
825.69	124.390
825.99	216.667
826.29	134.483
826.59	121.053
826.89	128.947
827.19	135.294
827.49	154.839
827.79	118.182
828.09	111.364
828.39	117.021
828.70	122.449
829.00	170.370
829.30	148.387
829.60	132.500
829.90	240.000
830.20	167.857
830.50	200.000
830.80	173.913
831.10	176.667
831.40	146.667
831.70	191.304
832.00	200.000
832.30	185.185
832.60	262.500
832.90	163.333
833.20	314.286
833.50	151.613
833.80	179.310
834.10	171.875
834.40	234.615
834.70	205.556
835.00	276.190
835.30	194.286
835.60	292.308
835.90	175.862
836.20	392.857
836.50	196.552
836.80	148.000
837.10	155.556
837.40	261.905
837.70	282.353
838.00	174.074
838.30	238.095
838.60	247.619
838.90	234.615
839.19	230.000
839.49	335.714
839.79	315.000
840.09	210.000
840.39	242.857
840.69	221.739
840.99	227.778
841.29	430.000
841.59	308.333
841.88	287.500
842.18	151.724
842.48	271.429
842.78	120.000
843.08	200.000
843.38	153.125
843.68	766.667
843.97	196.154
844.27	155.172
844.57	252.381
844.87	343.750
845.17	188.889
845.47	1466.667
845.76	466.667
846.06	276.471
846.36	537.500
846.66	342.857
846.96	275.000
847.25	409.091
847.55	354.545
847.85	260.870
848.15	460.000
848.44	350.000
848.74	222.222
849.04	282.353
849.34	490.000
849.63	210.526
849.93	418.182
850.23	880.000
850.53	364.286
850.82	2000.000
851.12	-4400.000
851.42	4900.000
851.71	300.000
852.01	-966.667
852.31	237.500
852.61	1133.333
852.90	223.810
853.20	248.000
853.50	282.353
853.79	266.667
854.09	195.833
854.39	243.750
854.68	151.351
854.98	170.968
855.28	176.667
855.57	182.759
855.87	196.296
856.17	210.526
856.46	193.333
856.76	229.412
857.05	189.655
857.35	200.000
857.65	273.333
857.94	234.783
858.24	226.923
858.53	295.000
858.83	240.909
859.13	286.667
859.42	0.000
859.72	500.000
860.01	500.000
860.31	236.364
860.60	257.895
860.90	230.435
861.20	588.889
861.49	400.000
861.79	-4600.000
862.08	562.500
862.38	271.429
862.67	346.154
862.97	305.882
863.26	611.111
863.56	244.444
863.85	433.333
864.15	562.500
864.44	393.333
864.74	816.667
865.03	750.000
865.33	231.579
865.62	381.818
865.92	361.538
866.21	391.667
866.51	0.000
866.80	336.364
867.10	1020.000
867.39	392.308
867.69	481.818
867.98	278.947
868.27	454.545
868.57	284.211
868.86	-3300.000
869.16	306.250
869.45	2150.000
869.75	-4100.000
870.04	425.000
870.33	585.714
870.63	950.000
870.92	3000.000
871.22	742.857
871.51	294.118
871.80	242.857
872.10	321.429
>>>>>End Processed Spectral Data<<<<<
