SpectraSuite Data File
++++++++++++++++++++++++++++++++++++
Date: Wed May 13 16:28:55 PDT 2015
User: schluterlab
Dark Spectrum Present: Yes
Reference Spectrum Present: Yes
Number of Sampled Component Spectra: 1
Spectrometers: USB2E3373
Integration Time (usec): 3000 (USB2E3373)
Spectra Averaged: 3 (USB2E3373)
Boxcar Smoothing: 0 (USB2E3373)
Correct for Electrical Dark: No (USB2E3373)
Strobe/Lamp Enabled: No (USB2E3373)
Correct for Detector Non-linearity: No (USB2E3373)
Correct for Stray Light: No (USB2E3373)
Number of Pixels in Processed Spectrum: 2048
>>>>>Begin Processed Spectral Data<<<<<
178.53	0.000
178.91	-1175.000
179.29	-1050.000
179.67	-188.889
180.04	-1150.000
180.42	2500.000
180.80	940.000
181.18	-1250.000
181.56	757.143
181.94	0.000
182.31	-614.286
182.69	1566.667
183.07	-462.500
183.45	-566.667
183.83	427.273
184.20	-340.000
184.58	2050.000
184.96	5900.000
185.34	-760.000
185.72	-412.500
186.09	-2650.000
186.47	2350.000
186.85	2150.000
187.23	4500.000
187.61	-1333.333
187.98	1300.000
188.36	563.636
188.74	472.727
189.12	-880.000
189.49	520.000
189.87	-4700.000
190.25	-1175.000
190.63	450.000
191.00	438.462
191.38	850.000
191.76	-1050.000
192.14	1300.000
192.51	500.000
192.89	916.667
193.27	562.500
193.65	-1150.000
194.02	480.000
194.40	860.000
194.78	550.000
195.15	541.667
195.53	580.000
195.91	-1800.000
196.29	300.000
196.66	289.474
197.04	-330.000
197.42	0.000
197.79	610.000
198.17	-4700.000
198.55	628.571
198.92	675.000
199.30	880.000
199.68	0.000
200.05	288.889
200.43	814.286
200.81	4400.000
201.18	1433.333
201.56	-1400.000
201.94	433.333
202.31	411.111
202.69	325.000
203.07	510.000
203.44	0.000
203.82	1050.000
204.19	614.286
204.57	442.857
204.95	662.500
205.32	1633.333
205.70	445.455
206.08	392.857
206.45	2550.000
206.83	287.500
207.20	800.000
207.58	720.000
207.96	244.444
208.33	750.000
208.71	-766.667
209.08	771.429
209.46	588.889
209.84	527.273
210.21	-1066.667
210.59	1400.000
210.96	-400.000
211.34	2250.000
211.71	480.000
212.09	800.000
212.46	0.000
212.84	1766.667
213.22	1175.000
213.59	-4800.000
213.97	733.333
214.34	742.857
214.72	500.000
215.09	800.000
215.47	-2150.000
215.84	-2600.000
216.22	1500.000
216.59	321.429
216.97	1275.000
217.34	445.455
217.72	-766.667
218.09	0.000
218.47	-4200.000
218.84	588.889
219.22	671.429
219.59	1866.667
219.97	-514.286
220.34	880.000
220.72	-1600.000
221.09	350.000
221.47	1575.000
221.84	-783.333
222.22	0.000
222.59	1150.000
222.97	-2300.000
223.34	960.000
223.72	384.615
224.09	1060.000
224.46	2250.000
224.84	-4900.000
225.21	-960.000
225.59	-3600.000
225.96	520.000
226.34	305.000
226.71	2250.000
227.08	737.500
227.46	590.000
227.83	-825.000
228.21	-2400.000
228.58	533.333
228.95	-1950.000
229.33	-2400.000
229.70	1500.000
230.08	671.429
230.45	-920.000
230.82	425.000
231.20	800.000
231.57	600.000
231.95	416.667
232.32	227.273
232.69	390.909
233.07	700.000
233.44	292.308
233.81	-1500.000
234.19	284.211
234.56	400.000
234.93	350.000
235.31	418.182
235.68	269.231
236.05	421.429
236.43	157.576
236.80	210.526
237.17	3800.000
237.55	180.952
237.92	175.000
238.29	242.857
238.67	151.613
239.04	172.414
239.41	111.111
239.79	115.217
240.16	119.048
240.53	100.000
240.91	101.961
241.28	72.000
241.65	76.000
242.02	92.754
242.40	64.516
242.77	60.000
243.14	64.516
243.51	64.045
243.89	60.000
244.26	42.222
244.63	50.538
245.00	40.426
245.38	39.604
245.75	52.336
246.12	44.037
246.49	45.255
246.87	53.600
247.24	43.077
247.61	37.143
247.98	41.830
248.36	35.135
248.73	26.115
249.10	38.854
249.47	27.684
249.84	29.947
250.22	29.412
250.59	31.953
250.96	31.818
251.33	28.436
251.70	32.673
252.08	24.762
252.45	26.906
252.82	26.087
253.19	23.404
253.56	23.137
253.94	24.896
254.31	19.141
254.68	20.000
255.05	24.354
255.42	24.390
255.79	19.853
256.16	23.466
256.54	19.435
256.91	20.996
257.28	18.345
257.65	21.122
258.02	20.186
258.39	21.451
258.76	20.401
259.14	19.048
259.51	16.413
259.88	18.323
260.25	20.544
260.62	19.942
260.99	18.323
261.36	18.919
261.73	17.765
262.10	18.023
262.47	18.592
262.85	19.499
263.22	14.530
263.59	22.222
263.96	16.484
264.33	17.232
264.70	19.737
265.07	15.090
265.44	14.899
265.81	13.869
266.18	15.829
266.55	14.146
266.92	14.742
267.29	17.824
267.66	14.679
268.03	14.545
268.40	14.252
268.77	14.320
269.14	16.216
269.51	16.027
269.88	18.182
270.25	14.447
270.62	15.056
270.99	19.355
271.36	15.451
271.73	12.850
272.10	14.783
272.47	16.344
272.84	14.069
273.21	15.723
273.58	12.882
273.95	14.675
274.32	13.430
274.69	14.989
275.06	16.142
275.43	16.170
275.80	13.828
276.17	13.442
276.54	13.929
276.91	13.834
277.28	14.062
277.65	15.280
278.02	13.665
278.39	15.234
278.76	14.545
279.13	13.396
279.50	14.339
279.87	14.542
280.23	14.371
280.60	15.474
280.97	12.015
281.34	12.566
281.71	13.636
282.08	15.547
282.45	13.636
282.82	12.966
283.19	11.408
283.56	13.333
283.92	14.890
284.29	11.464
284.66	12.160
285.03	11.573
285.40	11.620
285.77	10.943
286.14	11.917
286.51	12.333
286.87	11.624
287.24	12.704
287.61	11.878
287.98	12.013
288.35	11.094
288.72	11.059
289.08	13.615
289.45	12.191
289.82	12.033
290.19	9.890
290.56	11.179
290.93	10.121
291.29	10.429
291.66	11.504
292.03	13.517
292.40	11.747
292.77	10.503
293.13	10.000
293.50	10.350
293.87	10.815
294.24	9.778
294.60	8.734
294.97	10.756
295.34	8.886
295.71	9.375
296.08	7.835
296.44	9.629
296.81	9.643
297.18	11.789
297.55	8.311
297.91	9.763
298.28	10.576
298.65	9.922
299.02	11.331
299.38	10.890
299.75	7.143
300.12	8.301
300.48	6.875
300.85	10.481
301.22	7.898
301.59	8.333
301.95	8.816
302.32	9.499
302.69	8.841
303.05	8.848
303.42	8.025
303.79	8.267
304.15	8.042
304.52	6.952
304.89	8.130
305.25	8.353
305.62	8.834
305.99	8.737
306.35	8.613
306.72	7.287
307.09	9.101
307.45	8.671
307.82	7.924
308.19	8.720
308.55	8.414
308.92	8.593
309.29	8.025
309.65	7.211
310.02	8.351
310.38	7.527
310.75	7.497
311.12	7.984
311.48	7.210
311.85	8.176
312.22	7.492
312.58	6.757
312.95	8.342
313.31	7.476
313.68	8.108
314.05	8.580
314.41	7.839
314.78	7.351
315.14	7.150
315.51	7.621
315.87	7.525
316.24	7.646
316.61	7.895
316.97	6.751
317.34	6.556
317.70	8.126
318.07	7.507
318.43	7.339
318.80	7.779
319.16	7.250
319.53	7.786
319.89	8.381
320.26	7.800
320.62	8.333
320.99	8.990
321.35	7.172
321.72	8.624
322.08	8.588
322.45	9.254
322.81	8.527
323.18	8.285
323.54	9.091
323.91	8.868
324.27	7.935
324.64	8.108
325.00	8.296
325.37	8.644
325.73	9.425
326.10	9.179
326.46	8.692
326.83	9.664
327.19	8.881
327.56	8.972
327.92	8.311
328.29	9.494
328.65	9.669
329.01	9.025
329.38	9.528
329.74	8.126
330.11	8.106
330.47	9.275
330.84	10.202
331.20	8.379
331.56	8.165
331.93	8.981
332.29	9.228
332.66	10.000
333.02	9.415
333.38	9.846
333.75	9.002
334.11	8.986
334.48	8.696
334.84	9.191
335.20	9.545
335.57	8.160
335.93	8.214
336.29	8.333
336.66	9.378
337.02	7.692
337.38	9.259
337.75	8.289
338.11	9.221
338.47	8.195
338.84	8.158
339.20	6.972
339.56	9.580
339.93	8.455
340.29	8.243
340.65	8.200
341.02	9.162
341.38	8.274
341.74	7.807
342.11	8.384
342.47	8.722
342.83	8.476
343.20	9.264
343.56	8.509
343.92	7.632
344.28	9.524
344.65	9.458
345.01	7.912
345.37	7.290
345.73	8.460
346.10	7.673
346.46	8.644
346.82	8.731
347.19	8.354
347.55	8.292
347.91	8.091
348.27	9.121
348.63	8.194
349.00	8.091
349.36	8.292
349.72	8.500
350.08	8.833
350.45	7.974
350.81	9.261
351.17	7.942
351.53	7.043
351.89	7.673
352.26	8.051
352.62	7.618
352.98	7.780
353.34	8.217
353.70	8.101
354.07	8.548
354.43	8.175
354.79	7.643
355.15	7.662
355.51	7.594
355.87	8.082
356.24	8.306
356.60	7.698
356.96	7.884
357.32	8.177
357.68	8.583
358.04	7.126
358.40	8.868
358.77	8.216
359.13	7.577
359.49	7.843
359.85	6.984
360.21	7.656
360.57	7.860
360.93	6.846
361.29	8.088
361.66	7.430
362.02	8.582
362.38	7.833
362.74	7.589
363.10	7.772
363.46	7.630
363.82	7.256
364.18	7.783
364.54	8.172
364.90	8.286
365.26	7.059
365.62	7.597
365.98	6.866
366.35	7.235
366.71	8.171
367.07	7.866
367.43	7.112
367.79	8.637
368.15	9.267
368.51	7.267
368.87	8.494
369.23	6.876
369.59	7.314
369.95	6.985
370.31	7.407
370.67	7.681
371.03	7.416
371.39	7.872
371.75	7.941
372.11	7.752
372.47	7.625
372.83	7.637
373.19	7.298
373.55	7.834
373.91	7.437
374.27	7.354
374.63	7.127
374.99	7.768
375.35	7.606
375.71	7.334
376.07	7.819
376.42	7.565
376.78	7.687
377.14	7.802
377.50	8.079
377.86	7.181
378.22	7.016
378.58	6.704
378.94	7.605
379.30	7.379
379.66	7.487
380.02	7.740
380.38	6.800
380.74	7.323
381.09	8.130
381.45	7.560
381.81	7.432
382.17	7.962
382.53	7.296
382.89	8.086
383.25	6.879
383.61	7.063
383.97	7.692
384.32	7.735
384.68	7.311
385.04	8.236
385.40	7.183
385.76	8.170
386.12	7.837
386.48	7.615
386.83	7.633
387.19	8.349
387.55	8.720
387.91	7.920
388.27	7.296
388.62	7.867
388.98	7.248
389.34	8.198
389.70	7.971
390.06	8.238
390.42	7.977
390.77	8.079
391.13	7.020
391.49	8.122
391.85	6.938
392.20	6.814
392.56	7.513
392.92	7.240
393.28	6.923
393.64	7.794
393.99	8.002
394.35	7.816
394.71	7.967
395.07	6.791
395.42	7.293
395.78	8.015
396.14	7.697
396.50	8.709
396.85	8.201
397.21	6.720
397.57	7.502
397.92	8.053
398.28	7.175
398.64	8.124
399.00	8.170
399.35	7.107
399.71	7.928
400.07	8.457
400.42	8.344
400.78	7.780
401.14	7.500
401.49	7.403
401.85	7.623
402.21	7.305
402.57	7.094
402.92	7.440
403.28	8.182
403.63	7.364
403.99	7.452
404.35	7.394
404.70	7.974
405.06	7.455
405.42	7.548
405.77	7.657
406.13	7.223
406.49	7.806
406.84	7.915
407.20	7.447
407.55	7.594
407.91	7.933
408.27	6.509
408.62	7.827
408.98	7.659
409.34	8.180
409.69	8.387
410.05	7.869
410.40	7.034
410.76	8.124
411.11	8.384
411.47	8.626
411.83	7.514
412.18	8.101
412.54	8.468
412.89	8.133
413.25	7.792
413.60	7.597
413.96	8.379
414.31	8.080
414.67	7.288
415.03	7.748
415.38	8.376
415.74	8.167
416.09	9.014
416.45	8.701
416.80	7.667
417.16	8.378
417.51	9.025
417.87	8.092
418.22	8.076
418.58	8.199
418.93	8.170
419.29	7.511
419.64	8.060
420.00	8.415
420.35	8.058
420.71	8.727
421.06	7.995
421.42	7.719
421.77	8.464
422.12	7.468
422.48	7.070
422.83	8.212
423.19	8.453
423.54	7.487
423.90	8.290
424.25	8.766
424.61	8.036
424.96	7.580
425.31	7.752
425.67	7.079
426.02	8.229
426.38	8.364
426.73	8.016
427.09	7.964
427.44	7.418
427.79	7.418
428.15	8.036
428.50	8.250
428.85	8.164
429.21	7.178
429.56	7.776
429.92	7.801
430.27	7.448
430.62	7.322
430.98	8.044
431.33	7.784
431.68	8.115
432.04	7.881
432.39	8.224
432.74	8.318
433.10	8.319
433.45	8.105
433.80	7.483
434.16	8.066
434.51	8.263
434.86	8.438
435.22	7.727
435.57	8.571
435.92	7.782
436.28	8.185
436.63	8.609
436.98	7.728
437.34	8.468
437.69	8.168
438.04	7.757
438.39	7.940
438.75	9.064
439.10	8.324
439.45	8.796
439.81	8.278
440.16	7.962
440.51	8.260
440.86	8.628
441.22	8.009
441.57	8.121
441.92	8.086
442.27	8.288
442.63	7.741
442.98	8.563
443.33	8.587
443.68	8.312
444.03	8.150
444.39	7.303
444.74	8.063
445.09	8.679
445.44	7.928
445.79	8.115
446.15	7.994
446.50	7.916
446.85	7.760
447.20	8.006
447.55	8.319
447.91	7.998
448.26	8.013
448.61	8.479
448.96	8.306
449.31	8.605
449.66	8.272
450.02	8.524
450.37	7.596
450.72	8.009
451.07	7.739
451.42	7.781
451.77	8.808
452.12	8.834
452.47	8.333
452.83	8.392
453.18	8.496
453.53	8.472
453.88	7.797
454.23	8.189
454.58	8.722
454.93	9.027
455.28	8.105
455.63	7.767
455.98	9.643
456.34	8.543
456.69	9.205
457.04	8.359
457.39	8.007
457.74	7.545
458.09	8.683
458.44	8.438
458.79	7.701
459.14	8.578
459.49	7.764
459.84	7.701
460.19	8.368
460.54	7.812
460.89	8.173
461.24	8.197
461.59	9.704
461.94	8.015
462.29	8.783
462.64	9.190
462.99	8.068
463.34	8.533
463.69	9.006
464.04	8.464
464.39	8.986
464.74	8.318
465.09	7.841
465.44	8.476
465.79	7.438
466.14	8.703
466.49	7.842
466.84	8.815
467.19	8.268
467.54	9.875
467.89	9.004
468.24	8.842
468.59	8.974
468.94	8.430
469.29	8.033
469.64	9.036
469.99	9.066
470.34	8.256
470.68	9.339
471.03	8.163
471.38	9.729
471.73	8.861
472.08	8.947
472.43	8.417
472.78	8.097
473.13	8.408
473.48	7.615
473.83	8.476
474.17	8.650
474.52	8.561
474.87	8.990
475.22	8.183
475.57	8.060
475.92	8.178
476.27	8.061
476.61	9.653
476.96	8.026
477.31	8.111
477.66	8.589
478.01	8.102
478.36	8.250
478.70	8.255
479.05	7.881
479.40	8.035
479.75	7.524
480.10	8.052
480.45	7.806
480.79	8.027
481.14	7.975
481.49	7.784
481.84	7.682
482.19	7.724
482.53	7.752
482.88	7.585
483.23	7.804
483.58	8.007
483.92	7.873
484.27	7.015
484.62	7.759
484.97	7.056
485.31	7.740
485.66	6.932
486.01	6.116
486.36	5.930
486.70	5.911
487.05	6.225
487.40	6.716
487.75	6.654
488.09	6.824
488.44	6.871
488.79	7.378
489.13	7.601
489.48	7.341
489.83	6.992
490.17	7.935
490.52	8.193
490.87	7.237
491.22	8.231
491.56	6.970
491.91	7.492
492.26	7.671
492.60	8.387
492.95	7.063
493.30	7.477
493.64	6.813
493.99	7.521
494.34	7.771
494.68	7.830
495.03	7.472
495.37	7.585
495.72	7.846
496.07	8.074
496.41	7.168
496.76	7.432
497.11	7.564
497.45	8.011
497.80	7.486
498.14	7.585
498.49	8.341
498.84	8.054
499.18	7.667
499.53	7.645
499.87	7.968
500.22	8.102
500.56	8.350
500.91	7.981
501.26	7.634
501.60	8.163
501.95	7.562
502.29	8.294
502.64	7.775
502.98	7.387
503.33	7.633
503.67	7.657
504.02	7.671
504.36	8.283
504.71	7.621
505.06	8.530
505.40	8.119
505.75	7.666
506.09	7.775
506.44	7.696
506.78	7.550
507.13	7.673
507.47	7.525
507.82	7.801
508.16	8.460
508.51	8.524
508.85	7.795
509.19	7.857
509.54	7.959
509.88	7.934
510.23	8.380
510.57	8.256
510.92	8.545
511.26	8.016
511.61	8.299
511.95	7.620
512.30	8.271
512.64	8.436
512.98	8.039
513.33	9.154
513.67	8.645
514.02	7.738
514.36	8.247
514.70	8.246
515.05	8.199
515.39	8.861
515.74	8.221
516.08	8.888
516.42	9.156
516.77	9.197
517.11	7.936
517.46	9.029
517.80	8.943
518.14	7.991
518.49	8.635
518.83	8.182
519.17	9.180
519.52	8.602
519.86	9.184
520.20	9.191
520.55	9.455
520.89	8.637
521.23	8.866
521.58	8.884
521.92	8.818
522.26	8.237
522.61	8.785
522.95	8.963
523.29	9.130
523.64	9.085
523.98	8.872
524.32	10.193
524.66	9.321
525.01	9.498
525.35	9.294
525.69	9.175
526.04	9.159
526.38	9.335
526.72	9.387
527.06	9.102
527.41	8.416
527.75	8.875
528.09	9.313
528.43	9.114
528.78	9.834
529.12	9.333
529.46	9.553
529.80	9.097
530.15	9.657
530.49	8.985
530.83	9.684
531.17	10.052
531.51	10.376
531.86	9.419
532.20	9.909
532.54	9.353
532.88	9.756
533.22	8.620
533.57	9.691
533.91	8.850
534.25	9.174
534.59	9.579
534.93	9.280
535.27	9.234
535.62	9.524
535.96	9.353
536.30	8.773
536.64	9.659
536.98	9.688
537.32	9.217
537.66	9.200
538.01	9.941
538.35	9.890
538.69	9.572
539.03	9.747
539.37	9.137
539.71	8.620
540.05	9.542
540.39	9.834
540.73	9.379
541.07	10.253
541.42	9.524
541.76	10.129
542.10	10.414
542.44	9.801
542.78	10.211
543.12	9.277
543.46	10.098
543.80	10.020
544.14	8.986
544.48	10.095
544.82	9.686
545.16	10.150
545.50	9.833
545.84	9.879
546.18	10.976
546.52	11.287
546.86	9.553
547.20	9.980
547.54	10.421
547.88	9.630
548.22	10.149
548.56	9.497
548.90	9.219
549.24	9.495
549.58	10.505
549.92	10.371
550.26	10.724
550.60	9.959
550.94	9.296
551.28	9.144
551.62	11.431
551.96	9.404
552.30	11.195
552.64	10.480
552.98	10.237
553.32	9.980
553.66	10.702
554.00	10.089
554.34	10.145
554.68	10.587
555.02	9.944
555.36	9.673
555.69	10.217
556.03	10.296
556.37	9.550
556.71	9.891
557.05	10.574
557.39	9.517
557.73	11.362
558.07	10.732
558.41	9.841
558.75	10.360
559.08	10.738
559.42	9.902
559.76	11.103
560.10	10.493
560.44	10.273
560.78	10.446
561.12	10.026
561.45	11.082
561.79	9.954
562.13	10.597
562.47	10.792
562.81	9.972
563.15	10.033
563.48	10.146
563.82	9.785
564.16	10.399
564.50	9.115
564.84	9.987
565.17	10.360
565.51	10.032
565.85	9.645
566.19	9.894
566.52	10.070
566.86	9.222
567.20	9.788
567.54	9.132
567.88	9.451
568.21	9.471
568.55	9.050
568.89	8.706
569.23	8.601
569.56	8.947
569.90	8.302
570.24	8.109
570.57	8.092
570.91	7.498
571.25	7.690
571.59	7.865
571.92	7.488
572.26	7.683
572.60	7.778
572.93	7.916
573.27	7.897
573.61	7.845
573.95	8.165
574.28	7.387
574.62	7.386
574.96	7.360
575.29	7.614
575.63	7.749
575.97	7.420
576.30	7.807
576.64	7.480
576.98	7.316
577.31	7.324
577.65	7.318
577.98	6.956
578.32	7.248
578.66	7.505
578.99	7.715
579.33	7.480
579.67	7.054
580.00	7.696
580.34	7.570
580.67	7.351
581.01	7.915
581.35	7.261
581.68	7.067
582.02	6.944
582.35	7.107
582.69	7.239
583.02	7.345
583.36	7.309
583.70	7.767
584.03	7.576
584.37	8.248
584.70	7.550
585.04	7.632
585.37	7.246
585.71	7.613
586.04	7.296
586.38	7.471
586.72	7.954
587.05	7.525
587.39	7.335
587.72	7.498
588.06	7.577
588.39	8.258
588.73	7.744
589.06	8.071
589.40	7.778
589.73	8.131
590.07	8.327
590.40	7.965
590.73	8.587
591.07	8.466
591.40	8.815
591.74	8.571
592.07	8.988
592.41	8.929
592.74	8.127
593.08	8.161
593.41	7.941
593.75	7.745
594.08	8.481
594.41	8.413
594.75	8.059
595.08	8.017
595.42	8.266
595.75	8.084
596.09	8.261
596.42	8.684
596.75	8.653
597.09	8.918
597.42	8.769
597.75	8.797
598.09	8.261
598.42	8.720
598.76	7.823
599.09	7.792
599.42	8.624
599.76	8.382
600.09	7.832
600.42	7.816
600.76	8.143
601.09	8.670
601.42	7.953
601.76	8.615
602.09	8.063
602.42	8.400
602.76	9.109
603.09	8.419
603.42	8.825
603.76	8.155
604.09	8.220
604.42	8.602
604.76	8.984
605.09	8.519
605.42	8.593
605.75	8.568
606.09	8.215
606.42	8.092
606.75	8.337
607.09	8.707
607.42	8.045
607.75	8.523
608.08	8.294
608.42	9.009
608.75	8.431
609.08	8.279
609.41	8.853
609.75	8.385
610.08	9.519
610.41	8.194
610.74	7.900
611.07	8.597
611.41	8.734
611.74	9.854
612.07	9.161
612.40	8.395
612.73	8.421
613.07	9.429
613.40	9.163
613.73	8.285
614.06	9.086
614.39	8.495
614.72	9.263
615.06	9.191
615.39	8.811
615.72	9.100
616.05	8.985
616.38	9.061
616.71	9.561
617.05	9.128
617.38	9.020
617.71	8.949
618.04	9.796
618.37	9.344
618.70	9.210
619.03	9.737
619.36	9.980
619.69	9.577
620.03	9.684
620.36	10.294
620.69	10.616
621.02	10.619
621.35	9.240
621.68	9.969
622.01	10.217
622.34	10.666
622.67	11.103
623.00	9.391
623.33	9.793
623.66	9.507
623.99	9.647
624.32	10.271
624.65	9.958
624.99	8.782
625.32	9.920
625.65	9.842
625.98	9.377
626.31	11.586
626.64	10.122
626.97	11.139
627.30	10.224
627.63	10.993
627.96	10.345
628.29	9.711
628.62	12.260
628.95	11.887
629.28	11.679
629.61	12.007
629.94	10.952
630.26	11.058
630.59	10.486
630.92	10.728
631.25	10.563
631.58	12.112
631.91	10.953
632.24	10.759
632.57	11.333
632.90	12.281
633.23	11.745
633.56	11.864
633.89	11.891
634.22	11.124
634.55	13.136
634.88	11.617
635.20	12.425
635.53	12.771
635.86	12.500
636.19	13.176
636.52	11.995
636.85	12.944
637.18	11.982
637.51	11.820
637.83	9.988
638.16	12.660
638.49	11.713
638.82	13.654
639.15	13.125
639.48	12.718
639.81	12.869
640.13	13.021
640.46	13.289
640.79	14.531
641.12	13.893
641.45	13.128
641.77	14.138
642.10	13.012
642.43	12.162
642.76	13.313
643.09	14.724
643.41	12.747
643.74	14.198
644.07	13.567
644.40	14.264
644.73	14.331
645.05	15.689
645.38	15.482
645.71	14.332
646.04	13.455
646.36	16.027
646.69	15.050
647.02	14.286
647.35	14.605
647.67	15.044
648.00	14.959
648.33	14.521
648.66	13.485
648.98	14.693
649.31	11.958
649.64	13.004
649.96	14.605
650.29	15.166
650.62	11.650
650.94	13.290
651.27	15.541
651.60	13.644
651.92	14.537
652.25	13.355
652.58	13.707
652.90	14.060
653.23	13.867
653.56	13.386
653.88	15.055
654.21	14.534
654.54	14.356
654.86	14.486
655.19	12.838
655.52	7.711
655.84	5.274
656.17	6.521
656.49	8.961
656.82	9.421
657.15	7.344
657.47	5.601
657.80	4.402
658.13	4.969
658.45	7.637
658.78	7.687
659.10	8.351
659.43	8.850
659.75	10.094
660.08	10.570
660.41	12.104
660.73	14.994
661.06	13.694
661.38	15.818
661.71	17.885
662.03	13.215
662.36	14.712
662.68	14.859
663.01	15.758
663.33	13.376
663.66	18.487
663.98	16.847
664.31	13.235
664.63	16.397
664.96	13.078
665.28	15.574
665.61	13.255
665.93	15.292
666.26	14.604
666.58	15.481
666.91	16.068
667.23	18.427
667.56	14.471
667.88	19.231
668.21	16.844
668.53	16.052
668.86	14.935
669.18	16.844
669.50	17.391
669.83	18.736
670.15	18.889
670.48	16.558
670.80	18.966
671.13	16.561
671.45	15.319
671.77	16.904
672.10	15.157
672.42	13.428
672.75	14.262
673.07	15.493
673.39	12.116
673.72	14.258
674.04	16.667
674.37	16.893
674.69	13.292
675.01	15.481
675.34	17.248
675.66	17.263
675.98	16.904
676.31	17.437
676.63	15.924
676.95	16.352
677.28	14.486
677.60	15.165
677.92	17.511
678.25	13.758
678.57	17.928
678.89	14.228
679.22	14.735
679.54	16.031
679.86	15.963
680.18	12.165
680.51	14.894
680.83	14.235
681.15	16.604
681.48	16.068
681.80	15.087
682.12	16.667
682.44	13.540
682.77	16.701
683.09	17.597
683.41	18.847
683.73	18.102
684.06	17.355
684.38	16.830
684.70	15.504
685.02	16.510
685.34	15.018
685.67	11.713
685.99	12.027
686.31	14.334
686.63	13.781
686.96	12.143
687.28	14.260
687.60	14.855
687.92	16.453
688.24	14.449
688.56	17.269
688.89	17.842
689.21	16.376
689.53	17.328
689.85	15.965
690.17	13.665
690.49	20.382
690.82	17.757
691.14	14.286
691.46	17.089
691.78	16.064
692.10	15.496
692.42	17.365
692.74	14.523
693.06	16.383
693.39	16.838
693.71	16.376
694.03	15.368
694.35	14.502
694.67	14.645
694.99	19.756
695.31	16.422
695.63	18.421
695.95	17.115
696.27	16.751
696.59	19.171
696.91	18.394
697.23	17.371
697.56	15.778
697.88	15.542
698.20	15.625
698.52	18.495
698.84	17.149
699.16	15.207
699.48	19.477
699.80	18.599
700.12	21.818
700.44	18.833
700.76	18.508
701.08	18.966
701.40	16.760
701.72	20.991
702.04	22.727
702.36	17.280
702.68	18.414
703.00	18.837
703.32	16.223
703.64	19.303
703.96	16.156
704.28	20.640
704.60	17.009
704.91	20.178
705.23	18.768
705.55	21.262
705.87	22.924
706.19	20.848
706.51	21.495
706.83	23.333
707.15	20.168
707.47	15.909
707.79	18.673
708.11	19.406
708.43	16.905
708.74	17.602
709.06	20.519
709.38	18.898
709.70	18.895
710.02	19.881
710.34	18.788
710.66	22.388
710.98	20.170
711.29	20.058
711.61	21.534
711.93	18.910
712.25	23.794
712.57	20.588
712.89	23.529
713.20	22.796
713.52	22.697
713.84	20.570
714.16	15.854
714.48	20.115
714.80	23.404
715.11	19.597
715.43	19.288
715.75	20.000
716.07	22.364
716.39	18.495
716.70	24.585
717.02	19.065
717.34	24.382
717.66	23.507
717.97	25.896
718.29	22.222
718.61	21.168
718.93	23.897
719.24	23.529
719.56	19.322
719.88	22.373
720.20	27.703
720.51	23.345
720.83	22.677
721.15	17.910
721.46	22.340
721.78	26.165
722.10	21.132
722.42	21.053
722.73	27.715
723.05	21.311
723.37	25.101
723.68	23.552
724.00	24.390
724.32	26.210
724.63	28.455
724.95	25.105
725.27	25.506
725.58	23.438
725.90	26.277
726.22	23.396
726.53	19.097
726.85	24.232
727.16	26.335
727.48	22.695
727.80	20.455
728.11	22.826
728.43	21.538
728.74	24.373
729.06	24.453
729.38	27.206
729.69	24.555
730.01	20.819
730.32	20.486
730.64	21.405
730.96	18.152
731.27	20.530
731.59	22.324
731.90	20.991
732.22	19.876
732.53	16.409
732.85	18.269
733.16	20.579
733.48	20.598
733.80	20.455
734.11	22.293
734.43	24.556
734.74	16.857
735.06	18.625
735.37	24.277
735.69	19.427
736.00	24.510
736.32	21.807
736.63	20.128
736.95	20.767
737.26	15.646
737.58	17.742
737.89	19.398
738.21	22.184
738.52	21.071
738.83	23.774
739.15	21.923
739.46	26.642
739.78	21.181
740.09	20.923
740.41	21.935
740.72	20.906
741.04	18.889
741.35	27.083
741.66	29.778
741.98	23.585
742.29	28.230
742.61	30.172
742.92	25.792
743.23	27.778
743.55	28.800
743.86	24.561
744.18	30.973
744.49	26.794
744.80	32.394
745.12	32.273
745.43	25.991
745.74	28.829
746.06	26.606
746.37	29.148
746.68	28.054
747.00	30.556
747.31	28.095
747.62	23.009
747.94	26.872
748.25	22.128
748.56	33.040
748.88	21.287
749.19	34.000
749.50	26.047
749.82	23.577
750.13	24.490
750.44	24.818
750.75	20.000
751.07	25.402
751.38	26.829
751.69	22.383
752.01	23.308
752.32	23.466
752.63	25.177
752.94	19.262
753.26	26.400
753.57	22.358
753.88	26.953
754.19	20.714
754.51	25.347
754.82	20.578
755.13	23.019
755.44	24.436
755.75	21.168
756.07	21.986
756.38	18.978
756.69	18.792
757.00	21.856
757.31	20.178
757.63	15.497
757.94	16.622
758.25	17.647
758.56	17.284
758.87	17.473
759.18	23.636
759.50	19.436
759.81	19.626
760.12	16.562
760.43	18.911
760.74	18.207
761.05	19.209
761.36	16.310
761.67	18.750
761.99	17.391
762.30	22.569
762.61	25.954
762.92	26.562
763.23	24.790
763.54	26.400
763.85	21.094
764.16	26.538
764.47	29.278
764.78	22.968
765.10	16.456
765.41	18.879
765.72	21.257
766.03	17.555
766.34	19.333
766.65	23.404
766.96	27.778
767.27	27.919
767.58	25.000
767.89	36.842
768.20	33.333
768.51	27.919
768.82	26.147
769.13	26.016
769.44	22.267
769.75	24.464
770.06	20.642
770.37	27.602
770.68	29.167
770.99	20.444
771.30	22.131
771.61	27.354
771.92	26.230
772.23	30.252
772.54	29.231
772.85	33.508
773.16	27.660
773.47	35.870
773.78	32.995
774.09	33.333
774.39	34.503
774.70	37.037
775.01	42.029
775.32	37.908
775.63	38.816
775.94	33.813
776.25	38.583
776.56	36.567
776.87	48.361
777.18	37.500
777.48	45.802
777.79	43.182
778.10	37.778
778.41	40.179
778.72	32.847
779.03	38.255
779.34	38.255
779.65	31.081
779.95	36.196
780.26	37.908
780.57	40.000
780.88	52.344
781.19	42.105
781.50	43.243
781.80	34.591
782.11	31.638
782.42	33.544
782.73	37.423
783.04	40.541
783.34	35.915
783.65	41.781
783.96	38.806
784.27	35.664
784.57	33.094
784.88	37.963
785.19	50.794
785.50	46.226
785.81	42.537
786.11	42.623
786.42	44.186
786.73	50.442
787.04	42.453
787.34	49.107
787.65	51.000
787.96	45.946
788.26	38.017
788.57	47.458
788.88	45.455
789.19	42.361
789.49	41.667
789.80	35.115
790.11	52.381
790.41	47.525
790.72	56.627
791.03	55.435
791.33	45.349
791.64	48.454
791.95	49.505
792.25	70.000
792.56	63.636
792.87	62.821
793.17	67.089
793.48	67.816
793.79	58.621
794.09	48.864
794.40	43.697
794.70	45.588
795.01	42.963
795.32	39.568
795.62	43.307
795.93	55.172
796.23	39.823
796.54	56.471
796.85	60.811
797.15	71.831
797.46	63.636
797.76	69.880
798.07	50.633
798.37	53.846
798.68	57.576
798.99	54.930
799.29	75.325
799.60	52.273
799.90	78.082
800.21	80.597
800.51	51.724
800.82	85.965
801.12	70.492
801.43	93.939
801.73	62.162
802.04	90.476
802.34	70.370
802.65	73.438
802.95	105.085
803.26	81.250
803.56	57.143
803.87	61.538
804.17	72.059
804.48	92.593
804.78	65.517
805.09	69.118
805.39	75.000
805.70	66.071
806.00	83.607
806.30	57.576
806.61	80.488
806.91	53.165
807.22	61.842
807.52	55.224
807.83	70.423
808.13	76.563
808.43	85.000
808.74	61.842
809.04	66.667
809.35	67.164
809.65	76.316
809.95	87.097
810.26	98.305
810.56	76.190
810.86	134.091
811.17	128.571
811.47	91.667
811.77	87.037
812.08	103.636
812.38	100.000
812.69	127.778
812.99	111.364
813.29	116.327
813.59	85.714
813.90	110.204
814.20	80.000
814.50	80.000
814.81	77.941
815.11	116.327
815.41	95.082
815.72	138.095
816.02	94.545
816.32	116.667
816.62	120.000
816.93	107.317
817.23	130.952
817.53	115.909
817.84	133.333
818.14	119.565
818.44	106.667
818.74	147.059
819.04	120.000
819.35	145.714
819.65	132.353
819.95	160.714
820.25	185.000
820.56	138.462
820.86	127.273
821.16	146.512
821.46	89.744
821.76	136.000
822.07	145.714
822.37	135.000
822.67	130.303
822.97	82.353
823.27	150.000
823.57	148.649
823.88	122.500
824.18	156.667
824.48	133.333
824.78	188.000
825.08	175.000
825.38	124.324
825.69	148.780
825.99	245.833
826.29	141.379
826.59	128.947
826.89	150.000
827.19	155.882
827.49	180.645
827.79	125.000
828.09	113.636
828.39	87.234
828.70	102.041
829.00	122.222
829.30	112.903
829.60	132.500
829.90	293.333
830.20	167.857
830.50	147.826
830.80	200.000
831.10	176.667
831.40	156.667
831.70	169.565
832.00	173.077
832.30	188.889
832.60	281.250
832.90	190.000
833.20	278.571
833.50	154.839
833.80	110.345
834.10	156.250
834.40	184.615
834.70	233.333
835.00	252.381
835.30	122.857
835.60	300.000
835.90	162.069
836.20	250.000
836.50	162.069
836.80	152.000
837.10	138.889
837.40	233.333
837.70	247.059
838.00	218.519
838.30	242.857
838.60	238.095
838.90	223.077
839.19	230.000
839.49	314.286
839.79	315.000
840.09	240.000
840.39	200.000
840.69	195.652
840.99	227.778
841.29	380.000
841.59	308.333
841.88	275.000
842.18	137.931
842.48	190.476
842.78	180.000
843.08	221.739
843.38	153.125
843.68	800.000
843.97	230.769
844.27	175.862
844.57	238.095
844.87	337.500
845.17	207.407
845.47	1300.000
845.76	477.778
846.06	276.471
846.36	500.000
846.66	314.286
846.96	293.750
847.25	381.818
847.55	272.727
847.85	217.391
848.15	460.000
848.44	257.143
848.74	166.667
849.04	282.353
849.34	460.000
849.63	242.105
849.93	436.364
850.23	860.000
850.53	364.286
850.82	1950.000
851.12	-3400.000
851.42	4000.000
851.71	270.000
852.01	-1033.333
852.31	229.167
852.61	1633.333
852.90	228.571
853.20	224.000
853.50	264.706
853.79	219.048
854.09	170.833
854.39	281.250
854.68	167.568
854.98	154.839
855.28	156.667
855.57	206.897
855.87	200.000
856.17	226.316
856.46	226.667
856.76	288.235
857.05	148.276
857.35	216.667
857.65	273.333
857.94	204.348
858.24	200.000
858.53	235.000
858.83	222.727
859.13	313.333
859.42	0.000
859.72	466.667
860.01	381.818
860.31	231.818
860.60	268.421
860.90	204.348
861.20	488.889
861.49	416.667
861.79	-4100.000
862.08	700.000
862.38	261.905
862.67	292.308
862.97	329.412
863.26	522.222
863.56	250.000
863.85	283.333
864.15	537.500
864.44	420.000
864.74	750.000
865.03	550.000
865.33	278.947
865.62	418.182
865.92	407.692
866.21	325.000
866.51	0.000
866.80	381.818
867.10	1180.000
867.39	330.769
867.69	390.909
867.98	263.158
868.27	400.000
868.57	273.684
868.86	-3500.000
869.16	331.250
869.45	1750.000
869.75	-3400.000
870.04	358.333
870.33	500.000
870.63	1125.000
870.92	2350.000
871.22	728.571
871.51	276.471
871.80	214.286
872.10	307.143
>>>>>End Processed Spectral Data<<<<<
