SpectraSuite Data File
++++++++++++++++++++++++++++++++++++
Date: Wed May 13 16:41:11 PDT 2015
User: schluterlab
Dark Spectrum Present: Yes
Reference Spectrum Present: Yes
Number of Sampled Component Spectra: 1
Spectrometers: USB2E3373
Integration Time (usec): 3000 (USB2E3373)
Spectra Averaged: 3 (USB2E3373)
Boxcar Smoothing: 0 (USB2E3373)
Correct for Electrical Dark: No (USB2E3373)
Strobe/Lamp Enabled: No (USB2E3373)
Correct for Detector Non-linearity: No (USB2E3373)
Correct for Stray Light: No (USB2E3373)
Number of Pixels in Processed Spectrum: 2048
>>>>>Begin Processed Spectral Data<<<<<
178.53	0.000
178.91	-1150.000
179.29	-1050.000
179.67	-233.333
180.04	-1500.000
180.42	2550.000
180.80	1240.000
181.18	-1150.000
181.56	571.429
181.94	0.000
182.31	-785.714
182.69	1600.000
183.07	-562.500
183.45	-555.556
183.83	500.000
184.20	-450.000
184.58	2200.000
184.96	5300.000
185.34	-820.000
185.72	-650.000
186.09	-2500.000
186.47	2750.000
186.85	2650.000
187.23	5000.000
187.61	-1733.333
187.98	1275.000
188.36	563.636
188.74	545.455
189.12	-880.000
189.49	630.000
189.87	-4900.000
190.25	-1175.000
190.63	421.429
191.00	469.231
191.38	950.000
191.76	-1225.000
192.14	1675.000
192.51	600.000
192.89	900.000
193.27	625.000
193.65	-1000.000
194.02	640.000
194.40	800.000
194.78	530.000
195.15	575.000
195.53	690.000
195.91	-2100.000
196.29	350.000
196.66	352.632
197.04	-320.000
197.42	0.000
197.79	730.000
198.17	-4500.000
198.55	742.857
198.92	862.500
199.30	1080.000
199.68	0.000
200.05	300.000
200.43	728.571
200.81	4200.000
201.18	1633.333
201.56	-1933.333
201.94	555.556
202.31	633.333
202.69	450.000
203.07	580.000
203.44	0.000
203.82	1200.000
204.19	785.714
204.57	407.143
204.95	687.500
205.32	1600.000
205.70	554.545
206.08	400.000
206.45	2800.000
206.83	368.750
207.20	966.667
207.58	660.000
207.96	350.000
208.33	712.500
208.71	-800.000
209.08	771.429
209.46	633.333
209.84	500.000
210.21	-1500.000
210.59	1200.000
210.96	-412.500
211.34	2750.000
211.71	580.000
212.09	833.333
212.46	0.000
212.84	1766.667
213.22	1300.000
213.59	-4200.000
213.97	700.000
214.34	771.429
214.72	600.000
215.09	920.000
215.47	-2450.000
215.84	-2300.000
216.22	1633.333
216.59	378.571
216.97	1250.000
217.34	500.000
217.72	-783.333
218.09	0.000
218.47	-4400.000
218.84	644.444
219.22	785.714
219.59	1500.000
219.97	-628.571
220.34	1100.000
220.72	-1633.333
221.09	442.857
221.47	1450.000
221.84	-850.000
222.22	0.000
222.59	1550.000
222.97	-2500.000
223.34	940.000
223.72	500.000
224.09	1140.000
224.46	1850.000
224.84	-5000.000
225.21	-940.000
225.59	-4300.000
225.96	550.000
226.34	320.000
226.71	2600.000
227.08	650.000
227.46	510.000
227.83	-1025.000
228.21	-2550.000
228.58	600.000
228.95	-2550.000
229.33	-2100.000
229.70	1666.667
230.08	771.429
230.45	-860.000
230.82	416.667
231.20	766.667
231.57	771.429
231.95	525.000
232.32	259.091
232.69	445.455
233.07	628.571
233.44	430.769
233.81	-1333.333
234.19	294.737
234.56	450.000
234.93	408.333
235.31	545.455
235.68	361.538
236.05	407.143
236.43	187.879
236.80	336.842
237.17	5600.000
237.55	295.238
237.92	239.286
238.29	285.714
238.67	212.903
239.04	248.276
239.41	180.556
239.79	141.304
240.16	178.571
240.53	172.727
240.91	137.255
241.28	120.000
241.65	136.000
242.02	124.638
242.40	138.710
242.77	126.667
243.14	90.323
243.51	111.236
243.89	103.529
244.26	92.222
244.63	96.774
245.00	100.000
245.38	88.119
245.75	102.804
246.12	88.991
246.49	93.431
246.87	86.400
247.24	90.000
247.61	82.143
247.98	69.281
248.36	71.622
248.73	75.159
249.10	77.707
249.47	72.316
249.84	73.262
250.22	70.053
250.59	69.822
250.96	72.222
251.33	69.194
251.70	69.307
252.08	63.810
252.45	67.713
252.82	64.783
253.19	64.255
253.56	60.784
253.94	70.954
254.31	66.016
254.68	61.154
255.05	59.410
255.42	65.041
255.79	63.971
256.16	59.567
256.54	59.011
256.91	61.922
257.28	60.791
257.65	60.066
258.02	60.248
258.39	56.467
258.76	63.211
259.14	58.036
259.51	55.623
259.88	57.143
260.25	61.934
260.62	55.491
260.99	56.211
261.36	58.859
261.73	56.447
262.10	58.430
262.47	58.592
262.85	54.318
263.22	55.271
263.59	59.544
263.96	56.044
264.33	55.875
264.70	55.789
265.07	54.987
265.44	53.788
265.81	51.338
266.18	56.281
266.55	54.146
266.92	57.248
267.29	54.630
267.66	51.606
268.03	52.955
268.40	52.570
268.77	50.835
269.14	55.180
269.51	53.950
269.88	55.711
270.25	52.596
270.62	51.461
270.99	53.333
271.36	54.721
271.73	57.944
272.10	51.739
272.47	53.548
272.84	52.381
273.21	49.895
273.58	51.965
273.95	49.476
274.32	51.446
274.69	52.248
275.06	50.197
275.43	54.894
275.80	51.904
276.17	51.120
276.54	55.094
276.91	49.012
277.28	49.023
277.65	48.162
278.02	51.139
278.39	50.781
278.76	47.273
279.13	50.000
279.50	48.231
279.87	48.805
280.23	51.697
280.60	49.710
280.97	48.429
281.34	50.796
281.71	48.909
282.08	48.752
282.45	47.455
282.82	48.668
283.19	45.989
283.56	48.246
283.92	50.761
284.29	49.383
284.66	47.913
285.03	46.655
285.40	47.007
285.77	46.128
286.14	47.323
286.51	49.000
286.87	47.692
287.24	46.417
287.61	45.425
287.98	45.130
288.35	44.057
288.72	43.458
289.08	44.601
289.45	44.975
289.82	44.715
290.19	42.229
290.56	43.032
290.93	40.937
291.29	42.791
291.66	43.215
292.03	42.442
292.40	40.822
292.77	40.680
293.13	39.552
293.50	42.274
293.87	41.037
294.24	37.926
294.60	37.846
294.97	38.953
295.34	39.069
295.71	37.074
296.08	37.464
296.44	40.028
296.81	37.517
297.18	37.263
297.55	36.280
297.91	36.544
298.28	38.286
298.65	37.728
299.02	38.867
299.38	34.794
299.75	36.388
300.12	36.526
300.48	36.000
300.85	35.142
301.22	35.796
301.59	32.828
301.95	35.264
302.32	34.917
302.69	35.125
303.05	33.576
303.42	35.185
303.79	35.108
304.15	34.149
304.52	33.024
304.89	32.520
305.25	34.571
305.62	33.975
305.99	33.648
306.35	33.333
306.72	34.081
307.09	34.073
307.45	35.360
307.82	31.808
308.19	33.002
308.55	34.736
308.92	31.579
309.29	32.418
309.65	33.616
310.02	32.347
310.38	32.366
310.75	32.101
311.12	32.651
311.48	32.288
311.85	33.438
312.22	31.426
312.58	31.809
312.95	33.052
313.31	30.291
313.68	32.121
314.05	32.939
314.41	32.965
314.78	31.521
315.14	31.579
315.51	33.162
315.87	32.376
316.24	30.983
316.61	31.384
316.97	31.996
317.34	31.311
317.70	32.600
318.07	31.858
318.43	32.387
318.80	32.334
319.16	31.262
319.53	30.769
319.89	33.143
320.26	31.500
320.62	32.540
320.99	32.424
321.35	33.838
321.72	33.060
322.08	33.268
322.45	33.930
322.81	31.880
323.18	33.911
323.54	31.447
323.91	31.698
324.27	31.071
324.64	31.128
325.00	31.380
325.37	31.574
325.73	32.226
326.10	32.039
326.46	31.720
326.83	32.787
327.19	31.512
327.56	31.185
327.92	31.146
328.29	31.943
328.65	30.847
329.01	31.588
329.38	33.117
329.74	31.025
330.11	32.234
330.47	32.507
330.84	31.066
331.20	30.055
331.56	32.018
331.93	30.833
332.29	30.346
332.66	30.796
333.02	30.987
333.38	31.707
333.75	32.620
334.11	31.851
334.48	31.766
334.84	32.996
335.20	31.182
335.57	30.734
335.93	30.089
336.29	30.586
336.66	30.929
337.02	30.860
337.38	31.389
337.75	30.125
338.11	29.722
338.47	31.400
338.84	29.973
339.20	30.000
339.56	31.843
339.93	31.455
340.29	30.072
340.65	30.303
341.02	30.105
341.38	30.872
341.74	29.649
342.11	30.480
342.47	30.396
342.83	28.596
343.20	30.909
343.56	29.655
343.92	29.737
344.28	28.997
344.65	30.009
345.01	30.135
345.37	28.130
345.73	30.203
346.10	29.582
346.46	29.322
346.82	29.160
347.19	29.657
347.55	29.475
347.91	28.479
348.27	29.499
348.63	28.428
349.00	30.178
349.36	29.146
349.72	28.789
350.08	28.606
350.45	29.862
350.81	30.057
351.17	29.498
351.53	28.665
351.89	27.475
352.26	28.808
352.62	27.747
352.98	28.120
353.34	29.581
353.70	28.560
354.07	27.339
354.43	28.175
354.79	27.112
355.15	28.252
355.51	28.857
355.87	29.388
356.24	27.524
356.60	27.426
356.96	27.595
357.32	28.209
357.68	27.795
358.04	27.870
358.40	28.424
358.77	27.700
359.13	28.414
359.49	28.235
359.85	27.222
360.21	27.512
360.57	28.249
360.93	27.462
361.29	28.571
361.66	26.393
362.02	27.463
362.38	27.376
362.74	27.827
363.10	27.387
363.46	26.486
363.82	27.135
364.18	27.386
364.54	28.158
364.90	27.266
365.26	28.015
365.62	28.269
365.98	26.662
366.35	25.788
366.71	26.826
367.07	27.094
367.43	27.866
367.79	27.837
368.15	27.730
368.51	26.817
368.87	26.410
369.23	26.847
369.59	28.530
369.95	26.912
370.31	26.638
370.67	26.304
371.03	28.315
371.39	27.187
371.75	26.838
372.11	26.174
372.47	27.639
372.83	27.233
373.19	26.228
373.55	27.199
373.91	27.761
374.27	25.911
374.63	27.564
374.99	27.331
375.35	27.146
375.71	27.005
376.07	27.641
376.42	26.135
376.78	27.634
377.14	27.544
377.50	26.821
377.86	26.396
378.22	27.244
378.58	25.815
378.94	26.021
379.30	26.845
379.66	27.538
380.02	26.229
380.38	27.505
380.74	27.611
381.09	26.528
381.45	27.289
381.81	27.088
382.17	28.089
382.53	27.107
382.89	28.457
383.25	27.330
383.61	28.005
383.97	27.705
384.32	27.074
384.68	26.952
385.04	27.289
385.40	27.926
385.76	27.273
386.12	27.526
386.48	27.376
386.83	27.774
387.19	27.582
387.55	27.273
387.91	26.965
388.27	27.590
388.62	27.843
388.98	27.396
389.34	27.785
389.70	28.265
390.06	28.834
390.42	27.497
390.77	28.053
391.13	27.569
391.49	28.109
391.85	28.071
392.20	26.814
392.56	28.093
392.92	27.899
393.28	27.278
393.64	27.818
393.99	27.734
394.35	27.295
394.71	27.792
395.07	27.290
395.42	27.565
395.78	27.545
396.14	28.057
396.50	28.446
396.85	28.735
397.21	26.880
397.57	27.774
397.92	27.885
398.28	27.578
398.64	28.435
399.00	26.581
399.35	27.242
399.71	27.951
400.07	28.267
400.42	28.098
400.78	27.986
401.14	27.622
401.49	27.940
401.85	28.433
402.21	27.425
402.57	27.452
402.92	27.743
403.28	28.232
403.63	28.465
403.99	27.452
404.35	27.212
404.70	27.518
405.06	27.082
405.42	27.074
405.77	27.143
406.13	27.088
406.49	28.031
406.84	27.112
407.20	27.187
407.55	27.505
407.91	28.067
408.27	27.824
408.62	27.032
408.98	27.941
409.34	27.060
409.69	27.290
410.05	26.704
410.40	27.890
410.76	27.240
411.11	26.659
411.47	27.220
411.83	28.039
412.18	26.407
412.54	27.273
412.89	26.325
413.25	27.037
413.60	27.177
413.96	26.958
414.31	26.914
414.67	26.933
415.03	27.417
415.38	27.706
415.74	27.203
416.09	28.347
416.45	27.041
416.80	27.693
417.16	27.949
417.51	28.135
417.87	26.140
418.22	26.498
418.58	26.856
418.93	27.150
419.29	26.798
419.64	28.401
420.00	26.646
420.35	26.957
420.71	27.675
421.06	26.014
421.42	27.076
421.77	27.578
422.12	26.053
422.48	26.606
422.83	27.315
423.19	27.293
423.54	26.582
423.90	27.362
424.25	27.024
424.61	26.905
424.96	27.289
425.31	26.301
425.67	25.787
426.02	25.829
426.38	27.289
426.73	26.624
427.09	26.140
427.44	26.107
427.79	26.509
428.15	26.786
428.50	26.390
428.85	27.354
429.21	26.560
429.56	26.490
429.92	25.617
430.27	25.968
430.62	25.858
430.98	25.895
431.33	26.237
431.68	26.649
432.04	25.506
432.39	25.928
432.74	26.451
433.10	26.542
433.45	27.289
433.80	26.940
434.16	26.496
434.51	26.158
434.86	26.397
435.22	26.515
435.57	26.079
435.92	26.039
436.28	26.038
436.63	25.993
436.98	26.560
437.34	26.535
437.69	26.721
438.04	26.251
438.39	26.746
438.75	27.368
439.10	26.872
439.45	26.446
439.81	25.861
440.16	25.918
440.51	26.421
440.86	27.678
441.22	26.363
441.57	26.752
441.92	27.073
442.27	27.072
442.63	26.540
442.98	26.254
443.33	25.924
443.68	25.916
444.03	25.573
444.39	25.511
444.74	26.732
445.09	25.660
445.44	26.244
445.79	26.274
446.15	26.787
446.50	25.956
446.85	25.694
447.20	25.854
447.55	26.075
447.91	26.089
448.26	25.654
448.61	25.834
448.96	26.467
449.31	26.490
449.66	26.787
450.02	25.571
450.37	26.417
450.72	26.565
451.07	25.289
451.42	25.289
451.77	27.011
452.12	26.097
452.47	26.244
452.83	25.816
453.18	26.773
453.53	26.654
453.88	25.635
454.23	26.599
454.58	26.227
454.93	27.336
455.28	26.372
455.63	26.335
455.98	27.500
456.34	26.508
456.69	26.487
457.04	26.563
457.39	25.658
457.74	25.827
458.09	26.222
458.44	26.226
458.79	24.295
459.14	26.411
459.49	26.036
459.84	25.208
460.19	25.457
460.54	24.711
460.89	25.837
461.24	25.683
461.59	26.554
461.94	24.908
462.29	26.291
462.64	25.654
462.99	25.569
463.34	26.800
463.69	27.079
464.04	25.797
464.39	25.507
464.74	26.263
465.09	24.729
465.44	25.374
465.79	24.720
466.14	24.849
466.49	25.362
466.84	25.511
467.19	25.407
467.54	25.812
467.89	24.970
468.24	24.549
468.59	26.068
468.94	25.290
469.29	25.193
469.64	26.908
469.99	25.981
470.34	25.694
470.68	26.006
471.03	24.490
471.38	25.990
471.73	25.250
472.08	26.250
472.43	25.628
472.78	25.346
473.13	25.160
473.48	25.718
473.83	24.634
474.17	25.513
474.52	26.489
474.87	25.628
475.22	25.711
475.57	24.127
475.92	24.376
476.27	23.506
476.61	24.159
476.96	24.574
477.31	25.118
477.66	25.219
478.01	24.307
478.36	24.484
478.70	24.714
479.05	24.760
479.40	24.616
479.75	24.860
480.10	23.956
480.45	24.750
480.79	23.746
481.14	24.266
481.49	24.585
481.84	24.371
482.19	23.944
482.53	24.495
482.88	24.104
483.23	24.439
483.58	24.613
483.92	23.711
484.27	23.399
484.62	23.836
484.97	24.517
485.31	25.171
485.66	24.189
486.01	23.581
486.36	22.575
486.70	21.651
487.05	22.260
487.40	23.085
487.75	23.083
488.09	23.719
488.44	23.416
488.79	24.051
489.13	24.408
489.48	24.184
489.83	23.608
490.17	24.156
490.52	23.782
490.87	24.016
491.22	22.920
491.56	23.280
491.91	23.918
492.26	23.289
492.60	24.101
492.95	23.620
493.30	23.271
493.64	23.518
493.99	22.702
494.34	23.265
494.68	23.672
495.03	23.872
495.37	23.499
495.72	23.294
496.07	23.573
496.41	23.363
496.76	23.351
497.11	23.188
497.45	23.055
497.80	23.225
498.14	23.575
498.49	22.683
498.84	23.298
499.18	23.857
499.53	22.934
499.87	22.833
500.22	23.552
500.56	24.272
500.91	22.933
501.26	23.139
501.60	23.873
501.95	23.098
502.29	23.102
502.64	23.696
502.98	22.908
503.33	22.761
503.67	22.831
504.02	23.246
504.36	22.929
504.71	22.716
505.06	23.277
505.40	22.703
505.75	22.372
506.09	23.081
506.44	23.384
506.78	23.283
507.13	23.170
507.47	23.131
507.82	23.860
508.16	23.303
508.51	23.694
508.85	23.386
509.19	23.061
509.54	23.265
509.88	22.926
510.23	23.496
510.57	24.613
510.92	23.666
511.26	22.456
511.61	23.133
511.95	22.651
512.30	23.171
512.64	23.589
512.98	23.473
513.33	22.591
513.67	22.946
514.02	22.024
514.36	23.484
514.70	23.022
515.05	22.922
515.39	23.275
515.74	23.086
516.08	23.086
516.42	22.253
516.77	23.579
517.11	21.976
517.46	23.928
517.80	23.577
518.14	21.772
518.49	23.279
518.83	22.784
519.17	22.575
519.52	23.203
519.86	23.617
520.20	23.064
520.55	23.639
520.89	23.297
521.23	23.281
521.58	22.929
521.92	23.454
522.26	22.514
522.61	22.928
522.95	22.897
523.29	23.068
523.64	23.354
523.98	23.598
524.32	22.979
524.66	23.391
525.01	22.917
525.35	22.243
525.69	23.030
526.04	22.368
526.38	23.185
526.72	22.331
527.06	23.540
527.41	21.844
527.75	24.116
528.09	23.828
528.43	23.136
528.78	23.725
529.12	22.848
529.46	23.331
529.80	23.205
530.15	23.489
530.49	22.338
530.83	23.671
531.17	23.368
531.51	23.800
531.86	22.903
532.20	23.794
532.54	24.215
532.88	23.877
533.22	22.923
533.57	22.901
533.91	22.517
534.25	22.904
534.59	22.941
534.93	22.963
535.27	22.571
535.62	22.589
535.96	23.415
536.30	23.395
536.64	23.760
536.98	22.561
537.32	22.910
537.66	23.000
538.01	24.358
538.35	22.560
538.69	23.548
539.03	23.587
539.37	22.364
539.71	21.841
540.05	22.941
540.39	23.654
540.73	23.027
541.07	23.102
541.42	23.353
541.76	24.194
542.10	23.351
542.44	23.311
542.78	23.847
543.12	22.905
543.46	23.279
543.80	23.292
544.14	22.593
544.48	22.857
544.82	23.477
545.16	22.967
545.50	22.301
545.84	22.312
546.18	22.963
546.52	23.882
546.86	22.955
547.20	22.117
547.54	23.514
547.88	23.724
548.22	22.727
548.56	23.145
548.90	22.215
549.24	22.626
549.58	24.011
549.92	22.390
550.26	22.727
550.60	22.822
550.94	22.606
551.28	22.019
551.62	22.646
551.96	22.386
552.30	23.072
552.64	23.124
552.98	22.576
553.32	22.994
553.66	22.972
554.00	23.404
554.34	23.395
554.68	23.462
555.02	22.990
555.36	22.965
555.69	22.057
556.03	23.755
556.37	23.602
556.71	22.988
557.05	22.829
557.39	23.093
557.73	23.712
558.07	23.640
558.41	23.010
558.75	23.145
559.08	23.714
559.42	23.280
559.76	23.309
560.10	22.698
560.44	23.899
560.78	22.621
561.12	22.559
561.45	22.947
561.79	22.479
562.13	22.669
562.47	23.087
562.81	23.431
563.15	22.542
563.48	23.077
563.82	23.157
564.16	23.152
564.50	22.591
564.84	22.440
565.17	23.166
565.51	23.387
565.85	22.145
566.19	21.227
566.52	22.736
566.86	21.941
567.20	22.583
567.54	23.174
567.88	21.890
568.21	23.228
568.55	22.346
568.89	22.617
569.23	21.970
569.56	22.915
569.90	22.377
570.24	21.744
570.57	23.019
570.91	21.687
571.25	21.680
571.59	22.680
571.92	22.408
572.26	22.328
572.60	22.042
572.93	21.619
573.27	22.153
573.61	22.781
573.95	22.687
574.28	22.035
574.62	21.793
574.96	21.720
575.29	21.945
575.63	22.129
575.97	21.999
576.30	22.809
576.64	22.214
576.98	21.682
577.31	22.181
577.65	21.911
577.98	22.296
578.32	21.227
578.66	22.055
578.99	22.141
579.33	21.811
579.67	21.625
580.00	21.649
580.34	22.520
580.67	22.335
581.01	22.847
581.35	22.418
581.68	22.336
582.02	22.057
582.35	21.646
582.69	22.191
583.02	21.846
583.36	22.020
583.70	21.803
584.03	22.466
584.37	22.240
584.70	22.048
585.04	22.578
585.37	22.088
585.71	22.486
586.04	22.203
586.38	22.518
586.72	22.701
587.05	22.358
587.39	22.084
587.72	22.443
588.06	21.905
588.39	21.619
588.73	22.118
589.06	22.873
589.40	22.626
589.73	22.844
590.07	22.954
590.40	22.579
590.73	22.834
591.07	23.158
591.40	22.860
591.74	23.463
592.07	22.949
592.41	22.613
592.74	21.835
593.08	22.452
593.41	21.987
593.75	21.393
594.08	21.924
594.41	21.987
594.75	21.959
595.08	22.477
595.42	22.627
595.75	22.187
596.09	22.982
596.42	22.240
596.75	22.668
597.09	23.203
597.42	22.302
597.75	22.423
598.09	22.739
598.42	22.852
598.76	21.970
599.09	22.121
599.42	21.798
599.76	22.328
600.09	21.894
600.42	21.695
600.76	22.179
601.09	22.077
601.42	22.603
601.76	22.049
602.09	22.648
602.42	22.850
602.76	23.015
603.09	23.446
603.42	22.725
603.76	21.875
604.09	22.528
604.42	22.585
604.76	23.070
605.09	22.717
605.42	22.445
605.75	22.724
606.09	22.285
606.42	22.190
606.75	22.522
607.09	22.687
607.42	22.507
607.75	21.941
608.08	22.319
608.42	22.680
608.75	22.272
609.08	22.757
609.41	22.846
609.75	22.344
610.08	23.233
610.41	22.393
610.74	23.132
611.07	22.381
611.41	22.964
611.74	22.876
612.07	23.240
612.40	23.085
612.73	23.000
613.07	23.707
613.40	23.117
613.73	22.496
614.06	21.935
614.39	21.972
614.72	22.737
615.06	22.164
615.39	22.081
615.72	23.211
616.05	22.807
616.38	23.180
616.71	23.694
617.05	23.498
617.38	23.091
617.71	23.063
618.04	23.678
618.37	22.768
618.70	22.713
619.03	22.961
619.36	22.946
619.69	24.366
620.03	24.657
620.36	23.061
620.69	24.110
621.02	23.525
621.35	23.023
621.68	22.586
622.01	23.297
622.34	22.315
622.67	22.966
623.00	23.258
623.33	22.302
623.66	23.016
623.99	23.049
624.32	23.538
624.65	22.387
624.99	21.671
625.32	23.027
625.65	23.291
625.98	23.290
626.31	22.862
626.64	23.918
626.97	24.273
627.30	23.109
627.63	23.052
627.96	24.979
628.29	22.747
628.62	23.879
628.95	25.094
629.28	23.084
629.61	24.015
629.94	24.000
630.26	23.928
630.59	24.595
630.92	23.467
631.25	22.014
631.58	23.423
631.91	21.907
632.24	22.996
632.57	24.239
632.90	24.123
633.23	25.056
633.56	23.390
633.89	23.216
634.22	23.837
634.55	25.444
634.88	22.874
635.20	25.687
635.53	24.217
635.86	24.257
636.19	23.529
636.52	22.261
636.85	24.399
637.18	23.157
637.51	23.759
637.83	22.318
638.16	23.657
638.49	24.685
638.82	25.411
639.15	25.000
639.48	26.683
639.81	23.995
640.13	23.828
640.46	25.369
640.79	24.967
641.12	22.558
641.45	25.140
641.77	25.920
642.10	24.561
642.43	24.474
642.76	24.303
643.09	25.920
643.41	25.948
643.74	26.235
644.07	25.152
644.40	25.613
644.73	28.031
645.05	26.624
645.38	25.276
645.71	26.248
646.04	26.080
646.36	25.209
646.69	26.589
647.02	24.660
647.35	24.914
647.67	25.664
648.00	27.154
648.33	24.257
648.66	25.455
648.98	26.987
649.31	22.422
649.64	25.561
649.96	24.292
650.29	25.750
650.62	26.537
650.94	23.663
651.27	26.520
651.60	26.123
651.92	26.518
652.25	26.710
652.58	25.545
652.90	26.382
653.23	23.883
653.56	26.772
653.88	25.832
654.21	25.908
654.54	26.733
654.86	25.857
655.19	24.324
655.52	20.203
655.84	19.562
656.17	25.482
656.49	34.637
656.82	34.901
657.15	25.933
657.47	19.017
657.80	14.709
658.13	15.704
658.45	23.632
658.78	23.721
659.10	24.551
659.43	26.106
659.75	27.557
660.08	29.430
660.41	31.006
660.73	30.877
661.06	28.503
661.38	26.545
661.71	29.615
662.03	30.178
662.36	24.453
662.68	27.309
663.01	27.879
663.33	27.601
663.66	26.891
663.98	27.862
664.31	24.370
664.63	27.733
664.96	25.151
665.28	28.484
665.61	28.265
665.93	28.169
666.26	25.761
666.58	27.406
666.91	28.753
667.23	28.539
667.56	26.134
667.88	26.923
668.21	29.424
668.53	29.067
668.86	25.541
669.18	27.719
669.50	28.043
669.83	28.976
670.15	28.444
670.48	26.362
670.80	28.448
671.13	29.087
671.45	27.021
671.77	28.921
672.10	26.617
672.42	25.618
672.75	25.705
673.07	26.408
673.39	26.040
673.72	28.125
674.04	27.451
674.37	27.573
674.69	26.176
675.01	26.987
675.34	29.774
675.66	31.158
675.98	27.088
676.31	29.622
676.63	28.450
676.95	27.044
677.28	26.402
677.60	28.352
677.92	28.059
678.25	29.569
678.57	27.490
678.89	29.259
679.22	28.684
679.54	27.672
679.86	28.073
680.18	27.549
680.51	27.305
680.83	28.470
681.15	27.736
681.48	29.301
681.80	28.240
682.12	26.820
682.44	25.338
682.77	27.902
683.09	31.974
683.41	30.820
683.73	29.139
684.06	28.926
684.38	28.180
684.70	28.488
685.02	28.143
685.34	28.205
685.67	27.273
685.99	26.632
686.31	26.109
686.63	25.265
686.96	27.500
687.28	27.798
687.60	25.725
687.92	28.336
688.24	27.947
688.56	29.116
688.89	29.046
689.21	27.948
689.53	27.975
689.85	29.933
690.17	26.915
690.49	30.149
690.82	29.907
691.14	28.348
691.46	28.059
691.78	28.112
692.10	29.545
692.42	28.543
692.74	28.008
693.06	28.298
693.39	29.363
693.71	27.293
694.03	28.632
694.35	28.139
694.67	27.918
694.99	31.707
695.31	27.941
695.63	28.708
695.95	30.807
696.27	28.173
696.59	30.052
696.91	31.088
697.23	29.577
697.56	28.785
697.88	26.789
698.20	27.708
698.52	29.462
698.84	29.399
699.16	27.419
699.48	30.166
699.80	30.435
700.12	32.727
700.44	31.565
700.76	32.044
701.08	31.034
701.40	30.726
701.72	34.985
702.04	37.216
702.36	29.745
702.68	32.295
703.00	31.579
703.32	31.383
703.64	31.635
703.96	33.426
704.28	29.651
704.60	30.205
704.91	35.015
705.23	34.897
705.55	36.545
705.87	37.209
706.19	31.095
706.51	35.514
706.83	33.636
707.15	32.773
707.47	31.061
707.79	31.695
708.11	30.365
708.43	29.286
708.74	26.786
709.06	32.468
709.38	33.858
709.70	32.267
710.02	30.861
710.34	30.909
710.66	34.328
710.98	33.523
711.29	32.267
711.61	36.283
711.93	33.013
712.25	35.370
712.57	34.191
712.89	36.678
713.20	33.435
713.52	32.566
713.84	36.709
714.16	32.012
714.48	31.322
714.80	40.122
715.11	33.141
715.43	31.454
715.75	31.884
716.07	33.227
716.39	32.602
716.70	34.219
717.02	38.489
717.34	37.102
717.66	37.313
717.97	37.450
718.29	38.519
718.61	33.942
718.93	38.971
719.24	35.986
719.56	32.203
719.88	34.237
720.20	36.486
720.51	36.585
720.83	37.918
721.15	35.448
721.46	36.170
721.78	37.993
722.10	43.396
722.42	37.218
722.73	35.955
723.05	37.705
723.37	36.032
723.68	36.680
724.00	36.992
724.32	33.871
724.63	37.398
724.95	37.657
725.27	40.486
725.58	38.281
725.90	39.416
726.22	36.981
726.53	36.806
726.85	35.495
727.16	35.943
727.48	39.007
727.80	35.985
728.11	36.594
728.43	38.077
728.74	34.409
729.06	40.146
729.38	38.235
729.69	38.434
730.01	33.447
730.32	32.639
730.64	36.455
730.96	30.033
731.27	39.735
731.59	34.862
731.90	34.985
732.22	36.646
732.53	33.437
732.85	31.731
733.16	33.762
733.48	35.880
733.80	37.662
734.11	37.261
734.43	37.278
734.74	32.571
735.06	31.232
735.37	36.416
735.69	35.669
736.00	36.275
736.32	39.252
736.63	33.227
736.95	35.783
737.26	30.272
737.58	34.516
737.89	35.786
738.21	36.519
738.52	37.500
738.83	39.245
739.15	36.538
739.46	39.051
739.78	36.111
740.09	33.538
740.41	35.806
740.72	35.540
741.04	39.259
741.35	36.250
741.66	46.222
741.98	38.208
742.29	45.933
742.61	41.379
742.92	43.891
743.23	40.598
743.55	38.400
743.86	40.351
744.18	40.708
744.49	40.670
744.80	44.601
745.12	45.455
745.43	41.850
745.74	39.640
746.06	39.908
746.37	43.498
746.68	43.891
747.00	45.833
747.31	42.857
747.62	36.726
747.94	41.850
748.25	42.128
748.56	44.493
748.88	41.584
749.19	47.500
749.50	41.860
749.82	39.431
750.13	35.102
750.44	37.956
750.75	35.789
751.07	37.942
751.38	39.024
751.69	37.906
752.01	34.962
752.32	38.267
752.63	34.397
752.94	40.164
753.26	38.000
753.57	35.772
753.88	42.578
754.19	38.571
754.51	38.889
754.82	36.101
755.13	40.755
755.44	39.850
755.75	36.861
756.07	35.106
756.38	35.036
756.69	36.577
757.00	36.228
757.31	33.828
757.63	35.088
757.94	32.440
758.25	31.618
758.56	34.321
758.87	34.677
759.18	36.364
759.50	35.110
759.81	34.579
760.12	32.500
760.43	35.530
760.74	35.326
761.05	39.266
761.36	33.422
761.67	34.091
761.99	31.366
762.30	37.847
762.61	39.313
762.92	40.234
763.23	39.916
763.54	40.000
763.85	36.719
764.16	45.000
764.47	41.445
764.78	39.223
765.10	36.392
765.41	32.743
765.72	36.527
766.03	38.871
766.34	33.000
766.65	47.660
766.96	40.598
767.27	49.746
767.58	49.479
767.89	45.789
768.20	45.402
768.51	41.117
768.82	47.248
769.13	37.398
769.44	40.081
769.75	38.627
770.06	37.156
770.37	40.724
770.68	43.056
770.99	40.444
771.30	34.836
771.61	39.013
771.92	40.984
772.23	45.798
772.54	50.256
772.85	46.073
773.16	49.468
773.47	47.283
773.78	50.761
774.09	44.048
774.39	53.216
774.70	50.617
775.01	57.246
775.32	52.941
775.63	50.000
775.94	53.957
776.25	53.543
776.56	52.985
776.87	53.279
777.18	53.906
777.48	61.832
777.79	52.273
778.10	55.556
778.41	66.071
778.72	55.474
779.03	48.322
779.34	52.349
779.65	49.324
779.95	53.988
780.26	58.824
780.57	54.483
780.88	57.813
781.19	54.887
781.50	54.054
781.80	52.830
782.11	46.893
782.42	47.468
782.73	47.239
783.04	57.432
783.34	51.408
783.65	65.753
783.96	57.463
784.27	52.448
784.57	58.993
784.88	63.889
785.19	61.111
785.50	63.208
785.81	64.925
786.11	63.934
786.42	65.116
786.73	63.717
787.04	68.868
787.34	58.929
787.65	71.000
787.96	74.775
788.26	62.810
788.57	74.576
788.88	66.116
789.19	55.556
789.49	67.424
789.80	61.069
790.11	74.286
790.41	72.277
790.72	90.361
791.03	72.826
791.33	87.209
791.64	83.505
791.95	70.297
792.25	76.667
792.56	90.909
792.87	89.744
793.17	87.342
793.48	83.908
793.79	90.805
794.09	73.864
794.40	60.504
794.70	60.294
795.01	53.333
795.32	61.151
795.62	63.780
795.93	60.345
796.23	60.177
796.54	68.235
796.85	78.378
797.15	97.183
797.46	89.394
797.76	90.361
798.07	75.949
798.37	95.385
798.68	83.333
798.99	74.648
799.29	98.701
799.60	82.955
799.90	98.630
800.21	92.537
800.51	108.621
800.82	103.509
801.12	91.803
801.43	100.000
801.73	86.486
802.04	106.349
802.34	96.296
802.65	92.188
802.95	125.424
803.26	115.625
803.56	98.571
803.87	95.385
804.17	94.118
804.48	137.037
804.78	89.655
805.09	85.294
805.39	103.846
805.70	100.000
806.00	118.033
806.30	86.364
806.61	79.268
806.91	86.076
807.22	84.211
807.52	83.582
807.83	92.958
808.13	96.875
808.43	93.333
808.74	82.895
809.04	104.348
809.35	100.000
809.65	97.368
809.95	117.742
810.26	94.915
810.56	117.460
810.86	131.818
811.17	154.762
811.47	125.000
811.77	105.556
812.08	125.455
812.38	120.000
812.69	147.222
812.99	163.636
813.29	118.367
813.59	121.429
813.90	140.816
814.20	112.727
814.50	121.538
814.81	98.529
815.11	134.694
815.41	119.672
815.72	140.476
816.02	118.182
816.32	123.810
816.62	125.000
816.93	134.146
817.23	119.048
817.53	143.182
817.84	175.758
818.14	119.565
818.44	133.333
818.74	173.529
819.04	130.000
819.35	171.429
819.65	161.765
819.95	175.000
820.25	240.000
820.56	135.897
820.86	154.545
821.16	160.465
821.46	135.897
821.76	144.000
822.07	180.000
822.37	162.500
822.67	175.758
822.97	111.765
823.27	203.571
823.57	145.946
823.88	165.000
824.18	206.667
824.48	157.143
824.78	216.000
825.08	187.500
825.38	156.757
825.69	139.024
825.99	191.667
826.29	186.207
826.59	157.895
826.89	171.053
827.19	170.588
827.49	200.000
827.79	150.000
828.09	136.364
828.39	110.638
828.70	140.816
829.00	159.259
829.30	151.613
829.60	147.500
829.90	313.333
830.20	217.857
830.50	213.043
830.80	213.043
831.10	186.667
831.40	156.667
831.70	173.913
832.00	242.308
832.30	185.185
832.60	337.500
832.90	216.667
833.20	392.857
833.50	206.452
833.80	200.000
834.10	209.375
834.40	238.462
834.70	266.667
835.00	285.714
835.30	154.286
835.60	361.538
835.90	213.793
836.20	342.857
836.50	186.207
836.80	192.000
837.10	175.000
837.40	276.190
837.70	347.059
838.00	207.407
838.30	185.714
838.60	280.952
838.90	207.692
839.19	285.000
839.49	421.429
839.79	325.000
840.09	260.000
840.39	266.667
840.69	265.217
840.99	300.000
841.29	490.000
841.59	383.333
841.88	343.750
842.18	210.345
842.48	304.762
842.78	193.333
843.08	239.130
843.38	206.250
843.68	933.333
843.97	211.538
844.27	179.310
844.57	300.000
844.87	331.250
845.17	229.630
845.47	1466.667
845.76	466.667
846.06	364.706
846.36	650.000
846.66	364.286
846.96	318.750
847.25	418.182
847.55	409.091
847.85	286.957
848.15	510.000
848.44	421.429
848.74	266.667
849.04	370.588
849.34	540.000
849.63	252.632
849.93	454.545
850.23	1000.000
850.53	428.571
850.82	2750.000
851.12	-5000.000
851.42	5300.000
851.71	245.000
852.01	-1333.333
852.31	241.667
852.61	1700.000
852.90	314.286
853.20	240.000
853.50	358.824
853.79	285.714
854.09	266.667
854.39	337.500
854.68	170.270
854.98	229.032
855.28	173.333
855.57	213.793
855.87	207.407
856.17	247.368
856.46	306.667
856.76	258.824
857.05	217.241
857.35	237.500
857.65	400.000
857.94	273.913
858.24	230.769
858.53	325.000
858.83	277.273
859.13	446.667
859.42	0.000
859.72	488.889
860.01	445.455
860.31	254.545
860.60	273.684
860.90	226.087
861.20	566.667
861.49	525.000
861.79	-5000.000
862.08	562.500
862.38	266.667
862.67	338.462
862.97	329.412
863.26	655.556
863.56	300.000
863.85	483.333
864.15	625.000
864.44	400.000
864.74	866.667
865.03	675.000
865.33	315.789
865.62	436.364
865.92	423.077
866.21	366.667
866.51	0.000
866.80	509.091
867.10	980.000
867.39	446.154
867.69	518.182
867.98	252.632
868.27	500.000
868.57	315.789
868.86	-4500.000
869.16	387.500
869.45	2100.000
869.75	-4300.000
870.04	408.333
870.33	542.857
870.63	1000.000
870.92	2550.000
871.22	585.714
871.51	400.000
871.80	233.333
872.10	385.714
>>>>>End Processed Spectral Data<<<<<
