SpectraSuite Data File
++++++++++++++++++++++++++++++++++++
Date: Wed May 13 16:38:41 PDT 2015
User: schluterlab
Dark Spectrum Present: Yes
Reference Spectrum Present: Yes
Number of Sampled Component Spectra: 1
Spectrometers: USB2E3373
Integration Time (usec): 3000 (USB2E3373)
Spectra Averaged: 3 (USB2E3373)
Boxcar Smoothing: 0 (USB2E3373)
Correct for Electrical Dark: No (USB2E3373)
Strobe/Lamp Enabled: No (USB2E3373)
Correct for Detector Non-linearity: No (USB2E3373)
Correct for Stray Light: No (USB2E3373)
Number of Pixels in Processed Spectrum: 2048
>>>>>Begin Processed Spectral Data<<<<<
178.53	0.000
178.91	-1250.000
179.29	-1500.000
179.67	-227.778
180.04	-1425.000
180.42	2400.000
180.80	1200.000
181.18	-1325.000
181.56	528.571
181.94	0.000
182.31	-485.714
182.69	1866.667
183.07	-587.500
183.45	-522.222
183.83	536.364
184.20	-480.000
184.58	2800.000
184.96	5900.000
185.34	-840.000
185.72	-650.000
186.09	-2500.000
186.47	2750.000
186.85	2600.000
187.23	5200.000
187.61	-1633.333
187.98	1250.000
188.36	581.818
188.74	481.818
189.12	-900.000
189.49	580.000
189.87	-4800.000
190.25	-1250.000
190.63	385.714
191.00	407.692
191.38	816.667
191.76	-1050.000
192.14	1300.000
192.51	737.500
192.89	883.333
193.27	737.500
193.65	-1200.000
194.02	600.000
194.40	860.000
194.78	500.000
195.15	425.000
195.53	630.000
195.91	-2100.000
196.29	356.250
196.66	347.368
197.04	-410.000
197.42	0.000
197.79	630.000
198.17	-5400.000
198.55	800.000
198.92	725.000
199.30	880.000
199.68	0.000
200.05	377.778
200.43	742.857
200.81	5000.000
201.18	1600.000
201.56	-1833.333
201.94	555.556
202.31	588.889
202.69	558.333
203.07	660.000
203.44	0.000
203.82	1400.000
204.19	742.857
204.57	435.714
204.95	687.500
205.32	1766.667
205.70	590.909
206.08	342.857
206.45	2500.000
206.83	368.750
207.20	933.333
207.58	640.000
207.96	322.222
208.33	662.500
208.71	-833.333
209.08	742.857
209.46	666.667
209.84	509.091
210.21	-1733.333
210.59	1450.000
210.96	-512.500
211.34	2050.000
211.71	640.000
212.09	666.667
212.46	0.000
212.84	1466.667
213.22	1425.000
213.59	-4400.000
213.97	1000.000
214.34	828.571
214.72	554.545
215.09	1140.000
215.47	-2750.000
215.84	-2550.000
216.22	1300.000
216.59	414.286
216.97	1125.000
217.34	490.909
217.72	-783.333
218.09	0.000
218.47	-4900.000
218.84	566.667
219.22	871.429
219.59	1566.667
219.97	-614.286
220.34	980.000
220.72	-1733.333
221.09	450.000
221.47	1425.000
221.84	-800.000
222.22	0.000
222.59	1525.000
222.97	-2650.000
223.34	1160.000
223.72	369.231
224.09	960.000
224.46	2450.000
224.84	-5500.000
225.21	-1100.000
225.59	-5600.000
225.96	520.000
226.34	275.000
226.71	2850.000
227.08	612.500
227.46	570.000
227.83	-1100.000
228.21	-2800.000
228.58	566.667
228.95	-2750.000
229.33	-2550.000
229.70	1733.333
230.08	757.143
230.45	-740.000
230.82	491.667
231.20	750.000
231.57	671.429
231.95	416.667
232.32	263.636
232.69	354.545
233.07	742.857
233.44	353.846
233.81	-1833.333
234.19	294.737
234.56	408.333
234.93	433.333
235.31	354.545
235.68	346.154
236.05	292.857
236.43	172.727
236.80	247.368
237.17	4500.000
237.55	180.952
237.92	200.000
238.29	257.143
238.67	174.194
239.04	200.000
239.41	122.222
239.79	128.261
240.16	138.095
240.53	120.455
240.91	111.765
241.28	110.000
241.65	102.000
242.02	84.058
242.40	82.258
242.77	80.000
243.14	82.796
243.51	76.404
243.89	68.235
244.26	56.667
244.63	61.290
245.00	62.766
245.38	54.455
245.75	49.533
246.12	54.128
246.49	59.854
246.87	56.000
247.24	50.000
247.61	44.286
247.98	41.176
248.36	41.216
248.73	38.854
249.10	45.223
249.47	38.418
249.84	38.503
250.22	41.711
250.59	37.870
250.96	36.364
251.33	37.441
251.70	32.673
252.08	36.667
252.45	32.735
252.82	34.348
253.19	35.745
253.56	30.588
253.94	26.971
254.31	33.203
254.68	32.692
255.05	34.686
255.42	30.488
255.79	30.147
256.16	29.603
256.54	23.675
256.91	29.893
257.28	26.259
257.65	27.393
258.02	26.398
258.39	30.284
258.76	23.746
259.14	25.298
259.51	25.836
259.88	25.466
260.25	25.982
260.62	25.434
260.99	23.602
261.36	26.727
261.73	25.501
262.10	25.291
262.47	23.662
262.85	24.513
263.22	20.513
263.59	24.501
263.96	23.352
264.33	24.543
264.70	24.474
265.07	21.995
265.44	22.475
265.81	19.951
266.18	21.608
266.55	20.000
266.92	23.833
267.29	24.306
267.66	22.477
268.03	22.273
268.40	22.430
268.77	18.138
269.14	21.171
269.51	20.542
269.88	21.445
270.25	22.348
270.62	18.876
270.99	24.086
271.36	22.103
271.73	20.561
272.10	21.522
272.47	21.290
272.84	20.563
273.21	22.432
273.58	20.742
273.95	19.287
274.32	17.355
274.69	22.484
275.06	19.488
275.43	21.277
275.80	19.840
276.17	20.367
276.54	20.790
276.91	22.727
277.28	18.750
277.65	21.857
278.02	19.669
278.39	21.680
278.76	19.636
279.13	20.755
279.50	19.553
279.87	17.530
280.23	19.960
280.60	17.215
280.97	18.669
281.34	21.239
281.71	21.455
282.08	21.497
282.45	18.909
282.82	19.893
283.19	15.330
283.56	18.596
283.92	18.613
284.29	19.400
284.66	18.693
285.03	16.456
285.40	18.134
285.77	18.182
286.14	17.789
286.51	19.167
286.87	19.658
287.24	18.893
287.61	18.459
287.98	18.994
288.35	16.640
288.72	18.069
289.08	19.405
289.45	16.474
289.82	17.561
290.19	15.856
290.56	15.926
290.93	15.861
291.29	15.644
291.66	15.929
292.03	18.169
292.40	17.621
292.77	16.420
293.13	15.522
293.50	16.035
293.87	16.296
294.24	14.815
294.60	14.556
294.97	16.424
295.34	17.348
295.71	16.051
296.08	13.533
296.44	16.094
296.81	14.663
297.18	16.531
297.55	13.193
297.91	14.512
298.28	15.529
298.65	15.927
299.02	15.415
299.38	14.343
299.75	13.342
300.12	12.516
300.48	14.500
300.85	15.413
301.22	14.650
301.59	14.773
301.95	13.980
302.32	13.607
302.69	13.023
303.05	12.606
303.42	13.704
303.79	14.383
304.15	11.655
304.52	13.094
304.89	12.079
305.25	14.153
305.62	13.703
305.99	14.758
306.35	13.423
306.72	15.471
307.09	13.430
307.45	13.063
307.82	13.393
308.19	14.238
308.55	14.347
308.92	12.997
309.29	12.355
309.65	13.998
310.02	14.482
310.38	13.118
310.75	14.467
311.12	13.920
311.48	14.107
311.85	14.046
312.22	13.840
312.58	13.825
312.95	14.150
313.31	13.204
313.68	13.514
314.05	14.892
314.41	14.774
314.78	14.502
315.14	12.910
315.51	13.182
315.87	14.554
316.24	13.903
316.61	14.230
316.97	13.209
317.34	13.112
317.70	14.818
318.07	14.629
318.43	14.873
318.80	14.246
319.16	15.631
319.53	13.977
319.89	15.143
320.26	15.700
320.62	14.980
320.99	15.051
321.35	15.657
321.72	14.887
322.08	15.795
322.45	16.816
322.81	15.601
323.18	15.414
323.54	15.955
323.91	16.321
324.27	16.157
324.64	14.539
325.00	14.878
325.37	15.742
325.73	16.966
326.10	15.357
326.46	15.591
326.83	17.256
327.19	16.567
327.56	16.028
327.92	15.661
328.29	15.084
328.65	15.562
329.01	16.877
329.38	16.004
329.74	15.420
330.11	14.232
330.47	16.070
330.84	16.636
331.20	14.390
331.56	15.505
331.93	16.204
332.29	14.907
332.66	15.752
333.02	15.356
333.38	16.350
333.75	16.310
334.11	15.747
334.48	16.060
334.84	15.441
335.20	15.364
335.57	15.413
335.93	14.911
336.29	14.103
336.66	15.329
337.02	15.023
337.38	15.926
337.75	15.062
338.11	14.682
338.47	14.733
338.84	16.682
339.20	13.670
339.56	16.606
339.93	14.364
340.29	14.764
340.65	15.686
341.02	16.056
341.38	15.480
341.74	14.474
342.11	15.546
342.47	14.537
342.83	16.010
343.20	14.978
343.56	14.406
343.92	14.561
344.28	15.306
344.65	14.961
345.01	13.889
345.37	13.722
345.73	15.398
346.10	13.981
346.46	14.407
346.82	14.086
347.19	14.286
347.55	14.696
347.91	14.482
348.27	15.941
348.63	15.134
349.00	14.482
349.36	14.532
349.72	15.156
350.08	14.506
350.45	14.890
350.81	14.054
351.17	14.992
351.53	14.333
351.89	14.521
352.26	15.470
352.62	15.076
352.98	13.776
353.34	15.201
353.70	13.912
354.07	14.516
354.43	13.810
354.79	14.401
355.15	14.765
355.51	14.468
355.87	14.776
356.24	15.635
356.60	13.953
356.96	14.159
357.32	14.309
357.68	14.331
358.04	13.539
358.40	15.202
358.77	14.632
359.13	13.023
359.49	13.490
359.85	13.492
360.21	13.477
360.57	15.019
360.93	14.846
361.29	14.361
361.66	13.003
362.02	14.925
362.38	14.525
362.74	14.881
363.10	13.990
363.46	13.720
363.82	13.757
364.18	14.170
364.54	15.453
364.90	14.660
365.26	13.824
365.62	14.244
365.98	13.294
366.35	13.252
366.71	15.040
367.07	13.984
367.43	14.224
367.79	14.704
368.15	15.158
368.51	13.299
368.87	14.918
369.23	14.777
369.59	15.351
369.95	13.897
370.31	14.672
370.67	14.638
371.03	15.356
371.39	14.431
371.75	14.191
372.11	15.007
372.47	15.762
372.83	15.274
373.19	14.090
373.55	15.078
373.91	16.495
374.27	14.364
374.63	15.418
374.99	14.619
375.35	14.096
375.71	15.147
376.07	14.952
376.42	14.649
376.78	15.573
377.14	14.925
377.50	15.894
377.86	14.428
378.22	15.929
378.58	13.534
378.94	14.393
379.30	14.504
379.66	15.419
380.02	15.295
380.38	14.268
380.74	15.546
381.09	15.709
381.45	15.673
381.81	16.093
382.17	15.223
382.53	15.283
382.89	15.556
383.25	15.009
383.61	16.791
383.97	15.510
384.32	16.344
384.68	14.746
385.04	15.427
385.40	15.604
385.76	15.111
386.12	16.062
386.48	14.978
386.83	15.908
387.19	16.636
387.55	15.894
387.91	15.357
388.27	15.512
388.62	15.366
388.98	15.356
389.34	15.394
389.70	15.267
390.06	15.843
390.42	15.888
390.77	16.158
391.13	15.635
391.49	17.005
391.85	15.404
392.20	15.584
392.56	15.783
392.92	15.185
393.28	14.497
393.64	15.827
393.99	16.005
394.35	15.199
394.71	15.370
395.07	15.140
395.42	15.884
395.78	15.967
396.14	15.891
396.50	16.228
396.85	16.275
397.21	15.721
397.57	15.437
397.92	15.024
398.28	15.135
398.64	16.249
399.00	15.557
399.35	14.777
399.71	14.815
400.07	15.730
400.42	15.521
400.78	16.043
401.14	15.305
401.49	15.403
401.85	15.064
402.21	14.491
402.57	15.238
402.92	14.691
403.28	15.553
403.63	15.470
403.99	15.605
404.35	14.545
404.70	15.348
405.06	15.259
405.42	14.847
405.77	14.400
406.13	14.898
406.49	15.494
406.84	14.294
407.20	14.716
407.55	15.890
407.91	14.067
408.27	15.252
408.62	14.570
408.98	15.319
409.34	14.514
409.69	14.774
410.05	14.870
410.40	15.046
410.76	14.755
411.11	15.380
411.47	14.824
411.83	15.333
412.18	14.719
412.54	15.006
412.89	15.542
413.25	14.463
413.60	14.886
413.96	14.329
414.31	14.885
414.67	14.132
415.03	15.033
415.38	14.884
415.74	15.305
416.09	14.892
416.45	14.592
416.80	15.664
417.16	15.282
417.51	15.063
417.87	14.708
418.22	14.890
418.58	15.171
418.93	15.418
419.29	15.532
419.64	15.113
420.00	14.817
420.35	14.841
420.71	15.003
421.06	14.618
421.42	15.146
421.77	14.910
422.12	13.869
422.48	13.276
422.83	15.026
423.19	14.365
423.54	14.684
423.90	14.609
424.25	14.126
424.61	14.226
424.96	14.927
425.31	14.673
425.67	14.551
426.02	14.457
426.38	14.652
426.73	14.102
427.09	14.407
427.44	14.434
427.79	14.894
428.15	15.060
428.50	14.336
428.85	15.137
429.21	14.357
429.56	14.515
429.92	13.639
430.27	14.151
430.62	13.774
430.98	14.271
431.33	14.485
431.68	14.398
432.04	14.643
432.39	13.649
432.74	14.662
433.10	14.884
433.45	14.694
433.80	14.523
434.16	14.583
434.51	14.421
434.86	14.937
435.22	14.119
435.57	14.529
435.92	13.985
436.28	15.065
436.63	14.790
436.98	13.967
437.34	15.325
437.69	14.702
438.04	14.503
438.39	15.224
438.75	14.817
439.10	15.028
439.45	15.053
439.81	14.441
440.16	14.568
440.51	15.056
440.86	15.924
441.22	14.516
441.57	14.650
441.92	14.790
442.27	14.478
442.63	14.587
442.98	15.718
443.33	14.728
443.68	14.146
444.03	14.885
444.39	14.070
444.74	14.610
445.09	15.580
445.44	14.379
445.79	14.646
446.15	15.405
446.50	15.186
446.85	14.851
447.20	14.227
447.55	14.294
447.91	14.341
448.26	14.914
448.61	15.659
448.96	16.113
449.31	14.961
449.66	14.237
450.02	14.429
450.37	14.626
450.72	15.228
451.07	14.260
451.42	14.711
451.77	15.619
452.12	14.838
452.47	15.361
452.83	14.860
453.18	15.465
453.53	14.842
453.88	15.180
454.23	15.123
454.58	15.687
454.93	15.766
455.28	15.399
455.63	15.109
455.98	15.357
456.34	16.143
456.69	15.216
457.04	15.170
457.39	15.196
457.74	14.510
458.09	16.159
458.44	15.507
458.79	13.991
459.14	15.463
459.49	14.886
459.84	15.235
460.19	14.968
460.54	14.757
460.89	15.030
461.24	15.058
461.59	16.212
461.94	15.351
462.29	15.252
462.64	15.763
462.99	15.615
463.34	15.733
463.69	15.447
464.04	16.174
464.39	15.014
464.74	14.914
465.09	15.018
465.44	14.958
465.79	15.045
466.14	15.107
466.49	14.461
466.84	16.170
467.19	15.027
467.54	16.188
467.89	15.366
468.24	15.881
468.59	16.484
468.94	14.722
469.29	15.681
469.64	16.466
469.99	15.291
470.34	15.192
470.68	15.805
471.03	15.850
471.38	16.748
471.73	16.256
472.08	15.921
472.43	16.080
472.78	16.129
473.13	16.431
473.48	15.855
473.83	15.000
474.17	14.935
474.52	16.129
474.87	16.170
475.22	14.858
475.57	14.777
475.92	14.764
476.27	14.713
476.61	15.665
476.96	14.733
477.31	15.385
477.66	15.263
478.01	14.637
478.36	15.177
478.70	13.759
479.05	15.176
479.40	14.790
479.75	14.845
480.10	14.215
480.45	14.707
480.79	14.668
481.14	14.873
481.49	14.760
481.84	14.678
482.19	14.539
482.53	14.954
482.88	14.891
483.23	14.533
483.58	14.741
483.92	14.948
484.27	13.638
484.62	14.526
484.97	14.151
485.31	14.486
485.66	12.979
486.01	12.049
486.36	11.602
486.70	11.420
487.05	12.224
487.40	12.308
487.75	12.952
488.09	13.588
488.44	13.276
488.79	14.141
489.13	14.668
489.48	14.356
489.83	14.113
490.17	14.599
490.52	14.305
490.87	14.202
491.22	14.734
491.56	13.759
491.91	14.658
492.26	14.975
492.60	14.747
492.95	14.219
493.30	13.738
493.64	14.419
493.99	14.717
494.34	14.755
494.68	15.064
495.03	14.850
495.37	14.844
495.72	14.717
496.07	14.849
496.41	14.248
496.76	14.556
497.11	14.948
497.45	14.020
497.80	14.635
498.14	14.396
498.49	14.439
498.84	15.628
499.18	14.476
499.53	14.245
499.87	15.005
500.22	14.790
500.56	15.146
500.91	14.423
501.26	15.505
501.60	15.520
501.95	14.345
502.29	14.902
502.64	14.944
502.98	14.960
503.33	13.848
503.67	15.035
504.02	14.172
504.36	14.600
504.71	14.656
505.06	15.614
505.40	14.633
505.75	15.092
506.09	13.946
506.44	14.554
506.78	14.661
507.13	15.346
507.47	15.303
507.82	15.096
508.16	14.590
508.51	14.815
508.85	14.002
509.19	14.643
509.54	14.643
509.88	15.095
510.23	15.527
510.57	15.325
510.92	15.070
511.26	14.954
511.61	16.131
511.95	14.666
512.30	15.164
512.64	15.583
512.98	15.220
513.33	16.113
513.67	14.941
514.02	14.827
514.36	15.893
514.70	15.661
515.05	15.170
515.39	14.863
515.74	15.090
516.08	16.154
516.42	15.538
516.77	16.221
517.11	15.039
517.46	15.914
517.80	15.389
518.14	15.692
518.49	16.278
518.83	16.193
519.17	15.531
519.52	15.846
519.86	16.258
520.20	16.243
520.55	16.278
520.89	16.971
521.23	16.345
521.58	15.966
521.92	15.983
522.26	16.046
522.61	16.822
522.95	16.206
523.29	14.973
523.64	15.976
523.98	16.205
524.32	16.104
524.66	16.115
525.01	16.544
525.35	15.861
525.69	16.810
526.04	16.511
526.38	16.046
526.72	16.074
527.06	16.949
527.41	14.604
527.75	16.270
528.09	16.570
528.43	15.233
528.78	16.411
529.12	14.970
529.46	16.901
529.80	16.089
530.15	15.950
530.49	15.754
530.83	16.582
531.17	16.710
531.51	17.315
531.86	16.516
532.20	16.428
532.54	17.233
532.88	16.816
533.22	15.803
533.57	16.296
533.91	15.774
534.25	15.674
534.59	16.107
534.93	15.110
535.27	15.812
535.62	16.667
535.96	15.317
536.30	15.639
536.64	15.454
536.98	16.788
537.32	15.668
537.66	16.600
538.01	15.997
538.35	16.096
538.69	16.720
539.03	16.114
539.37	14.569
539.71	14.906
540.05	15.621
540.39	16.013
540.73	15.524
541.07	16.677
541.42	16.112
541.76	16.258
542.10	15.201
542.44	15.960
542.78	16.008
543.12	14.779
543.46	15.279
543.80	16.916
544.14	14.891
544.48	16.063
544.82	15.843
545.16	15.810
545.50	15.488
545.84	16.465
546.18	16.229
546.52	15.692
546.86	15.945
547.20	16.116
547.54	16.099
547.88	16.263
548.22	15.255
548.56	15.535
548.90	14.789
549.24	14.815
549.58	16.712
549.92	16.415
550.26	16.335
550.60	15.837
550.94	16.056
551.28	15.435
551.62	16.319
551.96	15.719
552.30	16.382
552.64	16.903
552.98	16.000
553.32	16.655
553.66	17.928
554.00	15.717
554.34	16.080
554.68	16.452
555.02	15.656
555.36	16.493
555.69	15.900
556.03	16.083
556.37	16.303
556.71	15.825
557.05	15.546
557.39	16.025
557.73	16.584
558.07	16.824
558.41	16.353
558.75	16.532
559.08	16.033
559.42	16.175
559.76	17.279
560.10	15.774
560.44	16.003
560.78	15.968
561.12	15.567
561.45	17.145
561.79	15.953
562.13	15.627
562.47	16.598
562.81	15.202
563.15	15.585
563.48	15.915
563.82	15.851
564.16	15.762
564.50	15.365
564.84	14.665
565.17	15.508
565.51	15.080
565.85	15.736
566.19	15.279
566.52	15.516
566.86	15.612
567.20	15.566
567.54	14.384
567.88	14.557
568.21	15.185
568.55	14.661
568.89	14.154
569.23	13.993
569.56	13.360
569.90	13.396
570.24	13.204
570.57	12.275
570.91	11.732
571.25	12.353
571.59	12.371
571.92	12.183
572.26	12.247
572.60	12.282
572.93	11.844
573.27	12.452
573.61	12.284
573.95	12.222
574.28	12.161
574.62	11.783
574.96	11.374
575.29	12.051
575.63	11.712
575.97	11.950
576.30	12.055
576.64	11.878
576.98	11.570
577.31	11.784
577.65	11.422
577.98	11.319
578.32	11.080
578.66	11.614
578.99	11.459
579.33	11.135
579.67	11.603
580.00	12.107
580.34	12.055
580.67	11.912
581.01	12.031
581.35	11.618
581.68	11.568
582.02	11.002
582.35	11.212
582.69	11.389
583.02	11.383
583.36	11.828
583.70	12.163
584.03	12.200
584.37	12.385
584.70	12.200
585.04	12.060
585.37	12.139
585.71	11.913
586.04	11.766
586.38	11.860
586.72	12.731
587.05	11.872
587.39	11.900
587.72	12.136
588.06	12.300
588.39	12.483
588.73	12.467
589.06	12.683
589.40	12.828
589.73	13.200
590.07	13.274
590.40	12.605
590.73	13.076
591.07	14.082
591.40	14.045
591.74	14.545
592.07	13.962
592.41	13.270
592.74	13.221
593.08	13.125
593.41	12.939
593.75	12.117
594.08	12.906
594.41	12.725
594.75	12.976
595.08	12.777
595.42	13.100
595.75	12.642
596.09	13.368
596.42	13.595
596.75	13.508
597.09	14.242
597.42	13.406
597.75	13.885
598.09	14.130
598.42	13.918
598.76	13.458
599.09	13.113
599.42	12.737
599.76	13.067
600.09	12.933
600.42	12.856
600.76	12.786
601.09	12.787
601.42	12.557
601.76	12.486
602.09	13.399
602.42	14.291
602.76	13.744
603.09	13.769
603.42	13.159
603.76	13.338
604.09	12.563
604.42	13.331
604.76	13.707
605.09	13.630
605.42	12.783
605.75	13.079
606.09	12.647
606.42	12.996
606.75	13.190
607.09	14.274
607.42	13.136
607.75	13.291
608.08	13.548
608.42	13.850
608.75	14.698
609.08	14.339
609.41	13.327
609.75	14.150
610.08	13.996
610.41	13.734
610.74	13.718
611.07	14.032
611.41	14.377
611.74	13.876
612.07	14.079
612.40	14.061
612.73	14.000
613.07	14.278
613.40	14.323
613.73	13.949
614.06	14.086
614.39	14.368
614.72	14.158
615.06	14.706
615.39	13.854
615.72	14.059
616.05	13.876
616.38	14.452
616.71	15.024
617.05	15.077
617.38	14.432
617.71	13.694
618.04	15.264
618.37	15.316
618.70	14.872
619.03	15.658
619.36	16.225
619.69	15.634
620.03	16.690
620.36	15.374
620.69	15.205
621.02	16.445
621.35	16.993
621.68	14.642
622.01	15.402
622.34	16.793
622.67	16.122
623.00	14.527
623.33	15.511
623.66	15.440
623.99	15.022
624.32	15.621
624.65	15.042
624.99	15.227
625.32	14.989
625.65	16.454
625.98	15.757
626.31	16.407
626.64	17.061
626.97	16.459
627.30	17.124
627.63	17.063
627.96	17.914
628.29	16.710
628.62	17.932
628.95	18.113
629.28	17.518
629.61	18.882
629.94	18.476
630.26	16.206
630.59	17.159
630.92	17.050
631.25	17.473
631.58	18.218
631.91	17.546
632.24	16.983
632.57	19.203
632.90	19.627
633.23	19.351
633.56	20.113
633.89	20.045
634.22	20.772
634.55	21.183
634.88	19.521
635.20	20.669
635.53	20.000
635.86	19.802
636.19	20.000
636.52	20.992
636.85	19.244
637.18	19.124
637.51	17.730
637.83	18.742
638.16	18.670
638.49	19.899
638.82	19.975
639.15	20.000
639.48	20.200
639.81	20.777
640.13	19.010
640.46	21.208
640.79	19.815
641.12	21.183
641.45	21.089
641.77	22.386
642.10	20.468
642.43	20.871
642.76	19.505
643.09	23.006
643.41	20.030
643.74	23.148
644.07	21.494
644.40	22.853
644.73	22.835
645.05	22.345
645.38	21.169
645.71	23.510
646.04	23.256
646.36	23.706
646.69	21.739
647.02	23.299
647.35	22.337
647.67	25.133
648.00	22.764
648.33	20.957
648.66	21.212
648.98	22.039
649.31	19.880
649.64	20.329
649.96	21.610
650.29	21.485
650.62	21.683
650.94	21.880
651.27	23.986
651.60	23.461
651.92	22.524
652.25	20.684
652.58	22.430
652.90	21.801
653.23	20.647
653.56	22.835
653.88	22.187
654.21	22.749
654.54	23.267
654.86	20.717
655.19	20.135
655.52	12.971
655.84	8.936
656.17	11.047
656.49	14.858
656.82	15.252
657.15	11.677
657.47	8.859
657.80	7.007
658.13	7.534
658.45	11.835
658.78	12.168
659.10	13.266
659.43	13.887
659.75	15.409
660.08	17.975
660.41	20.577
660.73	23.126
661.06	21.975
661.38	24.545
661.71	22.885
662.03	24.063
662.36	24.056
662.68	24.900
663.01	22.828
663.33	23.355
663.66	23.739
663.98	24.406
664.31	25.630
664.63	24.494
664.96	21.328
665.28	23.566
665.61	23.392
665.93	22.938
666.26	23.732
666.58	24.059
666.91	25.370
667.23	26.517
667.56	23.326
667.88	26.709
668.21	27.292
668.53	24.729
668.86	25.541
669.18	28.358
669.50	25.870
669.83	27.669
670.15	24.889
670.48	23.312
670.80	24.353
671.13	25.690
671.45	23.830
671.77	24.440
672.10	20.333
672.42	21.908
672.75	21.393
673.07	20.951
673.39	20.796
673.72	21.875
674.04	23.725
674.37	21.553
674.69	22.904
675.01	22.594
675.34	25.667
675.66	27.579
675.98	26.680
676.31	25.210
676.63	25.690
676.95	25.367
677.28	28.037
677.60	23.297
677.92	26.160
678.25	23.819
678.57	23.705
678.89	24.850
679.22	22.986
679.54	23.092
679.86	24.771
680.18	21.467
680.51	23.582
680.83	24.733
681.15	23.774
681.48	25.520
681.80	22.631
682.12	22.031
682.44	20.309
682.77	24.033
683.09	25.107
683.41	25.055
683.73	25.166
684.06	25.207
684.38	22.896
684.70	24.806
685.02	25.328
685.34	21.795
685.67	19.406
685.99	20.790
686.31	19.966
686.63	20.318
686.96	20.000
687.28	21.119
687.60	22.645
687.92	21.755
688.24	22.053
688.56	24.699
688.89	26.349
689.21	27.074
689.53	23.382
689.85	26.164
690.17	23.395
690.49	25.053
690.82	24.766
691.14	22.768
691.46	23.207
691.78	24.498
692.10	23.140
692.42	24.351
692.74	24.066
693.06	24.894
693.39	27.310
693.71	23.144
694.03	25.895
694.35	22.727
694.67	24.943
694.99	28.293
695.31	26.471
695.63	26.555
695.95	27.628
696.27	23.096
696.59	26.943
696.91	26.943
697.23	20.423
697.56	26.013
697.88	21.063
698.20	23.750
698.52	24.516
698.84	26.058
699.16	23.272
699.48	23.278
699.80	26.087
700.12	28.052
700.44	28.382
700.76	29.282
701.08	27.874
701.40	29.050
701.72	31.195
702.04	32.955
702.36	26.629
702.68	28.329
703.00	23.823
703.32	26.596
703.64	26.542
703.96	27.855
704.28	29.651
704.60	30.499
704.91	29.674
705.23	29.619
705.55	29.900
705.87	36.545
706.19	29.682
706.51	32.087
706.83	30.909
707.15	28.011
707.47	26.010
707.79	24.570
708.11	25.571
708.43	23.333
708.74	24.235
709.06	28.571
709.38	25.984
709.70	28.779
710.02	32.047
710.34	26.667
710.66	26.567
710.98	30.682
711.29	30.523
711.61	27.729
711.93	27.564
712.25	30.868
712.57	30.882
712.89	29.066
713.20	31.611
713.52	31.579
713.84	27.215
714.16	28.963
714.48	24.713
714.80	32.827
715.11	28.818
715.43	28.487
715.75	28.696
716.07	29.712
716.39	27.900
716.70	29.568
717.02	32.374
717.34	35.336
717.66	33.209
717.97	39.841
718.29	31.481
718.61	30.657
718.93	31.618
719.24	34.948
719.56	29.831
719.88	34.237
720.20	32.095
720.51	33.101
720.83	33.457
721.15	32.836
721.46	31.206
721.78	33.692
722.10	31.698
722.42	33.835
722.73	32.584
723.05	30.738
723.37	30.769
723.68	35.907
724.00	29.268
724.32	36.290
724.63	29.675
724.95	32.636
725.27	36.032
725.58	32.422
725.90	33.577
726.22	32.830
726.53	29.861
726.85	30.375
727.16	28.114
727.48	31.206
727.80	35.985
728.11	28.986
728.43	28.077
728.74	35.484
729.06	34.672
729.38	31.985
729.69	32.384
730.01	30.034
730.32	27.778
730.64	25.084
730.96	28.053
731.27	32.781
731.59	29.052
731.90	29.155
732.22	26.398
732.53	30.650
732.85	26.603
733.16	26.688
733.48	28.239
733.80	31.169
734.11	30.573
734.43	29.290
734.74	22.571
735.06	24.928
735.37	27.746
735.69	28.662
736.00	30.065
736.32	28.660
736.63	28.115
736.95	30.351
737.26	25.510
737.58	28.387
737.89	28.763
738.21	27.986
738.52	28.929
738.83	32.075
739.15	29.231
739.46	36.131
739.78	29.167
740.09	28.000
740.41	30.323
740.72	30.662
741.04	36.296
741.35	38.750
741.66	38.667
741.98	37.264
742.29	35.407
742.61	38.362
742.92	33.937
743.23	35.470
743.55	33.200
743.86	35.965
744.18	38.938
744.49	34.450
744.80	38.967
745.12	40.000
745.43	40.088
745.74	34.685
746.06	36.239
746.37	33.632
746.68	39.367
747.00	38.426
747.31	35.238
747.62	31.858
747.94	35.683
748.25	32.766
748.56	37.004
748.88	36.139
749.19	44.000
749.50	37.674
749.82	32.927
750.13	31.837
750.44	34.307
750.75	29.123
751.07	34.405
751.38	33.798
751.69	31.769
752.01	32.707
752.32	28.881
752.63	31.206
752.94	36.885
753.26	36.800
753.57	31.301
753.88	32.812
754.19	30.000
754.51	34.722
754.82	28.520
755.13	33.208
755.44	27.068
755.75	30.657
756.07	28.369
756.38	25.912
756.69	31.208
757.00	26.647
757.31	26.113
757.63	27.193
757.94	26.542
758.25	25.245
758.56	24.938
758.87	23.925
759.18	27.879
759.50	25.078
759.81	24.611
760.12	25.000
760.43	27.221
760.74	26.630
761.05	25.989
761.36	25.401
761.67	29.830
761.99	28.571
762.30	29.861
762.61	33.969
762.92	33.594
763.23	28.992
763.54	36.400
763.85	29.687
764.16	36.538
764.47	29.658
764.78	32.862
765.10	26.266
765.41	29.204
765.72	26.347
766.03	27.900
766.34	30.000
766.65	34.894
766.96	32.051
767.27	38.071
767.58	43.750
767.89	37.368
768.20	44.253
768.51	41.117
768.82	39.908
769.13	32.927
769.44	31.984
769.75	36.481
770.06	31.651
770.37	40.271
770.68	37.963
770.99	32.000
771.30	27.049
771.61	32.735
771.92	35.246
772.23	38.235
772.54	40.000
772.85	38.220
773.16	42.553
773.47	42.935
773.78	43.147
774.09	42.262
774.39	46.199
774.70	43.827
775.01	50.725
775.32	52.288
775.63	51.316
775.94	42.446
776.25	58.268
776.56	52.985
776.87	58.197
777.18	56.250
777.48	51.908
777.79	53.788
778.10	44.444
778.41	48.214
778.72	41.606
779.03	42.282
779.34	38.926
779.65	43.919
779.95	44.785
780.26	50.980
780.57	53.793
780.88	62.500
781.19	55.639
781.50	52.703
781.80	45.283
782.11	40.678
782.42	43.038
782.73	39.264
783.04	51.351
783.34	51.408
783.65	56.849
783.96	50.746
784.27	44.056
784.57	44.604
784.88	53.704
785.19	62.698
785.50	60.377
785.81	58.955
786.11	63.934
786.42	58.140
786.73	55.752
787.04	68.868
787.34	60.714
787.65	65.000
787.96	56.757
788.26	53.719
788.57	54.237
788.88	58.678
789.19	59.028
789.49	56.818
789.80	57.252
790.11	68.571
790.41	74.257
790.72	68.675
791.03	64.130
791.33	56.977
791.64	73.196
791.95	65.347
792.25	70.000
792.56	90.909
792.87	100.000
793.17	77.215
793.48	79.310
793.79	75.862
794.09	73.864
794.40	57.983
794.70	55.882
795.01	48.148
795.32	54.676
795.62	51.181
795.93	62.069
796.23	51.327
796.54	67.059
796.85	77.027
797.15	97.183
797.46	66.667
797.76	89.157
798.07	75.949
798.37	84.615
798.68	81.818
798.99	60.563
799.29	76.623
799.60	73.864
799.90	84.932
800.21	86.567
800.51	103.448
800.82	107.018
801.12	88.525
801.43	92.424
801.73	77.027
802.04	92.063
802.34	80.247
802.65	103.125
802.95	101.695
803.26	106.250
803.56	80.000
803.87	86.154
804.17	94.118
804.48	100.000
804.78	87.931
805.09	94.118
805.39	105.769
805.70	114.286
806.00	108.197
806.30	78.788
806.61	70.732
806.91	78.481
807.22	85.526
807.52	79.104
807.83	76.056
808.13	90.625
808.43	111.667
808.74	78.947
809.04	91.304
809.35	89.552
809.65	85.526
809.95	104.839
810.26	103.390
810.56	92.063
810.86	134.091
811.17	126.190
811.47	105.000
811.77	92.593
812.08	112.727
812.38	102.000
812.69	147.222
812.99	136.364
813.29	110.204
813.59	128.571
813.90	128.571
814.20	105.455
814.50	93.846
814.81	101.471
815.11	100.000
815.41	104.918
815.72	130.952
816.02	127.273
816.32	128.571
816.62	120.000
816.93	131.707
817.23	150.000
817.53	120.455
817.84	190.909
818.14	134.783
818.44	113.333
818.74	167.647
819.04	137.500
819.35	145.714
819.65	176.471
819.95	200.000
820.25	240.000
820.56	146.154
820.86	147.727
821.16	148.837
821.46	141.026
821.76	132.000
822.07	145.714
822.37	135.000
822.67	157.576
822.97	117.647
823.27	217.857
823.57	159.459
823.88	165.000
824.18	160.000
824.48	154.762
824.78	228.000
825.08	225.000
825.38	167.568
825.69	148.780
825.99	208.333
826.29	165.517
826.59	144.737
826.89	155.263
827.19	173.529
827.49	183.871
827.79	154.545
828.09	118.182
828.39	123.404
828.70	138.776
829.00	177.778
829.30	200.000
829.60	130.000
829.90	320.000
830.20	196.429
830.50	269.565
830.80	213.043
831.10	210.000
831.40	206.667
831.70	147.826
832.00	257.692
832.30	166.667
832.60	256.250
832.90	213.333
833.20	371.429
833.50	196.774
833.80	189.655
834.10	203.125
834.40	242.308
834.70	316.667
835.00	342.857
835.30	174.286
835.60	376.923
835.90	193.103
836.20	335.714
836.50	155.172
836.80	196.000
837.10	175.000
837.40	266.667
837.70	382.353
838.00	177.778
838.30	276.190
838.60	238.095
838.90	219.231
839.19	265.000
839.49	407.143
839.79	350.000
840.09	290.000
840.39	280.952
840.69	252.174
840.99	300.000
841.29	440.000
841.59	283.333
841.88	343.750
842.18	189.655
842.48	266.667
842.78	183.333
843.08	208.696
843.38	165.625
843.68	1000.000
843.97	238.462
844.27	179.310
844.57	257.143
844.87	350.000
845.17	225.926
845.47	1666.667
845.76	444.444
846.06	270.588
846.36	550.000
846.66	392.857
846.96	318.750
847.25	390.909
847.55	363.636
847.85	282.609
848.15	510.000
848.44	335.714
848.74	261.111
849.04	311.765
849.34	570.000
849.63	278.947
849.93	472.727
850.23	1020.000
850.53	450.000
850.82	2350.000
851.12	-4800.000
851.42	4700.000
851.71	295.000
852.01	-1466.667
852.31	270.833
852.61	1766.667
852.90	309.524
853.20	252.000
853.50	335.294
853.79	295.238
854.09	216.667
854.39	337.500
854.68	164.865
854.98	187.097
855.28	166.667
855.57	231.034
855.87	225.926
856.17	226.316
856.46	260.000
856.76	247.059
857.05	189.655
857.35	254.167
857.65	386.667
857.94	239.130
858.24	203.846
858.53	275.000
858.83	281.818
859.13	380.000
859.42	0.000
859.72	522.222
860.01	500.000
860.31	250.000
860.60	315.789
860.90	247.826
861.20	577.778
861.49	458.333
861.79	-5400.000
862.08	662.500
862.38	290.476
862.67	353.846
862.97	305.882
863.26	533.333
863.56	300.000
863.85	533.333
864.15	662.500
864.44	306.667
864.74	816.667
865.03	587.500
865.33	352.632
865.62	418.182
865.92	384.615
866.21	400.000
866.51	0.000
866.80	518.182
867.10	1140.000
867.39	430.769
867.69	454.545
867.98	326.316
868.27	536.364
868.57	289.474
868.86	-3800.000
869.16	356.250
869.45	2600.000
869.75	-4700.000
870.04	458.333
870.33	557.143
870.63	1250.000
870.92	2700.000
871.22	628.571
871.51	370.588
871.80	214.286
872.10	378.571
>>>>>End Processed Spectral Data<<<<<
