SpectraSuite Data File
++++++++++++++++++++++++++++++++++++
Date: Wed May 13 16:25:01 PDT 2015
User: schluterlab
Dark Spectrum Present: Yes
Reference Spectrum Present: Yes
Number of Sampled Component Spectra: 1
Spectrometers: USB2E3373
Integration Time (usec): 3000 (USB2E3373)
Spectra Averaged: 3 (USB2E3373)
Boxcar Smoothing: 0 (USB2E3373)
Correct for Electrical Dark: No (USB2E3373)
Strobe/Lamp Enabled: No (USB2E3373)
Correct for Detector Non-linearity: No (USB2E3373)
Correct for Stray Light: No (USB2E3373)
Number of Pixels in Processed Spectrum: 2048
>>>>>Begin Processed Spectral Data<<<<<
178.53	0.000
178.91	-1200.000
179.29	-1275.000
179.67	-200.000
180.04	-1250.000
180.42	2600.000
180.80	1020.000
181.18	-1000.000
181.56	800.000
181.94	0.000
182.31	-614.286
182.69	1666.667
183.07	-612.500
183.45	-411.111
183.83	527.273
184.20	-490.000
184.58	1950.000
184.96	5700.000
185.34	-880.000
185.72	-712.500
186.09	-2350.000
186.47	2300.000
186.85	2600.000
187.23	4600.000
187.61	-1566.667
187.98	1350.000
188.36	490.909
188.74	436.364
189.12	-800.000
189.49	490.000
189.87	-4400.000
190.25	-1125.000
190.63	392.857
191.00	484.615
191.38	900.000
191.76	-1275.000
192.14	1375.000
192.51	587.500
192.89	883.333
193.27	650.000
193.65	-975.000
194.02	550.000
194.40	700.000
194.78	480.000
195.15	458.333
195.53	580.000
195.91	-1950.000
196.29	337.500
196.66	273.684
197.04	-350.000
197.42	0.000
197.79	590.000
198.17	-4300.000
198.55	614.286
198.92	662.500
199.30	820.000
199.68	0.000
200.05	322.222
200.43	557.143
200.81	4300.000
201.18	1433.333
201.56	-1566.667
201.94	411.111
202.31	577.778
202.69	425.000
203.07	540.000
203.44	0.000
203.82	1150.000
204.19	742.857
204.57	428.571
204.95	625.000
205.32	1533.333
205.70	581.818
206.08	378.571
206.45	2650.000
206.83	356.250
207.20	1050.000
207.58	560.000
207.96	316.667
208.33	662.500
208.71	-816.667
209.08	700.000
209.46	611.111
209.84	463.636
210.21	-1533.333
210.59	1225.000
210.96	-500.000
211.34	2450.000
211.71	690.000
212.09	733.333
212.46	0.000
212.84	1700.000
213.22	1200.000
213.59	-4000.000
213.97	800.000
214.34	628.571
214.72	554.545
215.09	900.000
215.47	-2100.000
215.84	-2350.000
216.22	1600.000
216.59	342.857
216.97	1225.000
217.34	472.727
217.72	-683.333
218.09	0.000
218.47	-4400.000
218.84	688.889
219.22	742.857
219.59	1300.000
219.97	-628.571
220.34	1140.000
220.72	-1600.000
221.09	371.429
221.47	1500.000
221.84	-900.000
222.22	0.000
222.59	1250.000
222.97	-2300.000
223.34	1220.000
223.72	438.462
224.09	1140.000
224.46	2200.000
224.84	-5300.000
225.21	-860.000
225.59	-4800.000
225.96	540.000
226.34	335.000
226.71	2250.000
227.08	725.000
227.46	510.000
227.83	-825.000
228.21	-2100.000
228.58	511.111
228.95	-2050.000
229.33	-2500.000
229.70	1366.667
230.08	757.143
230.45	-920.000
230.82	425.000
231.20	900.000
231.57	671.429
231.95	458.333
232.32	259.091
232.69	372.727
233.07	814.286
233.44	338.462
233.81	-1733.333
234.19	231.579
234.56	475.000
234.93	366.667
235.31	409.091
235.68	323.077
236.05	300.000
236.43	181.818
236.80	273.684
237.17	3800.000
237.55	247.619
237.92	210.714
238.29	223.810
238.67	145.161
239.04	172.414
239.41	138.889
239.79	113.043
240.16	95.238
240.53	104.545
240.91	60.784
241.28	86.000
241.65	94.000
242.02	72.464
242.40	58.065
242.77	63.333
243.14	58.065
243.51	59.551
243.89	63.529
244.26	34.444
244.63	56.989
245.00	38.298
245.38	42.574
245.75	40.187
246.12	36.697
246.49	47.445
246.87	48.000
247.24	33.077
247.61	36.429
247.98	39.216
248.36	30.405
248.73	28.025
249.10	28.025
249.47	27.684
249.84	29.947
250.22	25.668
250.59	28.402
250.96	25.253
251.33	29.858
251.70	29.703
252.08	23.333
252.45	18.386
252.82	21.739
253.19	24.255
253.56	18.431
253.94	23.651
254.31	16.406
254.68	21.154
255.05	19.926
255.42	20.325
255.79	16.544
256.16	19.134
256.54	13.781
256.91	14.947
257.28	14.748
257.65	16.172
258.02	18.944
258.39	15.773
258.76	15.385
259.14	16.369
259.51	14.894
259.88	10.248
260.25	13.293
260.62	14.451
260.99	13.665
261.36	13.514
261.73	13.754
262.10	12.791
262.47	14.930
262.85	13.649
263.22	9.402
263.59	14.815
263.96	12.637
264.33	13.838
264.70	12.368
265.07	13.811
265.44	13.889
265.81	10.949
266.18	11.558
266.55	12.683
266.92	9.337
267.29	10.648
267.66	11.009
268.03	12.045
268.40	11.682
268.77	8.353
269.14	10.811
269.51	13.770
269.88	11.888
270.25	9.932
270.62	12.360
270.99	14.839
271.36	10.730
271.73	10.748
272.10	10.435
272.47	11.828
272.84	12.121
273.21	10.692
273.58	8.734
273.95	9.015
274.32	10.124
274.69	9.422
275.06	10.433
275.43	8.936
275.80	10.421
276.17	8.758
276.54	9.356
276.91	10.672
277.28	9.180
277.65	9.284
278.02	7.246
278.39	10.742
278.76	9.636
279.13	10.755
279.50	11.173
279.87	9.363
280.23	6.786
280.60	8.704
280.97	7.948
281.34	10.088
281.71	10.727
282.08	9.981
282.45	9.818
282.82	9.059
283.19	6.952
283.56	8.246
283.92	9.306
284.29	9.700
284.66	7.804
285.03	5.967
285.40	7.923
285.77	9.933
286.14	8.463
286.51	8.500
286.87	7.692
287.24	10.912
287.61	8.026
287.98	8.442
288.35	6.815
288.72	8.723
289.08	8.451
289.45	5.766
289.82	8.130
290.19	7.535
290.56	8.729
290.93	6.042
291.29	8.129
291.66	7.670
292.03	8.866
292.40	10.279
292.77	6.953
293.13	7.313
293.50	6.851
293.87	6.519
294.24	5.481
294.60	6.841
294.97	7.267
295.34	9.450
295.71	6.818
296.08	6.980
296.44	6.190
296.81	7.001
297.18	8.943
297.55	5.145
297.91	6.596
298.28	8.166
298.65	7.180
299.02	5.797
299.38	6.507
299.75	3.639
300.12	5.364
300.48	6.000
300.85	5.795
301.22	7.134
301.59	4.419
301.95	6.423
302.32	5.520
302.69	6.093
303.05	5.333
303.42	4.691
303.79	6.682
304.15	4.312
304.52	5.562
304.89	5.459
305.25	6.148
305.62	5.889
305.99	6.375
306.35	6.600
306.72	5.269
307.09	5.549
307.45	6.194
307.82	4.688
308.19	7.285
308.55	6.688
308.92	6.337
309.29	5.069
309.65	5.196
310.02	5.708
310.38	5.591
310.75	5.280
311.12	5.425
311.48	6.479
311.85	6.709
312.22	5.619
312.58	5.405
312.95	5.702
313.31	5.146
313.68	5.509
314.05	7.298
314.41	5.327
314.78	4.632
315.14	6.058
315.51	5.252
315.87	6.139
316.24	6.256
316.61	5.750
316.97	4.990
317.34	4.795
317.70	6.023
318.07	4.909
318.43	5.479
318.80	7.310
319.16	6.121
319.53	5.347
319.89	6.190
320.26	7.200
320.62	6.548
320.99	6.364
321.35	5.758
321.72	6.879
322.08	7.502
322.45	6.269
322.81	7.267
323.18	7.707
323.54	6.772
323.91	7.736
324.27	6.119
324.64	6.710
325.00	6.673
325.37	6.369
325.73	7.899
326.10	7.061
326.46	6.631
326.83	7.852
327.19	7.088
327.56	6.620
327.92	7.087
328.29	7.808
328.65	8.195
329.01	8.123
329.38	8.326
329.74	8.310
330.11	7.823
330.47	7.346
330.84	8.732
331.20	7.468
331.56	7.064
331.93	7.963
332.29	8.607
332.66	8.584
333.02	8.867
333.38	7.678
333.75	8.111
334.11	7.384
334.48	8.163
334.84	8.548
335.20	8.273
335.57	7.888
335.93	7.321
336.29	6.777
336.66	8.206
337.02	7.511
337.38	7.407
337.75	7.130
338.11	7.878
338.47	7.643
338.84	8.158
339.20	6.972
339.56	8.394
339.93	6.909
340.29	6.793
340.65	7.576
341.02	7.941
341.38	6.851
341.74	7.368
342.11	8.035
342.47	7.137
342.83	8.219
343.20	8.485
343.56	8.256
343.92	7.105
344.28	7.228
344.65	7.567
345.01	7.576
345.37	6.261
345.73	7.530
346.10	7.502
346.46	6.949
346.82	8.649
347.19	6.600
347.55	7.553
347.91	8.495
348.27	8.381
348.63	7.943
349.00	7.929
349.36	7.635
349.72	6.977
350.08	6.159
350.45	7.648
350.81	7.311
351.17	8.023
351.53	7.043
351.89	6.353
352.26	7.814
352.62	7.378
352.98	7.618
353.34	7.477
353.70	6.710
354.07	7.581
354.43	8.254
354.79	7.080
355.15	7.422
355.51	7.994
355.87	7.510
356.24	6.922
356.60	7.458
356.96	6.195
357.32	6.296
357.68	8.110
358.04	8.234
358.40	8.234
358.77	7.668
359.13	7.103
359.49	7.451
359.85	6.746
360.21	7.097
360.57	8.093
360.93	8.538
361.29	8.239
361.66	6.889
362.02	8.060
362.38	8.213
362.74	7.440
363.10	6.958
363.46	7.263
363.82	6.576
364.18	7.416
364.54	8.024
364.90	7.295
365.26	7.426
365.62	7.889
365.98	7.232
366.35	6.948
366.71	8.098
367.07	6.773
367.43	7.983
367.79	7.923
368.15	8.549
368.51	7.122
368.87	7.138
369.23	7.169
369.59	7.169
369.95	7.206
370.31	7.692
370.67	7.609
371.03	9.139
371.39	7.726
371.75	7.868
372.11	7.681
372.47	7.698
372.83	7.493
373.19	7.587
373.55	7.391
373.91	8.395
374.27	7.835
374.63	6.909
374.99	7.839
375.35	7.467
375.71	8.156
376.07	8.505
376.42	7.221
376.78	8.350
377.14	7.123
377.50	8.543
377.86	7.048
378.22	8.217
378.58	6.767
378.94	7.417
379.30	7.252
379.66	8.566
380.02	7.617
380.38	7.590
380.74	8.403
381.09	8.252
381.45	7.253
381.81	8.354
382.17	8.280
382.53	8.302
382.89	8.395
383.25	7.317
383.61	8.426
383.97	8.193
384.32	7.673
384.68	7.807
385.04	8.666
385.40	8.483
385.76	8.354
386.12	8.679
386.48	8.874
386.83	8.659
387.19	8.163
387.55	8.905
387.91	8.283
388.27	8.093
388.62	8.851
388.98	8.477
389.34	8.824
389.70	8.400
390.06	8.682
390.42	8.366
390.77	8.842
391.13	9.062
391.49	8.122
391.85	8.211
392.20	7.760
392.56	7.891
392.92	8.299
393.28	8.225
393.64	9.053
393.99	9.224
394.35	8.685
394.71	8.908
395.07	7.788
395.42	8.653
395.78	8.206
396.14	8.876
396.50	9.712
396.85	8.900
397.21	8.570
397.57	9.113
397.92	8.834
398.28	7.679
398.64	8.542
399.00	9.289
399.35	8.291
399.71	8.507
400.07	8.516
400.42	8.712
400.78	8.866
401.14	8.049
401.49	8.716
401.85	8.530
402.21	7.904
402.57	8.020
402.92	8.764
403.28	9.369
403.63	9.035
403.99	7.771
404.35	8.545
404.70	7.914
405.06	8.853
405.42	8.921
405.77	8.343
406.13	8.634
406.49	8.693
406.84	8.328
407.20	8.629
407.55	8.998
407.91	9.400
408.27	8.870
408.62	9.151
408.98	8.211
409.34	8.364
409.69	8.710
410.05	9.046
410.40	8.807
410.76	8.184
411.11	8.806
411.47	9.712
411.83	9.285
412.18	8.658
412.54	8.780
412.89	9.217
413.25	8.678
413.60	8.833
413.96	8.561
414.31	9.235
414.67	9.506
415.03	8.808
415.38	8.763
415.74	9.582
416.09	9.406
416.45	9.438
416.80	8.394
417.16	9.450
417.51	9.821
417.87	9.313
418.22	9.022
418.58	9.361
418.93	9.398
419.29	9.166
419.64	10.894
420.00	9.085
420.35	9.623
420.71	9.743
421.06	8.831
421.42	9.181
421.77	9.081
422.12	8.815
422.48	8.743
422.83	9.377
423.19	8.453
423.54	8.416
423.90	8.812
424.25	8.934
424.61	9.048
424.96	8.805
425.31	9.358
425.67	8.989
426.02	9.029
426.38	9.524
426.73	8.836
427.09	8.754
427.44	8.683
427.79	8.913
428.15	8.810
428.50	8.660
428.85	10.131
429.21	8.172
429.56	8.813
429.92	8.505
430.27	8.838
430.62	8.858
430.98	8.926
431.33	9.175
431.68	8.586
432.04	8.520
432.39	8.567
432.74	9.336
433.10	9.394
433.45	9.388
433.80	8.537
434.16	9.776
434.51	9.316
434.86	9.236
435.22	8.783
435.57	8.815
435.92	8.953
436.28	9.668
436.63	9.934
436.98	9.159
437.34	9.958
437.69	9.393
438.04	9.387
438.39	9.493
438.75	9.413
439.10	9.162
439.45	9.976
439.81	9.668
440.16	9.768
440.51	9.256
440.86	9.844
441.22	8.954
441.57	9.979
441.92	9.672
442.27	9.419
442.63	9.584
442.98	9.915
443.33	9.348
443.68	9.293
444.03	9.663
444.39	8.569
444.74	9.632
445.09	9.865
445.44	9.076
445.79	9.352
446.15	10.482
446.50	9.801
446.85	9.404
447.20	9.128
447.55	9.045
447.91	9.708
448.26	9.405
448.61	9.949
448.96	10.410
449.31	10.236
449.66	9.848
450.02	9.304
450.37	9.921
450.72	9.927
451.07	9.141
451.42	9.240
451.77	9.924
452.12	9.931
452.47	10.075
452.83	9.907
453.18	10.208
453.53	9.709
453.88	9.451
454.23	10.161
454.58	10.357
454.93	10.807
455.28	9.414
455.63	9.527
455.98	10.774
456.34	10.050
456.69	9.706
457.04	10.155
457.39	10.053
457.74	9.402
458.09	10.178
458.44	10.604
458.79	9.273
459.14	10.440
459.49	9.457
459.84	9.418
460.19	9.546
460.54	9.896
460.89	9.929
461.24	10.383
461.59	11.098
461.94	9.679
462.29	9.970
462.64	9.828
462.99	9.954
463.34	10.800
463.69	10.819
464.04	10.435
464.39	10.029
464.74	10.576
465.09	10.736
465.44	9.529
465.79	10.403
466.14	9.633
466.49	9.622
466.84	10.450
467.19	9.656
467.54	11.312
467.89	10.024
468.24	10.995
468.59	11.111
468.94	9.896
469.29	9.897
469.64	11.178
469.99	10.825
470.34	9.908
470.68	10.273
471.03	10.680
471.38	10.910
471.73	10.593
472.08	10.987
472.43	8.857
472.78	9.612
473.13	10.398
473.48	10.112
473.83	10.244
474.17	10.392
474.52	10.174
474.87	10.566
475.22	10.331
475.57	9.726
475.92	10.037
476.27	9.470
476.61	9.818
476.96	9.566
477.31	9.524
477.66	10.284
478.01	9.932
478.36	10.524
478.70	9.709
479.05	10.064
479.40	9.724
479.75	9.914
480.10	9.592
480.45	9.329
480.79	9.173
481.14	9.393
481.49	9.824
481.84	9.511
482.19	9.995
482.53	10.321
482.88	10.377
483.23	9.393
483.58	9.645
483.92	10.309
484.27	9.542
484.62	9.569
484.97	9.105
485.31	9.281
485.66	8.063
486.01	7.480
486.36	7.251
486.70	7.284
487.05	7.691
487.40	7.916
487.75	8.160
488.09	8.826
488.44	8.939
488.79	8.969
489.13	9.664
489.48	8.646
489.83	9.107
490.17	10.127
490.52	9.389
490.87	9.588
491.22	9.686
491.56	9.112
491.91	9.632
492.26	9.463
492.60	9.631
492.95	9.214
493.30	9.486
493.64	9.753
493.99	9.424
494.34	9.158
494.68	9.936
495.03	9.868
495.37	9.958
495.72	9.211
496.07	9.559
496.41	9.381
496.76	9.455
497.11	9.770
497.45	9.967
497.80	10.317
498.14	9.614
498.49	9.317
498.84	10.115
499.18	10.000
499.53	9.259
499.87	9.599
500.22	10.127
500.56	10.437
500.91	9.471
501.26	9.436
501.60	9.919
501.95	9.716
502.29	9.934
502.64	9.777
502.98	9.210
503.33	9.644
503.67	9.745
504.02	10.196
504.36	9.967
504.71	9.722
505.06	10.554
505.40	9.334
505.75	9.884
506.09	9.572
506.44	9.620
506.78	9.985
507.13	9.692
507.47	10.707
507.82	10.689
508.16	9.878
508.51	10.350
508.85	10.278
509.19	10.153
509.54	10.051
509.88	10.613
510.23	9.820
510.57	11.507
510.92	10.202
511.26	10.586
511.61	10.892
511.95	9.916
512.30	9.968
512.64	10.639
512.98	10.772
513.33	10.814
513.67	11.206
514.02	10.281
514.36	11.524
514.70	10.736
515.05	10.764
515.39	11.554
515.74	10.417
516.08	11.794
516.42	11.154
516.77	11.594
517.11	10.766
517.46	11.569
517.80	11.847
518.14	10.191
518.49	11.319
518.83	11.705
519.17	11.316
519.52	11.262
519.86	11.865
520.20	11.850
520.55	11.730
520.89	12.165
521.23	12.183
521.58	11.525
521.92	11.390
522.26	11.531
522.61	11.776
522.95	11.418
523.29	11.564
523.64	11.463
523.98	11.522
524.32	12.244
524.66	11.906
525.01	11.581
525.35	12.020
525.69	11.392
526.04	11.713
526.38	12.325
526.72	11.472
527.06	12.178
527.41	11.386
527.75	12.090
528.09	12.267
528.43	11.918
528.78	12.723
529.12	11.576
529.46	12.002
529.80	12.252
530.15	12.025
530.49	11.262
530.83	13.354
531.17	12.924
531.51	13.489
531.86	12.774
532.20	12.516
532.54	13.389
532.88	12.452
533.22	11.805
533.57	12.222
533.91	11.740
534.25	11.847
534.59	10.799
534.93	11.719
535.27	11.768
535.62	11.477
535.96	12.304
536.30	11.634
536.64	12.428
536.98	12.674
537.32	12.047
537.66	12.067
538.01	13.035
538.35	11.765
538.69	12.763
539.03	11.566
539.37	11.629
539.71	11.017
540.05	11.830
540.39	12.691
540.73	12.354
541.07	12.524
541.42	11.937
541.76	12.323
542.10	12.678
542.44	11.722
542.78	12.516
543.12	11.580
543.46	12.787
543.80	12.752
544.14	11.938
544.48	12.444
544.82	11.738
545.16	12.167
545.50	12.468
545.84	12.298
546.18	12.795
546.52	13.008
546.86	11.546
547.20	12.812
547.54	12.358
547.88	12.564
548.22	12.142
548.56	11.824
548.90	11.780
549.24	11.919
549.58	12.824
549.92	11.607
550.26	12.216
550.60	12.241
550.94	11.268
551.28	12.143
551.62	12.150
551.96	12.140
552.30	12.901
552.64	12.035
552.98	13.153
553.32	12.475
553.66	12.952
554.00	11.942
554.34	11.801
554.68	13.448
555.02	12.059
555.36	11.761
555.69	11.502
556.03	12.382
556.37	12.960
556.71	12.005
557.05	12.395
557.39	12.596
557.73	12.562
558.07	13.270
558.41	11.795
558.75	12.858
559.08	12.603
559.42	12.094
559.76	12.574
560.10	12.491
560.44	12.299
560.78	12.309
561.12	12.071
561.45	11.930
561.79	12.657
562.13	11.268
562.47	12.295
562.81	12.762
563.15	12.040
563.48	12.003
563.82	11.872
564.16	11.445
564.50	11.003
564.84	11.378
565.17	11.326
565.51	11.629
565.85	12.119
566.19	11.835
566.52	11.716
566.86	11.151
567.20	11.910
567.54	11.416
567.88	11.407
568.21	11.058
568.55	11.223
568.89	10.214
569.23	10.116
569.56	9.879
569.90	9.811
570.24	8.934
570.57	9.181
570.91	9.341
571.25	8.709
571.59	9.013
571.92	9.044
572.26	8.983
572.60	9.279
572.93	9.145
573.27	9.287
573.61	9.380
573.95	9.354
574.28	8.643
574.62	8.528
574.96	8.507
575.29	8.778
575.63	9.045
575.97	9.060
576.30	9.241
576.64	8.542
576.98	8.556
577.31	8.341
577.65	8.252
577.98	8.042
578.32	7.903
578.66	8.532
578.99	8.560
579.33	8.739
579.67	8.319
580.00	8.487
580.34	8.685
580.67	8.769
581.01	8.523
581.35	8.325
581.68	8.090
582.02	7.854
582.35	8.083
582.69	8.338
583.02	8.328
583.36	8.577
583.70	8.891
584.03	8.804
584.37	9.117
584.70	8.673
585.04	8.929
585.37	8.691
585.71	8.529
586.04	9.084
586.38	8.986
586.72	8.782
587.05	8.802
587.39	8.522
587.72	8.786
588.06	8.351
588.39	9.026
588.73	8.859
589.06	9.162
589.40	9.428
589.73	9.328
590.07	9.609
590.40	9.280
590.73	9.368
591.07	9.931
591.40	9.911
591.74	10.043
592.07	9.511
592.41	9.797
592.74	9.288
593.08	9.194
593.41	9.111
593.75	8.776
594.08	9.252
594.41	8.943
594.75	9.649
595.08	8.948
595.42	9.632
595.75	9.330
596.09	9.839
596.42	10.452
596.75	10.131
597.09	10.433
597.42	9.781
597.75	9.444
598.09	10.348
598.42	9.880
598.76	9.445
599.09	9.312
599.42	9.352
599.76	9.261
600.09	8.743
600.42	9.021
600.76	9.071
601.09	9.253
601.42	9.551
601.76	9.715
602.09	9.130
602.42	9.912
602.76	10.439
603.09	9.441
603.42	9.606
603.76	9.261
604.09	8.996
604.42	9.499
604.76	10.502
605.09	9.786
605.42	9.363
605.75	9.768
606.09	9.557
606.42	9.236
606.75	9.996
607.09	9.879
607.42	9.713
607.75	8.565
608.08	9.249
608.42	10.533
608.75	9.423
609.08	9.621
609.41	10.090
609.75	10.005
610.08	10.792
610.41	10.196
610.74	9.130
611.07	10.375
611.41	10.304
611.74	10.106
612.07	10.197
612.40	10.598
612.73	9.842
613.07	10.614
613.40	10.269
613.73	9.491
614.06	9.946
614.39	10.068
614.72	10.316
615.06	10.294
615.39	9.501
615.72	10.072
616.05	10.473
616.38	10.395
616.71	10.629
617.05	10.306
617.38	10.583
617.71	10.330
618.04	10.697
618.37	10.467
618.70	10.828
619.03	11.776
619.36	11.881
619.69	11.972
620.03	11.676
620.36	11.430
620.69	12.534
621.02	11.947
621.35	11.433
621.68	11.215
622.01	12.229
622.34	12.103
622.67	11.483
623.00	10.932
623.33	11.222
623.66	12.294
623.99	11.708
624.32	10.913
624.65	11.229
624.99	11.898
625.32	11.513
625.65	11.195
625.98	11.606
626.31	11.897
626.64	11.837
626.97	12.801
627.30	12.136
627.63	12.469
627.96	12.868
628.29	12.511
628.62	13.449
628.95	13.962
629.28	13.139
629.61	13.657
629.94	13.619
630.26	12.869
630.59	12.488
630.92	12.835
631.25	11.945
631.58	13.113
631.91	13.185
632.24	13.713
632.57	14.481
632.90	13.706
633.23	13.647
633.56	14.915
633.89	15.855
634.22	14.756
634.55	15.858
634.88	14.012
635.20	14.217
635.53	14.940
635.86	14.109
636.19	15.059
636.52	14.302
636.85	12.944
637.18	12.097
637.51	16.667
637.83	13.317
638.16	13.683
638.49	14.610
638.82	13.906
639.15	15.125
639.48	15.337
639.81	14.879
640.13	15.104
640.46	15.973
640.79	15.984
641.12	14.993
641.45	14.944
641.77	16.053
642.10	15.058
642.43	13.814
642.76	16.563
643.09	16.718
643.41	16.237
643.74	18.673
644.07	15.549
644.40	16.564
644.73	16.535
645.05	17.274
645.38	16.114
645.71	17.552
646.04	16.611
646.36	18.531
646.69	17.893
647.02	15.136
647.35	19.759
647.67	17.876
648.00	16.911
648.33	14.686
648.66	15.909
648.98	17.241
649.31	15.845
649.64	15.994
649.96	15.350
650.29	16.588
650.62	16.019
650.94	18.639
651.27	19.257
651.60	16.473
651.92	16.134
652.25	16.612
652.58	17.601
652.90	16.272
653.23	14.484
653.56	16.378
653.88	15.689
654.21	17.852
654.54	15.842
654.86	17.601
655.19	13.378
655.52	8.727
655.84	5.558
656.17	6.742
656.49	9.088
656.82	9.659
657.15	7.539
657.47	5.906
657.80	4.776
658.13	5.077
658.45	7.732
658.78	8.434
659.10	9.064
659.43	9.871
659.75	10.496
660.08	12.342
660.41	13.594
660.73	15.883
661.06	16.561
661.38	19.273
661.71	20.000
662.03	17.554
662.36	18.091
662.68	18.072
663.01	18.384
663.33	17.622
663.66	16.807
663.98	13.823
664.31	17.437
664.63	16.802
664.96	16.700
665.28	19.057
665.61	17.739
665.93	15.292
666.26	18.053
666.58	19.247
666.91	17.970
667.23	18.427
667.56	17.495
667.88	19.017
668.21	20.256
668.53	20.607
668.86	17.316
669.18	18.550
669.50	18.696
669.83	21.569
670.15	18.444
670.48	19.608
670.80	17.241
671.13	21.868
671.45	18.085
671.77	20.570
672.10	17.375
672.42	14.841
672.75	16.584
673.07	14.789
673.39	15.732
673.72	17.773
674.04	17.843
674.37	17.476
674.69	15.951
675.01	17.364
675.34	19.302
675.66	21.263
675.98	18.941
676.31	18.067
676.63	18.259
676.95	16.771
677.28	17.290
677.60	18.242
677.92	17.722
678.25	17.864
678.57	17.928
678.89	19.238
679.22	18.861
679.54	16.603
679.86	15.780
680.18	16.458
680.51	17.021
680.83	16.904
681.15	18.679
681.48	17.580
681.80	14.894
682.12	15.709
682.44	15.280
682.77	17.719
683.09	19.528
683.41	18.847
683.73	19.868
684.06	17.355
684.38	18.200
684.70	17.442
685.02	17.636
685.34	16.300
685.67	15.559
685.99	14.433
686.31	15.700
686.63	13.958
686.96	15.536
687.28	17.148
687.60	16.304
687.92	15.539
688.24	14.829
688.56	18.072
688.89	17.842
689.21	19.214
689.53	17.954
689.85	19.069
690.17	14.700
690.49	20.170
690.82	19.860
691.14	16.964
691.46	16.667
691.78	19.277
692.10	17.149
692.42	17.764
692.74	18.257
693.06	18.723
693.39	19.302
693.71	18.341
694.03	18.947
694.35	17.965
694.67	15.561
694.99	19.024
695.31	18.382
695.63	18.421
695.95	18.093
696.27	19.036
696.59	19.948
696.91	18.135
697.23	16.432
697.56	16.844
697.88	16.155
698.20	17.292
698.52	17.634
698.84	17.817
699.16	16.590
699.48	16.152
699.80	18.841
700.12	23.636
700.44	19.363
700.76	21.547
701.08	17.816
701.40	20.950
701.72	22.157
702.04	23.011
702.36	17.564
702.68	20.963
703.00	21.884
703.32	18.085
703.64	21.180
703.96	18.384
704.28	22.674
704.60	23.167
704.91	21.365
705.23	25.513
705.55	24.917
705.87	24.917
706.19	20.141
706.51	23.676
706.83	24.545
707.15	21.849
707.47	21.212
707.79	20.147
708.11	20.548
708.43	20.476
708.74	15.306
709.06	18.961
709.38	21.522
709.70	24.419
710.02	22.255
710.34	20.000
710.66	22.687
710.98	23.011
711.29	21.802
711.61	25.074
711.93	18.590
712.25	23.151
712.57	25.368
712.89	19.377
713.20	20.365
713.52	24.013
713.84	21.203
714.16	21.951
714.48	22.414
714.80	22.492
715.11	23.631
715.43	21.068
715.75	22.319
716.07	23.642
716.39	19.122
716.70	25.581
717.02	23.022
717.34	23.322
717.66	24.627
717.97	25.100
718.29	22.963
718.61	25.547
718.93	24.632
719.24	24.567
719.56	22.034
719.88	19.661
720.20	24.662
720.51	28.223
720.83	22.305
721.15	23.134
721.46	20.922
721.78	28.674
722.10	22.642
722.42	30.827
722.73	23.970
723.05	20.492
723.37	27.126
723.68	23.938
724.00	23.984
724.32	25.403
724.63	27.642
724.95	19.665
725.27	23.887
725.58	27.734
725.90	29.562
726.22	23.019
726.53	18.750
726.85	21.843
727.16	24.199
727.48	26.241
727.80	24.621
728.11	24.638
728.43	23.077
728.74	17.204
729.06	29.927
729.38	29.412
729.69	25.623
730.01	20.137
730.32	20.486
730.64	22.408
730.96	16.172
731.27	25.497
731.59	22.018
731.90	22.157
732.22	20.497
732.53	19.814
732.85	18.590
733.16	22.508
733.48	20.930
733.80	19.481
734.11	18.471
734.43	20.118
734.74	19.429
735.06	19.198
735.37	21.098
735.69	17.834
736.00	25.163
736.32	21.495
736.63	19.808
736.95	22.684
737.26	17.347
737.58	17.742
737.89	24.415
738.21	21.843
738.52	25.000
738.83	22.642
739.15	22.308
739.46	25.182
739.78	21.875
740.09	23.692
740.41	24.194
740.72	21.951
741.04	24.815
741.35	23.333
741.66	29.333
741.98	24.528
742.29	27.273
742.61	30.603
742.92	26.244
743.23	27.350
743.55	26.000
743.86	26.754
744.18	29.204
744.49	33.014
744.80	30.986
745.12	35.909
745.43	25.991
745.74	29.279
746.06	27.523
746.37	29.148
746.68	23.529
747.00	30.556
747.31	32.381
747.62	24.336
747.94	29.515
748.25	27.234
748.56	29.515
748.88	22.277
749.19	31.000
749.50	25.581
749.82	27.236
750.13	25.714
750.44	24.453
750.75	25.263
751.07	23.473
751.38	24.739
751.69	24.188
752.01	25.564
752.32	21.661
752.63	24.823
752.94	22.951
753.26	30.000
753.57	21.951
753.88	30.078
754.19	24.286
754.51	27.431
754.82	21.300
755.13	23.019
755.44	23.684
755.75	22.993
756.07	18.440
756.38	18.613
756.69	24.161
757.00	22.156
757.31	19.288
757.63	18.421
757.94	16.622
758.25	18.382
758.56	18.272
758.87	16.935
759.18	20.606
759.50	18.495
759.81	17.757
760.12	18.750
760.43	20.344
760.74	19.293
761.05	19.209
761.36	17.914
761.67	21.023
761.99	18.634
762.30	23.958
762.61	27.099
762.92	23.828
763.23	26.891
763.54	25.200
763.85	24.609
764.16	27.692
764.47	25.475
764.78	25.442
765.10	16.456
765.41	20.944
765.72	17.665
766.03	19.436
766.34	18.667
766.65	28.085
766.96	26.923
767.27	31.472
767.58	32.812
767.89	36.842
768.20	37.931
768.51	26.904
768.82	26.147
769.13	22.358
769.44	23.887
769.75	28.326
770.06	23.394
770.37	30.317
770.68	29.167
770.99	23.111
771.30	20.902
771.61	27.803
771.92	24.180
772.23	29.832
772.54	26.667
772.85	29.319
773.16	32.447
773.47	31.522
773.78	32.995
774.09	27.976
774.39	34.503
774.70	32.716
775.01	40.580
775.32	48.366
775.63	38.158
775.94	34.532
776.25	47.244
776.56	48.507
776.87	42.623
777.18	35.156
777.48	44.275
777.79	37.121
778.10	43.704
778.41	40.179
778.72	34.307
779.03	40.940
779.34	39.597
779.65	32.432
779.95	31.902
780.26	33.987
780.57	35.172
780.88	47.656
781.19	42.857
781.50	45.270
781.80	35.849
782.11	31.073
782.42	30.380
782.73	30.061
783.04	41.216
783.34	40.845
783.65	47.945
783.96	41.791
784.27	30.070
784.57	33.813
784.88	38.889
785.19	49.206
785.50	40.566
785.81	51.493
786.11	50.000
786.42	40.310
786.73	48.673
787.04	48.113
787.34	47.321
787.65	46.000
787.96	49.550
788.26	31.405
788.57	56.780
788.88	50.413
789.19	42.361
789.49	43.182
789.80	29.771
790.11	57.143
790.41	56.436
790.72	56.627
791.03	66.304
791.33	54.651
791.64	59.794
791.95	58.416
792.25	61.111
792.56	67.532
792.87	62.821
793.17	70.886
793.48	70.115
793.79	75.862
794.09	57.955
794.40	48.739
794.70	51.471
795.01	46.667
795.32	37.410
795.62	50.394
795.93	37.069
796.23	51.327
796.54	54.118
796.85	51.351
797.15	77.465
797.46	59.091
797.76	67.470
798.07	64.557
798.37	83.077
798.68	57.576
798.99	63.380
799.29	72.727
799.60	60.227
799.90	87.671
800.21	82.090
800.51	72.414
800.82	94.737
801.12	68.852
801.43	78.788
801.73	78.378
802.04	77.778
802.34	74.074
802.65	85.938
802.95	101.695
803.26	93.750
803.56	60.000
803.87	72.308
804.17	69.118
804.48	90.741
804.78	82.759
805.09	75.000
805.39	86.538
805.70	89.286
806.00	96.721
806.30	60.606
806.61	75.610
806.91	54.430
807.22	56.579
807.52	56.716
807.83	83.099
808.13	75.000
808.43	68.333
808.74	63.158
809.04	62.319
809.35	80.597
809.65	63.158
809.95	98.387
810.26	77.966
810.56	84.127
810.86	147.727
811.17	111.905
811.47	105.000
811.77	103.704
812.08	96.364
812.38	98.000
812.69	127.778
812.99	127.273
813.29	100.000
813.59	95.238
813.90	97.959
814.20	101.818
814.50	63.077
814.81	85.294
815.11	106.122
815.41	86.885
815.72	121.429
816.02	96.364
816.32	107.143
816.62	102.500
816.93	102.439
817.23	138.095
817.53	115.909
817.84	145.455
818.14	134.783
818.44	108.889
818.74	152.941
819.04	115.000
819.35	100.000
819.65	173.529
819.95	132.143
820.25	205.000
820.56	161.538
820.86	136.364
821.16	111.628
821.46	133.333
821.76	98.000
822.07	142.857
822.37	117.500
822.67	130.303
822.97	96.078
823.27	167.857
823.57	124.324
823.88	112.500
824.18	160.000
824.48	114.286
824.78	200.000
825.08	183.333
825.38	135.135
825.69	129.268
825.99	183.333
826.29	137.931
826.59	150.000
826.89	134.211
827.19	123.529
827.49	177.419
827.79	131.818
828.09	104.545
828.39	117.021
828.70	110.204
829.00	140.741
829.30	145.161
829.60	110.000
829.90	320.000
830.20	178.571
830.50	130.435
830.80	186.957
831.10	200.000
831.40	140.000
831.70	204.348
832.00	238.462
832.30	192.593
832.60	287.500
832.90	196.667
833.20	350.000
833.50	161.290
833.80	182.759
834.10	168.750
834.40	173.077
834.70	238.889
835.00	314.286
835.30	117.143
835.60	292.308
835.90	165.517
836.20	271.429
836.50	165.517
836.80	176.000
837.10	177.778
837.40	247.619
837.70	288.235
838.00	218.519
838.30	204.762
838.60	242.857
838.90	211.538
839.19	240.000
839.49	371.429
839.79	275.000
840.09	215.000
840.39	242.857
840.69	234.783
840.99	205.556
841.29	410.000
841.59	316.667
841.88	325.000
842.18	165.517
842.48	228.571
842.78	143.333
843.08	217.391
843.38	181.250
843.68	733.333
843.97	215.385
844.27	179.310
844.57	314.286
844.87	387.500
845.17	185.185
845.47	1033.333
845.76	411.111
846.06	270.588
846.36	512.500
846.66	350.000
846.96	325.000
847.25	390.909
847.55	372.727
847.85	273.913
848.15	440.000
848.44	392.857
848.74	266.667
849.04	252.941
849.34	450.000
849.63	221.053
849.93	436.364
850.23	840.000
850.53	335.714
850.82	2400.000
851.12	-4000.000
851.42	3500.000
851.71	220.000
852.01	-933.333
852.31	212.500
852.61	1466.667
852.90	266.667
853.20	180.000
853.50	276.471
853.79	257.143
854.09	191.667
854.39	300.000
854.68	170.270
854.98	167.742
855.28	170.000
855.57	203.448
855.87	200.000
856.17	231.579
856.46	246.667
856.76	258.824
857.05	162.069
857.35	233.333
857.65	320.000
857.94	247.826
858.24	211.538
858.53	275.000
858.83	236.364
859.13	380.000
859.42	0.000
859.72	533.333
860.01	400.000
860.31	254.545
860.60	236.842
860.90	269.565
861.20	588.889
861.49	475.000
861.79	-3200.000
862.08	750.000
862.38	276.190
862.67	376.923
862.97	341.176
863.26	411.111
863.56	244.444
863.85	333.333
864.15	525.000
864.44	386.667
864.74	716.667
865.03	637.500
865.33	263.158
865.62	390.909
865.92	376.923
866.21	416.667
866.51	0.000
866.80	409.091
867.10	1140.000
867.39	438.462
867.69	436.364
867.98	247.368
868.27	463.636
868.57	268.421
868.86	-3600.000
869.16	306.250
869.45	2100.000
869.75	-4100.000
870.04	466.667
870.33	528.571
870.63	1000.000
870.92	2950.000
871.22	614.286
871.51	317.647
871.80	242.857
872.10	292.857
>>>>>End Processed Spectral Data<<<<<
