SpectraSuite Data File
++++++++++++++++++++++++++++++++++++
Date: Wed May 13 16:42:35 PDT 2015
User: schluterlab
Dark Spectrum Present: Yes
Reference Spectrum Present: Yes
Number of Sampled Component Spectra: 1
Spectrometers: USB2E3373
Integration Time (usec): 3000 (USB2E3373)
Spectra Averaged: 3 (USB2E3373)
Boxcar Smoothing: 0 (USB2E3373)
Correct for Electrical Dark: No (USB2E3373)
Strobe/Lamp Enabled: No (USB2E3373)
Correct for Detector Non-linearity: No (USB2E3373)
Correct for Stray Light: No (USB2E3373)
Number of Pixels in Processed Spectrum: 2048
>>>>>Begin Processed Spectral Data<<<<<
178.53	0.000
178.91	-1300.000
179.29	-1175.000
179.67	-244.444
180.04	-1275.000
180.42	2950.000
180.80	980.000
181.18	-1200.000
181.56	728.571
181.94	0.000
182.31	-728.571
182.69	2033.333
183.07	-550.000
183.45	-455.556
183.83	536.364
184.20	-440.000
184.58	2150.000
184.96	6100.000
185.34	-960.000
185.72	-637.500
186.09	-2700.000
186.47	2750.000
186.85	2650.000
187.23	3900.000
187.61	-1866.667
187.98	1550.000
188.36	563.636
188.74	418.182
189.12	-1100.000
189.49	500.000
189.87	-5100.000
190.25	-1225.000
190.63	400.000
191.00	446.154
191.38	916.667
191.76	-1300.000
192.14	1375.000
192.51	525.000
192.89	816.667
193.27	562.500
193.65	-1150.000
194.02	480.000
194.40	880.000
194.78	510.000
195.15	508.333
195.53	600.000
195.91	-2300.000
196.29	381.250
196.66	331.579
197.04	-290.000
197.42	0.000
197.79	610.000
198.17	-6400.000
198.55	742.857
198.92	700.000
199.30	860.000
199.68	0.000
200.05	338.889
200.43	785.714
200.81	4900.000
201.18	1600.000
201.56	-1833.333
201.94	677.778
202.31	511.111
202.69	441.667
203.07	500.000
203.44	0.000
203.82	1250.000
204.19	757.143
204.57	414.286
204.95	675.000
205.32	1266.667
205.70	500.000
206.08	464.286
206.45	2600.000
206.83	318.750
207.20	950.000
207.58	640.000
207.96	288.889
208.33	837.500
208.71	-1100.000
209.08	900.000
209.46	655.556
209.84	490.909
210.21	-1266.667
210.59	1425.000
210.96	-512.500
211.34	2550.000
211.71	630.000
212.09	800.000
212.46	0.000
212.84	1733.333
213.22	1375.000
213.59	-4900.000
213.97	1016.667
214.34	842.857
214.72	500.000
215.09	980.000
215.47	-1900.000
215.84	-2400.000
216.22	1733.333
216.59	400.000
216.97	1300.000
217.34	518.182
217.72	-783.333
218.09	0.000
218.47	-5300.000
218.84	611.111
219.22	757.143
219.59	1666.667
219.97	-714.286
220.34	1120.000
220.72	-2000.000
221.09	457.143
221.47	1400.000
221.84	-850.000
222.22	0.000
222.59	1375.000
222.97	-2600.000
223.34	1160.000
223.72	430.769
224.09	1120.000
224.46	2250.000
224.84	-5400.000
225.21	-1180.000
225.59	-5000.000
225.96	610.000
226.34	300.000
226.71	2050.000
227.08	712.500
227.46	590.000
227.83	-875.000
228.21	-2300.000
228.58	677.778
228.95	-2600.000
229.33	-2300.000
229.70	1666.667
230.08	857.143
230.45	-900.000
230.82	425.000
231.20	716.667
231.57	842.857
231.95	483.333
232.32	250.000
232.69	400.000
233.07	585.714
233.44	423.077
233.81	-1200.000
234.19	305.263
234.56	383.333
234.93	325.000
235.31	445.455
235.68	353.846
236.05	335.714
236.43	175.758
236.80	252.632
237.17	3600.000
237.55	214.286
237.92	225.000
238.29	219.048
238.67	135.484
239.04	162.069
239.41	127.778
239.79	110.870
240.16	135.714
240.53	127.273
240.91	82.353
241.28	88.000
241.65	88.000
242.02	81.159
242.40	69.355
242.77	80.000
243.14	68.817
243.51	59.551
243.89	63.529
244.26	53.333
244.63	51.613
245.00	51.064
245.38	44.554
245.75	52.336
246.12	40.367
246.49	46.715
246.87	50.400
247.24	42.308
247.61	48.571
247.98	32.680
248.36	31.081
248.73	28.025
249.10	35.669
249.47	32.203
249.84	34.759
250.22	27.273
250.59	33.728
250.96	29.798
251.33	27.014
251.70	21.782
252.08	23.810
252.45	27.803
252.82	22.609
253.19	26.383
253.56	27.059
253.94	26.556
254.31	23.047
254.68	24.231
255.05	23.616
255.42	19.919
255.79	19.485
256.16	25.271
256.54	20.141
256.91	20.996
257.28	17.266
257.65	22.442
258.02	20.807
258.39	15.457
258.76	18.060
259.14	18.155
259.51	20.669
259.88	16.460
260.25	19.335
260.62	15.029
260.99	16.460
261.36	19.520
261.73	19.198
262.10	14.535
262.47	16.338
262.85	15.599
263.22	14.530
263.59	17.379
263.96	16.209
264.33	13.838
264.70	13.158
265.07	16.113
265.44	15.909
265.81	12.895
266.18	13.065
266.55	15.366
266.92	15.233
267.29	14.815
267.66	14.450
268.03	12.727
268.40	14.019
268.77	11.933
269.14	10.360
269.51	14.673
269.88	12.121
270.25	13.770
270.62	13.933
270.99	17.849
271.36	11.159
271.73	12.617
272.10	12.391
272.47	12.903
272.84	14.719
273.21	14.885
273.58	12.664
273.95	12.159
274.32	11.364
274.69	14.133
275.06	12.795
275.43	13.830
275.80	15.030
276.17	11.202
276.54	10.811
276.91	12.451
277.28	12.109
277.65	12.573
278.02	13.665
278.39	12.305
278.76	12.000
279.13	15.283
279.50	11.173
279.87	10.757
280.23	12.375
280.60	11.605
280.97	9.427
281.34	13.274
281.71	13.091
282.08	11.132
282.45	12.000
282.82	12.433
283.19	9.804
283.56	12.456
283.92	11.675
284.29	9.171
284.66	9.256
285.03	9.403
285.40	12.852
285.77	10.943
286.14	9.499
286.51	12.000
286.87	12.308
287.24	13.192
287.61	12.039
287.98	10.714
288.35	10.777
288.72	10.280
289.08	11.424
289.45	9.555
289.82	11.220
290.19	8.791
290.56	9.954
290.93	9.215
291.29	11.810
291.66	10.914
292.03	12.936
292.40	10.720
292.77	8.136
293.13	11.791
293.50	10.641
293.87	11.111
294.24	10.370
294.60	8.734
294.97	10.465
295.34	12.412
295.71	10.511
296.08	9.544
296.44	11.417
296.81	11.096
297.18	11.653
297.55	9.367
297.91	10.158
298.28	12.048
298.65	10.836
299.02	11.199
299.38	9.562
299.75	10.108
300.12	10.473
300.48	10.875
300.85	11.221
301.22	10.573
301.59	10.732
301.95	11.587
302.32	9.756
302.69	11.470
303.05	8.970
303.42	11.358
303.79	10.419
304.15	9.441
304.52	11.356
304.89	11.614
305.25	12.413
305.62	12.571
305.99	11.688
306.35	10.067
306.72	10.090
307.09	10.877
307.45	12.050
307.82	9.821
308.19	11.700
308.55	12.190
308.92	10.741
309.29	11.088
309.65	11.135
310.02	10.677
310.38	12.043
310.75	12.355
311.12	12.794
311.48	12.539
311.85	12.683
312.22	12.383
312.58	11.642
312.95	12.566
313.31	12.039
313.68	13.410
314.05	13.609
314.41	12.563
314.78	12.790
315.14	13.704
315.51	13.594
315.87	13.168
316.24	13.505
316.61	13.255
316.97	12.720
317.34	12.524
317.70	14.627
318.07	13.474
318.43	15.362
318.80	14.995
319.16	15.631
319.53	14.728
319.89	16.190
320.26	16.400
320.62	15.575
320.99	15.859
321.35	15.960
321.72	16.735
322.08	18.657
322.45	17.811
322.81	18.023
323.18	18.690
323.54	18.089
323.91	18.962
324.27	18.929
324.64	19.199
325.00	20.198
325.37	19.654
325.73	21.095
326.10	21.977
326.46	21.147
326.83	21.829
327.19	22.203
327.56	22.822
327.92	22.310
328.29	24.046
328.65	24.862
329.01	23.105
329.38	24.699
329.74	23.269
330.11	24.317
330.47	24.610
330.84	24.173
331.20	23.588
331.56	26.055
331.93	24.722
332.29	24.756
332.66	26.018
333.02	25.046
333.38	25.655
333.75	26.292
334.11	25.356
334.48	25.377
334.84	24.816
335.20	24.091
335.57	25.204
335.93	24.732
336.29	24.817
336.66	25.248
337.02	25.339
337.38	25.278
337.75	25.312
338.11	25.246
338.47	26.611
338.84	25.940
339.20	26.055
339.56	26.095
339.93	24.818
340.29	25.725
340.65	24.421
341.02	26.789
341.38	26.423
341.74	24.912
342.11	25.939
342.47	25.727
342.83	25.086
343.20	25.714
343.56	24.768
343.92	24.737
344.28	25.425
344.65	26.655
345.01	23.401
345.37	24.786
345.73	25.296
346.10	24.638
346.46	26.186
346.82	25.371
347.19	24.144
347.55	24.302
347.91	24.272
348.27	25.637
348.63	25.251
349.00	23.948
349.36	26.108
349.72	26.544
350.08	24.311
350.45	24.980
350.81	23.396
351.17	24.878
351.53	23.751
351.89	25.165
352.26	25.335
352.62	25.501
352.98	24.068
353.34	25.965
353.70	24.959
354.07	25.806
354.43	25.238
354.79	25.261
355.15	24.900
355.51	25.420
355.87	25.224
356.24	25.000
356.60	25.902
356.96	25.503
357.32	25.920
357.68	24.646
358.04	25.099
358.40	23.990
358.77	24.804
359.13	25.178
359.49	25.961
359.85	24.127
360.21	24.402
360.57	25.992
360.93	25.000
361.29	26.002
361.66	25.542
362.02	25.522
362.38	24.259
362.74	25.223
363.10	24.944
363.46	25.092
363.82	25.019
364.18	25.991
364.54	26.820
364.90	26.204
365.26	25.515
365.62	26.150
365.98	24.105
366.35	25.000
366.71	25.452
367.07	25.055
367.43	24.891
367.79	26.053
368.15	26.580
368.51	26.017
368.87	25.767
369.23	26.042
369.59	26.865
369.95	26.029
370.31	25.855
370.67	26.087
371.03	25.768
371.39	26.531
371.75	26.250
372.11	25.747
372.47	26.466
372.83	26.729
373.19	26.012
373.55	26.386
373.91	27.909
374.27	26.186
374.63	26.182
374.99	26.695
375.35	26.448
375.71	26.251
376.07	26.680
376.42	26.891
376.78	27.568
377.14	26.526
377.50	26.887
377.86	26.729
378.22	27.876
378.58	24.875
378.94	25.896
379.30	26.845
379.66	27.728
380.02	27.150
380.38	26.169
380.74	27.791
381.09	27.445
381.45	27.658
381.81	27.150
382.17	27.580
382.53	27.547
382.89	27.593
383.25	26.954
383.61	27.695
383.97	27.517
384.32	26.949
384.68	26.518
385.04	28.027
385.40	28.235
385.76	28.010
386.12	28.627
386.48	28.697
386.83	27.903
387.19	28.262
387.55	27.396
387.91	27.630
388.27	27.468
388.62	28.089
388.98	26.474
389.34	27.972
389.70	27.774
390.06	28.010
390.42	27.432
390.77	28.690
391.13	28.590
391.49	29.188
391.85	27.944
392.20	28.013
392.56	27.904
392.92	28.193
393.28	27.041
393.64	28.477
393.99	28.100
394.35	27.667
394.71	28.419
395.07	27.477
395.42	28.121
395.78	28.053
396.14	27.933
396.50	29.010
396.85	29.116
397.21	27.374
397.57	28.084
397.92	28.065
398.28	27.410
398.64	28.136
399.00	27.364
399.35	27.468
399.71	27.431
400.07	27.085
400.42	27.914
400.78	28.106
401.14	27.012
401.49	27.164
401.85	26.921
402.21	26.886
402.57	26.712
402.92	28.058
403.28	26.796
403.63	26.918
403.99	27.261
404.35	26.424
404.70	26.679
405.06	26.383
405.42	27.573
405.77	26.286
406.13	26.637
406.49	27.203
406.84	26.285
407.20	26.005
407.55	27.058
407.91	27.867
408.27	26.803
408.62	26.911
408.98	25.613
409.34	26.753
409.69	27.613
410.05	26.208
410.40	27.278
410.76	26.583
411.11	25.875
411.47	25.431
411.83	26.634
412.18	25.665
412.54	26.463
412.89	26.205
413.25	25.915
413.60	26.498
413.96	26.108
414.31	26.671
414.67	25.856
415.03	26.556
415.38	26.224
415.74	27.203
416.09	26.192
416.45	26.707
416.80	26.041
417.16	28.552
417.51	26.808
417.87	25.947
418.22	26.246
418.58	26.856
418.93	26.966
419.29	26.353
419.64	27.015
420.00	25.854
420.35	26.551
420.71	26.479
421.06	25.895
421.42	26.901
421.77	26.626
422.12	25.884
422.48	25.256
422.83	26.849
423.19	26.354
423.54	25.595
423.90	27.014
424.25	26.354
424.61	26.607
424.96	26.764
425.31	26.412
425.67	26.011
426.02	25.886
426.38	26.679
426.73	26.916
427.09	26.383
427.44	26.912
427.79	26.970
428.15	27.083
428.50	27.384
428.85	27.354
429.21	27.002
429.56	26.231
429.92	26.472
430.27	26.812
430.62	26.677
430.98	26.207
431.33	26.186
431.68	26.859
432.04	26.251
432.39	27.698
432.74	26.870
433.10	26.372
433.45	27.464
433.80	26.220
434.16	26.870
434.51	25.158
434.86	27.195
435.22	26.681
435.57	26.444
435.92	27.092
436.28	27.758
436.63	27.870
436.98	26.903
437.34	27.549
437.69	27.538
438.04	27.431
438.39	27.403
438.75	27.891
439.10	27.263
439.45	27.863
439.81	26.949
440.16	27.273
440.51	26.655
440.86	27.446
441.22	27.308
441.57	27.123
441.92	27.124
442.27	26.911
442.63	26.646
442.98	28.000
443.33	27.065
443.68	27.001
444.03	26.745
444.39	26.193
444.74	26.461
445.09	27.170
445.44	26.572
445.79	26.571
446.15	27.369
446.50	26.656
446.85	27.544
447.20	27.282
447.55	27.917
447.91	26.420
448.26	27.769
448.61	27.473
448.96	28.018
449.31	27.390
449.66	26.674
450.02	25.515
450.37	26.531
450.72	27.073
451.07	26.630
451.42	26.383
451.77	27.363
452.12	26.732
452.47	27.177
452.83	27.273
453.18	27.078
453.53	27.953
453.88	26.934
454.23	26.360
454.58	27.135
454.93	28.290
455.28	26.870
455.63	27.488
455.98	28.452
456.34	27.450
456.69	27.614
457.04	27.864
457.39	26.593
457.74	27.684
458.09	27.545
458.44	27.366
458.79	26.952
459.14	27.088
459.49	26.912
459.84	26.981
460.19	26.694
460.54	25.926
460.89	27.537
461.24	27.565
461.59	27.716
461.94	26.942
462.29	28.190
462.64	26.994
462.99	26.480
463.34	27.800
463.69	27.079
464.04	26.841
464.39	26.841
464.74	27.451
465.09	26.779
465.44	25.152
465.79	26.119
466.14	25.780
466.49	26.418
466.84	26.445
467.19	26.614
467.54	26.500
467.89	25.630
468.24	26.876
468.59	27.167
468.94	26.023
469.29	26.478
469.64	27.041
469.99	26.793
470.34	27.213
470.68	27.514
471.03	27.143
471.38	27.380
471.73	26.649
472.08	27.500
472.43	27.198
472.78	26.531
473.13	27.022
473.48	26.030
473.83	26.280
474.17	25.327
474.52	26.923
474.87	27.087
475.22	26.117
475.57	25.470
475.92	26.022
476.27	26.325
476.61	26.034
476.96	26.223
477.31	25.798
477.66	25.492
478.01	25.457
478.36	25.806
478.70	25.337
479.05	25.186
479.40	25.589
479.75	25.419
480.10	25.298
480.45	24.703
480.79	24.654
481.14	25.245
481.49	25.724
481.84	25.011
482.19	24.943
482.53	25.000
482.88	24.802
483.23	25.654
483.58	25.614
483.92	25.117
484.27	24.401
484.62	25.172
484.97	24.123
485.31	24.932
485.66	23.648
486.01	22.808
486.36	21.898
486.70	21.303
487.05	21.922
487.40	22.804
487.75	23.768
488.09	23.901
488.44	23.549
488.79	24.376
489.13	24.561
489.48	24.633
489.83	24.903
490.17	24.814
490.52	24.269
490.87	24.649
491.22	24.011
491.56	24.191
491.91	23.546
492.26	23.702
492.60	24.009
492.95	23.527
493.30	24.439
493.64	23.938
493.99	23.909
494.34	24.329
494.68	25.229
495.03	25.047
495.37	24.616
495.72	23.977
496.07	24.362
496.41	23.363
496.76	23.967
497.11	23.368
497.45	24.313
497.80	23.848
498.14	24.155
498.49	23.610
498.84	23.730
499.18	24.619
499.53	23.884
499.87	24.138
500.22	23.928
500.56	24.126
500.91	23.462
501.26	23.945
501.60	24.252
501.95	23.281
502.29	23.664
502.64	23.883
502.98	22.908
503.33	22.943
503.67	23.527
504.02	23.901
504.36	23.538
504.71	23.498
505.06	23.904
505.40	23.724
505.75	23.433
506.09	23.810
506.44	24.075
506.78	23.965
507.13	23.725
507.47	24.242
507.82	24.924
508.16	22.999
508.51	23.846
508.85	23.932
509.19	24.031
509.54	23.878
509.88	23.957
510.23	23.342
510.57	24.923
510.92	23.459
511.26	22.867
511.61	24.118
511.95	23.695
512.30	23.648
512.64	23.321
512.98	24.009
513.33	24.411
513.67	23.693
514.02	22.565
514.36	24.358
514.70	23.741
515.05	24.317
515.39	23.388
515.74	24.155
516.08	23.421
516.42	24.417
516.77	23.802
517.11	23.363
517.46	24.718
517.80	24.797
518.14	24.030
518.49	23.979
518.83	24.375
519.17	23.614
519.52	23.430
519.86	24.073
520.20	23.410
520.55	24.596
520.89	24.331
521.23	24.367
521.58	24.010
521.92	24.617
522.26	22.697
522.61	23.801
522.95	23.450
523.29	23.615
523.64	23.476
523.98	24.399
524.32	24.065
524.66	23.933
525.01	23.591
525.35	24.040
525.69	24.507
526.04	23.738
526.38	24.222
526.72	23.129
527.06	23.792
527.41	22.710
527.75	24.051
528.09	22.929
528.43	23.263
528.78	23.110
529.12	23.455
529.46	23.576
529.80	22.587
530.15	24.299
530.49	22.277
530.83	24.051
531.17	24.151
531.51	24.643
531.86	23.871
532.20	24.055
532.54	23.447
532.88	23.299
533.22	23.111
533.57	22.593
533.91	22.577
534.25	22.843
534.59	22.636
534.93	23.081
535.27	22.692
535.62	23.077
535.96	22.536
536.30	22.823
536.64	23.245
536.98	23.490
537.32	22.910
537.66	22.733
538.01	24.161
538.35	23.012
538.69	23.038
539.03	22.352
539.37	21.853
539.71	21.452
540.05	23.399
540.39	22.658
540.73	22.962
541.07	23.686
541.42	22.701
541.76	23.226
542.10	23.092
542.44	22.914
542.78	23.584
543.12	22.265
543.46	22.754
543.80	22.967
544.14	21.951
544.48	23.302
544.82	22.130
545.16	22.121
545.50	22.622
545.84	23.185
546.18	22.896
546.52	22.918
546.86	22.268
547.20	23.129
547.54	21.443
547.88	23.151
548.22	21.918
548.56	22.767
548.90	22.279
549.24	22.222
549.58	22.783
549.92	22.527
550.26	23.153
550.60	21.577
550.94	22.817
551.28	21.800
551.62	21.927
551.96	22.316
552.30	22.867
552.64	21.907
552.98	23.729
553.32	22.320
553.66	23.040
554.00	23.404
554.34	21.118
554.68	23.605
555.02	21.932
555.36	21.990
555.69	21.448
556.03	21.669
556.37	22.306
556.71	20.737
557.05	22.899
557.39	22.463
557.73	22.442
558.07	21.972
558.41	22.431
558.75	22.851
559.08	22.297
559.42	22.373
559.76	22.721
560.10	21.984
560.44	22.292
560.78	21.025
561.12	21.174
561.45	21.773
561.79	21.226
562.13	20.858
562.47	22.131
562.81	21.757
563.15	21.338
563.48	21.353
563.82	22.179
564.16	21.844
564.50	21.354
564.84	21.429
565.17	21.107
565.51	21.853
565.85	20.812
566.19	20.789
566.52	21.279
566.86	20.675
567.20	21.050
567.54	20.091
567.88	19.880
568.21	20.423
568.55	20.576
568.89	20.088
569.23	20.143
569.56	19.271
569.90	18.906
570.24	19.160
570.57	18.429
570.91	18.487
571.25	18.067
571.59	17.997
571.92	17.742
572.26	17.735
572.60	18.468
572.93	17.931
573.27	18.042
573.61	17.672
573.95	18.450
574.28	17.513
574.62	17.468
574.96	17.252
575.29	17.410
575.63	17.429
575.97	17.443
576.30	17.446
576.64	17.690
576.98	17.671
577.31	17.745
577.65	17.242
577.98	16.667
578.32	16.759
578.66	16.876
578.99	17.302
579.33	17.066
579.67	17.173
580.00	17.142
580.34	17.774
580.67	17.348
581.01	17.383
581.35	16.997
581.68	16.831
582.02	16.512
582.35	16.691
582.69	16.847
583.02	17.033
583.36	16.809
583.70	17.782
584.03	17.790
584.37	17.971
584.70	17.581
585.04	17.490
585.37	17.544
585.71	17.105
586.04	17.251
586.38	17.633
586.72	17.868
587.05	17.332
587.39	17.546
587.72	17.495
588.06	17.369
588.39	17.750
588.73	17.688
589.06	18.261
589.40	18.418
589.73	18.198
590.07	18.541
590.40	18.085
590.73	18.306
591.07	18.966
591.40	18.558
591.74	19.048
592.07	19.154
592.41	19.140
592.74	17.978
593.08	18.155
593.41	17.811
593.75	17.239
594.08	17.533
594.41	17.886
594.75	17.708
595.08	18.325
595.42	17.653
595.75	17.699
596.09	18.513
596.42	18.664
596.75	18.320
597.09	18.571
597.42	18.339
597.75	18.542
598.09	18.000
598.42	18.643
598.76	17.714
599.09	17.864
599.42	17.249
599.76	17.679
600.09	17.450
600.42	17.312
600.76	17.286
601.09	17.887
601.42	17.846
601.76	18.027
602.09	18.300
602.42	18.033
602.76	18.904
603.09	17.742
603.42	18.665
603.76	17.683
604.09	17.720
604.42	17.733
604.76	18.979
605.09	17.999
605.42	18.213
605.75	18.253
606.09	17.405
606.42	17.777
606.75	18.084
607.09	18.460
607.42	18.228
607.75	17.890
608.08	17.803
608.42	18.512
608.75	18.530
609.08	18.039
609.41	18.134
609.75	17.961
610.08	18.520
610.41	17.365
610.74	18.590
611.07	19.219
611.41	18.695
611.74	19.105
612.07	18.944
612.40	19.150
612.73	19.263
613.07	19.181
613.40	18.799
613.73	17.829
614.06	19.140
614.39	17.986
614.72	18.632
615.06	19.958
615.39	18.737
615.72	17.638
616.05	17.703
616.38	19.344
616.71	19.181
617.05	19.847
617.38	19.483
617.71	19.039
618.04	19.712
618.37	19.101
618.70	18.855
619.03	19.868
619.36	19.620
619.69	19.507
620.03	19.849
620.36	20.187
620.69	20.274
621.02	20.206
621.35	19.812
621.68	20.093
622.01	19.969
622.34	20.197
622.67	20.076
623.00	20.103
623.33	20.372
623.66	19.657
623.99	20.692
624.32	18.973
624.65	19.845
624.99	19.263
625.32	19.841
625.65	19.008
625.98	20.907
626.31	20.218
626.64	21.061
626.97	20.698
627.30	19.701
627.63	21.083
627.96	20.185
628.29	20.472
628.62	21.958
628.95	22.358
629.28	20.529
629.61	21.998
629.94	21.810
630.26	21.163
630.59	21.163
630.92	20.690
631.25	21.027
631.58	21.421
631.91	21.501
632.24	21.203
632.57	22.875
632.90	21.820
633.23	21.700
633.56	24.633
633.89	22.877
634.22	21.226
634.55	23.195
634.88	22.275
635.20	24.731
635.53	24.096
635.86	24.010
636.19	22.706
636.52	23.068
636.85	21.879
637.18	21.889
637.51	21.986
637.83	20.962
638.16	21.483
638.49	24.181
638.82	24.526
639.15	23.375
639.48	23.566
639.81	23.458
640.13	23.698
640.46	24.698
640.79	23.910
641.12	22.421
641.45	23.464
641.77	24.448
642.10	25.000
642.43	22.673
642.76	23.839
643.09	24.693
643.41	23.369
643.74	25.926
644.07	25.152
644.40	27.761
644.73	24.409
645.05	26.307
645.38	24.171
645.71	24.638
646.04	25.581
646.36	25.710
646.69	27.090
647.02	25.000
647.35	24.399
647.67	25.487
648.00	25.528
648.33	25.413
648.66	24.545
648.98	25.487
649.31	23.019
649.64	23.318
649.96	23.547
650.29	24.329
650.62	23.948
650.94	25.122
651.27	27.365
651.60	24.293
651.92	24.920
652.25	24.756
652.58	25.078
652.90	25.434
653.23	23.112
653.56	22.362
653.88	22.979
654.21	25.750
654.54	24.752
654.86	22.897
655.19	23.514
655.52	15.063
655.84	12.057
656.17	15.055
656.49	20.594
656.82	21.075
657.15	16.367
657.47	12.381
657.80	9.712
658.13	10.261
658.45	15.653
658.78	16.121
659.10	17.125
659.43	18.278
659.75	18.758
660.08	21.646
660.41	25.047
660.73	26.048
661.06	24.841
661.38	27.455
661.71	29.615
662.03	27.219
662.36	24.851
662.68	27.309
663.01	26.465
663.33	27.813
663.66	25.840
663.98	25.270
664.31	26.050
664.63	25.101
664.96	24.346
665.28	26.844
665.61	25.341
665.93	26.157
666.26	27.586
666.58	25.314
666.91	28.753
667.23	28.989
667.56	23.542
667.88	25.855
668.21	27.292
668.53	27.115
668.86	26.623
669.18	28.358
669.50	29.348
669.83	29.847
670.15	27.111
670.48	29.194
670.80	25.647
671.13	28.662
671.45	26.383
671.77	27.088
672.10	27.542
672.42	26.502
672.75	23.383
673.07	25.704
673.39	25.316
673.72	25.586
674.04	26.667
674.37	25.049
674.69	26.380
675.01	28.033
675.34	29.569
675.66	28.421
675.98	26.680
676.31	25.000
676.63	29.087
676.95	24.319
677.28	25.234
677.60	25.275
677.92	27.848
678.25	27.721
678.57	26.892
678.89	25.251
679.22	27.112
679.54	24.427
679.86	26.239
680.18	25.045
680.51	24.823
680.83	22.064
681.15	27.547
681.48	25.898
681.80	23.017
682.12	27.011
682.44	23.404
682.77	27.495
683.09	28.112
683.41	25.499
683.73	26.711
684.06	26.860
684.38	24.070
684.70	25.775
685.02	26.829
685.34	23.077
685.67	21.503
685.99	20.790
686.31	23.038
686.63	22.438
686.96	22.321
687.28	24.729
687.60	22.826
687.92	23.400
688.24	25.095
688.56	25.301
688.89	26.763
689.21	29.039
689.53	25.261
689.85	27.051
690.17	24.017
690.49	27.176
690.82	25.234
691.14	24.107
691.46	23.418
691.78	27.711
692.10	27.273
692.42	26.946
692.74	24.274
693.06	24.043
693.39	27.926
693.71	25.328
694.03	26.737
694.35	25.325
694.67	28.146
694.99	29.512
695.31	25.245
695.63	26.555
695.95	27.139
696.27	26.396
696.59	27.461
696.91	26.943
697.23	26.291
697.56	25.373
697.88	23.722
698.20	26.667
698.52	27.527
698.84	26.281
699.16	26.498
699.48	25.891
699.80	27.295
700.12	27.792
700.44	29.443
700.76	26.796
701.08	28.736
701.40	30.447
701.72	28.280
702.04	33.523
702.36	28.329
702.68	28.895
703.00	30.471
703.32	27.660
703.64	28.686
703.96	32.033
704.28	29.942
704.60	31.672
704.91	33.234
705.23	28.446
705.55	32.890
705.87	34.551
706.19	30.035
706.51	31.776
706.83	35.455
707.15	27.451
707.47	27.778
707.79	27.273
708.11	24.658
708.43	22.619
708.74	26.276
709.06	25.974
709.38	27.822
709.70	26.744
710.02	32.641
710.34	28.182
710.66	30.746
710.98	28.693
711.29	28.488
711.61	34.513
711.93	25.000
712.25	29.582
712.57	29.779
712.89	29.066
713.20	31.307
713.52	31.908
713.84	31.013
714.16	29.268
714.48	29.023
714.80	30.091
715.11	30.548
715.43	26.409
715.75	28.696
716.07	31.310
716.39	31.661
716.70	35.880
717.02	33.813
717.34	34.629
717.66	33.955
717.97	35.458
718.29	32.963
718.61	32.482
718.93	34.559
719.24	32.872
719.56	31.525
719.88	30.508
720.20	29.730
720.51	32.404
720.83	31.970
721.15	30.224
721.46	30.142
721.78	32.975
722.10	32.075
722.42	34.211
722.73	32.584
723.05	31.148
723.37	36.437
723.68	32.432
724.00	27.642
724.32	36.694
724.63	32.927
724.95	32.218
725.27	30.364
725.58	37.109
725.90	35.036
726.22	32.075
726.53	29.167
726.85	33.447
727.16	29.181
727.48	30.496
727.80	32.955
728.11	34.420
728.43	29.615
728.74	32.975
729.06	34.672
729.38	32.353
729.69	32.740
730.01	30.375
730.32	30.903
730.64	28.094
730.96	27.723
731.27	31.788
731.59	30.887
731.90	29.155
732.22	29.814
732.53	29.412
732.85	26.923
733.16	27.974
733.48	30.233
733.80	29.221
734.11	27.707
734.43	28.107
734.74	22.286
735.06	24.928
735.37	29.191
735.69	26.433
736.00	28.105
736.32	27.414
736.63	25.559
736.95	30.990
737.26	24.490
737.58	28.710
737.89	32.441
738.21	28.328
738.52	27.857
738.83	30.566
739.15	35.000
739.46	33.942
739.78	29.167
740.09	28.308
740.41	26.774
740.72	26.132
741.04	30.370
741.35	31.667
741.66	38.222
741.98	32.075
742.29	37.321
742.61	37.931
742.92	33.484
743.23	31.624
743.55	32.000
743.86	36.842
744.18	39.381
744.49	40.191
744.80	34.742
745.12	39.545
745.43	36.564
745.74	36.036
746.06	34.404
746.37	39.462
746.68	38.009
747.00	38.889
747.31	34.762
747.62	33.628
747.94	34.361
748.25	31.489
748.56	38.767
748.88	37.624
749.19	42.000
749.50	34.884
749.82	34.553
750.13	26.531
750.44	34.672
750.75	30.877
751.07	30.225
751.38	31.707
751.69	29.603
752.01	30.827
752.32	30.325
752.63	30.142
752.94	33.197
753.26	33.200
753.57	30.488
753.88	36.328
754.19	32.500
754.51	34.375
754.82	27.437
755.13	31.321
755.44	30.075
755.75	28.102
756.07	25.887
756.38	29.927
756.69	30.201
757.00	27.545
757.31	26.409
757.63	23.977
757.94	24.397
758.25	22.794
758.56	22.222
758.87	26.613
759.18	24.848
759.50	28.527
759.81	28.349
760.12	23.437
760.43	29.226
760.74	26.630
761.05	25.424
761.36	24.332
761.67	27.273
761.99	25.776
762.30	30.556
762.61	29.008
762.92	32.031
763.23	30.252
763.54	32.800
763.85	30.469
764.16	31.538
764.47	35.361
764.78	29.329
765.10	23.734
765.41	25.369
765.72	26.647
766.03	29.781
766.34	30.000
766.65	30.638
766.96	35.470
767.27	39.594
767.58	39.583
767.89	44.737
768.20	36.207
768.51	40.609
768.82	40.826
769.13	30.894
769.44	31.984
769.75	35.622
770.06	24.771
770.37	39.367
770.68	37.500
770.99	34.667
771.30	28.279
771.61	34.978
771.92	29.098
772.23	34.874
772.54	33.846
772.85	39.791
773.16	38.830
773.47	41.848
773.78	40.609
774.09	38.690
774.39	42.105
774.70	46.296
775.01	50.000
775.32	47.059
775.63	47.368
775.94	47.482
776.25	56.693
776.56	46.269
776.87	48.361
777.18	49.219
777.48	58.779
777.79	56.818
778.10	51.111
778.41	54.464
778.72	44.526
779.03	41.611
779.34	46.980
779.65	42.568
779.95	39.877
780.26	53.595
780.57	50.345
780.88	55.469
781.19	57.143
781.50	47.297
781.80	45.912
782.11	37.288
782.42	43.671
782.73	46.012
783.04	43.243
783.34	45.070
783.65	50.685
783.96	59.701
784.27	47.552
784.57	40.288
784.88	40.741
785.19	52.381
785.50	53.774
785.81	55.970
786.11	54.918
786.42	42.636
786.73	49.558
787.04	63.208
787.34	50.000
787.65	66.000
787.96	53.153
788.26	51.240
788.57	56.780
788.88	52.893
789.19	47.917
789.49	59.091
789.80	52.672
790.11	63.810
790.41	67.327
790.72	62.651
791.03	58.696
791.33	66.279
791.64	65.979
791.95	69.307
792.25	65.556
792.56	76.623
792.87	70.513
793.17	82.278
793.48	68.966
793.79	67.816
794.09	64.773
794.40	54.622
794.70	55.882
795.01	40.741
795.32	45.324
795.62	47.244
795.93	56.034
796.23	57.522
796.54	70.588
796.85	70.270
797.15	83.099
797.46	84.848
797.76	72.289
798.07	75.949
798.37	75.385
798.68	81.818
798.99	73.239
799.29	68.831
799.60	78.409
799.90	84.932
800.21	92.537
800.51	87.931
800.82	98.246
801.12	80.328
801.43	96.970
801.73	79.730
802.04	107.937
802.34	81.481
802.65	71.875
802.95	93.220
803.26	85.937
803.56	84.286
803.87	81.538
804.17	80.882
804.48	122.222
804.78	86.207
805.09	88.235
805.39	84.615
805.70	87.500
806.00	98.361
806.30	77.273
806.61	64.634
806.91	67.089
807.22	69.737
807.52	59.701
807.83	90.141
808.13	90.625
808.43	103.333
808.74	76.316
809.04	95.652
809.35	89.552
809.65	78.947
809.95	109.677
810.26	93.220
810.56	79.365
810.86	104.545
811.17	123.810
811.47	90.000
811.77	98.148
812.08	114.545
812.38	114.000
812.69	133.333
812.99	156.818
813.29	108.163
813.59	100.000
813.90	132.653
814.20	96.364
814.50	86.154
814.81	101.471
815.11	91.837
815.41	100.000
815.72	138.095
816.02	118.182
816.32	138.095
816.62	120.000
816.93	119.512
817.23	128.571
817.53	125.000
817.84	160.606
818.14	130.435
818.44	117.778
818.74	152.941
819.04	120.000
819.35	165.714
819.65	147.059
819.95	178.571
820.25	195.000
820.56	143.590
820.86	143.182
821.16	155.814
821.46	130.769
821.76	132.000
822.07	148.571
822.37	145.000
822.67	160.606
822.97	123.529
823.27	185.714
823.57	162.162
823.88	142.500
824.18	170.000
824.48	142.857
824.78	220.000
825.08	187.500
825.38	154.054
825.69	153.659
825.99	237.500
826.29	193.103
826.59	150.000
826.89	155.263
827.19	138.235
827.49	190.323
827.79	129.545
828.09	120.455
828.39	110.638
828.70	132.653
829.00	170.370
829.30	170.968
829.60	165.000
829.90	266.667
830.20	257.143
830.50	230.435
830.80	269.565
831.10	206.667
831.40	203.333
831.70	191.304
832.00	234.615
832.30	200.000
832.60	337.500
832.90	186.667
833.20	421.429
833.50	151.613
833.80	165.517
834.10	181.250
834.40	223.077
834.70	266.667
835.00	280.952
835.30	154.286
835.60	338.462
835.90	210.345
836.20	364.286
836.50	186.207
836.80	220.000
837.10	172.222
837.40	238.095
837.70	305.882
838.00	218.519
838.30	204.762
838.60	300.000
838.90	211.538
839.19	255.000
839.49	385.714
839.79	280.000
840.09	290.000
840.39	233.333
840.69	278.261
840.99	266.667
841.29	450.000
841.59	366.667
841.88	337.500
842.18	144.828
842.48	271.429
842.78	160.000
843.08	208.696
843.38	140.625
843.68	900.000
843.97	250.000
844.27	189.655
844.57	276.190
844.87	356.250
845.17	211.111
845.47	1566.667
845.76	411.111
846.06	317.647
846.36	500.000
846.66	407.143
846.96	331.250
847.25	500.000
847.55	436.364
847.85	226.087
848.15	510.000
848.44	392.857
848.74	216.667
849.04	264.706
849.34	530.000
849.63	294.737
849.93	436.364
850.23	820.000
850.53	407.143
850.82	1950.000
851.12	-4300.000
851.42	4600.000
851.71	285.000
852.01	-1366.667
852.31	237.500
852.61	1666.667
852.90	233.333
853.20	220.000
853.50	300.000
853.79	252.381
854.09	237.500
854.39	337.500
854.68	170.270
854.98	167.742
855.28	166.667
855.57	220.690
855.87	214.815
856.17	226.316
856.46	233.333
856.76	317.647
857.05	206.897
857.35	225.000
857.65	333.333
857.94	226.087
858.24	223.077
858.53	325.000
858.83	213.636
859.13	386.667
859.42	0.000
859.72	588.889
860.01	409.091
860.31	304.545
860.60	289.474
860.90	234.783
861.20	500.000
861.49	466.667
861.79	-4500.000
862.08	712.500
862.38	271.429
862.67	338.462
862.97	358.824
863.26	522.222
863.56	261.111
863.85	433.333
864.15	500.000
864.44	400.000
864.74	850.000
865.03	687.500
865.33	315.789
865.62	418.182
865.92	415.385
866.21	441.667
866.51	0.000
866.80	481.818
867.10	1180.000
867.39	476.923
867.69	454.545
867.98	289.474
868.27	500.000
868.57	300.000
868.86	-4400.000
869.16	393.750
869.45	2350.000
869.75	-4500.000
870.04	450.000
870.33	714.286
870.63	1025.000
870.92	2900.000
871.22	628.571
871.51	323.529
871.80	238.095
872.10	400.000
>>>>>End Processed Spectral Data<<<<<
