SpectraSuite Data File
++++++++++++++++++++++++++++++++++++
Date: Wed May 13 16:32:11 PDT 2015
User: schluterlab
Dark Spectrum Present: Yes
Reference Spectrum Present: Yes
Number of Sampled Component Spectra: 1
Spectrometers: USB2E3373
Integration Time (usec): 3000 (USB2E3373)
Spectra Averaged: 3 (USB2E3373)
Boxcar Smoothing: 0 (USB2E3373)
Correct for Electrical Dark: No (USB2E3373)
Strobe/Lamp Enabled: No (USB2E3373)
Correct for Detector Non-linearity: No (USB2E3373)
Correct for Stray Light: No (USB2E3373)
Number of Pixels in Processed Spectrum: 2048
>>>>>Begin Processed Spectral Data<<<<<
178.53	0.000
178.91	-1250.000
179.29	-1125.000
179.67	-200.000
180.04	-1200.000
180.42	1950.000
180.80	1040.000
181.18	-1000.000
181.56	485.714
181.94	0.000
182.31	-528.571
182.69	1633.333
183.07	-500.000
183.45	-433.333
183.83	454.545
184.20	-360.000
184.58	2100.000
184.96	5100.000
185.34	-760.000
185.72	-587.500
186.09	-2100.000
186.47	2550.000
186.85	2200.000
187.23	3900.000
187.61	-1200.000
187.98	1150.000
188.36	490.909
188.74	472.727
189.12	-780.000
189.49	500.000
189.87	-4300.000
190.25	-1175.000
190.63	450.000
191.00	400.000
191.38	750.000
191.76	-1225.000
192.14	1400.000
192.51	537.500
192.89	816.667
193.27	525.000
193.65	-900.000
194.02	440.000
194.40	1000.000
194.78	510.000
195.15	525.000
195.53	580.000
195.91	-1900.000
196.29	325.000
196.66	252.632
197.04	-290.000
197.42	0.000
197.79	610.000
198.17	-4800.000
198.55	714.286
198.92	637.500
199.30	720.000
199.68	0.000
200.05	300.000
200.43	585.714
200.81	4100.000
201.18	1600.000
201.56	-1733.333
201.94	522.222
202.31	533.333
202.69	441.667
203.07	440.000
203.44	0.000
203.82	800.000
204.19	600.000
204.57	450.000
204.95	600.000
205.32	1400.000
205.70	454.545
206.08	371.429
206.45	2550.000
206.83	331.250
207.20	916.667
207.58	620.000
207.96	288.889
208.33	700.000
208.71	-666.667
209.08	785.714
209.46	533.333
209.84	490.909
210.21	-1400.000
210.59	1075.000
210.96	-425.000
211.34	2350.000
211.71	570.000
212.09	733.333
212.46	0.000
212.84	1466.667
213.22	1450.000
213.59	-4200.000
213.97	750.000
214.34	657.143
214.72	609.091
215.09	980.000
215.47	-2100.000
215.84	-2700.000
216.22	1433.333
216.59	357.143
216.97	975.000
217.34	509.091
217.72	-916.667
218.09	0.000
218.47	-4300.000
218.84	522.222
219.22	514.286
219.59	1566.667
219.97	-500.000
220.34	680.000
220.72	-1333.333
221.09	364.286
221.47	1300.000
221.84	-733.333
222.22	0.000
222.59	1250.000
222.97	-2850.000
223.34	1100.000
223.72	407.692
224.09	980.000
224.46	1950.000
224.84	-3700.000
225.21	-800.000
225.59	-5600.000
225.96	720.000
226.34	255.000
226.71	2300.000
227.08	562.500
227.46	550.000
227.83	-975.000
228.21	-2050.000
228.58	566.667
228.95	-2150.000
229.33	-2300.000
229.70	1766.667
230.08	571.429
230.45	-900.000
230.82	375.000
231.20	666.667
231.57	542.857
231.95	325.000
232.32	204.545
232.69	336.364
233.07	671.429
233.44	369.231
233.81	-1300.000
234.19	315.789
234.56	341.667
234.93	366.667
235.31	345.455
235.68	300.000
236.05	364.286
236.43	172.727
236.80	263.158
237.17	5000.000
237.55	233.333
237.92	171.429
238.29	219.048
238.67	170.968
239.04	196.552
239.41	136.111
239.79	95.652
240.16	133.333
240.53	127.273
240.91	100.000
241.28	94.000
241.65	114.000
242.02	100.000
242.40	77.419
242.77	86.667
243.14	79.570
243.51	82.022
243.89	64.706
244.26	67.778
244.63	55.914
245.00	58.511
245.38	64.356
245.75	54.206
246.12	46.789
246.49	60.584
246.87	64.800
247.24	58.462
247.61	51.429
247.98	51.634
248.36	49.324
248.73	49.682
249.10	52.229
249.47	42.938
249.84	48.128
250.22	44.385
250.59	40.237
250.96	45.455
251.33	44.076
251.70	46.535
252.08	40.000
252.45	40.807
252.82	40.435
253.19	42.979
253.56	38.431
253.94	38.589
254.31	38.672
254.68	38.077
255.05	37.638
255.42	39.024
255.79	36.765
256.16	36.462
256.54	33.216
256.91	37.367
257.28	33.453
257.65	34.323
258.02	37.267
258.39	33.438
258.76	34.448
259.14	36.607
259.51	34.043
259.88	28.882
260.25	31.420
260.62	31.792
260.99	30.745
261.36	36.036
261.73	33.238
262.10	30.814
262.47	36.620
262.85	31.476
263.22	30.484
263.59	35.043
263.96	31.319
264.33	31.332
264.70	31.842
265.07	32.225
265.44	31.818
265.81	30.414
266.18	32.412
266.55	30.732
266.92	28.747
267.29	32.176
267.66	29.817
268.03	29.545
268.40	31.075
268.77	30.788
269.14	27.703
269.51	30.474
269.88	27.972
270.25	27.765
270.62	30.112
270.99	28.387
271.36	29.614
271.73	27.103
272.10	26.957
272.47	30.108
272.84	31.385
273.21	28.512
273.58	25.983
273.95	26.834
274.32	27.479
274.69	29.336
275.06	25.591
275.43	30.426
275.80	28.056
276.17	26.273
276.54	28.690
276.91	26.482
277.28	25.977
277.65	29.787
278.02	26.708
278.39	28.516
278.76	26.727
279.13	28.491
279.50	27.002
279.87	25.896
280.23	28.144
280.60	28.046
280.97	26.063
281.34	26.372
281.71	26.182
282.08	27.255
282.45	25.091
282.82	28.419
283.19	25.847
283.56	25.789
283.92	27.580
284.29	26.102
284.66	25.771
285.03	25.859
285.40	25.528
285.77	25.084
286.14	26.252
286.51	22.167
286.87	24.274
287.24	27.199
287.61	27.287
287.98	26.299
288.35	23.930
288.72	24.922
289.08	24.100
289.45	23.888
289.82	24.390
290.19	23.705
290.56	21.746
290.93	23.414
291.29	23.160
291.66	22.861
292.03	26.017
292.40	24.963
292.77	22.633
293.13	24.030
293.50	22.886
293.87	20.889
294.24	21.333
294.60	21.252
294.97	22.238
295.34	22.567
295.71	23.011
296.08	21.795
296.44	20.083
296.81	22.193
297.18	22.900
297.55	18.734
297.91	20.712
298.28	21.419
298.65	20.627
299.02	20.817
299.38	20.053
299.75	16.981
300.12	19.413
300.48	20.500
300.85	19.482
301.22	19.490
301.59	17.929
301.95	20.403
302.32	20.539
302.69	18.877
303.05	19.394
303.42	19.753
303.79	18.573
304.15	18.298
304.52	18.888
304.89	20.325
305.25	18.561
305.62	19.026
305.99	20.543
306.35	19.351
306.72	20.516
307.09	19.867
307.45	19.820
307.82	16.741
308.19	18.653
308.55	19.202
308.92	19.334
309.29	19.007
309.65	17.709
310.02	19.556
310.38	18.495
310.75	18.902
311.12	18.731
311.48	18.495
311.85	18.973
312.22	20.395
312.58	17.464
312.95	19.535
313.31	18.058
313.68	19.751
314.05	20.710
314.41	18.894
314.78	19.033
315.14	19.960
315.51	18.744
315.87	19.208
316.24	20.357
316.61	19.591
316.97	19.863
317.34	18.493
317.70	20.172
318.07	19.827
318.43	19.569
318.80	19.775
319.16	20.151
319.53	19.512
319.89	21.524
320.26	21.200
320.62	22.024
320.99	20.909
321.35	21.717
321.72	20.842
322.08	22.211
322.45	22.786
322.81	21.609
323.18	23.025
323.54	22.542
323.91	20.943
324.27	21.989
324.64	21.622
325.00	20.830
325.37	22.475
325.73	23.968
326.10	22.330
326.46	21.774
326.83	23.469
327.19	23.228
327.56	21.603
327.92	23.185
328.29	23.070
328.65	24.586
329.01	22.924
329.38	22.387
329.74	22.899
330.11	23.186
330.47	25.620
330.84	25.735
331.20	24.863
331.56	24.220
331.93	23.611
332.29	23.691
332.66	24.867
333.02	24.954
333.38	23.758
333.75	24.955
334.11	24.466
334.48	23.957
334.84	25.092
335.20	25.636
335.57	24.569
335.93	24.018
336.29	24.725
336.66	24.166
337.02	24.796
337.38	24.352
337.75	23.975
338.11	24.261
338.47	23.204
338.84	24.381
339.20	23.394
339.56	26.186
339.93	23.273
340.29	24.819
340.65	23.529
341.02	25.131
341.38	25.712
341.74	24.211
342.11	24.279
342.47	25.198
342.83	23.459
343.20	25.974
343.56	24.937
343.92	23.860
344.28	24.150
344.65	25.451
345.01	24.579
345.37	23.928
345.73	24.112
346.10	23.700
346.46	24.237
346.82	24.300
347.19	24.227
347.55	22.824
347.91	24.757
348.27	23.418
348.63	23.913
349.00	23.706
349.36	23.892
349.72	23.737
350.08	23.825
350.45	25.224
350.81	24.045
351.17	25.041
351.53	24.079
351.89	23.102
352.26	25.493
352.62	25.020
352.98	24.473
353.34	24.651
353.70	23.813
354.07	24.355
354.43	24.365
354.79	24.055
355.15	24.022
355.51	25.020
355.87	25.551
356.24	24.674
356.60	23.336
356.96	24.698
357.32	24.693
357.68	25.276
358.04	25.416
358.40	25.891
358.77	25.978
359.13	25.335
359.49	24.706
359.85	24.444
360.21	24.482
360.57	25.447
360.93	24.923
361.29	24.339
361.66	24.458
362.02	25.448
362.38	24.639
362.74	24.777
363.10	25.315
363.46	24.358
363.82	26.379
364.18	24.816
364.54	26.152
364.90	25.425
365.26	24.706
365.62	25.931
365.98	24.836
366.35	24.857
366.71	26.247
367.07	25.419
367.43	26.052
367.79	24.839
368.15	26.652
368.51	24.273
368.87	26.481
369.23	26.408
369.59	25.851
369.95	26.176
370.31	26.211
370.67	25.507
371.03	27.191
371.39	26.968
371.75	26.544
372.11	25.818
372.47	26.173
372.83	26.873
373.19	26.662
373.55	27.421
373.91	27.541
374.27	25.498
374.63	26.545
374.99	27.260
375.35	25.750
375.71	26.936
376.07	27.984
376.42	27.166
376.78	27.502
377.14	26.187
377.50	28.742
377.86	26.263
378.22	26.802
378.58	27.569
378.94	27.153
379.30	27.226
379.66	27.855
380.02	27.826
380.38	27.322
380.74	27.911
381.09	28.545
381.45	29.256
381.81	28.686
382.17	28.344
382.53	28.239
382.89	30.309
383.25	28.393
383.61	29.120
383.97	29.706
384.32	28.072
384.68	29.058
385.04	29.871
385.40	28.235
385.76	28.931
386.12	28.174
386.48	29.641
386.83	30.789
387.19	30.860
387.55	29.932
387.91	29.141
388.27	29.430
388.62	30.916
388.98	28.931
389.34	30.976
389.70	29.552
390.06	30.925
390.42	29.896
390.77	29.771
391.13	30.057
391.49	31.091
391.85	30.872
392.20	29.527
392.56	31.061
392.92	31.430
393.28	29.822
393.64	30.276
393.99	30.971
394.35	30.583
394.71	30.364
395.07	29.720
395.42	31.397
395.78	30.598
396.14	30.354
396.50	31.579
396.85	30.642
397.21	31.196
397.57	31.060
397.92	30.649
398.28	30.381
398.64	31.422
399.00	31.058
399.35	30.175
399.71	30.729
400.07	30.928
400.42	30.736
400.78	31.062
401.14	30.793
401.49	31.104
401.85	30.127
402.21	31.018
402.57	31.154
402.92	31.463
403.28	31.293
403.63	31.312
403.99	30.701
404.35	30.242
404.70	31.355
405.06	30.635
405.42	30.630
405.77	29.600
406.13	31.095
406.49	30.692
406.84	30.242
407.20	30.437
407.55	31.334
407.91	31.067
408.27	30.759
408.62	31.005
408.98	31.189
409.34	30.504
409.69	31.097
410.05	31.599
410.40	30.520
410.76	31.123
411.11	30.881
411.47	30.160
411.83	31.338
412.18	30.303
412.54	31.631
412.89	31.024
413.25	30.992
413.60	30.574
413.96	30.237
414.31	31.774
414.67	31.115
415.03	31.192
415.38	32.152
415.74	31.125
416.09	31.548
416.45	31.794
416.80	31.527
417.16	31.300
417.51	31.785
417.87	32.113
418.22	31.924
418.58	32.021
418.93	32.064
419.29	30.681
419.64	31.927
420.00	30.915
420.35	31.420
420.71	32.756
421.06	31.325
421.42	31.871
421.77	31.670
422.12	31.387
422.48	30.977
422.83	31.800
423.19	31.381
423.54	31.515
423.90	31.942
424.25	31.156
424.61	32.143
424.96	32.362
425.31	32.724
425.67	31.798
426.02	31.657
426.38	32.540
426.73	32.534
427.09	32.766
427.44	32.145
427.79	32.662
428.15	32.798
428.50	31.539
428.85	33.015
429.21	32.082
429.56	32.245
429.92	32.864
430.27	32.622
430.62	32.156
430.98	31.707
431.33	31.443
431.68	31.832
432.04	32.322
432.39	33.467
432.74	32.675
433.10	33.333
433.45	32.595
433.80	32.317
434.16	33.013
434.51	32.263
434.86	33.010
435.22	33.074
435.57	33.191
435.92	33.353
436.28	34.460
436.63	33.996
436.98	33.600
437.34	34.347
437.69	33.956
438.04	32.884
438.39	35.104
438.75	34.166
439.10	33.743
439.45	34.061
439.81	33.958
440.16	32.863
440.51	34.153
440.86	34.395
441.22	34.149
441.57	34.236
441.92	34.442
442.27	34.015
442.63	33.965
442.98	35.549
443.33	33.804
443.68	34.280
444.03	33.236
444.39	34.664
444.74	33.929
445.09	35.256
445.44	34.445
445.79	34.389
446.15	34.516
446.50	34.141
446.85	34.841
447.20	35.339
447.55	35.343
447.91	34.639
448.26	34.947
448.61	34.822
448.96	35.714
449.31	35.321
449.66	35.453
450.02	35.265
450.37	34.751
450.72	36.097
451.07	34.674
451.42	35.380
451.77	36.348
452.12	34.642
452.47	34.515
452.83	35.315
453.18	35.391
453.53	35.993
453.88	35.676
454.23	36.163
454.58	35.312
454.93	36.427
455.28	35.474
455.63	35.922
455.98	36.964
456.34	36.683
456.69	36.130
457.04	34.861
457.39	35.243
457.74	35.287
458.09	35.423
458.44	35.348
458.79	35.629
459.14	36.117
459.49	35.493
459.84	34.571
460.19	35.239
460.54	34.491
460.89	36.369
461.24	35.458
461.59	36.549
461.94	35.388
462.29	37.211
462.64	35.290
462.99	35.329
463.34	35.867
463.69	37.148
464.04	36.116
464.39	35.768
464.74	36.007
465.09	35.887
465.44	35.014
465.79	35.067
466.14	34.866
466.49	34.316
466.84	35.785
467.19	36.874
467.54	35.812
467.89	35.054
468.24	35.777
468.59	36.081
468.94	35.308
469.29	36.632
469.64	36.479
469.99	36.536
470.34	36.063
470.68	37.716
471.03	35.918
471.38	37.318
471.73	36.842
472.08	36.908
472.43	35.616
472.78	36.735
473.13	36.714
473.48	36.767
473.83	37.256
474.17	35.159
474.52	37.283
474.87	38.471
475.22	35.868
475.57	35.733
475.92	35.688
476.27	35.513
476.61	35.962
476.96	35.404
477.31	36.054
477.66	36.050
478.01	35.494
478.36	36.436
478.70	36.293
479.05	35.836
479.40	35.773
479.75	35.638
480.10	34.891
480.45	35.269
480.79	35.165
481.14	36.155
481.49	36.640
481.84	35.071
482.19	35.438
482.53	35.413
482.88	35.272
483.23	35.374
483.58	35.623
483.92	35.239
484.27	34.031
484.62	35.216
484.97	34.608
485.31	35.034
485.66	33.653
486.01	32.167
486.36	30.696
486.70	30.106
487.05	31.213
487.40	32.278
487.75	32.777
488.09	34.183
488.44	34.223
488.79	34.864
489.13	35.752
489.48	34.584
489.83	34.571
490.17	34.809
490.52	35.385
490.87	35.052
491.22	35.198
491.56	34.260
491.91	34.202
492.26	34.359
492.60	35.392
492.95	34.144
493.30	34.953
493.64	35.978
493.99	34.262
494.34	35.199
494.68	36.126
495.03	34.727
495.37	34.667
495.72	35.234
496.07	35.777
496.41	34.027
496.76	34.389
497.11	34.399
497.45	35.259
497.80	35.461
498.14	34.831
498.49	36.293
498.84	35.762
499.18	34.667
499.53	35.613
499.87	34.949
500.22	35.045
500.56	36.117
500.91	34.327
501.26	34.282
501.60	35.168
501.95	34.097
502.29	35.989
502.64	34.311
502.98	34.829
503.33	34.095
503.67	35.452
504.02	35.313
504.36	34.722
504.71	35.467
505.06	34.843
505.40	35.586
505.75	34.233
506.09	35.666
506.44	35.126
506.78	35.314
507.13	35.639
507.47	35.303
507.82	35.968
508.16	35.309
508.51	36.783
508.85	35.402
509.19	36.327
509.54	35.612
509.88	36.270
510.23	35.938
510.57	35.965
510.92	35.940
511.26	35.252
511.61	35.737
511.95	35.856
512.30	35.578
512.64	36.916
512.98	37.406
513.33	36.403
513.67	36.126
514.02	35.552
514.36	36.319
514.70	36.359
515.05	36.419
515.39	36.007
515.74	36.824
516.08	37.060
516.42	37.569
516.77	36.901
517.11	37.014
517.46	37.810
517.80	38.095
518.14	36.248
518.49	38.331
518.83	37.330
519.17	37.240
519.52	36.672
519.86	37.593
520.20	38.092
520.55	38.001
520.89	39.112
521.23	37.937
521.58	37.935
521.92	38.824
522.26	37.706
522.61	38.629
522.95	38.613
523.29	38.284
523.64	39.085
523.98	38.447
524.32	37.334
524.66	37.523
525.01	37.500
525.35	37.546
525.69	38.239
526.04	37.695
526.38	39.414
526.72	37.607
527.06	38.795
527.41	36.881
527.75	38.135
528.09	38.985
528.43	38.623
528.78	37.923
529.12	38.667
529.46	39.069
529.80	38.614
530.15	39.252
530.49	38.031
530.83	38.354
531.17	39.295
531.51	39.818
531.86	37.419
532.20	38.201
532.54	39.334
532.88	38.383
533.22	36.977
533.57	37.593
533.91	37.508
534.25	37.910
534.59	36.913
534.93	37.597
535.27	38.021
535.62	37.668
535.96	38.920
536.30	39.352
536.64	38.828
536.98	38.421
537.32	37.459
537.66	38.933
538.01	38.973
538.35	38.332
538.69	39.311
539.03	37.297
539.37	37.636
539.71	37.071
540.05	36.601
540.39	37.542
540.73	37.646
541.07	38.092
541.42	38.030
541.76	38.000
542.10	37.710
542.44	38.344
542.78	38.999
543.12	37.364
543.46	37.836
543.80	38.061
544.14	37.035
544.48	38.095
544.82	37.973
545.16	37.801
545.50	37.661
545.84	37.567
546.18	38.586
546.52	38.403
546.86	38.007
547.20	38.503
547.54	38.277
547.88	38.648
548.22	37.733
548.56	36.478
548.90	36.940
549.24	36.970
549.58	37.653
549.92	38.462
550.26	38.849
550.60	37.552
550.94	37.887
551.28	38.186
551.62	39.540
551.96	38.737
552.30	38.294
552.64	37.863
552.98	39.390
553.32	37.896
553.66	39.536
554.00	39.190
554.34	37.060
554.68	38.984
555.02	37.165
555.36	37.857
555.69	37.754
556.03	38.022
556.37	38.336
556.71	37.108
557.05	38.515
557.39	38.698
557.73	38.532
558.07	39.086
558.41	37.916
558.75	39.750
559.08	39.523
559.42	38.246
559.76	37.500
560.10	38.401
560.44	37.806
560.78	37.525
561.12	37.797
561.45	37.744
561.79	36.717
562.13	37.760
562.47	37.637
562.81	38.703
563.15	37.191
563.48	37.931
563.82	38.095
564.16	37.868
564.50	36.784
564.84	36.662
565.17	37.452
565.51	37.316
565.85	38.452
566.19	37.132
566.52	37.555
566.86	37.191
567.20	37.441
567.54	35.902
567.88	35.470
568.21	36.296
568.55	35.996
568.89	35.603
569.23	35.428
569.56	33.927
569.90	34.038
570.24	33.728
570.57	33.152
570.91	32.999
571.25	32.335
571.59	32.165
571.92	31.999
572.26	32.727
572.60	32.402
572.93	32.594
573.27	32.742
573.61	32.468
573.95	31.964
574.28	31.633
574.62	31.511
574.96	31.087
575.29	31.014
575.63	30.767
575.97	31.737
576.30	31.944
576.64	31.943
576.98	31.356
577.31	30.869
577.65	31.488
577.98	31.464
578.32	30.937
578.66	30.587
578.99	30.724
579.33	30.792
579.67	30.990
580.00	31.383
580.34	31.300
580.67	31.364
581.01	31.864
581.35	31.008
581.68	30.872
582.02	30.855
582.35	30.633
582.69	30.756
583.02	30.634
583.36	31.220
583.70	32.218
584.03	31.923
584.37	31.989
584.70	32.628
585.04	31.605
585.37	32.130
585.71	31.696
586.04	31.070
586.38	32.184
586.72	32.947
587.05	31.948
587.39	31.425
587.72	31.512
588.06	31.644
588.39	31.715
588.73	32.150
589.06	33.281
589.40	33.367
589.73	33.298
590.07	33.060
590.40	33.175
590.73	34.348
591.07	34.066
591.40	34.205
591.74	34.675
592.07	34.250
592.41	32.823
592.74	32.846
593.08	32.612
593.41	32.743
593.75	31.605
594.08	32.417
594.41	32.697
594.75	33.309
595.08	33.393
595.42	33.065
595.75	32.692
596.09	33.984
596.42	33.674
596.75	34.529
597.09	34.416
597.42	33.137
597.75	33.549
598.09	33.739
598.42	33.978
598.76	33.563
599.09	32.003
599.42	31.769
599.76	32.650
600.09	31.949
600.42	32.286
600.76	32.214
601.09	32.495
601.42	33.143
601.76	32.713
602.09	33.202
602.42	33.201
602.76	33.132
603.09	34.382
603.42	33.112
603.76	32.889
604.09	33.075
604.42	32.980
604.76	33.572
605.09	32.678
605.42	33.989
605.75	34.106
606.09	32.656
606.42	33.919
606.75	33.306
607.09	33.068
607.42	32.649
607.75	32.489
608.08	33.782
608.42	34.290
608.75	34.220
609.08	33.765
609.41	33.793
609.75	32.539
610.08	33.695
610.41	33.240
610.74	33.775
611.07	34.536
611.41	34.053
611.74	34.691
612.07	35.300
612.40	34.942
612.73	34.474
613.07	34.752
613.40	34.544
613.73	33.351
614.06	35.161
614.39	33.718
614.72	34.263
615.06	34.034
615.39	34.130
615.72	33.640
616.05	34.131
616.38	34.797
616.71	35.333
617.05	35.277
617.38	34.937
617.71	35.075
618.04	35.457
618.37	34.004
618.70	34.785
619.03	36.645
619.36	35.642
619.69	36.408
620.03	37.157
620.36	36.430
620.69	36.575
621.02	36.726
621.35	37.431
621.68	35.826
622.01	36.765
622.34	37.519
622.67	36.882
623.00	35.803
623.33	36.526
623.66	36.812
623.99	36.524
624.32	36.377
624.65	36.088
624.99	35.836
625.32	35.482
625.65	36.364
625.98	36.203
626.31	37.792
626.64	38.122
626.97	37.490
627.30	36.326
627.63	38.310
627.96	37.931
628.29	38.233
628.62	38.335
628.95	40.943
629.28	38.139
629.61	40.238
629.94	37.714
630.26	38.704
630.59	37.750
630.92	37.261
631.25	38.105
631.58	38.739
631.91	39.655
632.24	38.502
632.57	39.769
632.90	41.118
633.23	41.834
633.56	42.034
633.89	40.997
634.22	38.933
634.55	40.355
634.88	40.359
635.20	41.219
635.53	40.723
635.86	43.441
636.19	41.412
636.52	40.023
636.85	38.717
637.18	38.940
637.51	41.726
637.83	38.964
638.16	42.967
638.49	40.932
638.82	42.225
639.15	42.125
639.48	43.392
639.81	41.421
640.13	42.448
640.46	40.537
640.79	41.744
641.12	40.715
641.45	41.201
641.77	45.361
642.10	42.251
642.43	42.342
642.76	43.189
643.09	44.939
643.41	41.426
643.74	44.599
644.07	43.445
644.40	43.558
644.73	43.307
645.05	46.910
645.38	43.444
645.71	44.767
646.04	46.844
646.36	46.411
646.69	45.151
647.02	46.939
647.35	45.189
647.67	44.956
648.00	45.691
648.33	43.564
648.66	42.424
648.98	43.178
649.31	41.854
649.64	42.601
649.96	42.474
650.29	43.760
650.62	41.909
650.94	42.788
651.27	45.439
651.60	44.093
651.92	43.450
652.25	43.485
652.58	42.523
652.90	42.812
653.23	42.989
653.56	45.197
653.88	41.997
654.21	42.338
654.54	42.574
654.86	41.745
655.19	40.000
655.52	28.870
655.84	26.022
656.17	33.081
656.49	44.234
656.82	45.018
657.15	33.955
657.47	25.238
657.80	19.705
658.13	20.640
658.45	31.440
658.78	31.276
659.10	33.192
659.43	35.330
659.75	38.321
660.08	40.443
660.41	43.948
660.73	45.997
661.06	45.541
661.38	47.091
661.71	46.346
662.03	45.957
662.36	43.738
662.68	48.795
663.01	44.646
663.33	45.860
663.66	45.378
663.98	46.652
664.31	46.849
664.63	44.939
664.96	40.443
665.28	44.672
665.61	45.809
665.93	44.869
666.26	46.653
666.58	44.351
666.91	46.934
667.23	49.663
667.56	46.220
667.88	49.786
668.21	46.482
668.53	45.553
668.86	47.403
669.18	46.055
669.50	46.087
669.83	47.277
670.15	47.333
670.48	48.584
670.80	47.845
671.13	45.648
671.45	44.255
671.77	46.029
672.10	44.917
672.42	41.873
672.75	41.957
673.07	43.310
673.39	44.304
673.72	44.531
674.04	43.922
674.37	44.078
674.69	45.603
675.01	42.887
675.34	48.460
675.66	48.842
675.98	46.640
676.31	44.538
676.63	46.709
676.95	45.702
677.28	49.299
677.60	45.934
677.92	47.468
678.25	47.228
678.57	45.219
678.89	45.090
679.22	42.436
679.54	42.939
679.86	41.835
680.18	41.682
680.51	42.199
680.83	43.416
681.15	43.585
681.48	43.667
681.80	45.648
682.12	43.487
682.44	43.714
682.77	43.788
683.09	49.142
683.41	46.563
683.73	46.137
684.06	46.488
684.38	43.053
684.70	42.829
685.02	41.651
685.34	43.040
685.67	41.259
685.99	41.753
686.31	41.468
686.63	40.106
686.96	43.214
687.28	41.155
687.60	40.217
687.92	44.607
688.24	41.255
688.56	42.169
688.89	44.191
689.21	46.943
689.53	46.555
689.85	46.120
690.17	43.685
690.49	46.072
690.82	47.196
691.14	43.973
691.46	43.882
691.78	41.165
692.10	44.421
692.42	43.912
692.74	40.664
693.06	44.043
693.39	43.532
693.71	44.541
694.03	45.474
694.35	46.537
694.67	44.851
694.99	44.390
695.31	46.569
695.63	46.172
695.95	47.188
696.27	45.685
696.59	47.668
696.91	49.223
697.23	42.958
697.56	44.776
697.88	41.104
698.20	42.708
698.52	43.011
698.84	46.548
699.16	42.857
699.48	45.368
699.80	45.652
700.12	50.130
700.44	49.072
700.76	50.276
701.08	49.138
701.40	46.648
701.72	48.980
702.04	53.125
702.36	48.725
702.68	48.159
703.00	48.476
703.32	41.755
703.64	47.453
703.96	47.632
704.28	48.547
704.60	50.733
704.91	48.665
705.23	48.094
705.55	56.811
705.87	58.140
706.19	49.117
706.51	53.271
706.83	50.000
707.15	50.980
707.47	45.707
707.79	48.157
708.11	45.434
708.43	45.000
708.74	44.133
709.06	46.753
709.38	45.669
709.70	52.616
710.02	48.665
710.34	51.212
710.66	48.060
710.98	48.011
711.29	49.709
711.61	50.147
711.93	49.038
712.25	53.376
712.57	48.897
712.89	53.287
713.20	48.632
713.52	50.000
713.84	46.203
714.16	47.561
714.48	47.414
714.80	51.064
715.11	46.686
715.43	49.852
715.75	48.116
716.07	47.284
716.39	48.903
716.70	53.488
717.02	53.957
717.34	49.823
717.66	53.358
717.97	53.785
718.29	50.741
718.61	55.109
718.93	50.735
719.24	48.097
719.56	49.153
719.88	49.492
720.20	51.014
720.51	49.477
720.83	56.506
721.15	46.642
721.46	47.872
721.78	53.047
722.10	55.849
722.42	56.767
722.73	52.060
723.05	54.098
723.37	49.798
723.68	57.143
724.00	52.846
724.32	50.000
724.63	49.187
724.95	48.954
725.27	55.061
725.58	51.953
725.90	52.555
726.22	52.075
726.53	48.958
726.85	46.416
727.16	50.890
727.48	47.518
727.80	48.106
728.11	49.275
728.43	55.769
728.74	49.462
729.06	54.745
729.38	51.838
729.69	50.178
730.01	46.075
730.32	46.875
730.64	44.816
730.96	47.525
731.27	50.331
731.59	46.177
731.90	48.397
732.22	46.584
732.53	45.201
732.85	46.474
733.16	47.267
733.48	48.173
733.80	48.377
734.11	48.408
734.43	49.112
734.74	47.714
735.06	44.413
735.37	48.844
735.69	45.223
736.00	46.732
736.32	46.417
736.63	47.923
736.95	48.243
737.26	46.599
737.58	47.419
737.89	47.826
738.21	53.584
738.52	49.286
738.83	46.415
739.15	52.308
739.46	51.095
739.78	50.000
740.09	44.923
740.41	50.323
740.72	44.251
741.04	52.593
741.35	52.917
741.66	61.778
741.98	53.302
742.29	57.895
742.61	54.310
742.92	52.941
743.23	52.564
743.55	51.200
743.86	56.579
744.18	54.867
744.49	55.502
744.80	59.624
745.12	60.455
745.43	53.304
745.74	58.559
746.06	53.670
746.37	58.296
746.68	58.371
747.00	59.722
747.31	56.190
747.62	53.540
747.94	52.863
748.25	48.085
748.56	59.471
748.88	52.970
749.19	62.000
749.50	56.279
749.82	53.252
750.13	51.429
750.44	48.540
750.75	47.719
751.07	49.196
751.38	49.477
751.69	48.014
752.01	46.992
752.32	47.653
752.63	49.645
752.94	51.230
753.26	55.200
753.57	47.154
753.88	48.047
754.19	46.429
754.51	52.431
754.82	47.292
755.13	47.547
755.44	50.376
755.75	43.431
756.07	44.681
756.38	43.796
756.69	46.980
757.00	45.210
757.31	46.588
757.63	43.275
757.94	41.823
758.25	40.686
758.56	40.741
758.87	42.204
759.18	45.758
759.50	43.260
759.81	44.237
760.12	39.688
760.43	46.991
760.74	43.750
761.05	43.785
761.36	40.909
761.67	43.750
761.99	47.205
762.30	46.181
762.61	51.145
762.92	51.953
763.23	50.000
763.54	51.600
763.85	51.953
764.16	46.154
764.47	49.810
764.78	44.523
765.10	42.722
765.41	48.378
765.72	41.018
766.03	44.828
766.34	45.333
766.65	52.766
766.96	52.137
767.27	59.391
767.58	58.854
767.89	56.842
768.20	66.667
768.51	59.391
768.82	50.917
769.13	51.220
769.44	46.559
769.75	53.648
770.06	49.541
770.37	55.204
770.68	53.241
770.99	46.667
771.30	49.590
771.61	52.915
771.92	47.541
772.23	56.303
772.54	54.872
772.85	57.068
773.16	61.702
773.47	59.783
773.78	57.360
774.09	63.095
774.39	58.480
774.70	67.284
775.01	68.116
775.32	65.359
775.63	57.237
775.94	61.871
776.25	70.079
776.56	63.433
776.87	72.951
777.18	67.969
777.48	70.229
777.79	65.909
778.10	74.074
778.41	75.000
778.72	62.044
779.03	58.389
779.34	51.678
779.65	66.892
779.95	58.282
780.26	69.281
780.57	68.966
780.88	82.812
781.19	69.173
781.50	67.568
781.80	62.264
782.11	57.062
782.42	58.861
782.73	61.350
783.04	63.514
783.34	73.944
783.65	69.863
783.96	72.388
784.27	69.231
784.57	57.554
784.88	58.333
785.19	73.810
785.50	68.868
785.81	67.164
786.11	73.770
786.42	68.992
786.73	74.336
787.04	74.528
787.34	63.393
787.65	75.000
787.96	72.973
788.26	71.901
788.57	72.034
788.88	83.471
789.19	61.111
789.49	64.394
789.80	66.412
790.11	79.048
790.41	83.168
790.72	84.337
791.03	93.478
791.33	79.070
791.64	79.381
791.95	79.208
792.25	85.556
792.56	93.506
792.87	97.436
793.17	102.532
793.48	93.103
793.79	86.207
794.09	92.045
794.40	72.269
794.70	70.588
795.01	54.815
795.32	61.871
795.62	68.504
795.93	66.379
796.23	66.372
796.54	74.118
796.85	87.838
797.15	104.225
797.46	109.091
797.76	95.181
798.07	82.278
798.37	107.692
798.68	116.667
798.99	77.465
799.29	93.506
799.60	82.955
799.90	104.110
800.21	113.433
800.51	115.517
800.82	101.754
801.12	96.721
801.43	113.636
801.73	97.297
802.04	92.063
802.34	103.704
802.65	95.312
802.95	135.593
803.26	109.375
803.56	98.571
803.87	100.000
804.17	117.647
804.48	131.481
804.78	101.724
805.09	108.824
805.39	117.308
805.70	123.214
806.00	122.951
806.30	101.515
806.61	85.366
806.91	82.278
807.22	90.789
807.52	95.522
807.83	101.408
808.13	96.875
808.43	88.333
808.74	75.000
809.04	104.348
809.35	92.537
809.65	92.105
809.95	117.742
810.26	113.559
810.56	114.286
810.86	129.545
811.17	171.429
811.47	108.333
811.77	127.778
812.08	112.727
812.38	116.000
812.69	172.222
812.99	156.818
813.29	130.612
813.59	126.190
813.90	144.898
814.20	109.091
814.50	96.923
814.81	86.765
815.11	112.245
815.41	103.279
815.72	147.619
816.02	125.455
816.32	145.238
816.62	127.500
816.93	117.073
817.23	171.429
817.53	127.273
817.84	196.970
818.14	141.304
818.44	140.000
818.74	176.471
819.04	135.000
819.35	168.571
819.65	205.882
819.95	200.000
820.25	250.000
820.56	169.231
820.86	145.455
821.16	172.093
821.46	158.974
821.76	132.000
822.07	171.429
822.37	155.000
822.67	181.818
822.97	131.373
823.27	214.286
823.57	172.973
823.88	177.500
824.18	186.667
824.48	147.619
824.78	216.000
825.08	179.167
825.38	186.486
825.69	139.024
825.99	233.333
826.29	155.172
826.59	163.158
826.89	157.895
827.19	173.529
827.49	196.774
827.79	145.455
828.09	134.091
828.39	134.043
828.70	132.653
829.00	222.222
829.30	174.194
829.60	137.500
829.90	326.667
830.20	200.000
830.50	200.000
830.80	217.391
831.10	160.000
831.40	163.333
831.70	213.043
832.00	250.000
832.30	233.333
832.60	325.000
832.90	183.333
833.20	428.571
833.50	167.742
833.80	148.276
834.10	200.000
834.40	184.615
834.70	261.111
835.00	300.000
835.30	165.714
835.60	346.154
835.90	213.793
836.20	328.571
836.50	241.379
836.80	212.000
837.10	144.444
837.40	261.905
837.70	276.471
838.00	218.519
838.30	252.381
838.60	266.667
838.90	234.615
839.19	230.000
839.49	392.857
839.79	300.000
840.09	255.000
840.39	266.667
840.69	230.435
840.99	288.889
841.29	370.000
841.59	258.333
841.88	256.250
842.18	179.310
842.48	309.524
842.78	193.333
843.08	239.130
843.38	178.125
843.68	633.333
843.97	192.308
844.27	210.345
844.57	300.000
844.87	368.750
845.17	174.074
845.47	1233.333
845.76	400.000
846.06	305.882
846.36	550.000
846.66	328.571
846.96	268.750
847.25	436.364
847.55	509.091
847.85	273.913
848.15	420.000
848.44	371.429
848.74	250.000
849.04	352.941
849.34	510.000
849.63	257.895
849.93	418.182
850.23	900.000
850.53	378.571
850.82	2050.000
851.12	-4000.000
851.42	4400.000
851.71	275.000
852.01	-1200.000
852.31	220.833
852.61	1466.667
852.90	276.190
853.20	176.000
853.50	335.294
853.79	261.905
854.09	225.000
854.39	243.750
854.68	167.568
854.98	164.516
855.28	190.000
855.57	241.379
855.87	211.111
856.17	210.526
856.46	226.667
856.76	252.941
857.05	213.793
857.35	208.333
857.65	306.667
857.94	226.087
858.24	200.000
858.53	260.000
858.83	250.000
859.13	333.333
859.42	0.000
859.72	555.556
860.01	463.636
860.31	222.727
860.60	268.421
860.90	243.478
861.20	555.556
861.49	450.000
861.79	-3900.000
862.08	575.000
862.38	238.095
862.67	353.846
862.97	329.412
863.26	544.444
863.56	283.333
863.85	408.333
864.15	600.000
864.44	306.667
864.74	1000.000
865.03	637.500
865.33	247.368
865.62	400.000
865.92	300.000
866.21	316.667
866.51	0.000
866.80	445.455
867.10	1000.000
867.39	438.462
867.69	372.727
867.98	242.105
868.27	490.909
868.57	289.474
868.86	-4200.000
869.16	331.250
869.45	2300.000
869.75	-4900.000
870.04	400.000
870.33	614.286
870.63	1000.000
870.92	2250.000
871.22	628.571
871.51	352.941
871.80	242.857
872.10	400.000
>>>>>End Processed Spectral Data<<<<<
