SpectraSuite Data File
++++++++++++++++++++++++++++++++++++
Date: Wed May 13 16:49:34 PDT 2015
User: schluterlab
Dark Spectrum Present: Yes
Reference Spectrum Present: Yes
Number of Sampled Component Spectra: 1
Spectrometers: USB2E3373
Integration Time (usec): 3000 (USB2E3373)
Spectra Averaged: 3 (USB2E3373)
Boxcar Smoothing: 0 (USB2E3373)
Correct for Electrical Dark: No (USB2E3373)
Strobe/Lamp Enabled: No (USB2E3373)
Correct for Detector Non-linearity: No (USB2E3373)
Correct for Stray Light: No (USB2E3373)
Number of Pixels in Processed Spectrum: 2048
>>>>>Begin Processed Spectral Data<<<<<
178.53	0.000
178.91	-1450.000
179.29	-1175.000
179.67	-250.000
180.04	-1300.000
180.42	2300.000
180.80	1100.000
181.18	-975.000
181.56	700.000
181.94	0.000
182.31	-685.714
182.69	1733.333
183.07	-562.500
183.45	-466.667
183.83	509.091
184.20	-390.000
184.58	1850.000
184.96	4700.000
185.34	-1040.000
185.72	-537.500
186.09	-1950.000
186.47	2600.000
186.85	2300.000
187.23	4100.000
187.61	-1833.333
187.98	1300.000
188.36	545.455
188.74	472.727
189.12	-780.000
189.49	600.000
189.87	-4200.000
190.25	-1200.000
190.63	471.429
191.00	415.385
191.38	833.333
191.76	-1175.000
192.14	1400.000
192.51	525.000
192.89	916.667
193.27	625.000
193.65	-1300.000
194.02	450.000
194.40	1000.000
194.78	500.000
195.15	566.667
195.53	620.000
195.91	-1700.000
196.29	343.750
196.66	284.211
197.04	-360.000
197.42	0.000
197.79	630.000
198.17	-3900.000
198.55	542.857
198.92	687.500
199.30	800.000
199.68	0.000
200.05	316.667
200.43	771.429
200.81	4800.000
201.18	1533.333
201.56	-1400.000
201.94	633.333
202.31	511.111
202.69	416.667
203.07	540.000
203.44	0.000
203.82	1150.000
204.19	771.429
204.57	378.571
204.95	675.000
205.32	1533.333
205.70	545.455
206.08	371.429
206.45	2650.000
206.83	306.250
207.20	900.000
207.58	740.000
207.96	322.222
208.33	675.000
208.71	-816.667
209.08	771.429
209.46	544.444
209.84	436.364
210.21	-1800.000
210.59	1375.000
210.96	-512.500
211.34	2200.000
211.71	580.000
212.09	833.333
212.46	0.000
212.84	1500.000
213.22	1175.000
213.59	-3900.000
213.97	883.333
214.34	742.857
214.72	581.818
215.09	1180.000
215.47	-1850.000
215.84	-2400.000
216.22	1333.333
216.59	335.714
216.97	1425.000
217.34	454.545
217.72	-683.333
218.09	0.000
218.47	-4600.000
218.84	666.667
219.22	800.000
219.59	1700.000
219.97	-600.000
220.34	1020.000
220.72	-1866.667
221.09	392.857
221.47	1525.000
221.84	-983.333
222.22	0.000
222.59	1200.000
222.97	-2300.000
223.34	1060.000
223.72	384.615
224.09	960.000
224.46	2450.000
224.84	-3800.000
225.21	-1060.000
225.59	-4700.000
225.96	720.000
226.34	305.000
226.71	2600.000
227.08	625.000
227.46	400.000
227.83	-1200.000
228.21	-2350.000
228.58	622.222
228.95	-1950.000
229.33	-2600.000
229.70	1333.333
230.08	671.429
230.45	-800.000
230.82	416.667
231.20	883.333
231.57	642.857
231.95	466.667
232.32	281.818
232.69	290.909
233.07	542.857
233.44	361.538
233.81	-1533.333
234.19	252.632
234.56	383.333
234.93	350.000
235.31	445.455
235.68	330.769
236.05	285.714
236.43	163.636
236.80	231.579
237.17	4000.000
237.55	247.619
237.92	153.571
238.29	209.524
238.67	177.419
239.04	193.103
239.41	125.000
239.79	97.826
240.16	116.667
240.53	134.091
240.91	88.235
241.28	86.000
241.65	90.000
242.02	76.812
242.40	74.194
242.77	95.000
243.14	61.290
243.51	62.921
243.89	64.706
244.26	54.444
244.63	53.763
245.00	46.809
245.38	40.594
245.75	44.860
246.12	41.284
246.49	40.876
246.87	48.000
247.24	54.615
247.61	43.571
247.98	43.791
248.36	33.784
248.73	33.121
249.10	31.847
249.47	32.203
249.84	35.294
250.22	27.807
250.59	31.953
250.96	33.838
251.33	30.332
251.70	30.198
252.08	30.000
252.45	25.112
252.82	22.609
253.19	26.383
253.56	26.275
253.94	30.705
254.31	23.047
254.68	25.000
255.05	23.247
255.42	23.984
255.79	23.897
256.16	26.354
256.54	19.435
256.91	22.420
257.28	17.266
257.65	20.132
258.02	22.050
258.39	22.713
258.76	17.391
259.14	20.536
259.51	20.061
259.88	18.012
260.25	20.242
260.62	15.029
260.99	16.770
261.36	17.417
261.73	18.052
262.10	18.023
262.47	18.028
262.85	15.042
263.22	11.396
263.59	18.234
263.96	17.857
264.33	16.710
264.70	17.105
265.07	18.159
265.44	15.657
265.81	15.085
266.18	12.814
266.55	15.122
266.92	15.479
267.29	15.741
267.66	14.679
268.03	15.682
268.40	17.056
268.77	15.036
269.14	14.189
269.51	15.801
269.88	15.152
270.25	13.770
270.62	13.933
270.99	16.774
271.36	15.665
271.73	15.187
272.10	13.261
272.47	16.129
272.84	14.069
273.21	15.514
273.58	13.974
273.95	13.208
274.32	13.636
274.69	12.848
275.06	13.780
275.43	14.043
275.80	14.830
276.17	13.035
276.54	14.553
276.91	15.810
277.28	13.477
277.65	13.926
278.02	12.422
278.39	13.086
278.76	14.000
279.13	13.019
279.50	13.408
279.87	13.546
280.23	13.174
280.60	13.346
280.97	12.754
281.34	12.743
281.71	13.818
282.08	13.820
282.45	11.818
282.82	11.012
283.19	11.230
283.56	12.982
283.92	12.352
284.29	12.169
284.66	11.071
285.03	11.212
285.40	11.444
285.77	11.616
286.14	12.263
286.51	13.333
286.87	12.479
287.24	12.704
287.61	12.520
287.98	11.526
288.35	12.678
288.72	10.903
289.08	11.111
289.45	10.708
289.82	10.894
290.19	9.733
290.56	9.954
290.93	9.215
291.29	12.577
291.66	12.389
292.03	14.680
292.40	13.363
292.77	11.391
293.13	11.940
293.50	11.516
293.87	12.444
294.24	12.148
294.60	9.753
294.97	10.465
295.34	13.117
295.71	11.364
296.08	10.399
296.44	10.729
296.81	10.832
297.18	10.976
297.55	8.971
297.91	10.818
298.28	13.119
298.65	12.141
299.02	13.043
299.38	8.632
299.75	8.760
300.12	8.557
300.48	10.625
300.85	10.974
301.22	9.682
301.59	10.227
301.95	12.343
302.32	10.655
302.69	10.633
303.05	11.636
303.42	10.123
303.79	10.985
304.15	9.324
304.52	8.806
304.89	9.872
305.25	10.093
305.62	10.079
305.99	10.153
306.35	10.515
306.72	10.762
307.09	11.210
307.45	11.712
307.82	8.705
308.19	11.258
308.55	11.866
308.92	10.311
309.29	10.348
309.65	9.968
310.02	10.782
310.38	10.645
310.75	11.299
311.12	11.259
311.48	11.599
311.85	11.426
312.22	11.134
312.58	11.435
312.95	10.243
313.31	10.971
313.68	11.642
314.05	12.327
314.41	11.658
314.78	11.279
315.14	12.016
315.51	12.667
315.87	11.782
316.24	11.321
316.61	12.183
316.97	11.252
317.34	11.350
317.70	12.715
318.07	12.127
318.43	12.329
318.80	12.840
319.16	12.335
319.53	12.101
319.89	12.857
320.26	12.600
320.62	13.393
320.99	13.030
321.35	12.424
321.72	12.628
322.08	13.623
322.45	14.527
322.81	14.147
323.18	14.451
323.54	13.544
323.91	14.340
324.27	13.862
324.64	13.700
325.00	14.067
325.37	15.378
325.73	16.158
326.10	15.446
326.46	14.158
326.83	16.911
327.19	16.055
327.56	14.634
327.92	14.611
328.29	16.327
328.65	16.206
329.01	15.614
329.38	16.004
329.74	15.974
330.11	17.059
330.47	16.162
330.84	17.188
331.20	15.301
331.56	15.596
331.93	16.296
332.29	17.036
332.66	16.726
333.02	17.002
333.38	15.357
333.75	16.578
334.11	16.726
334.48	15.794
334.84	15.901
335.20	16.455
335.57	15.775
335.93	16.161
336.29	16.026
336.66	16.050
337.02	15.475
337.38	16.389
337.75	15.062
338.11	15.398
338.47	16.483
338.84	15.949
339.20	15.229
339.56	17.336
339.93	15.727
340.29	16.214
340.65	15.954
341.02	16.579
341.38	15.658
341.74	16.053
342.11	16.419
342.47	15.859
342.83	16.695
343.20	16.970
343.56	16.007
343.92	14.912
344.28	15.731
344.65	15.649
345.01	15.741
345.37	14.837
345.73	15.059
346.10	15.516
346.46	15.847
346.82	16.310
347.19	15.288
347.55	15.271
347.91	16.828
348.27	15.941
348.63	15.385
349.00	16.424
349.36	14.368
349.72	15.638
350.08	14.992
350.45	14.890
350.81	15.678
351.17	15.802
351.53	15.397
351.89	14.769
352.26	15.706
352.62	15.477
352.98	15.559
353.34	16.598
353.70	13.666
354.07	15.000
354.43	15.635
354.79	14.883
355.15	14.924
355.51	16.227
355.87	16.082
356.24	14.984
356.60	14.435
356.96	14.722
357.32	15.372
357.68	14.803
358.04	15.914
358.40	15.994
358.77	15.806
359.13	15.312
359.49	15.529
359.85	13.492
360.21	15.152
360.57	16.031
360.93	16.000
361.29	15.646
361.66	15.557
362.02	15.224
362.38	15.437
362.74	15.699
363.10	14.508
363.46	15.701
363.82	14.361
364.18	15.492
364.54	16.419
364.90	15.652
365.26	15.735
365.62	15.997
365.98	14.901
366.35	14.542
366.71	15.546
367.07	15.295
367.43	15.602
367.79	15.774
368.15	16.595
368.51	15.625
368.87	15.989
369.23	15.069
369.59	15.713
369.95	15.368
370.31	15.954
370.67	15.580
371.03	16.404
371.39	14.796
371.75	16.618
372.11	15.078
372.47	16.129
372.83	16.715
373.19	15.101
373.55	16.482
373.91	17.231
374.27	15.808
374.63	15.782
374.99	16.879
375.35	15.073
375.71	16.175
376.07	16.187
376.42	17.194
376.78	17.230
377.14	16.621
377.50	16.556
377.86	16.024
378.22	16.877
378.58	16.792
378.94	17.033
379.30	15.840
379.66	16.878
380.02	16.032
380.38	15.665
380.74	16.987
381.09	16.198
381.45	17.210
381.81	17.998
382.17	17.070
382.53	17.610
382.89	17.716
383.25	16.385
383.61	19.145
383.97	16.385
384.32	17.342
384.68	17.224
385.04	17.025
385.40	17.895
385.76	16.462
386.12	18.005
386.48	17.181
386.83	17.062
387.19	18.738
387.55	17.687
387.91	17.473
388.27	17.535
388.62	18.869
388.98	17.998
389.34	18.899
389.70	19.191
390.06	18.504
390.42	18.872
390.77	18.384
391.13	18.507
391.49	19.480
391.85	18.587
392.20	17.666
392.56	18.119
392.92	18.246
393.28	17.811
393.64	18.465
393.99	17.715
394.35	18.486
394.71	18.256
395.07	18.629
395.42	18.232
395.78	18.257
396.14	18.746
396.50	18.734
396.85	18.945
397.21	17.879
397.57	18.599
397.92	18.209
398.28	17.993
398.64	17.742
399.00	17.571
399.35	17.597
399.71	17.535
400.07	19.219
400.42	19.141
400.78	18.758
401.14	17.866
401.49	18.507
401.85	17.544
402.21	18.323
402.57	17.952
402.92	18.789
403.28	19.176
403.63	19.245
403.99	18.089
404.35	18.909
404.70	18.465
405.06	17.414
405.42	18.777
405.77	18.571
406.13	18.792
406.49	18.332
406.84	19.019
407.20	17.730
407.55	18.571
407.91	18.600
408.27	18.698
408.62	18.904
408.98	18.137
409.34	18.020
409.69	18.323
410.05	17.658
410.40	17.798
410.76	18.757
411.11	19.059
411.47	18.083
411.83	18.632
412.18	17.749
412.54	18.991
412.89	19.157
413.25	18.241
413.60	17.665
413.96	17.851
414.31	18.348
414.67	19.392
415.03	17.682
415.38	18.621
415.74	17.942
416.09	18.811
416.45	16.867
416.80	19.365
417.16	19.504
417.51	19.642
417.87	17.213
418.22	18.738
418.58	19.561
418.93	18.673
419.29	18.842
419.64	18.640
420.00	18.293
420.35	18.145
420.71	19.008
421.06	17.542
421.42	18.713
421.77	19.170
422.12	17.574
422.48	17.917
422.83	18.870
423.19	18.398
423.54	18.282
423.90	18.261
424.25	18.705
424.61	18.512
424.96	18.659
425.31	18.217
425.67	18.034
426.02	18.571
426.38	18.987
426.73	17.905
427.09	18.541
427.44	18.516
427.79	18.689
428.15	18.571
428.50	19.134
428.85	18.713
429.21	18.609
429.56	18.196
429.92	17.765
430.27	18.272
430.62	18.280
430.98	18.630
431.33	18.196
431.68	18.115
432.04	18.158
432.39	18.504
432.74	18.791
433.10	18.846
433.45	19.125
433.80	18.681
434.16	18.750
434.51	17.842
434.86	18.358
435.22	18.232
435.57	18.176
435.92	18.549
436.28	18.861
436.63	19.205
436.98	18.832
437.34	19.499
437.69	19.253
438.04	17.931
438.39	18.925
438.75	18.652
439.10	18.324
439.45	18.831
439.81	18.671
440.16	18.012
440.51	18.629
440.86	19.398
441.22	18.576
441.57	18.418
441.92	18.475
442.27	18.676
442.63	18.220
442.98	19.268
443.33	19.348
443.68	18.689
444.03	18.546
444.39	18.647
444.74	18.182
445.09	18.868
445.44	19.081
445.79	18.605
446.15	19.005
446.50	18.309
446.85	18.602
447.20	18.919
447.55	18.760
447.91	18.864
448.26	18.587
448.61	18.655
448.96	19.269
449.31	19.629
449.66	18.514
450.02	17.994
450.37	18.424
450.72	18.218
451.07	18.647
451.42	18.480
451.77	19.495
452.12	19.342
452.47	19.403
452.83	18.765
453.18	19.193
453.53	19.048
453.88	18.724
454.23	19.904
454.58	19.322
454.93	20.598
455.28	19.015
455.63	19.175
455.98	20.119
456.34	18.216
456.69	19.161
457.04	19.195
457.39	18.644
457.74	20.023
458.09	19.609
458.44	19.327
458.79	18.764
459.14	19.244
459.49	19.498
459.84	19.003
460.19	18.680
460.54	19.097
460.89	19.309
461.24	18.579
461.59	19.930
461.94	18.804
462.29	20.000
462.64	18.826
462.99	19.063
463.34	20.333
463.69	19.262
464.04	19.826
464.39	18.377
464.74	18.598
465.09	19.119
465.44	19.612
465.79	18.065
466.14	18.774
466.49	18.966
466.84	18.214
467.19	19.191
467.54	19.062
467.89	19.568
468.24	19.372
468.59	20.085
468.94	18.815
469.29	19.087
469.64	19.679
469.99	19.486
470.34	19.089
470.68	20.115
471.03	19.728
471.38	20.848
471.73	19.654
472.08	19.803
472.43	19.786
472.78	19.289
473.13	20.218
473.48	19.476
473.83	19.573
474.17	18.668
474.52	19.603
474.87	19.381
475.22	20.023
475.57	18.753
475.92	18.534
476.27	19.278
476.61	19.415
476.96	18.747
477.31	18.891
477.66	18.873
478.01	18.662
478.36	18.773
478.70	17.861
479.05	18.956
479.40	18.782
479.75	18.709
480.10	18.042
480.45	18.229
480.79	18.729
481.14	18.738
481.49	18.225
481.84	18.153
482.19	18.401
482.53	18.394
482.88	19.172
483.23	19.159
483.58	18.517
483.92	18.416
484.27	17.037
484.62	18.103
484.97	17.698
485.31	18.664
485.66	16.962
486.01	16.139
486.36	15.533
486.70	15.282
487.05	15.945
487.40	16.318
487.75	17.059
488.09	17.774
488.44	17.445
488.79	18.011
489.13	18.526
489.48	18.760
489.83	18.515
490.17	18.720
490.52	18.113
490.87	18.001
491.22	17.781
491.56	18.132
491.91	17.915
492.26	18.190
492.60	18.295
492.95	17.914
493.30	18.224
493.64	18.525
493.99	18.338
494.34	18.501
494.68	19.185
495.03	17.810
495.37	18.195
495.72	18.226
496.07	18.840
496.41	17.743
496.76	17.942
497.11	18.685
497.45	17.839
497.80	18.954
498.14	18.357
498.49	18.927
498.84	19.223
499.18	18.571
499.53	18.851
499.87	18.500
500.22	18.606
500.56	18.932
500.91	18.077
501.26	18.350
501.60	19.506
501.95	18.653
502.29	18.557
502.64	18.901
502.98	18.093
503.33	18.419
503.67	18.561
504.02	18.054
504.36	18.577
504.71	19.052
505.06	19.325
505.40	18.862
505.75	18.081
506.09	18.707
506.44	18.944
506.78	18.850
507.13	18.778
507.47	19.343
507.82	19.706
508.16	19.352
508.51	19.330
508.85	18.570
509.19	19.286
509.54	18.929
509.88	18.959
510.23	18.458
510.57	19.866
510.92	18.591
511.26	19.065
511.61	18.672
511.95	18.633
512.30	18.876
512.64	19.076
512.98	20.418
513.33	19.700
513.67	18.997
514.02	18.723
514.36	18.951
514.70	19.590
515.05	19.130
515.39	19.798
515.74	18.863
516.08	19.788
516.42	19.367
516.77	19.788
517.11	19.589
517.46	20.090
517.80	20.093
518.14	18.703
518.49	20.828
518.83	19.602
519.17	19.284
519.52	19.242
519.86	19.452
520.20	20.116
520.55	20.706
520.89	20.438
521.23	20.748
521.58	20.108
521.92	19.841
522.26	19.341
522.61	19.751
522.95	20.258
523.29	19.781
523.64	19.939
523.98	20.887
524.32	19.723
524.66	19.302
525.01	20.282
525.35	20.756
525.69	19.828
526.04	20.748
526.38	20.317
526.72	20.123
527.06	20.339
527.41	18.626
527.75	20.450
528.09	20.745
528.43	20.013
528.78	20.344
529.12	20.364
529.46	19.963
529.80	20.545
530.15	20.623
530.49	20.123
530.83	20.190
531.17	20.561
531.51	21.077
531.86	20.839
532.20	20.535
532.54	20.884
532.88	20.347
533.22	19.113
533.57	19.753
533.91	19.928
534.25	20.413
534.59	19.402
534.93	19.929
535.27	19.433
535.62	20.147
535.96	19.648
536.30	19.962
536.64	20.412
536.98	20.703
537.32	20.145
537.66	20.467
538.01	20.540
538.35	20.427
538.69	20.421
539.03	20.468
539.37	19.425
539.71	19.119
540.05	20.196
540.39	20.399
540.73	20.116
541.07	20.182
541.42	20.809
541.76	20.387
542.10	20.893
542.44	20.265
542.78	21.410
543.12	20.026
543.46	20.984
543.80	20.429
544.14	18.485
544.48	20.825
544.82	19.756
545.16	20.169
545.50	19.280
545.84	19.892
546.18	20.337
546.52	21.060
546.86	20.893
547.20	20.432
547.54	20.508
547.88	21.173
548.22	19.676
548.56	19.811
548.90	19.334
549.24	20.808
549.58	21.146
549.92	21.291
550.26	20.099
550.60	21.508
550.94	20.915
551.28	20.337
551.62	21.711
551.96	21.333
552.30	21.160
552.64	20.352
552.98	20.610
553.32	21.308
553.66	21.268
554.00	20.796
554.34	21.118
554.68	21.388
555.02	20.592
555.36	20.738
555.69	20.433
556.03	21.063
556.37	20.737
556.71	20.123
557.05	19.678
557.39	20.574
557.73	20.819
558.07	20.740
558.41	20.478
558.75	21.528
559.08	21.775
559.42	20.862
559.76	21.103
560.10	20.414
560.44	20.825
560.78	20.625
561.12	21.108
561.45	20.795
561.79	20.699
562.13	21.462
562.47	20.902
562.81	21.339
563.15	20.669
563.48	21.088
563.82	20.352
564.16	20.144
564.50	20.508
564.84	20.607
565.17	20.142
565.51	20.575
565.85	20.431
566.19	19.411
566.52	19.633
566.86	19.952
567.20	20.991
567.54	19.977
567.88	18.685
568.21	19.735
568.55	19.363
568.89	19.066
569.23	19.340
569.56	18.583
569.90	18.075
570.24	17.761
570.57	17.375
570.91	17.130
571.25	17.449
571.59	17.408
571.92	17.224
572.26	17.649
572.60	17.958
572.93	17.301
573.27	17.332
573.61	17.560
573.95	17.933
574.28	17.060
574.62	17.007
574.96	16.440
575.29	16.489
575.63	16.692
575.97	17.027
576.30	17.313
576.64	17.134
576.98	17.137
577.31	16.959
577.65	16.895
577.98	16.787
578.32	16.620
578.66	16.499
578.99	16.686
579.33	17.139
579.67	16.955
580.00	17.022
580.34	17.181
580.67	17.017
581.01	17.248
581.35	16.895
581.68	16.831
582.02	16.565
582.35	16.239
582.69	16.506
583.02	16.468
583.36	17.178
583.70	17.433
584.03	17.685
584.37	17.628
584.70	17.685
585.04	17.759
585.37	17.008
585.71	17.552
586.04	17.178
586.38	17.816
586.72	17.896
587.05	17.305
587.39	16.860
587.72	17.650
588.06	17.102
588.39	17.641
588.73	17.336
589.06	18.355
589.40	18.182
589.73	18.198
590.07	17.794
590.40	17.939
590.73	18.579
591.07	19.495
591.40	18.262
591.74	19.091
592.07	18.455
592.41	18.189
592.74	18.240
593.08	17.655
593.41	17.779
593.75	17.520
594.08	17.801
594.41	17.851
594.75	17.745
595.08	18.862
595.42	18.179
595.75	18.020
596.09	18.551
596.42	18.821
596.75	19.249
597.09	19.091
597.42	18.845
597.75	18.844
598.09	19.043
598.42	18.514
598.76	18.727
599.09	17.864
599.42	18.013
599.76	18.155
600.09	17.778
600.42	18.115
600.76	18.250
601.09	18.142
601.42	18.037
601.76	18.027
602.09	18.498
602.42	19.268
602.76	18.581
603.09	18.765
603.42	18.704
603.76	17.988
604.09	18.302
604.42	18.793
604.76	19.275
605.09	19.091
605.42	18.897
605.75	18.171
606.09	18.625
606.42	18.063
606.75	18.623
607.09	19.046
607.42	18.699
607.75	17.595
608.08	18.411
608.42	18.646
608.75	18.575
609.08	18.316
609.41	18.991
609.75	19.057
610.08	19.746
610.41	18.762
610.74	19.395
611.07	19.417
611.41	19.087
611.74	19.658
612.07	19.358
612.40	19.622
612.73	19.000
613.07	19.881
613.40	19.273
613.73	19.612
614.06	19.086
614.39	19.402
614.72	19.000
615.06	19.485
615.39	19.427
615.72	19.785
616.05	19.192
616.38	19.844
616.71	20.487
617.05	20.730
617.38	20.265
617.71	19.940
618.04	20.192
618.37	20.343
618.70	20.597
619.03	20.855
619.36	21.453
619.69	20.915
620.03	21.016
620.36	21.390
620.69	22.329
621.02	21.091
621.35	21.535
621.68	20.717
622.01	21.672
622.34	20.726
622.67	21.521
623.00	19.736
623.33	20.443
623.66	20.801
623.99	21.208
624.32	20.613
624.65	21.540
624.99	19.405
625.32	20.565
625.65	20.887
625.98	21.599
626.31	21.540
626.64	21.388
626.97	21.862
627.30	21.280
627.63	22.724
627.96	22.456
628.29	22.572
628.62	22.598
628.95	23.868
629.28	21.898
629.61	23.098
629.94	24.095
630.26	22.212
630.59	22.116
630.92	23.276
631.25	21.816
631.58	24.324
631.91	23.225
632.24	21.835
632.57	23.190
632.90	23.136
633.23	24.385
633.56	23.503
633.89	24.689
634.22	23.950
634.55	25.680
634.88	22.874
635.20	24.373
635.53	24.458
635.86	24.752
636.19	22.941
636.52	24.106
636.85	23.024
637.18	22.581
637.51	23.641
637.83	21.825
638.16	24.936
638.49	23.678
638.82	24.905
639.15	24.625
639.48	23.815
639.81	25.335
640.13	24.609
640.46	26.174
640.79	25.892
641.12	24.897
641.45	24.441
641.77	25.184
642.10	25.439
642.43	25.526
642.76	26.006
643.09	27.607
643.41	24.279
643.74	27.469
644.07	25.305
644.40	28.528
644.73	28.976
645.05	28.209
645.38	26.066
645.71	28.986
646.04	26.910
646.36	28.047
646.69	26.923
647.02	27.891
647.35	27.320
647.67	29.027
648.00	25.528
648.33	25.743
648.66	25.303
648.98	26.237
649.31	24.813
649.64	24.664
649.96	25.186
650.29	25.276
650.62	24.434
650.94	26.904
651.27	28.378
651.60	26.123
651.92	25.879
652.25	26.059
652.58	25.078
652.90	26.698
653.23	25.424
653.56	24.882
653.88	26.307
654.21	27.488
654.54	26.073
654.86	26.168
655.19	25.270
655.52	16.975
655.84	13.398
656.17	17.110
656.49	23.394
656.82	24.147
657.15	18.360
657.47	13.866
657.80	10.739
658.13	11.490
658.45	17.610
658.78	17.900
659.10	18.631
659.43	20.048
659.75	21.929
660.08	23.291
660.41	25.419
660.73	27.827
661.06	27.070
661.38	29.636
661.71	29.615
662.03	29.389
662.36	26.044
662.68	30.120
663.01	28.081
663.33	29.087
663.66	29.622
663.98	28.078
664.31	29.202
664.63	27.733
664.96	24.145
665.28	28.074
665.61	26.901
665.93	26.559
666.26	28.803
666.58	26.569
666.91	27.061
667.23	31.685
667.56	29.374
667.88	29.701
668.21	29.424
668.53	26.898
668.86	29.004
669.18	31.130
669.50	30.000
669.83	32.462
670.15	29.556
670.48	28.758
670.80	29.741
671.13	32.484
671.45	27.447
671.77	30.346
672.10	28.096
672.42	28.445
672.75	26.036
673.07	26.761
673.39	25.678
673.72	26.172
674.04	30.784
674.37	26.796
674.69	26.380
675.01	28.452
675.34	29.158
675.66	31.158
675.98	29.124
676.31	28.571
676.63	30.786
676.95	27.673
677.28	26.636
677.60	27.473
677.92	29.958
678.25	27.105
678.57	26.096
678.89	27.856
679.22	26.916
679.54	29.389
679.86	27.890
680.18	24.508
680.51	26.064
680.83	26.868
681.15	29.057
681.48	30.624
681.80	26.692
682.12	25.862
682.44	24.565
682.77	27.902
683.09	33.047
683.41	28.160
683.73	30.905
684.06	30.785
684.38	27.202
684.70	30.039
685.02	27.205
685.34	26.190
685.67	24.650
685.99	24.055
686.31	23.379
686.63	25.088
686.96	24.821
687.28	26.173
687.60	28.261
687.92	27.422
688.24	27.376
688.56	29.518
688.89	28.423
689.21	29.913
689.53	28.392
689.85	27.494
690.17	25.259
690.49	26.752
690.82	28.271
691.14	27.232
691.46	27.848
691.78	28.313
692.10	29.959
692.42	29.142
692.74	26.971
693.06	27.872
693.39	27.310
693.71	26.201
694.03	29.474
694.35	27.489
694.67	27.460
694.99	30.488
695.31	28.922
695.63	27.273
695.95	30.318
696.27	26.904
696.59	31.088
696.91	32.124
697.23	28.638
697.56	28.571
697.88	23.722
698.20	27.083
698.52	25.806
698.84	28.285
699.16	26.037
699.48	28.979
699.80	31.643
700.12	29.091
700.44	31.300
700.76	27.901
701.08	30.747
701.40	29.609
701.72	31.778
702.04	32.386
702.36	28.895
702.68	30.878
703.00	31.579
703.32	28.191
703.64	32.172
703.96	30.919
704.28	33.140
704.60	31.378
704.91	31.751
705.23	33.724
705.55	29.900
705.87	37.542
706.19	32.155
706.51	30.530
706.83	33.939
707.15	30.252
707.47	27.525
707.79	29.975
708.11	28.082
708.43	27.143
708.74	27.551
709.06	31.688
709.38	28.084
709.70	29.651
710.02	32.047
710.34	28.182
710.66	31.343
710.98	33.523
711.29	32.267
711.61	32.743
711.93	31.090
712.25	32.154
712.57	37.868
712.89	32.180
713.20	34.347
713.52	32.895
713.84	29.114
714.16	28.963
714.48	29.598
714.80	34.043
715.11	29.107
715.43	30.564
715.75	29.565
716.07	28.435
716.39	28.527
716.70	34.551
717.02	31.655
717.34	35.689
717.66	35.821
717.97	37.450
718.29	36.296
718.61	31.387
718.93	31.985
719.24	33.910
719.56	30.169
719.88	34.237
720.20	32.095
720.51	32.753
720.83	38.290
721.15	31.343
721.46	30.851
721.78	37.634
722.10	35.094
722.42	33.459
722.73	34.831
723.05	34.016
723.37	38.057
723.68	34.363
724.00	34.959
724.32	37.500
724.63	36.179
724.95	36.820
725.27	36.437
725.58	30.469
725.90	31.752
726.22	35.094
726.53	32.986
726.85	34.812
727.16	35.587
727.48	29.787
727.80	34.848
728.11	35.870
728.43	32.692
728.74	35.484
729.06	39.781
729.38	37.132
729.69	33.096
730.01	31.058
730.32	31.250
730.64	30.100
730.96	27.063
731.27	31.126
731.59	31.804
731.90	29.738
732.22	29.503
732.53	27.245
732.85	31.731
733.16	29.582
733.48	31.229
733.80	31.494
734.11	35.032
734.43	32.249
734.74	27.429
735.06	25.788
735.37	32.081
735.69	25.796
736.00	31.373
736.32	30.530
736.63	30.032
736.95	28.435
737.26	25.170
737.58	30.000
737.89	30.435
738.21	32.423
738.52	30.714
738.83	29.434
739.15	32.308
739.46	34.672
739.78	34.028
740.09	31.077
740.41	28.387
740.72	30.314
741.04	34.074
741.35	34.167
741.66	42.222
741.98	31.604
742.29	39.713
742.61	40.948
742.92	34.842
743.23	35.470
743.55	39.600
743.86	32.456
744.18	41.593
744.49	41.627
744.80	37.089
745.12	40.455
745.43	33.040
745.74	41.892
746.06	38.073
746.37	35.426
746.68	38.914
747.00	41.204
747.31	40.952
747.62	37.611
747.94	39.207
748.25	37.021
748.56	36.564
748.88	33.663
749.19	46.500
749.50	35.814
749.82	34.553
750.13	34.694
750.44	33.577
750.75	34.386
751.07	34.084
751.38	31.359
751.69	30.325
752.01	29.699
752.32	32.852
752.63	30.851
752.94	37.705
753.26	37.200
753.57	30.488
753.88	32.422
754.19	32.857
754.51	32.639
754.82	31.047
755.13	34.340
755.44	31.203
755.75	28.102
756.07	32.270
756.38	29.197
756.69	30.537
757.00	28.144
757.31	28.783
757.63	27.485
757.94	24.129
758.25	26.716
758.56	23.704
758.87	26.075
759.18	27.576
759.50	30.408
759.81	26.791
760.12	25.625
760.43	29.513
760.74	28.804
761.05	26.836
761.36	26.203
761.67	27.557
761.99	27.950
762.30	30.556
762.61	30.534
762.92	35.937
763.23	31.933
763.54	32.800
763.85	30.469
764.16	32.308
764.47	33.080
764.78	26.502
765.10	25.949
765.41	30.088
765.72	30.838
766.03	28.213
766.34	28.667
766.65	33.617
766.96	37.179
767.27	35.025
767.58	43.750
767.89	38.421
768.20	39.080
768.51	39.594
768.82	34.404
769.13	30.488
769.44	32.794
769.75	34.335
770.06	29.817
770.37	42.081
770.68	34.259
770.99	33.778
771.30	28.279
771.61	34.978
771.92	34.426
772.23	41.176
772.54	37.436
772.85	35.602
773.16	34.574
773.47	41.304
773.78	45.178
774.09	45.238
774.39	36.842
774.70	41.358
775.01	46.377
775.32	52.941
775.63	50.658
775.94	51.799
776.25	52.756
776.56	52.985
776.87	58.197
777.18	53.125
777.48	56.489
777.79	56.061
778.10	47.407
778.41	49.107
778.72	46.715
779.03	36.913
779.34	40.940
779.65	41.216
779.95	42.945
780.26	45.752
780.57	47.586
780.88	57.813
781.19	45.113
781.50	50.000
781.80	37.736
782.11	39.548
782.42	41.772
782.73	42.945
783.04	47.297
783.34	45.775
783.65	47.945
783.96	47.015
784.27	53.147
784.57	41.007
784.88	50.926
785.19	61.111
785.50	52.830
785.81	55.224
786.11	56.557
786.42	44.961
786.73	53.097
787.04	52.830
787.34	57.143
787.65	57.000
787.96	62.162
788.26	47.934
788.57	51.695
788.88	54.545
789.19	58.333
789.49	55.303
789.80	45.802
790.11	57.143
790.41	62.376
790.72	67.470
791.03	66.304
791.33	59.302
791.64	65.979
791.95	66.337
792.25	73.333
792.56	67.532
792.87	78.205
793.17	78.481
793.48	88.506
793.79	71.264
794.09	72.727
794.40	57.143
794.70	51.471
795.01	50.370
795.32	44.604
795.62	53.543
795.93	63.793
796.23	55.752
796.54	65.882
796.85	77.027
797.15	90.141
797.46	72.727
797.76	75.904
798.07	65.823
798.37	83.077
798.68	78.788
798.99	69.014
799.29	77.922
799.60	67.045
799.90	84.932
800.21	80.597
800.51	93.103
800.82	94.737
801.12	86.885
801.43	93.939
801.73	83.784
802.04	80.952
802.34	83.951
802.65	84.375
802.95	108.475
803.26	103.125
803.56	82.857
803.87	75.385
804.17	85.294
804.48	122.222
804.78	77.586
805.09	98.529
805.39	96.154
805.70	94.643
806.00	98.361
806.30	87.879
806.61	73.171
806.91	69.620
807.22	71.053
807.52	59.701
807.83	80.282
808.13	89.062
808.43	68.333
808.74	78.947
809.04	91.304
809.35	76.119
809.65	81.579
809.95	100.000
810.26	105.085
810.56	85.714
810.86	129.545
811.17	126.190
811.47	106.667
811.77	96.296
812.08	107.273
812.38	110.000
812.69	150.000
812.99	129.545
813.29	120.408
813.59	102.381
813.90	122.449
814.20	92.727
814.50	90.769
814.81	94.118
815.11	97.959
815.41	95.082
815.72	147.619
816.02	110.909
816.32	121.429
816.62	105.000
816.93	104.878
817.23	145.238
817.53	109.091
817.84	175.758
818.14	113.043
818.44	128.889
818.74	161.765
819.04	145.000
819.35	148.571
819.65	161.765
819.95	189.286
820.25	205.000
820.56	148.718
820.86	125.000
821.16	123.256
821.46	130.769
821.76	110.000
822.07	134.286
822.37	130.000
822.67	148.485
822.97	82.353
823.27	167.857
823.57	151.351
823.88	157.500
824.18	153.333
824.48	147.619
824.78	180.000
825.08	145.833
825.38	164.865
825.69	109.756
825.99	195.833
826.29	131.034
826.59	147.368
826.89	144.737
827.19	167.647
827.49	164.516
827.79	150.000
828.09	102.273
828.39	112.766
828.70	100.000
829.00	140.741
829.30	135.484
829.60	130.000
829.90	266.667
830.20	178.571
830.50	173.913
830.80	204.348
831.10	166.667
831.40	206.667
831.70	186.957
832.00	219.231
832.30	200.000
832.60	268.750
832.90	186.667
833.20	428.571
833.50	174.194
833.80	189.655
834.10	168.750
834.40	180.769
834.70	255.556
835.00	261.905
835.30	148.571
835.60	261.538
835.90	162.069
836.20	228.571
836.50	168.966
836.80	168.000
837.10	172.222
837.40	266.667
837.70	294.118
838.00	196.296
838.30	219.048
838.60	280.952
838.90	226.923
839.19	195.000
839.49	350.000
839.79	335.000
840.09	290.000
840.39	257.143
840.69	226.087
840.99	266.667
841.29	480.000
841.59	258.333
841.88	350.000
842.18	165.517
842.48	261.905
842.78	153.333
843.08	260.870
843.38	143.750
843.68	716.667
843.97	242.308
844.27	186.207
844.57	266.667
844.87	331.250
845.17	218.519
845.47	1333.333
845.76	422.222
846.06	264.706
846.36	462.500
846.66	350.000
846.96	275.000
847.25	400.000
847.55	345.455
847.85	208.696
848.15	470.000
848.44	278.571
848.74	233.333
849.04	323.529
849.34	500.000
849.63	200.000
849.93	436.364
850.23	1040.000
850.53	378.571
850.82	1950.000
851.12	-4900.000
851.42	3900.000
851.71	255.000
852.01	-1266.667
852.31	233.333
852.61	1566.667
852.90	242.857
853.20	240.000
853.50	288.235
853.79	266.667
854.09	187.500
854.39	325.000
854.68	178.378
854.98	203.226
855.28	176.667
855.57	172.414
855.87	196.296
856.17	242.105
856.46	253.333
856.76	282.353
857.05	200.000
857.35	208.333
857.65	300.000
857.94	243.478
858.24	203.846
858.53	245.000
858.83	240.909
859.13	346.667
859.42	0.000
859.72	544.444
860.01	418.182
860.31	245.455
860.60	284.211
860.90	200.000
861.20	422.222
861.49	475.000
861.79	-4100.000
862.08	600.000
862.38	271.429
862.67	230.769
862.97	270.588
863.26	422.222
863.56	255.556
863.85	425.000
864.15	575.000
864.44	386.667
864.74	916.667
865.03	575.000
865.33	247.368
865.62	518.182
865.92	423.077
866.21	308.333
866.51	0.000
866.80	436.364
867.10	860.000
867.39	423.077
867.69	436.364
867.98	294.737
868.27	381.818
868.57	289.474
868.86	-3900.000
869.16	325.000
869.45	2550.000
869.75	-3800.000
870.04	458.333
870.33	614.286
870.63	1025.000
870.92	2700.000
871.22	728.571
871.51	329.412
871.80	228.571
872.10	400.000
>>>>>End Processed Spectral Data<<<<<
