SpectraSuite Data File
++++++++++++++++++++++++++++++++++++
Date: Wed May 13 16:02:06 PDT 2015
User: schluterlab
Dark Spectrum Present: Yes
Reference Spectrum Present: Yes
Number of Sampled Component Spectra: 1
Spectrometers: USB2E3373
Integration Time (usec): 3000 (USB2E3373)
Spectra Averaged: 3 (USB2E3373)
Boxcar Smoothing: 0 (USB2E3373)
Correct for Electrical Dark: No (USB2E3373)
Strobe/Lamp Enabled: No (USB2E3373)
Correct for Detector Non-linearity: No (USB2E3373)
Correct for Stray Light: No (USB2E3373)
Number of Pixels in Processed Spectrum: 2048
>>>>>Begin Processed Spectral Data<<<<<
178.53	0.000
178.91	-500.000
179.29	-500.000
179.67	-55.556
180.04	-675.000
180.42	750.000
180.80	320.000
181.18	-225.000
181.56	342.857
181.94	0.000
182.31	-328.571
182.69	466.667
183.07	-125.000
183.45	-122.222
183.83	154.545
184.20	-160.000
184.58	500.000
184.96	2300.000
185.34	-260.000
185.72	-150.000
186.09	-700.000
186.47	950.000
186.85	650.000
187.23	1600.000
187.61	-733.333
187.98	400.000
188.36	327.273
188.74	272.727
189.12	-320.000
189.49	230.000
189.87	-1000.000
190.25	-475.000
190.63	142.857
191.00	253.846
191.38	300.000
191.76	-475.000
192.14	675.000
192.51	300.000
192.89	300.000
193.27	137.500
193.65	-225.000
194.02	160.000
194.40	60.000
194.78	180.000
195.15	208.333
195.53	380.000
195.91	-400.000
196.29	175.000
196.66	168.421
197.04	-30.000
197.42	0.000
197.79	260.000
198.17	-1400.000
198.55	300.000
198.92	362.500
199.30	260.000
199.68	0.000
200.05	127.778
200.43	200.000
200.81	1500.000
201.18	566.667
201.56	-600.000
201.94	211.111
202.31	222.222
202.69	116.667
203.07	220.000
203.44	0.000
203.82	575.000
204.19	300.000
204.57	214.286
204.95	225.000
205.32	233.333
205.70	245.455
206.08	157.143
206.45	1050.000
206.83	181.250
207.20	466.667
207.58	340.000
207.96	172.222
208.33	375.000
208.71	-333.333
209.08	371.429
209.46	111.111
209.84	245.455
210.21	-200.000
210.59	425.000
210.96	-75.000
211.34	1150.000
211.71	260.000
212.09	216.667
212.46	0.000
212.84	733.333
213.22	600.000
213.59	-1100.000
213.97	400.000
214.34	357.143
214.72	300.000
215.09	300.000
215.47	-600.000
215.84	-500.000
216.22	566.667
216.59	157.143
216.97	725.000
217.34	200.000
217.72	-50.000
218.09	0.000
218.47	-1300.000
218.84	366.667
219.22	285.714
219.59	600.000
219.97	-200.000
220.34	340.000
220.72	-566.667
221.09	150.000
221.47	500.000
221.84	-316.667
222.22	0.000
222.59	425.000
222.97	-1100.000
223.34	340.000
223.72	115.385
224.09	520.000
224.46	500.000
224.84	-1600.000
225.21	-380.000
225.59	-2300.000
225.96	300.000
226.34	135.000
226.71	1050.000
227.08	225.000
227.46	200.000
227.83	-175.000
228.21	-900.000
228.58	233.333
228.95	-1100.000
229.33	-500.000
229.70	666.667
230.08	342.857
230.45	-20.000
230.82	191.667
231.20	450.000
231.57	185.714
231.95	158.333
232.32	113.636
232.69	127.273
233.07	114.286
233.44	138.462
233.81	-666.667
234.19	173.684
234.56	141.667
234.93	25.000
235.31	127.273
235.68	100.000
236.05	164.286
236.43	90.909
236.80	105.263
237.17	1600.000
237.55	66.667
237.92	128.571
238.29	104.762
238.67	80.645
239.04	106.897
239.41	69.444
239.79	58.696
240.16	61.905
240.53	65.909
240.91	37.255
241.28	64.000
241.65	56.000
242.02	62.319
242.40	58.065
242.77	50.000
243.14	52.688
243.51	55.056
243.89	38.824
244.26	27.778
244.63	36.559
245.00	34.043
245.38	37.624
245.75	29.907
246.12	42.202
246.49	43.796
246.87	43.200
247.24	33.846
247.61	39.286
247.98	37.255
248.36	26.351
248.73	28.662
249.10	34.395
249.47	33.333
249.84	31.551
250.22	34.225
250.59	28.994
250.96	35.354
251.33	34.123
251.70	31.683
252.08	30.952
252.45	25.561
252.82	29.130
253.19	28.936
253.56	24.706
253.94	31.950
254.31	29.297
254.68	25.769
255.05	25.830
255.42	30.081
255.79	30.147
256.16	25.632
256.54	25.442
256.91	29.893
257.28	26.259
257.65	30.033
258.02	24.224
258.39	27.445
258.76	29.097
259.14	28.274
259.51	23.100
259.88	23.602
260.25	26.586
260.62	26.012
260.99	24.224
261.36	27.027
261.73	25.501
262.10	24.419
262.47	25.915
262.85	26.184
263.22	25.641
263.59	27.635
263.96	24.176
264.33	25.587
264.70	26.053
265.07	26.854
265.44	25.000
265.81	25.061
266.18	25.377
266.55	24.390
266.92	23.587
267.29	25.463
267.66	23.394
268.03	27.045
268.40	24.766
268.77	22.673
269.14	24.550
269.51	26.637
269.88	24.942
270.25	23.928
270.62	24.045
270.99	24.731
271.36	25.322
271.73	23.598
272.10	23.913
272.47	23.226
272.84	25.974
273.21	25.577
273.58	22.052
273.95	23.061
274.32	22.727
274.69	23.340
275.06	22.835
275.43	23.830
275.80	23.246
276.17	23.422
276.54	24.948
276.91	22.332
277.28	22.656
277.65	24.758
278.02	23.395
278.39	23.438
278.76	24.364
279.13	22.642
279.50	21.974
279.87	24.104
280.23	24.750
280.60	22.050
280.97	24.584
281.34	24.425
281.71	21.818
282.08	22.265
282.45	22.182
282.82	23.623
283.19	23.351
283.56	22.105
283.92	24.027
284.29	20.635
284.66	19.601
285.03	21.881
285.40	20.423
285.77	21.717
286.14	21.244
286.51	23.667
286.87	21.880
287.24	23.453
287.61	22.151
287.98	20.779
288.35	21.236
288.72	22.430
289.08	21.753
289.45	19.605
289.82	19.187
290.19	17.582
290.56	20.521
290.93	18.882
291.29	19.632
291.66	19.617
292.03	22.820
292.40	20.852
292.77	18.491
293.13	19.701
293.50	19.096
293.87	20.296
294.24	17.926
294.60	18.049
294.97	19.041
295.34	19.182
295.71	18.324
296.08	18.661
296.44	19.120
296.81	18.098
297.18	18.835
297.55	16.623
297.91	17.942
298.28	18.876
298.65	18.538
299.02	17.787
299.38	18.459
299.75	15.903
300.12	17.241
300.48	17.250
300.85	15.783
301.22	16.815
301.59	16.793
301.95	16.247
302.32	17.073
302.69	16.726
303.05	16.000
303.42	16.296
303.79	15.968
304.15	16.317
304.52	16.222
304.89	15.679
305.25	16.589
305.62	15.742
305.99	16.883
306.35	15.660
306.72	15.919
307.09	15.982
307.45	17.005
307.82	15.848
308.19	17.108
308.55	17.044
308.92	15.897
309.29	15.628
309.65	15.164
310.02	16.490
310.38	16.237
310.75	17.423
311.12	15.558
311.48	16.092
311.85	17.086
312.22	17.586
312.58	16.944
312.95	16.895
313.31	15.146
313.68	17.879
314.05	18.245
314.41	16.683
314.78	16.213
315.14	16.683
315.51	18.126
315.87	17.624
316.24	18.371
316.61	17.251
316.97	15.753
317.34	17.025
317.70	17.495
318.07	17.324
318.43	18.297
318.80	18.088
319.16	19.115
319.53	17.355
319.89	19.238
320.26	19.300
320.62	18.948
320.99	19.495
321.35	18.889
321.72	18.891
322.08	19.941
322.45	20.199
322.81	20.155
323.18	21.773
323.54	20.686
323.91	20.000
324.27	21.128
324.64	21.342
325.00	20.559
325.37	21.565
325.73	22.172
326.10	22.242
326.46	21.685
326.83	22.088
327.19	21.520
327.56	22.125
327.92	23.185
328.29	23.514
328.65	23.204
329.01	22.834
329.38	24.144
329.74	24.469
330.11	23.186
330.47	23.232
330.84	25.551
331.20	23.224
331.56	23.670
331.93	22.778
332.29	24.224
332.66	24.513
333.02	24.223
333.38	24.119
333.75	24.599
334.11	24.377
334.48	24.312
334.84	25.368
335.20	24.364
335.57	24.569
335.93	24.375
336.29	24.634
336.66	24.527
337.02	24.072
337.38	24.259
337.75	23.529
338.11	23.903
338.47	24.033
338.84	24.381
339.20	22.844
339.56	23.905
339.93	24.000
340.29	23.460
340.65	23.797
341.02	23.822
341.38	25.000
341.74	23.947
342.11	23.843
342.47	24.229
342.83	24.058
343.20	23.896
343.56	24.179
343.92	24.912
344.28	25.000
344.65	24.162
345.01	23.401
345.37	22.556
345.73	24.450
346.10	24.126
346.46	23.644
346.82	23.970
347.19	23.058
347.55	23.727
347.91	24.757
348.27	24.733
348.63	24.666
349.00	24.676
349.36	24.220
349.72	24.619
350.08	24.149
350.45	25.142
350.81	24.289
351.17	24.554
351.53	24.898
351.89	23.432
352.26	25.651
352.62	24.860
352.98	24.797
353.34	24.240
353.70	23.404
354.07	24.194
354.43	24.444
354.79	23.652
355.15	24.342
355.51	25.020
355.87	24.408
356.24	24.430
356.60	23.817
356.96	24.055
357.32	24.857
357.68	24.173
358.04	25.337
358.40	24.545
358.77	24.178
359.13	23.915
359.49	24.392
359.85	23.889
360.21	24.641
360.57	25.525
360.93	24.923
361.29	23.356
361.66	24.458
362.02	25.075
362.38	24.487
362.74	25.372
363.10	24.130
363.46	25.459
363.82	24.641
364.18	26.065
364.54	26.300
364.90	25.142
365.26	24.853
365.62	26.370
365.98	25.201
366.35	24.642
366.71	25.380
367.07	26.147
367.43	26.052
367.79	25.981
368.15	26.868
368.51	25.799
368.87	26.481
369.23	25.823
369.59	25.996
369.95	25.368
370.31	26.923
370.67	26.304
371.03	27.116
371.39	26.312
371.75	26.544
372.11	26.387
372.47	28.152
372.83	27.089
373.19	25.723
373.55	27.864
373.91	27.541
374.27	27.491
374.63	26.909
374.99	27.542
375.35	26.797
375.71	27.485
376.07	28.464
376.42	28.955
376.78	29.026
377.14	28.697
377.50	29.007
377.86	27.128
378.22	29.014
378.58	28.571
378.94	28.975
379.30	27.990
379.66	28.236
380.02	29.484
380.38	28.901
380.74	29.952
381.09	30.012
381.45	30.178
381.81	30.897
382.17	29.554
382.53	29.748
382.89	29.815
383.25	29.706
383.61	30.855
383.97	31.207
384.32	30.755
384.68	29.616
385.04	30.977
385.40	30.712
385.76	31.818
386.12	30.699
386.48	31.592
386.83	32.200
387.19	32.777
387.55	33.086
387.91	31.681
388.27	31.208
388.62	32.022
388.98	32.125
389.34	32.916
389.70	32.373
390.06	33.270
390.42	32.101
390.77	32.634
391.13	33.121
391.49	33.312
391.85	32.845
392.20	31.861
392.56	33.144
392.92	33.373
393.28	32.189
393.64	33.273
393.99	32.926
394.35	33.251
394.71	34.003
395.07	32.150
395.42	33.684
395.78	32.952
396.14	32.713
396.50	33.208
396.85	33.694
397.21	32.676
397.57	32.610
397.92	33.714
398.28	33.632
398.64	32.676
399.00	32.177
399.35	32.826
399.71	33.449
400.07	34.004
400.42	34.785
400.78	33.353
401.14	33.293
401.49	34.448
401.85	33.212
402.21	33.353
402.57	32.511
402.92	33.480
403.28	34.291
403.63	33.849
403.99	33.694
404.35	33.879
404.70	32.014
405.06	33.197
405.42	33.812
405.77	32.743
406.13	33.409
406.49	33.885
406.84	33.077
407.20	32.861
407.55	33.504
407.91	34.267
408.27	32.738
408.62	33.173
408.98	32.721
409.34	34.010
409.69	32.774
410.05	33.271
410.40	33.456
410.76	33.931
411.11	33.172
411.47	32.204
411.83	32.804
412.18	32.591
412.54	33.375
412.89	33.434
413.25	33.707
413.60	33.045
413.96	32.787
414.31	32.989
414.67	34.094
415.03	32.980
415.38	34.149
415.74	33.762
416.09	33.769
416.45	32.798
416.80	34.104
417.16	33.512
417.51	34.439
417.87	33.333
418.22	32.934
418.58	33.570
418.93	33.722
419.29	34.055
419.64	33.060
420.00	32.927
420.35	33.101
420.71	34.489
421.06	32.757
421.42	33.041
421.77	34.529
422.12	33.015
422.48	32.974
422.83	33.722
423.19	33.481
423.54	34.243
423.90	33.855
424.25	33.613
424.61	33.750
424.96	33.120
425.31	33.998
425.67	32.809
426.02	33.086
426.38	34.799
426.73	34.055
427.09	34.529
427.44	33.295
427.79	34.388
428.15	33.988
428.50	33.645
428.85	34.923
429.21	32.965
429.56	34.837
429.92	33.417
430.27	34.459
430.62	33.333
430.98	34.094
431.33	34.072
431.68	34.241
432.04	33.759
432.39	35.123
432.74	34.650
433.10	35.031
433.45	35.335
433.80	35.255
434.16	34.348
434.51	34.053
434.86	34.607
435.22	35.798
435.57	35.015
435.92	35.810
436.28	35.528
436.63	35.210
436.98	35.146
437.34	36.971
437.69	35.823
438.04	35.807
438.39	35.343
438.75	36.084
439.10	35.922
439.45	37.013
439.81	36.133
440.16	35.799
440.51	35.442
440.86	36.074
441.22	35.539
441.57	36.783
441.92	36.643
442.27	35.576
442.63	35.703
442.98	37.014
443.33	36.467
443.68	37.274
444.03	37.482
444.39	36.125
444.74	37.446
445.09	36.173
445.44	36.304
445.79	37.853
446.15	37.533
446.50	35.864
446.85	35.714
447.20	36.716
447.55	37.688
447.91	37.231
448.26	36.950
448.61	36.800
448.96	36.822
449.31	36.839
449.66	36.579
450.02	36.156
450.37	37.415
450.72	38.071
451.07	37.477
451.42	36.717
451.77	38.344
452.12	36.374
452.47	37.376
452.83	38.054
453.18	35.941
453.53	37.600
453.88	37.035
454.23	37.717
454.58	37.614
454.93	38.907
455.28	36.970
455.63	37.985
455.98	37.917
456.34	38.317
456.69	38.572
457.04	38.947
457.39	37.756
457.74	36.854
458.09	38.010
458.44	37.742
458.79	37.148
459.14	38.262
459.49	38.879
459.84	37.285
460.19	38.480
460.54	36.748
460.89	37.301
461.24	37.523
461.59	38.582
461.94	37.978
462.29	38.813
462.64	37.269
462.99	38.061
463.34	37.933
463.69	38.274
464.04	38.957
464.39	37.565
464.74	37.968
465.09	38.239
465.44	37.230
465.79	38.311
466.14	37.329
466.49	38.821
466.84	38.354
467.19	38.745
467.54	39.188
467.89	37.755
468.24	37.755
468.59	38.645
468.94	38.974
469.29	39.974
469.64	39.759
469.99	39.445
470.34	39.300
470.68	39.440
471.03	38.844
471.38	39.541
471.73	38.907
472.08	40.132
472.43	40.075
472.78	38.776
473.13	39.345
473.48	39.763
473.83	40.671
474.17	39.577
474.52	39.950
474.87	39.521
475.22	39.640
475.57	39.334
475.92	38.449
476.27	40.079
476.61	40.099
476.96	39.252
477.31	39.351
477.66	39.880
478.01	39.153
478.36	40.349
478.70	39.616
479.05	39.191
479.40	40.328
479.75	39.146
480.10	39.563
480.45	39.124
480.79	39.130
481.14	39.873
481.49	39.630
481.84	39.598
482.19	39.573
482.53	38.853
482.88	39.693
483.23	40.234
483.58	39.126
483.92	39.550
484.27	38.214
484.62	39.009
484.97	38.983
485.31	39.452
485.66	38.127
486.01	36.201
486.36	36.094
486.70	35.102
487.05	36.107
487.40	36.925
487.75	37.377
488.09	38.095
488.44	37.525
488.79	39.602
489.13	39.343
489.48	39.641
489.83	39.102
490.17	40.421
490.52	39.637
490.87	40.299
491.22	39.518
491.56	38.861
491.91	39.367
492.26	38.769
492.60	39.724
492.95	38.400
493.30	38.785
493.64	39.991
493.99	38.997
494.34	39.963
494.68	39.835
495.03	39.850
495.37	38.157
495.72	39.815
496.07	40.650
496.41	38.717
496.76	39.050
497.11	39.577
497.45	39.590
497.80	40.019
498.14	41.111
498.49	40.634
498.84	40.077
499.18	41.143
499.53	40.313
499.87	40.447
500.22	40.603
500.56	41.165
500.91	39.519
501.26	39.972
501.60	41.528
501.95	40.559
502.29	41.331
502.64	41.899
502.98	40.393
503.33	40.539
503.67	41.299
504.02	41.207
504.36	41.039
504.71	41.817
505.06	40.337
505.40	41.906
505.75	40.646
506.09	41.302
506.44	41.095
506.78	41.987
507.13	42.706
507.47	42.727
507.82	42.705
508.16	42.452
508.51	43.582
508.85	42.949
509.19	42.908
509.54	43.163
509.88	42.813
510.23	43.548
510.57	44.272
510.92	44.019
511.26	44.142
511.61	44.502
511.95	43.685
512.30	43.160
512.64	44.116
512.98	44.641
513.33	44.004
513.67	43.970
514.02	44.210
514.36	45.658
514.70	45.434
515.05	44.953
515.39	45.709
515.74	45.270
516.08	45.668
516.42	44.950
516.77	46.823
517.11	45.616
517.46	46.332
517.80	46.167
518.14	45.744
518.49	47.491
518.83	46.477
519.17	47.171
519.52	46.746
519.86	46.435
520.20	47.977
520.55	47.098
520.89	47.689
521.23	48.010
521.58	47.539
521.92	48.377
522.26	47.895
522.61	48.847
522.95	47.882
523.29	47.839
523.64	49.817
523.98	49.538
524.32	48.854
524.66	47.685
525.01	48.775
525.35	48.389
525.69	48.399
526.04	48.474
526.38	48.139
526.72	49.571
527.06	50.596
527.41	48.700
527.75	49.775
528.09	49.647
528.43	50.860
528.78	49.600
529.12	49.576
529.46	48.806
529.80	49.196
530.15	50.717
530.49	48.369
530.83	49.114
531.17	51.110
531.51	49.546
531.86	49.484
532.20	50.130
532.54	50.352
532.88	50.449
533.22	48.907
533.57	48.642
533.91	48.826
534.25	49.453
534.59	49.298
534.93	47.769
535.27	49.487
535.62	49.878
535.96	50.534
536.30	49.650
536.64	50.225
536.98	50.962
537.32	49.506
537.66	50.600
538.01	50.165
538.35	50.614
538.69	50.798
539.03	49.188
539.37	48.435
539.71	49.060
540.05	49.804
540.39	50.033
540.73	48.771
541.07	50.162
541.42	49.967
541.76	49.226
542.10	49.159
542.44	49.139
542.78	50.791
543.12	48.944
543.46	47.934
543.80	50.683
544.14	49.487
544.48	50.095
544.82	49.326
545.16	49.447
545.50	49.293
545.84	49.261
546.18	49.966
546.52	51.067
546.86	51.959
547.20	52.326
547.54	49.967
547.88	49.872
548.22	48.692
548.56	48.553
548.90	47.375
549.24	50.438
549.58	50.477
549.92	50.687
550.26	50.852
550.60	50.968
550.94	50.211
551.28	49.817
551.62	50.180
551.96	50.386
552.30	50.444
552.64	49.899
552.98	50.847
553.32	49.697
553.66	51.806
554.00	50.652
554.34	50.311
554.68	51.288
555.02	50.212
555.36	50.452
555.69	48.850
556.03	48.587
556.37	50.341
556.71	50.000
557.05	50.070
557.39	48.495
557.73	50.388
558.07	51.414
558.41	50.941
558.75	51.286
559.08	51.752
559.42	50.567
559.76	50.221
560.10	50.607
560.44	49.616
560.78	49.301
561.12	50.264
561.45	49.478
561.79	49.637
562.13	50.101
562.47	49.658
562.81	50.000
563.15	49.967
563.48	50.663
563.82	49.185
564.16	50.164
564.50	49.154
564.84	48.483
565.17	49.485
565.51	48.882
565.85	48.794
566.19	49.530
566.52	49.525
566.86	47.981
567.20	49.823
567.54	48.402
567.88	48.017
568.21	47.884
568.55	46.562
568.89	46.887
569.23	45.499
569.56	44.737
569.90	45.774
570.24	45.318
570.57	44.135
570.91	43.310
571.25	43.823
571.59	43.240
571.92	43.347
572.26	43.732
572.60	44.084
572.93	44.078
573.27	43.863
573.61	43.914
573.95	43.463
574.28	42.462
574.62	42.541
574.96	42.294
575.29	42.265
575.63	42.607
575.97	43.062
576.30	43.202
576.64	43.265
576.98	42.465
577.31	42.445
577.65	42.476
577.98	42.320
578.32	40.846
578.66	41.572
578.99	42.296
579.33	42.314
579.67	42.398
580.00	42.268
580.34	43.189
580.67	42.378
581.01	42.433
581.35	42.319
581.68	41.938
582.02	41.420
582.35	41.718
582.69	41.652
583.02	41.682
583.36	42.910
583.70	43.806
584.03	42.712
584.37	44.269
584.70	43.626
585.04	42.588
585.37	43.080
585.71	42.834
586.04	42.667
586.38	43.521
586.72	43.634
587.05	42.760
587.39	42.876
587.72	43.314
588.06	42.983
588.39	43.182
588.73	43.297
589.06	44.344
589.40	44.411
589.73	44.315
590.07	44.662
590.40	44.538
590.73	45.394
591.07	46.317
591.40	45.255
591.74	45.671
592.07	45.812
592.41	44.812
592.74	43.895
593.08	44.337
593.41	44.575
593.75	43.192
594.08	43.312
594.41	43.796
594.75	44.843
595.08	44.560
595.42	44.343
595.75	44.516
596.09	44.536
596.42	44.951
596.75	45.378
597.09	46.320
597.42	44.815
597.75	45.149
598.09	45.696
598.42	43.900
598.76	45.278
599.09	44.204
599.42	43.814
599.76	44.180
600.09	44.044
600.42	42.841
600.76	43.500
601.09	43.825
601.42	44.102
601.76	43.112
602.09	44.941
602.42	44.626
602.76	44.901
603.09	45.437
603.42	44.709
603.76	44.055
604.09	45.134
604.42	44.721
604.76	45.086
605.09	45.478
605.42	45.447
605.75	45.447
606.09	44.205
606.42	44.585
606.75	43.882
607.09	44.077
607.42	44.801
607.75	44.262
608.08	44.333
608.42	45.271
608.75	45.491
609.08	43.710
609.41	45.074
609.75	45.307
610.08	45.664
610.41	45.577
610.74	46.074
611.07	46.591
611.41	45.682
611.74	46.506
612.07	46.739
612.40	46.747
612.73	46.789
613.07	46.390
613.40	46.972
613.73	46.041
614.06	45.591
614.39	44.625
614.72	45.789
615.06	45.431
615.39	45.382
615.72	44.530
616.05	45.508
616.38	46.748
616.71	48.219
617.05	47.055
617.38	47.023
617.71	47.207
618.04	48.077
618.37	47.132
618.70	47.480
619.03	48.026
619.36	47.318
619.69	48.239
620.03	48.970
620.36	48.329
620.69	48.904
621.02	49.115
621.35	48.865
621.68	48.131
622.01	49.071
622.34	48.865
622.67	49.278
623.00	48.276
623.33	46.462
623.66	48.535
623.99	47.202
624.32	47.718
624.65	47.034
624.99	48.442
625.32	49.312
625.65	49.361
625.98	49.731
626.31	49.378
626.64	50.531
626.97	49.626
627.30	50.042
627.63	51.272
627.96	51.808
628.29	49.606
628.62	51.510
628.95	51.698
629.28	51.004
629.61	51.329
629.94	51.905
630.26	51.096
630.59	52.240
630.92	51.245
631.25	51.333
631.58	50.751
631.91	51.217
632.24	49.156
632.57	52.151
632.90	53.838
633.23	52.908
633.56	53.898
633.89	54.247
634.22	52.667
634.55	54.675
634.88	55.210
635.20	53.763
635.53	54.699
635.86	55.446
636.19	52.824
636.52	53.979
636.85	51.890
637.18	51.037
637.51	54.728
637.83	52.774
638.16	54.604
638.49	53.778
638.82	53.224
639.15	55.500
639.48	53.741
639.81	54.290
640.13	56.901
640.46	55.168
640.79	55.086
641.12	51.032
641.45	55.726
641.77	55.523
642.10	55.409
642.43	54.505
642.76	56.347
643.09	55.982
643.41	55.083
643.74	57.562
644.07	56.402
644.40	56.442
644.73	60.472
645.05	56.577
645.38	55.134
645.71	56.522
646.04	58.804
646.36	57.262
646.69	56.522
647.02	56.973
647.35	58.763
647.67	57.522
648.00	54.472
648.33	54.785
648.66	54.242
648.98	55.472
649.31	52.317
649.64	54.559
649.96	55.142
650.29	57.030
650.62	53.883
650.94	55.916
651.27	57.264
651.60	56.739
651.92	53.674
652.25	54.397
652.58	54.206
652.90	55.292
653.23	54.237
653.56	55.748
653.88	53.249
654.21	56.082
654.54	55.776
654.86	54.984
655.19	51.486
655.52	41.064
655.84	35.835
656.17	44.782
656.49	59.398
656.82	60.024
657.15	45.904
657.47	34.428
657.80	26.601
658.13	28.142
658.45	42.382
658.78	43.444
659.10	44.371
659.43	47.175
659.75	48.727
660.08	51.835
660.41	55.773
660.73	58.196
661.06	59.554
661.38	60.909
661.71	58.462
662.03	55.030
662.36	57.256
662.68	57.430
663.01	57.778
663.33	60.934
663.66	59.244
663.98	58.747
664.31	57.563
664.63	54.858
664.96	53.924
665.28	59.016
665.61	54.581
665.93	55.131
666.26	58.621
666.58	58.368
666.91	60.042
667.23	58.876
667.56	57.019
667.88	59.829
668.21	57.783
668.53	57.267
668.86	58.009
669.18	60.768
669.50	57.391
669.83	60.349
670.15	58.667
670.48	57.298
670.80	60.991
671.13	59.023
671.45	54.043
671.77	59.063
672.10	55.453
672.42	54.947
672.75	51.078
673.07	53.697
673.39	53.888
673.72	54.688
674.04	56.667
674.37	56.893
674.69	56.033
675.01	54.812
675.34	60.370
675.66	61.053
675.98	54.582
676.31	56.303
676.63	60.085
676.95	57.652
677.28	56.776
677.60	55.385
677.92	58.861
678.25	55.236
678.57	54.183
678.89	55.110
679.22	52.456
679.54	55.534
679.86	55.413
680.18	53.309
680.51	51.950
680.83	51.246
681.15	56.604
681.48	53.497
681.80	52.611
682.12	52.299
682.44	52.998
682.77	54.786
683.09	55.365
683.41	57.206
683.73	58.940
684.06	59.091
684.38	54.795
684.70	52.713
685.02	53.471
685.34	51.648
685.67	51.748
685.99	50.344
686.31	52.730
686.63	51.590
686.96	50.714
687.28	51.805
687.60	50.543
687.92	53.748
688.24	53.802
688.56	54.819
688.89	56.846
689.21	56.332
689.53	54.071
689.85	58.315
690.17	52.795
690.49	54.140
690.82	57.710
691.14	55.357
691.46	51.688
691.78	54.819
692.10	53.926
692.42	53.892
692.74	51.037
693.06	52.766
693.39	52.361
693.71	53.930
694.03	52.211
694.35	53.247
694.67	54.462
694.99	56.341
695.31	54.902
695.63	54.785
695.95	54.279
696.27	58.122
696.59	57.254
696.91	56.736
697.23	54.225
697.56	51.386
697.88	49.693
698.20	48.542
698.52	53.333
698.84	52.116
699.16	53.226
699.48	52.257
699.80	55.072
700.12	58.961
700.44	54.642
700.76	59.392
701.08	56.897
701.40	57.542
701.72	60.058
702.04	59.091
702.36	51.841
702.68	56.657
703.00	53.463
703.32	56.383
703.64	54.692
703.96	55.153
704.28	54.360
704.60	58.065
704.91	56.380
705.23	52.493
705.55	59.136
705.87	65.116
706.19	60.777
706.51	60.436
706.83	60.606
707.15	54.902
707.47	50.505
707.79	55.528
708.11	51.142
708.43	53.571
708.74	51.020
709.06	54.805
709.38	54.331
709.70	56.977
710.02	53.116
710.34	51.818
710.66	55.224
710.98	56.818
711.29	56.686
711.61	56.932
711.93	55.449
712.25	58.521
712.57	58.088
712.89	55.363
713.20	53.191
713.52	56.908
713.84	56.013
714.16	51.829
714.48	52.011
714.80	59.271
715.11	54.467
715.43	53.412
715.75	51.304
716.07	53.355
716.39	55.799
716.70	56.146
717.02	55.036
717.34	51.590
717.66	59.701
717.97	61.753
718.29	54.074
718.61	54.015
718.93	58.824
719.24	54.671
719.56	54.915
719.88	53.559
720.20	54.054
720.51	54.355
720.83	56.877
721.15	55.970
721.46	54.965
721.78	55.914
722.10	52.453
722.42	53.759
722.73	52.809
723.05	56.148
723.37	54.251
723.68	54.826
724.00	54.878
724.32	59.274
724.63	52.846
724.95	54.393
725.27	55.466
725.58	59.375
725.90	51.825
726.22	52.453
726.53	53.819
726.85	50.171
727.16	54.448
727.48	54.610
727.80	53.409
728.11	49.638
728.43	57.692
728.74	54.839
729.06	50.365
729.38	58.456
729.69	53.737
730.01	51.536
730.32	51.736
730.64	52.508
730.96	48.515
731.27	52.318
731.59	52.294
731.90	49.854
732.22	51.242
732.53	48.297
732.85	52.564
733.16	48.553
733.48	52.492
733.80	48.701
734.11	50.637
734.43	47.633
734.74	48.000
735.06	51.289
735.37	50.578
735.69	50.000
736.00	49.020
736.32	53.583
736.63	46.965
736.95	50.160
737.26	49.320
737.58	49.355
737.89	48.161
738.21	52.901
738.52	51.071
738.83	49.434
739.15	52.308
739.46	46.715
739.78	51.042
740.09	49.231
740.41	51.935
740.72	46.690
741.04	52.593
741.35	53.333
741.66	58.222
741.98	49.057
742.29	55.024
742.61	56.466
742.92	57.014
743.23	58.120
743.55	51.600
743.86	50.000
744.18	59.292
744.49	55.502
744.80	58.685
745.12	54.091
745.43	55.066
745.74	58.108
746.06	55.505
746.37	59.193
746.68	55.204
747.00	54.630
747.31	60.000
747.62	48.230
747.94	53.304
748.25	51.489
748.56	53.744
748.88	57.426
749.19	65.500
749.50	58.140
749.82	53.659
750.13	47.347
750.44	50.000
750.75	51.930
751.07	50.804
751.38	50.174
751.69	48.375
752.01	53.383
752.32	46.931
752.63	51.418
752.94	52.459
753.26	56.000
753.57	52.033
753.88	53.125
754.19	49.643
754.51	52.778
754.82	49.458
755.13	52.075
755.44	50.000
755.75	48.905
756.07	47.518
756.38	44.891
756.69	48.993
757.00	46.407
757.31	46.884
757.63	47.076
757.94	45.308
758.25	43.137
758.56	44.691
758.87	44.892
759.18	46.970
759.50	44.514
759.81	45.483
760.12	46.875
760.43	44.413
760.74	45.380
761.05	48.023
761.36	42.246
761.67	48.580
761.99	47.205
762.30	53.472
762.61	50.000
762.92	48.047
763.23	53.361
763.54	49.600
763.85	51.172
764.16	48.846
764.47	50.951
764.78	43.816
765.10	39.241
765.41	46.608
765.72	44.611
766.03	49.843
766.34	46.333
766.65	54.043
766.96	50.855
767.27	52.792
767.58	55.729
767.89	55.789
768.20	59.195
768.51	54.822
768.82	54.587
769.13	47.561
769.44	44.939
769.75	49.356
770.06	44.495
770.37	53.846
770.68	46.759
770.99	51.111
771.30	47.541
771.61	47.982
771.92	47.131
772.23	50.840
772.54	47.692
772.85	48.168
773.16	55.319
773.47	55.978
773.78	54.822
774.09	52.976
774.39	58.480
774.70	52.469
775.01	60.145
775.32	58.170
775.63	61.184
775.94	56.115
776.25	56.693
776.56	60.448
776.87	63.934
777.18	56.250
777.48	63.359
777.79	61.364
778.10	58.519
778.41	60.714
778.72	44.526
779.03	61.074
779.34	64.430
779.65	53.378
779.95	45.399
780.26	64.706
780.57	57.931
780.88	56.250
781.19	58.647
781.50	59.459
781.80	59.119
782.11	47.458
782.42	49.367
782.73	45.399
783.04	56.757
783.34	55.634
783.65	69.863
783.96	63.433
784.27	55.245
784.57	43.165
784.88	47.222
785.19	60.317
785.50	50.000
785.81	59.701
786.11	59.016
786.42	51.163
786.73	53.097
787.04	64.151
787.34	58.036
787.65	78.000
787.96	67.568
788.26	53.719
788.57	60.169
788.88	59.504
789.19	56.944
789.49	55.303
789.80	58.779
790.11	63.810
790.41	61.386
790.72	59.036
791.03	66.304
791.33	74.419
791.64	70.103
791.95	57.426
792.25	68.889
792.56	77.922
792.87	87.179
793.17	78.481
793.48	74.713
793.79	59.770
794.09	63.636
794.40	57.983
794.70	52.941
795.01	54.815
795.32	46.763
795.62	44.094
795.93	55.172
796.23	54.867
796.54	55.294
796.85	59.459
797.15	71.831
797.46	62.121
797.76	62.651
798.07	43.038
798.37	69.231
798.68	65.152
798.99	57.746
799.29	62.338
799.60	57.955
799.90	73.973
800.21	73.134
800.51	65.517
800.82	84.211
801.12	65.574
801.43	78.788
801.73	62.162
802.04	82.540
802.34	69.136
802.65	64.063
802.95	77.966
803.26	73.438
803.56	71.429
803.87	53.846
804.17	83.824
804.48	85.185
804.78	46.552
805.09	58.824
805.39	76.923
805.70	66.071
806.00	85.246
806.30	53.030
806.61	62.195
806.91	62.025
807.22	53.947
807.52	62.687
807.83	76.056
808.13	81.250
808.43	61.667
808.74	57.895
809.04	71.014
809.35	70.149
809.65	52.632
809.95	72.581
810.26	74.576
810.56	63.492
810.86	104.545
811.17	88.095
811.47	65.000
811.77	64.815
812.08	83.636
812.38	90.000
812.69	88.889
812.99	90.909
813.29	93.878
813.59	64.286
813.90	97.959
814.20	65.455
814.50	58.462
814.81	70.588
815.11	89.796
815.41	68.852
815.72	92.857
816.02	76.364
816.32	97.619
816.62	95.000
816.93	92.683
817.23	97.619
817.53	95.455
817.84	100.000
818.14	84.783
818.44	84.444
818.74	94.118
819.04	72.500
819.35	82.857
819.65	105.882
819.95	114.286
820.25	155.000
820.56	112.821
820.86	88.636
821.16	74.419
821.46	94.872
821.76	88.000
822.07	108.571
822.37	70.000
822.67	112.121
822.97	60.784
823.27	135.714
823.57	86.486
823.88	107.500
824.18	136.667
824.48	88.095
824.78	112.000
825.08	120.833
825.38	91.892
825.69	87.805
825.99	133.333
826.29	110.345
826.59	84.211
826.89	84.211
827.19	82.353
827.49	70.968
827.79	93.182
828.09	79.545
828.39	74.468
828.70	85.714
829.00	88.889
829.30	70.968
829.60	72.500
829.90	180.000
830.20	89.286
830.50	82.609
830.80	86.957
831.10	120.000
831.40	116.667
831.70	73.913
832.00	111.538
832.30	103.704
832.60	187.500
832.90	90.000
833.20	228.571
833.50	116.129
833.80	72.414
834.10	128.125
834.40	107.692
834.70	150.000
835.00	147.619
835.30	91.429
835.60	76.923
835.90	86.207
836.20	128.571
836.50	110.345
836.80	100.000
837.10	125.000
837.40	138.095
837.70	94.118
838.00	122.222
838.30	119.048
838.60	166.667
838.90	100.000
839.19	110.000
839.49	221.429
839.79	235.000
840.09	145.000
840.39	133.333
840.69	147.826
840.99	172.222
841.29	230.000
841.59	83.333
841.88	162.500
842.18	100.000
842.48	157.143
842.78	106.667
843.08	126.087
843.38	109.375
843.68	400.000
843.97	134.615
844.27	141.379
844.57	133.333
844.87	193.750
845.17	85.185
845.47	700.000
845.76	122.222
846.06	152.941
846.36	212.500
846.66	135.714
846.96	131.250
847.25	163.636
847.55	136.364
847.85	126.087
848.15	200.000
848.44	221.429
848.74	94.444
849.04	158.824
849.34	270.000
849.63	100.000
849.93	118.182
850.23	440.000
850.53	264.286
850.82	1450.000
851.12	-1400.000
851.42	2000.000
851.71	125.000
852.01	-66.667
852.31	116.667
852.61	600.000
852.90	138.095
853.20	156.000
853.50	188.235
853.79	157.143
854.09	70.833
854.39	131.250
854.68	102.703
854.98	100.000
855.28	63.333
855.57	79.310
855.87	129.630
856.17	68.421
856.46	126.667
856.76	94.118
857.05	110.345
857.35	129.167
857.65	146.667
857.94	121.739
858.24	123.077
858.53	175.000
858.83	95.455
859.13	113.333
859.42	0.000
859.72	211.111
860.01	181.818
860.31	136.364
860.60	157.895
860.90	143.478
861.20	222.222
861.49	266.667
861.79	-2300.000
862.08	287.500
862.38	152.381
862.67	84.615
862.97	176.471
863.26	322.222
863.56	105.556
863.85	158.333
864.15	312.500
864.44	200.000
864.74	366.667
865.03	275.000
865.33	136.842
865.62	190.909
865.92	223.077
866.21	125.000
866.51	0.000
866.80	136.364
867.10	660.000
867.39	192.308
867.69	127.273
867.98	94.737
868.27	209.091
868.57	163.158
868.86	-2000.000
869.16	206.250
869.45	650.000
869.75	-1700.000
870.04	150.000
870.33	157.143
870.63	225.000
870.92	1150.000
871.22	228.571
871.51	158.824
871.80	104.762
872.10	178.571
>>>>>End Processed Spectral Data<<<<<
