SpectraSuite Data File
++++++++++++++++++++++++++++++++++++
Date: Wed May 13 16:08:22 PDT 2015
User: schluterlab
Dark Spectrum Present: Yes
Reference Spectrum Present: Yes
Number of Sampled Component Spectra: 1
Spectrometers: USB2E3373
Integration Time (usec): 3000 (USB2E3373)
Spectra Averaged: 3 (USB2E3373)
Boxcar Smoothing: 0 (USB2E3373)
Correct for Electrical Dark: No (USB2E3373)
Strobe/Lamp Enabled: No (USB2E3373)
Correct for Detector Non-linearity: No (USB2E3373)
Correct for Stray Light: No (USB2E3373)
Number of Pixels in Processed Spectrum: 2048
>>>>>Begin Processed Spectral Data<<<<<
178.53	0.000
178.91	-875.000
179.29	-925.000
179.67	-161.111
180.04	-1000.000
180.42	1500.000
180.80	660.000
181.18	-775.000
181.56	342.857
181.94	0.000
182.31	-471.429
182.69	1466.667
183.07	-362.500
183.45	-311.111
183.83	372.727
184.20	-180.000
184.58	1800.000
184.96	3000.000
185.34	-380.000
185.72	-412.500
186.09	-1150.000
186.47	1900.000
186.85	1750.000
187.23	2600.000
187.61	-1133.333
187.98	800.000
188.36	345.455
188.74	418.182
189.12	-680.000
189.49	390.000
189.87	-3700.000
190.25	-775.000
190.63	321.429
191.00	315.385
191.38	516.667
191.76	-700.000
192.14	1150.000
192.51	387.500
192.89	650.000
193.27	325.000
193.65	-725.000
194.02	260.000
194.40	600.000
194.78	450.000
195.15	333.333
195.53	500.000
195.91	-1500.000
196.29	175.000
196.66	194.737
197.04	-180.000
197.42	0.000
197.79	440.000
198.17	-2100.000
198.55	485.714
198.92	450.000
199.30	540.000
199.68	0.000
200.05	216.667
200.43	585.714
200.81	3400.000
201.18	1500.000
201.56	-866.667
201.94	277.778
202.31	433.333
202.69	316.667
203.07	390.000
203.44	0.000
203.82	575.000
204.19	500.000
204.57	364.286
204.95	425.000
205.32	933.333
205.70	336.364
206.08	292.857
206.45	1550.000
206.83	300.000
207.20	566.667
207.58	400.000
207.96	266.667
208.33	562.500
208.71	-650.000
209.08	571.429
209.46	444.444
209.84	281.818
210.21	-966.667
210.59	950.000
210.96	-262.500
211.34	1650.000
211.71	400.000
212.09	566.667
212.46	0.000
212.84	933.333
213.22	900.000
213.59	-3500.000
213.97	516.667
214.34	500.000
214.72	454.545
215.09	740.000
215.47	-1100.000
215.84	-2150.000
216.22	1066.667
216.59	328.571
216.97	775.000
217.34	309.091
217.72	-450.000
218.09	0.000
218.47	-3600.000
218.84	477.778
219.22	614.286
219.59	1400.000
219.97	-414.286
220.34	700.000
220.72	-833.333
221.09	285.714
221.47	925.000
221.84	-616.667
222.22	0.000
222.59	1000.000
222.97	-1700.000
223.34	820.000
223.72	315.385
224.09	820.000
224.46	1300.000
224.84	-4100.000
225.21	-680.000
225.59	-3400.000
225.96	510.000
226.34	225.000
226.71	1800.000
227.08	425.000
227.46	500.000
227.83	-850.000
228.21	-1300.000
228.58	400.000
228.95	-1300.000
229.33	-1750.000
229.70	1066.667
230.08	571.429
230.45	-440.000
230.82	358.333
231.20	416.667
231.57	257.143
231.95	325.000
232.32	154.545
232.69	263.636
233.07	457.143
233.44	200.000
233.81	-1033.333
234.19	200.000
234.56	241.667
234.93	158.333
235.31	181.818
235.68	207.692
236.05	157.143
236.43	118.182
236.80	147.368
237.17	2000.000
237.55	123.810
237.92	157.143
238.29	209.524
238.67	100.000
239.04	120.690
239.41	83.333
239.79	76.087
240.16	92.857
240.53	81.818
240.91	50.980
241.28	68.000
241.65	78.000
242.02	60.870
242.40	54.839
242.77	40.000
243.14	39.785
243.51	50.562
243.89	42.353
244.26	21.111
244.63	30.108
245.00	36.170
245.38	34.653
245.75	23.364
246.12	28.440
246.49	33.577
246.87	34.400
247.24	32.308
247.61	34.286
247.98	24.837
248.36	15.541
248.73	21.656
249.10	19.745
249.47	18.079
249.84	23.529
250.22	20.856
250.59	18.935
250.96	22.727
251.33	22.275
251.70	21.287
252.08	18.571
252.45	14.798
252.82	14.348
253.19	15.745
253.56	14.510
253.94	17.842
254.31	19.141
254.68	20.000
255.05	16.236
255.42	13.821
255.79	12.132
256.16	14.801
256.54	12.721
256.91	12.456
257.28	7.914
257.65	12.211
258.02	16.460
258.39	11.987
258.76	12.375
259.14	11.607
259.51	11.550
259.88	13.354
260.25	11.782
260.62	13.006
260.99	11.491
261.36	14.715
261.73	10.602
262.10	11.337
262.47	12.394
262.85	12.256
263.22	8.832
263.59	9.687
263.96	10.165
264.33	11.227
264.70	12.632
265.07	10.997
265.44	8.333
265.81	8.029
266.18	10.050
266.55	10.244
266.92	9.091
267.29	9.722
267.66	11.927
268.03	8.864
268.40	10.047
268.77	10.024
269.14	8.108
269.51	7.675
269.88	8.625
270.25	11.738
270.62	8.989
270.99	12.043
271.36	10.300
271.73	7.710
272.10	10.652
272.47	9.892
272.84	9.740
273.21	10.063
273.58	7.642
273.95	7.338
274.32	8.678
274.69	10.064
275.06	7.677
275.43	7.234
275.80	10.220
276.17	6.925
276.54	9.771
276.91	8.893
277.28	6.055
277.65	9.284
278.02	7.660
278.39	10.352
278.76	10.000
279.13	8.868
279.50	8.752
279.87	8.367
280.23	6.986
280.60	6.770
280.97	6.654
281.34	10.619
281.71	8.727
282.08	8.253
282.45	7.273
282.82	9.236
283.19	7.308
283.56	7.719
283.92	9.645
284.29	7.584
284.66	7.623
285.03	7.595
285.40	7.218
285.77	7.407
286.14	5.872
286.51	9.333
286.87	7.179
287.24	9.121
287.61	7.705
287.98	7.955
288.35	7.448
288.72	7.321
289.08	8.138
289.45	7.578
289.82	7.642
290.19	3.768
290.56	6.279
290.93	6.647
291.29	6.748
291.66	7.817
292.03	10.465
292.40	8.076
292.77	9.024
293.13	7.164
293.50	7.580
293.87	7.556
294.24	6.222
294.60	4.658
294.97	6.250
295.34	7.334
295.71	5.966
296.08	7.265
296.44	6.602
296.81	7.133
297.18	7.724
297.55	5.145
297.91	6.332
298.28	6.961
298.65	8.225
299.02	7.773
299.38	6.640
299.75	4.852
300.12	6.003
300.48	5.875
300.85	5.549
301.22	6.624
301.59	5.934
301.95	7.557
302.32	5.648
302.69	6.452
303.05	5.818
303.42	4.444
303.79	6.342
304.15	5.478
304.52	5.562
304.89	5.110
305.25	5.800
305.62	7.248
305.99	7.202
306.35	5.145
306.72	6.166
307.09	5.882
307.45	6.869
307.82	4.911
308.19	6.733
308.55	7.120
308.92	6.015
309.29	6.336
309.65	6.893
310.02	7.717
310.38	7.742
310.75	6.441
311.12	6.448
311.48	7.106
311.85	7.757
312.22	6.556
312.58	6.341
312.95	6.758
313.31	6.602
313.68	6.549
314.05	8.087
314.41	7.035
314.78	6.244
315.14	8.242
315.51	7.930
315.87	8.218
316.24	6.653
316.61	6.530
316.97	7.632
317.34	6.164
317.70	7.744
318.07	7.507
318.43	8.121
318.80	7.966
319.16	7.345
319.53	7.598
319.89	8.381
320.26	8.500
320.62	8.036
320.99	8.182
321.35	8.788
321.72	8.316
322.08	7.996
322.45	9.353
322.81	8.721
323.18	9.056
323.54	10.111
323.91	9.811
324.27	8.222
324.64	7.269
325.00	7.755
325.37	9.372
325.73	9.785
326.10	8.914
326.46	8.333
326.83	9.232
327.19	9.479
327.56	8.972
327.92	9.449
328.29	9.139
328.65	9.945
329.01	9.206
329.38	9.806
329.74	9.418
330.11	9.425
330.47	9.366
330.84	10.478
331.20	9.016
331.56	9.174
331.93	8.333
332.29	9.406
332.66	10.708
333.02	9.049
333.38	9.575
333.75	10.873
334.11	9.520
334.48	9.849
334.84	9.283
335.20	8.727
335.57	9.338
335.93	7.589
336.29	9.158
336.66	9.739
337.02	8.688
337.38	9.630
337.75	8.734
338.11	9.490
338.47	8.471
338.84	8.524
339.20	8.532
339.56	10.584
339.93	8.909
340.29	10.236
340.65	8.913
341.02	9.424
341.38	9.164
341.74	8.333
342.11	10.306
342.47	8.546
342.83	9.075
343.20	10.303
343.56	9.688
343.92	9.123
344.28	8.929
344.65	9.716
345.01	8.754
345.37	8.319
345.73	8.883
346.10	10.060
346.46	8.729
346.82	8.979
347.19	8.939
347.55	8.785
347.91	9.466
348.27	9.860
348.63	9.699
349.00	8.819
349.36	8.785
349.72	10.184
350.08	8.914
350.45	8.218
350.81	9.504
351.17	9.806
351.53	8.763
351.89	9.241
352.26	10.734
352.62	9.383
352.98	9.724
353.34	9.285
353.70	9.002
354.07	9.516
354.43	9.365
354.79	9.654
355.15	9.258
355.51	10.152
355.87	10.122
356.24	9.365
356.60	10.024
356.96	10.056
357.32	9.485
357.68	10.000
358.04	9.739
358.40	10.293
358.77	10.407
359.13	9.392
359.49	9.804
359.85	8.492
360.21	9.968
360.57	10.506
360.93	9.923
361.29	10.431
361.66	9.598
362.02	10.672
362.38	10.114
362.74	9.970
363.10	9.845
363.46	9.244
363.82	9.751
364.18	10.352
364.54	10.921
364.90	10.482
365.26	9.853
365.62	10.665
365.98	10.153
366.35	10.029
366.71	9.978
367.07	10.197
367.43	10.305
367.79	10.992
368.15	11.279
368.51	10.465
368.87	10.278
369.23	10.095
369.59	11.296
369.95	10.515
370.31	10.969
370.67	11.594
371.03	11.461
371.39	10.933
371.75	11.029
372.11	11.380
372.47	11.730
372.83	11.960
373.19	11.127
373.55	11.678
373.91	12.445
374.27	11.959
374.63	11.200
374.99	12.006
375.35	10.956
375.71	11.926
376.07	13.032
376.42	12.999
376.78	13.320
377.14	12.822
377.50	13.179
377.86	11.769
378.22	12.516
378.58	11.028
378.94	13.136
379.30	13.041
379.66	13.261
380.02	13.268
380.38	13.054
380.74	13.806
381.09	13.692
381.45	13.522
381.81	13.391
382.17	14.140
382.53	13.648
382.89	14.136
383.25	13.196
383.61	14.374
383.97	14.196
384.32	14.286
384.68	13.507
385.04	14.505
385.40	14.799
385.76	14.681
386.12	14.378
386.48	14.412
386.83	15.459
387.19	15.894
387.55	15.461
387.91	15.659
388.27	14.654
388.62	15.734
388.98	13.821
389.34	15.332
389.70	14.838
390.06	16.096
390.42	16.472
390.77	15.076
391.13	15.699
391.49	16.180
391.85	16.868
392.20	14.448
392.56	15.720
392.92	16.068
393.28	14.556
393.64	16.367
393.99	16.677
394.35	15.819
394.71	15.872
395.07	16.386
395.42	16.378
395.78	16.730
396.14	15.829
396.50	16.667
396.85	16.338
397.21	15.721
397.57	17.173
397.92	17.308
398.28	15.807
398.64	16.726
399.00	16.116
399.35	15.962
399.71	16.898
400.07	16.677
400.42	17.423
400.78	16.647
401.14	16.463
401.49	16.239
401.85	15.971
402.21	16.587
402.57	16.841
402.92	16.267
403.28	16.427
403.63	16.770
403.99	16.306
404.35	17.394
404.70	16.127
405.06	17.531
405.42	17.530
405.77	15.371
406.13	16.027
406.49	16.854
406.84	16.302
407.20	15.957
407.55	17.230
407.91	16.933
408.27	16.273
408.62	16.436
408.98	16.054
409.34	16.667
409.69	16.516
410.05	17.100
410.40	15.963
410.76	16.069
411.11	16.586
411.47	16.933
411.83	16.677
412.18	16.141
412.54	16.376
412.89	16.807
413.25	16.883
413.60	16.800
413.96	15.483
414.31	15.978
414.67	16.160
415.03	16.887
415.38	16.495
415.74	17.363
416.09	17.636
416.45	17.001
416.80	15.995
417.16	17.493
417.51	16.589
417.87	16.313
418.22	17.098
418.58	16.656
418.93	16.769
419.29	16.168
419.64	17.317
420.00	17.256
420.35	16.522
420.71	16.318
421.06	16.050
421.42	17.427
421.77	16.368
422.12	16.002
422.48	15.596
422.83	16.482
423.19	16.630
423.54	16.831
423.90	17.391
424.25	16.750
424.61	16.488
424.96	16.560
425.31	16.722
425.67	15.899
426.02	16.971
426.38	16.361
426.73	16.501
427.09	16.657
427.44	16.331
427.79	16.561
428.15	16.071
428.50	16.325
428.85	17.759
429.21	15.351
429.56	16.744
429.92	15.752
430.27	16.137
430.62	15.873
430.98	16.139
431.33	15.825
431.68	17.382
432.04	16.134
432.39	15.762
432.74	16.038
433.10	16.978
433.45	16.443
433.80	15.854
434.16	16.239
434.51	15.737
434.86	16.477
435.22	16.509
435.57	16.596
435.92	15.799
436.28	16.904
436.63	16.115
436.98	16.142
437.34	16.518
437.69	16.511
438.04	16.751
438.39	15.821
438.75	16.793
439.10	15.978
439.45	16.706
439.81	16.375
440.16	16.036
440.51	16.052
440.86	16.676
441.22	15.907
441.57	15.924
441.92	16.479
442.27	16.093
442.63	16.482
442.98	16.958
443.33	16.685
443.68	15.488
444.03	15.569
444.39	14.849
444.74	15.422
445.09	16.065
445.44	15.309
445.79	16.230
446.15	16.040
446.50	16.263
446.85	16.547
447.20	16.063
447.55	15.745
447.91	15.279
448.26	15.748
448.61	15.602
448.96	16.611
449.31	15.973
449.66	15.926
450.02	15.209
450.37	15.646
450.72	15.849
451.07	15.356
451.42	15.745
451.77	16.676
452.12	15.935
452.47	16.169
452.83	15.268
453.18	15.342
453.53	17.069
453.88	15.475
454.23	15.720
454.58	16.233
454.93	16.338
455.28	15.212
455.63	16.141
455.98	16.845
456.34	15.515
456.69	16.594
457.04	16.780
457.39	15.722
457.74	15.902
458.09	15.929
458.44	15.906
458.79	14.859
459.14	16.027
459.49	16.112
459.84	16.066
460.19	15.321
460.54	15.509
460.89	15.140
461.24	15.726
461.59	16.676
461.94	15.166
462.29	15.846
462.64	15.188
462.99	15.615
463.34	16.133
463.69	16.198
464.04	15.768
464.39	15.652
464.74	15.033
465.09	15.862
465.44	15.457
465.79	14.877
466.14	15.161
466.49	15.350
466.84	15.236
467.19	16.234
467.54	15.375
467.89	14.766
468.24	14.776
468.59	15.995
468.94	15.211
469.29	15.424
469.64	16.198
469.99	15.156
470.34	14.861
470.68	16.092
471.03	15.306
471.38	15.080
471.73	15.323
472.08	15.855
472.43	14.761
472.78	15.076
473.13	14.955
473.48	14.981
473.83	14.573
474.17	15.495
474.52	14.330
474.87	15.470
475.22	15.380
475.57	14.777
475.92	14.870
476.27	14.092
476.61	14.341
476.96	14.239
477.31	14.443
477.66	14.004
478.01	14.375
478.36	15.177
478.70	13.863
479.05	14.483
479.40	15.148
479.75	14.235
480.10	14.066
480.45	14.089
480.79	13.856
481.14	14.481
481.49	14.001
481.84	13.535
482.19	13.721
482.53	13.991
482.88	14.239
483.23	13.925
483.58	13.967
483.92	14.199
484.27	13.028
484.62	13.836
484.97	13.480
485.31	13.733
485.66	13.176
486.01	12.472
486.36	12.117
486.70	12.006
487.05	12.021
487.40	12.640
487.75	12.651
488.09	12.648
488.44	12.909
488.79	13.092
489.13	13.178
489.48	13.581
489.83	13.293
490.17	13.284
490.52	13.508
490.87	13.026
491.22	13.415
491.56	12.574
491.91	12.704
492.26	12.954
492.60	13.548
492.95	12.816
493.30	13.318
493.64	13.206
493.99	12.999
494.34	12.720
494.68	13.004
495.03	12.923
495.37	12.936
495.72	13.743
496.07	13.039
496.41	12.478
496.76	12.665
497.11	12.517
497.45	13.041
497.80	13.244
498.14	12.899
498.49	12.732
498.84	13.375
499.18	12.381
499.53	12.536
499.87	12.861
500.22	12.247
500.56	13.398
500.91	12.740
501.26	12.755
501.60	13.621
501.95	12.466
502.29	12.652
502.64	12.709
502.98	13.137
503.33	12.751
503.67	12.297
504.02	13.143
504.36	13.196
504.71	12.408
505.06	12.530
505.40	12.640
505.75	12.633
506.09	12.634
506.44	12.679
506.78	11.982
507.13	12.367
507.47	12.273
507.82	12.563
508.16	12.969
508.51	12.329
508.85	12.860
509.19	11.990
509.54	13.112
509.88	12.983
510.23	12.288
510.57	13.313
510.92	12.947
511.26	12.950
511.61	12.759
511.95	12.213
512.30	12.672
512.64	12.735
512.98	11.951
513.33	12.741
513.67	12.753
514.02	12.013
514.36	12.179
514.70	12.009
515.05	12.828
515.39	12.844
515.74	12.894
516.08	13.080
516.42	13.152
516.77	12.876
517.11	12.819
517.46	12.698
517.80	12.776
518.14	11.639
518.49	12.485
518.83	12.784
519.17	12.067
519.52	12.677
519.86	12.721
520.20	12.775
520.55	13.645
520.89	12.226
521.23	13.269
521.58	13.025
521.92	13.533
522.26	12.752
522.61	12.710
522.95	13.014
523.29	12.234
523.64	13.049
523.98	12.569
524.32	13.329
524.66	13.470
525.01	12.745
525.35	12.268
525.69	13.054
526.04	12.212
526.38	12.203
526.72	12.025
527.06	12.116
527.41	11.757
527.75	12.862
528.09	12.139
528.43	12.874
528.78	12.969
529.12	11.394
529.46	13.043
529.80	13.119
530.15	12.773
530.49	12.554
530.83	13.481
531.17	12.924
531.51	13.100
531.86	12.516
532.20	13.299
532.54	13.261
532.88	11.810
533.22	11.993
533.57	12.654
533.91	12.643
534.25	11.908
534.59	11.775
534.93	11.898
535.27	11.949
535.62	11.966
535.96	12.429
536.30	11.634
536.64	12.041
536.98	12.077
537.32	12.113
537.66	11.333
538.01	12.508
538.35	12.605
538.69	12.636
539.03	11.631
539.37	11.374
539.71	10.693
540.05	12.418
540.39	10.897
540.73	12.096
541.07	13.303
541.42	11.807
541.76	12.516
542.10	12.290
542.44	11.325
542.78	12.121
543.12	11.260
543.46	12.066
543.80	11.646
544.14	10.976
544.48	11.365
544.82	11.867
545.16	11.581
545.50	11.440
545.84	11.223
546.18	11.111
546.52	11.769
546.86	11.340
547.20	11.868
547.54	11.824
547.88	12.436
548.22	11.582
548.56	11.887
548.90	10.819
549.24	10.505
549.58	11.869
549.92	11.745
550.26	11.151
550.60	11.411
550.94	11.549
551.28	10.827
551.62	11.718
551.96	11.368
552.30	11.945
552.64	11.832
552.98	11.661
553.32	11.126
553.66	10.975
554.00	11.393
554.34	11.249
554.68	11.302
555.02	11.848
555.36	11.065
555.69	10.622
556.03	11.507
556.37	10.914
556.71	10.505
557.05	10.994
557.39	11.407
557.73	11.009
558.07	11.313
558.41	10.926
558.75	11.536
559.08	11.559
559.42	10.733
559.76	10.956
560.10	10.493
560.44	11.740
560.78	10.446
561.12	10.752
561.45	11.734
561.79	10.613
562.13	9.926
562.47	10.656
562.81	10.530
563.15	11.037
563.48	11.273
563.82	10.568
564.16	11.249
564.50	10.091
564.84	10.872
565.17	10.618
565.51	10.799
565.85	10.850
566.19	9.643
566.52	10.006
566.86	10.187
567.20	10.554
567.54	10.616
567.88	9.560
568.21	10.317
568.55	10.617
568.89	9.728
569.23	9.358
569.56	9.919
569.90	9.774
570.24	9.186
570.57	9.351
570.91	9.276
571.25	8.987
571.59	9.396
571.92	8.842
572.26	9.243
572.60	8.949
572.93	8.906
573.27	9.346
573.61	9.520
573.95	8.915
574.28	8.744
574.62	8.916
574.96	8.793
575.29	8.778
575.63	8.841
575.97	8.800
576.30	8.842
576.64	8.769
576.98	8.848
577.31	8.618
577.65	8.534
577.98	8.323
578.32	8.439
578.66	8.658
578.99	8.537
579.33	8.497
579.67	8.416
580.00	8.319
580.34	8.662
580.67	8.556
581.01	8.725
581.35	8.611
581.68	8.536
582.02	8.204
582.35	8.246
582.69	8.471
583.02	8.182
583.36	8.554
583.70	8.566
584.03	8.568
584.37	8.906
584.70	8.542
585.04	8.708
585.37	8.854
585.71	8.764
586.04	8.649
586.38	8.621
586.72	9.279
587.05	8.965
587.39	8.839
587.72	8.580
588.06	8.485
588.39	8.971
588.73	8.800
589.06	9.068
589.40	8.822
589.73	9.257
590.07	8.968
590.40	8.732
590.73	9.133
591.07	9.646
591.40	8.984
591.74	9.437
592.07	9.119
592.41	9.136
592.74	8.914
593.08	9.227
593.41	8.637
593.75	8.557
594.08	8.683
594.41	8.872
594.75	8.762
595.08	8.661
595.42	8.827
595.75	9.224
596.09	8.975
596.42	9.509
596.75	9.540
597.09	9.264
597.42	9.191
597.75	9.573
598.09	9.087
598.42	8.849
598.76	9.039
599.09	8.590
599.42	9.025
599.76	8.492
600.09	8.270
600.42	8.692
600.76	8.821
601.09	8.998
601.42	9.056
601.76	8.805
602.09	8.696
602.42	9.156
602.76	9.553
603.09	9.048
603.42	9.098
603.76	9.032
604.09	8.414
604.42	8.806
604.76	9.827
605.09	9.087
605.42	9.064
605.75	9.106
606.09	8.621
606.42	8.418
606.75	8.710
607.09	9.209
607.42	8.258
607.75	8.987
608.08	8.424
608.42	9.727
608.75	9.423
609.08	8.788
609.41	9.043
609.75	8.766
610.08	9.189
610.41	8.240
610.74	8.798
611.07	9.437
611.41	9.421
611.74	9.653
612.07	9.161
612.40	9.496
612.73	9.211
613.07	9.591
613.40	9.268
613.73	8.757
614.06	9.140
614.39	9.229
614.72	9.526
615.06	9.139
615.39	9.289
615.72	9.611
616.05	9.091
616.38	8.560
616.71	9.204
617.05	9.658
617.38	9.681
617.71	9.129
618.04	10.096
618.37	8.930
618.70	9.708
619.03	9.934
619.36	9.708
619.69	9.225
620.03	11.058
620.36	9.759
620.69	10.685
621.02	10.619
621.35	9.475
621.68	9.502
622.01	9.056
622.34	10.212
622.67	9.962
623.00	9.831
623.33	9.078
623.66	10.150
623.99	9.867
624.32	10.200
624.65	10.593
624.99	9.419
625.32	9.776
625.65	9.391
625.98	10.223
626.31	10.264
626.64	10.612
626.97	10.391
627.30	9.393
627.63	10.664
627.96	10.093
628.29	9.624
628.62	11.070
628.95	11.698
629.28	10.675
629.61	10.907
629.94	10.095
630.26	9.533
630.59	10.867
630.92	10.345
631.25	10.563
631.58	10.711
631.91	10.852
632.24	11.181
632.57	11.228
632.90	10.965
633.23	12.081
633.56	11.751
633.89	11.552
634.22	11.918
634.55	12.544
634.88	11.856
635.20	11.828
635.53	11.325
635.86	10.891
636.19	9.647
636.52	11.188
636.85	10.653
637.18	10.945
637.51	12.057
637.83	8.631
638.16	12.532
638.49	12.091
638.82	12.010
639.15	11.250
639.48	12.095
639.81	10.992
640.13	12.109
640.46	11.946
640.79	13.078
641.12	10.729
641.45	12.151
641.77	11.635
642.10	12.573
642.43	11.411
642.76	8.514
643.09	12.577
643.41	11.533
643.74	13.117
644.07	11.738
644.40	14.264
644.73	13.071
645.05	14.105
645.38	11.058
645.71	14.976
646.04	11.130
646.36	14.023
646.69	14.381
647.02	12.415
647.35	13.746
647.67	13.805
648.00	12.846
648.33	12.871
648.66	12.727
648.98	13.793
649.31	10.762
649.64	12.257
649.96	11.475
650.29	10.585
650.62	13.430
650.94	12.480
651.27	13.007
651.60	12.479
651.92	14.696
652.25	11.238
652.58	13.707
652.90	12.164
653.23	12.018
653.56	11.811
653.88	15.372
654.21	13.270
654.54	11.221
654.86	13.240
655.19	11.081
655.52	8.129
655.84	6.499
656.17	7.914
656.49	10.666
656.82	10.669
657.15	8.150
657.47	5.957
657.80	4.750
658.13	4.926
658.45	7.409
658.78	7.555
659.10	7.875
659.43	8.305
659.75	8.754
660.08	9.494
660.41	9.963
660.73	12.325
661.06	11.624
661.38	12.909
661.71	15.192
662.03	14.990
662.36	12.127
662.68	14.659
663.01	14.747
663.33	13.376
663.66	14.286
663.98	13.823
664.31	12.605
664.63	12.753
664.96	12.676
665.28	16.598
665.61	12.281
665.93	13.883
666.26	11.968
666.58	14.017
666.91	16.490
667.23	15.281
667.56	11.447
667.88	13.462
668.21	16.418
668.53	12.798
668.86	14.069
669.18	13.006
669.50	17.174
669.83	15.468
670.15	14.222
670.48	13.290
670.80	13.793
671.13	14.437
671.45	12.766
671.77	13.442
672.10	14.233
672.42	13.251
672.75	12.604
673.07	13.204
673.39	11.392
673.72	11.328
674.04	11.569
674.37	12.621
674.69	13.906
675.01	12.343
675.34	16.838
675.66	17.684
675.98	15.071
676.31	17.437
676.63	13.163
676.95	12.788
677.28	13.785
677.60	13.626
677.92	16.245
678.25	12.936
678.57	13.147
678.89	14.228
679.22	15.128
679.54	13.168
679.86	13.211
680.18	13.953
680.51	14.362
680.83	12.456
681.15	15.283
681.48	15.690
681.80	11.799
682.12	15.134
682.44	13.733
682.77	13.442
683.09	17.382
683.41	14.856
683.73	13.024
684.06	15.083
684.38	12.329
684.70	13.372
685.02	13.133
685.34	13.370
685.67	10.490
685.99	11.856
686.31	12.287
686.63	10.424
686.96	12.143
687.28	12.274
687.60	11.594
687.92	14.077
688.24	11.977
688.56	14.458
688.89	14.315
689.21	15.721
689.53	14.614
689.85	14.412
690.17	12.629
690.49	15.711
690.82	15.421
691.14	14.062
691.46	14.557
691.78	14.458
692.10	14.050
692.42	14.371
692.74	13.693
693.06	13.830
693.39	11.499
693.71	16.376
694.03	14.737
694.35	14.286
694.67	15.332
694.99	14.878
695.31	13.235
695.63	13.158
695.95	13.936
696.27	12.437
696.59	14.249
696.91	17.876
697.23	12.911
697.56	14.286
697.88	12.474
698.20	11.667
698.52	12.688
698.84	15.367
699.16	14.747
699.48	14.727
699.80	16.184
700.12	17.143
700.44	16.446
700.76	14.641
701.08	14.368
701.40	15.084
701.72	16.910
702.04	18.466
702.36	15.864
702.68	13.314
703.00	15.235
703.32	14.096
703.64	17.158
703.96	13.649
704.28	16.570
704.60	16.422
704.91	20.475
705.23	18.182
705.55	19.934
705.87	18.272
706.19	14.134
706.51	16.199
706.83	20.909
707.15	17.367
707.47	16.414
707.79	15.233
708.11	16.667
708.43	14.762
708.74	13.010
709.06	15.065
709.38	15.486
709.70	18.023
710.02	17.804
710.34	15.455
710.66	17.612
710.98	18.466
711.29	16.570
711.61	17.994
711.93	13.462
712.25	20.579
712.57	17.279
712.89	16.609
713.20	16.109
713.52	19.408
713.84	18.671
714.16	17.683
714.48	15.517
714.80	17.629
715.11	17.579
715.43	14.837
715.75	18.841
716.07	14.058
716.39	18.495
716.70	19.601
717.02	19.424
717.34	19.435
717.66	20.522
717.97	22.311
718.29	18.889
718.61	16.788
718.93	14.706
719.24	20.415
719.56	17.288
719.88	16.610
720.20	21.622
720.51	20.906
720.83	20.446
721.15	13.433
721.46	18.440
721.78	18.638
722.10	17.736
722.42	22.932
722.73	19.850
723.05	18.852
723.37	19.433
723.68	22.780
724.00	18.699
724.32	20.161
724.63	21.138
724.95	18.410
725.27	24.291
725.58	21.484
725.90	21.168
726.22	14.717
726.53	20.139
726.85	15.700
727.16	20.641
727.48	17.021
727.80	20.455
728.11	22.464
728.43	16.538
728.74	17.563
729.06	23.723
729.38	22.426
729.69	18.149
730.01	17.406
730.32	14.583
730.64	16.722
730.96	15.842
731.27	20.861
731.59	18.654
731.90	17.201
732.22	18.944
732.53	16.718
732.85	17.628
733.16	18.328
733.48	15.282
733.80	15.909
734.11	16.561
734.43	18.343
734.74	16.286
735.06	14.900
735.37	17.919
735.69	14.013
736.00	23.529
736.32	19.626
736.63	15.335
736.95	17.891
737.26	14.286
737.58	17.419
737.89	15.050
738.21	21.502
738.52	18.929
738.83	19.623
739.15	21.538
739.46	19.708
739.78	21.875
740.09	17.538
740.41	21.290
740.72	15.331
741.04	16.667
741.35	20.833
741.66	26.222
741.98	18.868
742.29	22.488
742.61	25.431
742.92	17.647
743.23	18.803
743.55	22.800
743.86	20.175
744.18	25.664
744.49	21.531
744.80	21.596
745.12	24.545
745.43	22.026
745.74	25.676
746.06	23.394
746.37	22.870
746.68	23.529
747.00	24.074
747.31	25.238
747.62	19.912
747.94	19.824
748.25	15.319
748.56	23.789
748.88	24.257
749.19	25.500
749.50	22.791
749.82	19.512
750.13	15.918
750.44	17.518
750.75	16.842
751.07	24.437
751.38	20.906
751.69	20.939
752.01	16.917
752.32	18.773
752.63	19.504
752.94	17.623
753.26	19.200
753.57	15.854
753.88	22.656
754.19	22.143
754.51	19.444
754.82	20.578
755.13	20.000
755.44	21.053
755.75	18.248
756.07	17.730
756.38	16.058
756.69	18.792
757.00	16.766
757.31	16.914
757.63	15.789
757.94	17.426
758.25	17.402
758.56	15.556
758.87	15.860
759.18	18.485
759.50	15.047
759.81	22.430
760.12	15.937
760.43	18.625
760.74	15.761
761.05	18.079
761.36	16.845
761.67	17.898
761.99	16.460
762.30	18.750
762.61	19.847
762.92	23.438
763.23	21.008
763.54	25.200
763.85	15.234
764.16	25.769
764.47	22.814
764.78	18.728
765.10	19.304
765.41	17.404
765.72	20.359
766.03	16.928
766.34	15.333
766.65	20.000
766.96	17.094
767.27	27.411
767.58	29.167
767.89	23.158
768.20	25.287
768.51	23.858
768.82	21.560
769.13	15.854
769.44	22.267
769.75	19.742
770.06	16.055
770.37	25.339
770.68	26.852
770.99	24.000
771.30	18.852
771.61	20.628
771.92	22.131
772.23	29.832
772.54	18.974
772.85	26.178
773.16	28.723
773.47	30.978
773.78	31.472
774.09	27.976
774.39	25.731
774.70	25.309
775.01	27.536
775.32	33.333
775.63	30.263
775.94	25.899
776.25	37.008
776.56	32.090
776.87	34.426
777.18	47.656
777.48	38.931
777.79	38.636
778.10	36.296
778.41	26.786
778.72	27.737
779.03	31.544
779.34	28.188
779.65	25.676
779.95	26.380
780.26	28.105
780.57	36.552
780.88	39.063
781.19	30.075
781.50	37.162
781.80	22.013
782.11	29.379
782.42	24.684
782.73	30.061
783.04	39.189
783.34	28.873
783.65	35.616
783.96	32.836
784.27	31.469
784.57	21.583
784.88	33.333
785.19	39.683
785.50	37.736
785.81	40.299
786.11	35.246
786.42	39.535
786.73	27.434
787.04	34.906
787.34	38.393
787.65	38.000
787.96	37.838
788.26	31.405
788.57	35.593
788.88	38.843
789.19	39.583
789.49	36.364
789.80	37.405
790.11	40.952
790.41	51.485
790.72	37.349
791.03	41.304
791.33	46.512
791.64	43.299
791.95	38.614
792.25	53.333
792.56	57.143
792.87	57.692
793.17	54.430
793.48	52.874
793.79	40.230
794.09	51.136
794.40	32.773
794.70	39.706
795.01	30.370
795.32	35.971
795.62	43.307
795.93	30.172
796.23	43.363
796.54	32.941
796.85	48.649
797.15	66.197
797.46	53.030
797.76	68.675
798.07	55.696
798.37	43.077
798.68	53.030
798.99	40.845
799.29	54.545
799.60	42.045
799.90	65.753
800.21	59.701
800.51	50.000
800.82	57.895
801.12	63.934
801.43	51.515
801.73	56.757
802.04	57.143
802.34	59.259
802.65	53.125
802.95	62.712
803.26	50.000
803.56	58.571
803.87	63.077
804.17	58.824
804.48	68.519
804.78	65.517
805.09	47.059
805.39	71.154
805.70	57.143
806.00	57.377
806.30	50.000
806.61	50.000
806.91	46.835
807.22	46.053
807.52	38.806
807.83	60.563
808.13	68.750
808.43	60.000
808.74	46.053
809.04	63.768
809.35	67.164
809.65	57.895
809.95	74.194
810.26	54.237
810.56	68.254
810.86	72.727
811.17	111.905
811.47	78.333
811.77	70.370
812.08	81.818
812.38	82.000
812.69	91.667
812.99	120.455
813.29	75.510
813.59	76.190
813.90	73.469
814.20	54.545
814.50	56.923
814.81	73.529
815.11	79.592
815.41	59.016
815.72	123.810
816.02	98.182
816.32	97.619
816.62	50.000
816.93	95.122
817.23	92.857
817.53	81.818
817.84	130.303
818.14	76.087
818.44	84.444
818.74	102.941
819.04	100.000
819.35	94.286
819.65	100.000
819.95	96.429
820.25	95.000
820.56	102.564
820.86	90.909
821.16	100.000
821.46	74.359
821.76	92.000
822.07	131.429
822.37	92.500
822.67	75.758
822.97	88.235
823.27	110.714
823.57	97.297
823.88	117.500
824.18	103.333
824.48	121.429
824.78	120.000
825.08	100.000
825.38	108.108
825.69	87.805
825.99	162.500
826.29	89.655
826.59	110.526
826.89	94.737
827.19	108.824
827.49	135.484
827.79	102.273
828.09	95.455
828.39	93.617
828.70	89.796
829.00	88.889
829.30	112.903
829.60	92.500
829.90	173.333
830.20	157.143
830.50	134.783
830.80	139.130
831.10	133.333
831.40	123.333
831.70	113.043
832.00	161.538
832.30	107.407
832.60	143.750
832.90	106.667
833.20	278.571
833.50	122.581
833.80	120.690
834.10	140.625
834.40	161.538
834.70	177.778
835.00	209.524
835.30	117.143
835.60	76.923
835.90	141.379
836.20	192.857
836.50	148.276
836.80	136.000
837.10	108.333
837.40	147.619
837.70	200.000
838.00	155.556
838.30	114.286
838.60	200.000
838.90	173.077
839.19	170.000
839.49	271.429
839.79	175.000
840.09	150.000
840.39	119.048
840.69	178.261
840.99	155.556
841.29	280.000
841.59	208.333
841.88	231.250
842.18	110.345
842.48	176.190
842.78	120.000
843.08	191.304
843.38	121.875
843.68	500.000
843.97	146.154
844.27	141.379
844.57	209.524
844.87	243.750
845.17	159.259
845.47	933.333
845.76	200.000
846.06	205.882
846.36	212.500
846.66	178.571
846.96	218.750
847.25	236.364
847.55	309.091
847.85	178.261
848.15	330.000
848.44	235.714
848.74	177.778
849.04	223.529
849.34	290.000
849.63	178.947
849.93	254.545
850.23	620.000
850.53	257.143
850.82	1150.000
851.12	-2100.000
851.42	2500.000
851.71	170.000
852.01	-733.333
852.31	120.833
852.61	1133.333
852.90	176.190
853.20	140.000
853.50	211.765
853.79	171.429
854.09	100.000
854.39	212.500
854.68	127.027
854.98	100.000
855.28	123.333
855.57	168.966
855.87	162.963
856.17	136.842
856.46	133.333
856.76	217.647
857.05	106.897
857.35	158.333
857.65	253.333
857.94	204.348
858.24	161.538
858.53	180.000
858.83	136.364
859.13	280.000
859.42	0.000
859.72	400.000
860.01	209.091
860.31	168.182
860.60	178.947
860.90	152.174
861.20	311.111
861.49	366.667
861.79	-2200.000
862.08	375.000
862.38	180.952
862.67	207.692
862.97	247.059
863.26	400.000
863.56	194.444
863.85	291.667
864.15	362.500
864.44	280.000
864.74	583.333
865.03	375.000
865.33	189.474
865.62	254.545
865.92	346.154
866.21	266.667
866.51	0.000
866.80	336.364
867.10	480.000
867.39	300.000
867.69	263.636
867.98	205.263
868.27	336.364
868.57	200.000
868.86	-3100.000
869.16	237.500
869.45	1000.000
869.75	-1400.000
870.04	216.667
870.33	342.857
870.63	875.000
870.92	1700.000
871.22	371.429
871.51	223.529
871.80	166.667
872.10	235.714
>>>>>End Processed Spectral Data<<<<<
