SpectraSuite Data File
++++++++++++++++++++++++++++++++++++
Date: Wed May 13 16:07:26 PDT 2015
User: schluterlab
Dark Spectrum Present: Yes
Reference Spectrum Present: Yes
Number of Sampled Component Spectra: 1
Spectrometers: USB2E3373
Integration Time (usec): 3000 (USB2E3373)
Spectra Averaged: 3 (USB2E3373)
Boxcar Smoothing: 0 (USB2E3373)
Correct for Electrical Dark: No (USB2E3373)
Strobe/Lamp Enabled: No (USB2E3373)
Correct for Detector Non-linearity: No (USB2E3373)
Correct for Stray Light: No (USB2E3373)
Number of Pixels in Processed Spectrum: 2048
>>>>>Begin Processed Spectral Data<<<<<
178.53	0.000
178.91	-750.000
179.29	-1000.000
179.67	-161.111
180.04	-725.000
180.42	1950.000
180.80	600.000
181.18	-550.000
181.56	542.857
181.94	0.000
182.31	-414.286
182.69	1066.667
183.07	-337.500
183.45	-355.556
183.83	409.091
184.20	-300.000
184.58	1550.000
184.96	3500.000
185.34	-580.000
185.72	-487.500
186.09	-1700.000
186.47	1600.000
186.85	1750.000
187.23	3500.000
187.61	-966.667
187.98	850.000
188.36	400.000
188.74	263.636
189.12	-640.000
189.49	440.000
189.87	-2700.000
190.25	-650.000
190.63	307.143
191.00	338.462
191.38	450.000
191.76	-950.000
192.14	1025.000
192.51	500.000
192.89	700.000
193.27	287.500
193.65	-850.000
194.02	400.000
194.40	700.000
194.78	320.000
195.15	316.667
195.53	440.000
195.91	-1350.000
196.29	262.500
196.66	178.947
197.04	-200.000
197.42	0.000
197.79	360.000
198.17	-3200.000
198.55	371.429
198.92	400.000
199.30	660.000
199.68	0.000
200.05	222.222
200.43	571.429
200.81	2300.000
201.18	766.667
201.56	-933.333
201.94	411.111
202.31	422.222
202.69	250.000
203.07	450.000
203.44	0.000
203.82	700.000
204.19	700.000
204.57	300.000
204.95	487.500
205.32	833.333
205.70	372.727
206.08	192.857
206.45	1450.000
206.83	300.000
207.20	733.333
207.58	320.000
207.96	272.222
208.33	462.500
208.71	-466.667
209.08	528.571
209.46	344.444
209.84	300.000
210.21	-1300.000
210.59	800.000
210.96	-337.500
211.34	1450.000
211.71	280.000
212.09	516.667
212.46	0.000
212.84	1333.333
213.22	825.000
213.59	-2000.000
213.97	366.667
214.34	628.571
214.72	463.636
215.09	600.000
215.47	-1650.000
215.84	-1550.000
216.22	1000.000
216.59	300.000
216.97	675.000
217.34	372.727
217.72	-450.000
218.09	0.000
218.47	-3000.000
218.84	400.000
219.22	542.857
219.59	1066.667
219.97	-328.571
220.34	700.000
220.72	-1200.000
221.09	264.286
221.47	1125.000
221.84	-533.333
222.22	0.000
222.59	1000.000
222.97	-1200.000
223.34	780.000
223.72	230.769
224.09	800.000
224.46	1100.000
224.84	-2400.000
225.21	-680.000
225.59	-3200.000
225.96	340.000
226.34	250.000
226.71	1850.000
227.08	525.000
227.46	340.000
227.83	-675.000
228.21	-1500.000
228.58	500.000
228.95	-1100.000
229.33	-1400.000
229.70	1133.333
230.08	514.286
230.45	-420.000
230.82	341.667
231.20	500.000
231.57	371.429
231.95	291.667
232.32	159.091
232.69	281.818
233.07	414.286
233.44	261.538
233.81	-1266.667
234.19	226.316
234.56	216.667
234.93	191.667
235.31	245.455
235.68	253.846
236.05	214.286
236.43	154.545
236.80	94.737
237.17	2200.000
237.55	152.381
237.92	178.571
238.29	128.571
238.67	112.903
239.04	137.931
239.41	91.667
239.79	84.783
240.16	116.667
240.53	88.636
240.91	72.549
241.28	82.000
241.65	58.000
242.02	59.420
242.40	61.290
242.77	50.000
243.14	46.237
243.51	62.921
243.89	57.647
244.26	50.000
244.63	51.613
245.00	35.106
245.38	47.525
245.75	40.187
246.12	41.284
246.49	47.445
246.87	42.400
247.24	44.615
247.61	30.714
247.98	32.680
248.36	31.757
248.73	36.306
249.10	39.490
249.47	36.158
249.84	32.620
250.22	32.086
250.59	31.953
250.96	29.293
251.33	31.754
251.70	39.109
252.08	28.095
252.45	24.664
252.82	23.478
253.19	28.511
253.56	29.804
253.94	30.705
254.31	27.734
254.68	30.385
255.05	27.675
255.42	27.236
255.79	30.882
256.16	27.437
256.54	21.555
256.91	24.911
257.28	20.504
257.65	27.393
258.02	25.776
258.39	27.760
258.76	24.749
259.14	24.702
259.51	25.836
259.88	22.360
260.25	25.076
260.62	25.723
260.99	23.292
261.36	24.925
261.73	24.355
262.10	22.674
262.47	23.944
262.85	21.448
263.22	23.932
263.59	24.217
263.96	22.802
264.33	24.282
264.70	23.684
265.07	21.483
265.44	25.505
265.81	21.168
266.18	23.367
266.55	23.659
266.92	21.867
267.29	25.463
267.66	21.560
268.03	21.136
268.40	22.664
268.77	23.628
269.14	21.622
269.51	22.799
269.88	22.611
270.25	19.187
270.62	22.247
270.99	22.796
271.36	23.391
271.73	21.028
272.10	21.087
272.47	22.796
272.84	19.481
273.21	22.642
273.58	18.122
273.95	17.610
274.32	19.421
274.69	20.557
275.06	18.898
275.43	21.489
275.80	20.842
276.17	19.552
276.54	21.622
276.91	17.984
277.28	20.117
277.65	19.923
278.02	20.704
278.39	21.680
278.76	19.455
279.13	19.245
279.50	20.298
279.87	19.920
280.23	19.561
280.60	20.696
280.97	18.484
281.34	20.177
281.71	19.818
282.08	22.457
282.45	16.909
282.82	20.426
283.19	18.004
283.56	18.947
283.92	20.305
284.29	19.224
284.66	19.238
285.03	18.445
285.40	20.599
285.77	17.845
286.14	17.617
286.51	18.833
286.87	17.949
287.24	20.195
287.61	17.817
287.98	17.532
288.35	19.968
288.72	17.290
289.08	17.684
289.45	17.463
289.82	17.561
290.19	16.327
290.56	17.917
290.93	17.069
291.29	16.258
291.66	17.994
292.03	17.878
292.40	18.649
292.77	15.089
293.13	17.761
293.50	17.493
293.87	16.444
294.24	15.852
294.60	17.031
294.97	17.006
295.34	15.374
295.71	16.335
296.08	13.533
296.44	15.406
296.81	15.324
297.18	15.718
297.55	14.908
297.91	13.852
298.28	15.395
298.65	16.188
299.02	14.888
299.38	15.007
299.75	13.342
300.12	13.921
300.48	12.750
300.85	14.920
301.22	13.885
301.59	14.268
301.95	15.365
302.32	14.506
302.69	14.217
303.05	14.545
303.42	14.568
303.79	14.949
304.15	13.520
304.52	12.978
304.89	12.311
305.25	13.341
305.62	13.703
305.99	13.223
306.35	13.982
306.72	15.247
307.09	14.206
307.45	14.189
307.82	12.500
308.19	14.018
308.55	15.210
308.92	13.749
309.29	12.883
309.65	12.937
310.02	13.531
310.38	13.011
310.75	12.460
311.12	13.715
311.48	13.584
311.85	13.522
312.22	13.632
312.58	13.721
312.95	14.995
313.31	12.524
313.68	13.410
314.05	14.300
314.41	13.970
314.78	13.192
315.14	13.406
315.51	13.594
315.87	13.465
316.24	13.605
316.61	13.060
316.97	12.329
317.34	13.014
317.70	13.958
318.07	14.726
318.43	13.307
318.80	13.402
319.16	12.335
319.53	13.508
319.89	13.238
320.26	14.600
320.62	13.492
320.99	13.838
321.35	13.030
321.72	13.244
322.08	14.610
322.45	15.423
322.81	15.795
323.18	14.836
323.54	13.822
323.91	14.906
324.27	13.480
324.64	12.954
325.00	13.165
325.37	15.105
325.73	14.632
326.10	12.710
326.46	13.351
326.83	13.978
327.19	15.030
327.56	14.373
327.92	13.473
328.29	14.729
328.65	12.891
329.01	13.809
329.38	14.524
329.74	13.296
330.11	13.101
330.47	12.764
330.84	14.430
331.20	14.117
331.56	13.945
331.93	13.611
332.29	14.907
332.66	13.805
333.02	14.351
333.38	14.724
333.75	14.260
334.11	13.345
334.48	13.576
334.84	13.603
335.20	13.091
335.57	13.418
335.93	11.339
336.29	12.088
336.66	13.616
337.02	13.484
337.38	13.148
337.75	11.943
338.11	13.608
338.47	12.339
338.84	13.382
339.20	12.385
339.56	13.686
339.93	11.455
340.29	12.500
340.65	12.745
341.02	12.478
341.38	12.456
341.74	12.368
342.11	13.886
342.47	12.863
342.83	13.014
343.20	13.593
343.56	12.553
343.92	12.456
344.28	12.755
344.65	12.984
345.01	11.616
345.37	11.921
345.73	12.098
346.10	12.873
346.46	12.373
346.82	13.591
347.19	12.615
347.55	12.397
347.91	13.350
348.27	13.065
348.63	13.378
349.00	12.298
349.36	13.136
349.72	12.831
350.08	12.156
350.45	13.019
350.81	12.754
351.17	12.642
351.53	12.613
351.89	11.386
352.26	12.628
352.62	13.232
352.98	12.318
353.34	13.311
353.70	11.538
354.07	13.145
354.43	11.905
354.79	11.826
355.15	13.488
355.51	13.349
355.87	12.653
356.24	12.459
356.60	12.510
356.96	11.424
357.32	12.592
357.68	12.283
358.04	12.827
358.40	11.876
358.77	12.754
359.13	11.839
359.49	12.314
359.85	11.111
360.21	11.085
360.57	12.685
360.93	10.923
361.29	12.320
361.66	11.378
362.02	12.090
362.38	11.863
362.74	12.649
363.10	11.695
363.46	12.032
363.82	11.489
364.18	11.821
364.54	12.927
364.90	12.465
365.26	12.059
365.62	11.322
365.98	11.468
366.35	12.034
366.71	12.581
367.07	12.017
367.43	12.700
367.79	12.491
368.15	13.362
368.51	11.119
368.87	12.848
369.23	12.143
369.59	11.875
369.95	12.059
370.31	12.037
370.67	11.087
371.03	13.109
371.39	12.245
371.75	12.353
372.11	12.091
372.47	12.830
372.83	12.968
373.19	11.705
373.55	12.195
373.91	13.108
374.27	11.753
374.63	11.491
374.99	11.935
375.35	11.514
375.71	11.720
376.07	12.003
376.42	11.348
376.78	12.061
377.14	11.940
377.50	11.722
377.86	11.104
378.22	12.705
378.58	10.714
378.94	12.382
379.30	11.069
379.66	12.817
380.02	11.548
380.38	11.172
380.74	12.365
381.09	12.164
381.45	12.661
381.81	13.022
382.17	12.675
382.53	11.572
382.89	12.778
383.25	11.757
383.61	12.577
383.97	13.071
384.32	12.289
384.68	11.586
385.04	11.555
385.40	12.384
385.76	11.794
386.12	11.852
386.48	13.153
386.83	12.957
387.19	12.863
387.55	12.059
387.91	12.031
388.27	12.446
388.62	13.030
388.98	12.531
389.34	12.641
389.70	12.017
390.06	12.991
390.42	12.192
390.77	12.786
391.13	12.572
391.49	13.008
391.85	11.967
392.20	11.735
392.56	12.942
392.92	12.596
393.28	10.355
393.64	12.950
393.99	13.256
394.35	12.593
394.71	13.551
395.07	12.710
395.42	12.423
395.78	13.104
396.14	12.477
396.50	13.158
396.85	12.206
397.21	12.145
397.57	12.957
397.92	12.861
398.28	11.939
398.64	13.202
399.00	12.535
399.35	12.352
399.71	12.384
400.07	13.424
400.42	12.147
400.78	13.932
401.14	12.988
401.49	13.015
401.85	12.644
402.21	12.515
402.57	12.770
402.92	13.304
403.28	13.429
403.63	13.428
403.99	13.121
404.35	12.788
404.70	12.950
405.06	12.638
405.42	12.664
405.77	12.514
406.13	12.923
406.49	13.483
406.84	12.699
407.20	12.766
407.55	13.210
407.91	12.400
408.27	13.593
408.62	13.125
408.98	12.071
409.34	12.977
409.69	12.710
410.05	12.701
410.40	12.538
410.76	12.366
411.11	13.390
411.47	13.227
411.83	13.684
412.18	12.430
412.54	13.823
412.89	12.651
413.25	12.810
413.60	13.156
413.96	12.568
414.31	12.758
414.67	13.752
415.03	12.517
415.38	13.789
415.74	13.441
416.09	13.390
416.45	13.320
416.80	13.351
417.16	13.740
417.51	13.470
417.87	12.524
418.22	13.249
418.58	13.363
418.93	13.022
419.29	13.304
419.64	13.665
420.00	13.537
420.35	13.217
420.71	12.971
421.06	12.589
421.42	12.865
421.77	12.948
422.12	12.353
422.48	12.574
422.83	12.871
423.19	12.541
423.54	13.117
423.90	13.275
424.25	13.456
424.61	14.048
424.96	13.528
425.31	13.566
425.67	13.090
426.02	13.886
426.38	12.759
426.73	13.341
427.09	13.556
427.44	12.708
427.79	12.766
428.15	13.393
428.50	13.458
428.85	13.230
429.21	13.363
429.56	12.338
429.92	13.035
430.27	12.512
430.62	12.852
430.98	13.233
431.33	12.990
431.68	13.665
432.04	12.833
432.39	12.736
432.74	12.867
433.10	13.639
433.45	14.052
433.80	12.694
434.16	13.515
434.51	12.895
434.86	13.341
435.22	13.619
435.57	13.191
435.92	13.283
436.28	13.582
436.63	13.742
436.98	13.566
437.34	14.013
437.69	13.419
438.04	13.322
438.39	13.254
438.75	14.468
439.10	13.240
439.45	13.459
439.81	12.689
440.16	12.761
440.51	13.591
440.86	13.723
441.22	14.127
441.57	12.633
441.92	13.306
442.27	13.240
442.63	13.639
442.98	14.366
443.33	13.859
443.68	13.578
444.03	13.372
444.39	12.220
444.74	13.366
445.09	13.747
445.44	13.997
445.79	13.706
446.15	13.923
446.50	13.516
446.85	13.875
447.20	13.106
447.55	13.624
447.91	12.852
448.26	13.634
448.61	14.019
448.96	14.230
449.31	14.004
449.66	12.999
450.02	13.370
450.37	14.002
450.72	13.875
451.07	13.163
451.42	12.948
451.77	14.093
452.12	13.222
452.47	14.241
452.83	13.928
453.18	12.836
453.53	14.409
453.88	13.290
454.23	13.867
454.58	14.597
454.93	14.431
455.28	13.217
455.63	13.896
455.98	13.988
456.34	13.128
456.69	13.024
457.04	13.808
457.39	14.085
457.74	13.929
458.09	13.859
458.44	13.911
458.79	13.449
459.14	14.108
459.49	14.536
459.84	13.518
460.19	14.084
460.54	13.021
460.89	13.823
461.24	13.600
461.59	14.062
461.94	13.933
462.29	14.065
462.64	13.338
462.99	13.208
463.34	14.533
463.69	14.071
464.04	14.319
464.39	13.739
464.74	13.666
465.09	14.053
465.44	13.075
465.79	12.919
466.14	13.684
466.49	13.793
466.84	14.244
467.19	14.182
467.54	14.188
467.89	13.745
468.24	13.845
468.59	14.408
468.94	13.500
469.29	13.882
469.64	14.659
469.99	14.411
470.34	13.672
470.68	14.009
471.03	13.673
471.38	13.482
471.73	14.657
472.08	15.000
472.43	13.819
472.78	13.101
473.13	14.698
473.48	13.670
473.83	14.695
474.17	13.752
474.52	13.400
474.87	14.069
475.22	13.175
475.57	13.971
475.92	13.224
476.27	13.867
476.61	13.569
476.96	13.799
477.31	13.605
477.66	13.184
478.01	13.382
478.36	13.273
478.70	12.980
479.05	13.206
479.40	13.306
479.75	13.116
480.10	12.873
480.45	13.137
480.79	12.852
481.14	12.916
481.49	13.004
481.84	13.306
482.19	12.858
482.53	13.624
482.88	13.541
483.23	13.458
483.58	13.467
483.92	13.215
484.27	12.244
484.62	12.672
484.97	12.889
485.31	13.116
485.66	11.750
486.01	11.588
486.36	11.167
486.70	11.054
487.05	11.840
487.40	12.079
487.75	12.568
488.09	12.769
488.44	13.175
488.79	13.526
489.13	13.102
489.48	13.132
489.83	13.164
490.17	12.714
490.52	12.400
490.87	12.845
491.22	13.097
491.56	12.984
491.91	12.843
492.26	13.091
492.60	12.857
492.95	12.442
493.30	13.037
493.64	13.019
493.99	12.349
494.34	13.460
494.68	13.233
495.03	13.299
495.37	13.355
495.72	12.768
496.07	13.179
496.41	12.920
496.76	12.973
497.11	12.877
497.45	13.181
497.80	12.668
498.14	12.899
498.49	13.171
498.84	14.238
499.18	13.190
499.53	13.058
499.87	12.815
500.22	13.424
500.56	13.641
500.91	13.221
501.26	13.276
501.60	14.286
501.95	12.878
502.29	13.449
502.64	13.920
502.98	12.997
503.33	12.888
503.67	13.457
504.02	13.190
504.36	13.336
504.71	13.239
505.06	13.542
505.40	13.369
505.75	12.681
506.09	12.585
506.44	13.172
506.78	13.687
507.13	13.882
507.47	12.929
507.82	13.526
508.16	13.273
508.51	14.105
508.85	13.208
509.19	13.265
509.54	13.112
509.88	13.395
510.23	13.419
510.57	13.983
510.92	13.154
511.26	13.515
511.61	14.627
511.95	13.570
512.30	13.468
512.64	13.649
512.98	13.666
513.33	13.919
513.67	13.554
514.02	13.474
514.36	13.872
514.70	13.835
515.05	14.334
515.39	14.302
515.74	14.077
516.08	14.254
516.42	14.206
516.77	13.712
517.11	13.374
517.46	14.221
517.80	14.344
518.14	13.492
518.49	14.119
518.83	13.807
519.17	14.550
519.52	14.601
519.86	14.889
520.20	14.624
520.55	15.500
520.89	14.720
521.23	14.777
521.58	13.565
521.92	15.064
522.26	13.911
522.61	14.829
522.95	14.979
523.29	14.851
523.64	14.939
523.98	14.295
524.32	14.777
524.66	14.251
525.01	14.951
525.35	13.631
525.69	14.778
526.04	14.953
526.38	15.192
526.72	15.031
527.06	14.878
527.41	13.738
527.75	15.177
528.09	14.515
528.43	14.659
528.78	15.304
529.12	14.667
529.46	15.187
529.80	14.047
530.15	14.517
530.49	14.708
530.83	15.063
531.17	14.034
531.51	15.240
531.86	15.355
532.20	15.971
532.54	15.375
532.88	14.891
533.22	14.428
533.57	14.815
533.91	14.329
534.25	14.399
534.59	14.704
534.93	14.872
535.27	14.484
535.62	15.324
535.96	15.066
536.30	14.113
536.64	14.552
536.98	14.864
537.32	14.417
537.66	14.467
538.01	15.405
538.35	15.708
538.69	15.763
539.03	15.010
539.37	14.377
539.71	13.545
540.05	15.359
540.39	14.684
540.73	14.166
541.07	15.380
541.42	14.742
541.76	14.903
542.10	14.360
542.44	14.768
542.78	15.547
543.12	14.395
543.46	14.557
543.80	15.290
544.14	14.056
544.48	15.175
544.82	15.010
545.16	14.834
545.50	14.781
545.84	14.516
546.18	15.690
546.52	14.522
546.86	14.433
547.20	15.307
547.54	15.832
547.88	15.497
548.22	14.882
548.56	14.780
548.90	15.237
549.24	14.276
549.58	15.211
549.92	16.071
550.26	15.341
550.60	14.730
550.94	15.563
551.28	14.850
551.62	14.234
551.96	14.947
552.30	15.700
552.64	15.213
552.98	14.712
553.32	15.307
553.66	15.337
554.00	14.894
554.34	14.286
554.68	15.880
555.02	14.951
555.36	15.170
555.69	14.885
556.03	15.141
556.37	15.007
556.71	15.007
557.05	14.986
557.39	14.976
557.73	15.314
558.07	14.503
558.41	14.761
558.75	15.724
559.08	14.691
559.42	14.588
559.76	16.324
560.10	14.490
560.44	14.885
560.78	15.236
561.12	15.106
561.45	15.450
561.79	15.096
562.13	14.286
562.47	15.574
562.81	14.714
563.15	14.448
563.48	15.053
563.82	14.547
564.16	13.734
564.50	14.583
564.84	13.906
565.17	14.929
565.51	14.505
565.85	14.594
566.19	13.838
566.52	15.136
566.86	13.984
567.20	14.505
567.54	14.269
567.88	13.851
568.21	14.603
568.55	14.307
568.89	13.716
569.23	13.948
569.56	13.482
569.90	13.283
570.24	13.240
570.57	12.683
570.91	12.508
571.25	12.940
571.59	12.695
571.92	12.903
572.26	12.854
572.60	12.853
572.93	12.744
573.27	13.191
573.61	12.870
573.95	13.075
574.28	12.613
574.62	12.658
574.96	12.258
575.29	12.512
575.63	12.805
575.97	12.653
576.30	12.799
576.64	12.434
576.98	12.251
577.31	12.200
577.65	12.530
577.98	12.565
578.32	12.292
578.66	12.243
578.99	12.782
579.33	12.539
579.67	12.357
580.00	12.803
580.34	12.696
580.67	12.621
581.01	12.593
581.35	11.925
581.68	12.163
582.02	11.877
582.35	12.043
582.69	12.204
583.02	12.346
583.36	12.866
583.70	13.012
584.03	12.800
584.37	13.544
584.70	12.644
585.04	12.280
585.37	12.908
585.71	12.570
586.04	12.733
586.38	12.722
586.72	13.063
587.05	12.306
587.39	12.058
587.72	12.651
588.06	12.647
588.39	13.032
588.73	12.878
589.06	13.898
589.40	13.165
589.73	13.516
590.07	12.989
590.40	13.518
590.73	13.193
591.07	13.838
591.40	14.171
591.74	14.026
592.07	13.569
592.41	13.807
592.74	12.734
593.08	12.758
593.41	12.749
593.75	12.523
594.08	12.672
594.41	12.867
594.75	12.791
595.08	13.064
595.42	13.170
595.75	13.141
596.09	13.594
596.42	13.949
596.75	13.339
597.09	14.286
597.42	13.196
597.75	13.497
598.09	13.391
598.42	13.402
598.76	13.214
599.09	12.847
599.42	12.955
599.76	13.360
600.09	12.240
600.42	12.637
600.76	12.679
601.09	13.005
601.42	12.938
601.76	13.131
602.09	12.964
602.42	13.734
602.76	13.382
603.09	13.257
603.42	13.627
603.76	13.224
604.09	12.873
604.42	13.045
604.76	13.792
605.09	13.412
605.42	13.681
605.75	12.790
606.09	13.013
606.42	12.669
606.75	13.024
607.09	13.227
607.42	13.222
607.75	12.574
608.08	13.461
608.42	13.985
608.75	13.075
609.08	13.043
609.41	14.184
609.75	13.149
610.08	13.949
610.41	12.803
610.74	13.340
611.07	13.439
611.41	13.641
611.74	14.128
612.07	13.561
612.40	14.638
612.73	13.842
613.07	13.362
613.40	14.481
613.73	13.319
614.06	13.763
614.39	14.001
614.72	14.211
615.06	13.655
615.39	12.951
615.72	13.344
616.05	13.344
616.38	13.341
616.71	13.539
617.05	14.488
617.38	13.710
617.71	14.354
618.04	14.183
618.37	12.714
618.70	14.063
619.03	14.474
619.36	14.868
619.69	15.000
620.03	14.492
620.36	14.305
620.69	15.479
621.02	14.971
621.35	14.409
621.68	14.252
622.01	14.319
622.34	15.053
622.67	15.437
623.00	14.674
623.33	13.724
623.66	14.439
623.99	13.844
624.32	13.909
624.65	14.548
624.99	13.456
625.32	13.613
625.65	14.500
625.98	14.450
626.31	14.852
626.64	15.755
626.97	15.544
627.30	14.381
627.63	15.340
627.96	15.559
628.29	15.311
628.62	17.017
628.95	16.132
629.28	15.876
629.61	16.499
629.94	16.000
630.26	15.157
630.59	14.490
630.92	15.421
631.25	13.722
631.58	15.415
631.91	15.923
632.24	15.084
632.57	17.419
632.90	16.557
633.23	17.450
633.56	16.610
633.89	16.761
634.22	16.572
634.55	17.278
634.88	16.647
635.20	16.965
635.53	16.145
635.86	17.698
636.19	16.235
636.52	15.456
636.85	15.349
637.18	15.438
637.51	16.903
637.83	14.303
638.16	15.729
638.49	17.128
638.82	15.803
639.15	17.125
639.48	17.332
639.81	17.426
640.13	19.531
640.46	15.839
640.79	16.645
641.12	15.818
641.45	17.318
641.77	18.262
642.10	16.667
642.43	16.667
642.76	16.718
643.09	15.337
643.41	16.995
643.74	18.673
644.07	17.226
644.40	17.945
644.73	17.953
645.05	17.591
645.38	17.536
645.71	16.264
646.04	18.937
646.36	19.199
646.69	20.401
647.02	19.388
647.35	18.729
647.67	17.876
648.00	17.073
648.33	17.822
648.66	18.485
648.98	19.190
649.31	15.695
649.64	18.236
649.96	15.797
650.29	16.272
650.62	16.828
650.94	17.666
651.27	19.426
651.60	18.469
651.92	17.412
652.25	15.961
652.58	15.732
652.90	18.167
653.23	16.025
653.56	18.110
653.88	17.750
654.21	19.115
654.54	19.142
654.86	17.290
655.19	15.811
655.52	12.014
655.84	9.362
656.17	11.718
656.49	16.275
656.82	16.780
657.15	13.357
657.47	10.294
657.80	8.143
658.13	8.655
658.45	13.450
658.78	14.254
659.10	15.037
659.43	16.167
659.75	16.659
660.08	17.342
660.41	20.298
660.73	20.330
661.06	20.701
661.38	19.818
661.71	19.038
662.03	20.316
662.36	17.893
662.68	18.675
663.01	20.000
663.33	17.197
663.66	18.277
663.98	16.415
664.31	18.487
664.63	17.206
664.96	16.499
665.28	19.057
665.61	19.493
665.93	15.895
666.26	18.661
666.58	19.456
666.91	18.605
667.23	18.202
667.56	15.983
667.88	18.803
668.21	19.829
668.53	20.607
668.86	17.316
669.18	23.667
669.50	20.652
669.83	22.440
670.15	18.889
670.48	18.083
670.80	19.828
671.13	18.471
671.45	18.298
671.77	18.534
672.10	18.669
672.42	15.018
672.75	18.076
673.07	16.901
673.39	15.371
673.72	17.578
674.04	18.039
674.37	18.835
674.69	19.632
675.01	18.828
675.34	20.123
675.66	21.263
675.98	18.941
676.31	17.647
676.63	19.533
676.95	18.658
677.28	17.757
677.60	21.978
677.92	19.198
678.25	17.248
678.57	19.323
678.89	17.635
679.22	17.092
679.54	18.702
679.86	19.817
680.18	18.247
680.51	17.908
680.83	19.929
681.15	17.170
681.48	18.904
681.80	16.054
682.12	18.008
682.44	15.667
682.77	19.959
683.09	20.386
683.41	20.177
683.73	20.309
684.06	20.248
684.38	19.569
684.70	18.411
685.02	18.011
685.34	16.667
685.67	16.783
685.99	17.182
686.31	15.188
686.63	17.491
686.96	17.857
687.28	16.787
687.60	14.674
687.92	19.013
688.24	17.300
688.56	20.884
688.89	19.917
689.21	20.524
689.53	15.866
689.85	21.064
690.17	17.805
690.49	19.958
690.82	19.393
691.14	18.080
691.46	17.300
691.78	17.671
692.10	18.182
692.42	21.158
692.74	17.427
693.06	18.511
693.39	20.123
693.71	20.306
694.03	17.474
694.35	19.913
694.67	16.018
694.99	23.415
695.31	17.892
695.63	15.550
695.95	17.848
696.27	14.975
696.59	17.358
696.91	18.394
697.23	17.606
697.56	21.535
697.88	14.110
698.20	18.958
698.52	17.204
698.84	18.708
699.16	18.433
699.48	20.665
699.80	20.773
700.12	22.078
700.44	20.955
700.76	19.337
701.08	20.977
701.40	17.039
701.72	22.741
702.04	26.136
702.36	18.130
702.68	20.113
703.00	22.992
703.32	19.149
703.64	23.056
703.96	18.384
704.28	21.221
704.60	21.701
704.91	22.849
705.23	21.994
705.55	25.249
705.87	25.581
706.19	22.261
706.51	23.364
706.83	22.424
707.15	21.569
707.47	17.929
707.79	19.410
708.11	20.548
708.43	18.095
708.74	19.898
709.06	21.299
709.38	19.160
709.70	21.221
710.02	21.662
710.34	20.909
710.66	25.672
710.98	22.727
711.29	22.965
711.61	23.009
711.93	19.231
712.25	25.402
712.57	24.265
712.89	22.491
713.20	23.100
713.52	23.684
713.84	20.253
714.16	21.037
714.48	18.966
714.80	23.708
715.11	19.597
715.43	18.398
715.75	21.449
716.07	22.045
716.39	19.436
716.70	24.917
717.02	25.899
717.34	21.201
717.66	24.627
717.97	25.896
718.29	24.444
718.61	22.628
718.93	20.956
719.24	24.221
719.56	23.729
719.88	24.068
720.20	27.365
720.51	26.829
720.83	26.766
721.15	23.507
721.46	23.404
721.78	20.789
722.10	23.396
722.42	26.316
722.73	25.843
723.05	24.590
723.37	22.267
723.68	21.236
724.00	21.951
724.32	20.161
724.63	24.390
724.95	26.778
725.27	27.530
725.58	23.828
725.90	23.723
726.22	24.906
726.53	17.708
726.85	22.184
727.16	23.488
727.48	23.404
727.80	23.106
728.11	24.275
728.43	20.000
728.74	21.505
729.06	23.723
729.38	24.265
729.69	24.911
730.01	20.137
730.32	21.875
730.64	21.405
730.96	19.142
731.27	18.874
731.59	20.183
731.90	22.741
732.22	22.050
732.53	17.028
732.85	21.474
733.16	21.222
733.48	27.907
733.80	21.753
734.11	24.204
734.43	19.231
734.74	18.571
735.06	19.484
735.37	22.543
735.69	20.382
736.00	22.549
736.32	25.857
736.63	20.767
736.95	23.323
737.26	16.667
737.58	21.290
737.89	25.084
738.21	25.597
738.52	26.071
738.83	24.528
739.15	23.077
739.46	22.628
739.78	24.653
740.09	22.154
740.41	26.129
740.72	21.603
741.04	24.074
741.35	25.417
741.66	27.556
741.98	23.113
742.29	28.708
742.61	27.155
742.92	24.434
743.23	23.932
743.55	26.400
743.86	22.807
744.18	29.204
744.49	30.144
744.80	32.864
745.12	27.273
745.43	27.313
745.74	27.928
746.06	25.229
746.37	25.112
746.68	23.982
747.00	25.463
747.31	31.905
747.62	26.549
747.94	22.467
748.25	24.681
748.56	28.194
748.88	19.802
749.19	34.500
749.50	24.186
749.82	24.797
750.13	19.592
750.44	23.358
750.75	23.860
751.07	24.116
751.38	22.997
751.69	24.910
752.01	22.556
752.32	21.661
752.63	25.177
752.94	17.623
753.26	26.800
753.57	19.106
753.88	27.734
754.19	24.286
754.51	26.042
754.82	22.744
755.13	22.264
755.44	24.060
755.75	20.803
756.07	21.986
756.38	24.088
756.69	23.826
757.00	19.760
757.31	19.881
757.63	21.053
757.94	22.252
758.25	20.343
758.56	17.531
758.87	18.817
759.18	23.939
759.50	20.690
759.81	21.807
760.12	18.125
760.43	21.777
760.74	20.924
761.05	19.209
761.36	21.390
761.67	18.750
761.99	19.876
762.30	18.056
762.61	22.901
762.92	26.172
763.23	24.370
763.54	27.200
763.85	22.266
764.16	29.615
764.47	18.631
764.78	21.201
765.10	15.506
765.41	18.879
765.72	21.257
766.03	18.809
766.34	24.667
766.65	29.362
766.96	26.496
767.27	28.934
767.58	30.729
767.89	36.842
768.20	29.310
768.51	27.919
768.82	26.147
769.13	19.512
769.44	21.862
769.75	28.755
770.06	18.349
770.37	28.507
770.68	25.000
770.99	27.111
771.30	22.131
771.61	26.457
771.92	22.951
772.23	30.252
772.54	32.308
772.85	30.890
773.16	33.511
773.47	27.717
773.78	32.995
774.09	23.810
774.39	30.994
774.70	29.012
775.01	31.159
775.32	39.869
775.63	34.868
775.94	27.338
776.25	48.031
776.56	41.045
776.87	27.869
777.18	37.500
777.48	38.931
777.79	39.394
778.10	34.815
778.41	42.857
778.72	33.577
779.03	38.926
779.34	33.557
779.65	24.324
779.95	28.834
780.26	38.562
780.57	33.103
780.88	38.281
781.19	36.842
781.50	33.108
781.80	29.560
782.11	32.203
782.42	29.747
782.73	25.767
783.04	37.838
783.34	37.324
783.65	41.096
783.96	37.313
784.27	34.266
784.57	30.935
784.88	26.852
785.19	32.540
785.50	39.623
785.81	38.806
786.11	38.525
786.42	36.434
786.73	42.478
787.04	45.283
787.34	45.536
787.65	36.000
787.96	45.045
788.26	38.017
788.57	43.220
788.88	35.537
789.19	38.889
789.49	40.152
789.80	35.878
790.11	48.571
790.41	45.545
790.72	38.554
791.03	47.826
791.33	36.047
791.64	44.330
791.95	44.554
792.25	46.667
792.56	59.740
792.87	64.103
793.17	73.418
793.48	47.126
793.79	43.678
794.09	59.091
794.40	37.815
794.70	49.265
795.01	34.815
795.32	33.094
795.62	36.220
795.93	39.655
796.23	46.903
796.54	45.882
796.85	41.892
797.15	67.606
797.46	56.061
797.76	56.627
798.07	58.228
798.37	52.308
798.68	54.545
798.99	47.887
799.29	67.532
799.60	45.455
799.90	72.603
800.21	59.701
800.51	60.345
800.82	64.912
801.12	70.492
801.43	57.576
801.73	47.297
802.04	61.905
802.34	62.963
802.65	62.500
802.95	77.966
803.26	71.875
803.56	42.857
803.87	55.385
804.17	58.824
804.48	51.852
804.78	58.621
805.09	58.824
805.39	63.462
805.70	71.429
806.00	72.131
806.30	48.485
806.61	51.220
806.91	50.633
807.22	51.316
807.52	43.284
807.83	66.197
808.13	57.813
808.43	86.667
808.74	64.474
809.04	50.725
809.35	64.179
809.65	65.789
809.95	66.129
810.26	49.153
810.56	57.143
810.86	86.364
811.17	104.762
811.47	76.667
811.77	75.926
812.08	87.273
812.38	70.000
812.69	102.778
812.99	77.273
813.29	93.878
813.59	50.000
813.90	102.041
814.20	72.727
814.50	58.462
814.81	77.941
815.11	85.714
815.41	62.295
815.72	109.524
816.02	81.818
816.32	100.000
816.62	90.000
816.93	90.244
817.23	88.095
817.53	70.455
817.84	93.939
818.14	63.043
818.44	75.556
818.74	94.118
819.04	82.500
819.35	100.000
819.65	138.235
819.95	100.000
820.25	85.000
820.56	97.436
820.86	120.455
821.16	76.744
821.46	64.103
821.76	98.000
822.07	105.714
822.37	100.000
822.67	81.818
822.97	72.549
823.27	114.286
823.57	124.324
823.88	95.000
824.18	120.000
824.48	121.429
824.78	136.000
825.08	133.333
825.38	91.892
825.69	95.122
825.99	116.667
826.29	124.138
826.59	92.105
826.89	73.684
827.19	123.529
827.49	116.129
827.79	115.909
828.09	95.455
828.39	100.000
828.70	91.837
829.00	118.519
829.30	129.032
829.60	92.500
829.90	160.000
830.20	114.286
830.50	121.739
830.80	156.522
831.10	130.000
831.40	106.667
831.70	100.000
832.00	165.385
832.30	103.704
832.60	187.500
832.90	163.333
833.20	278.571
833.50	122.581
833.80	113.793
834.10	128.125
834.40	161.538
834.70	200.000
835.00	200.000
835.30	108.571
835.60	92.308
835.90	117.241
836.20	150.000
836.50	141.379
836.80	108.000
837.10	113.889
837.40	171.429
837.70	235.294
838.00	129.630
838.30	147.619
838.60	204.762
838.90	123.077
839.19	185.000
839.49	257.143
839.79	170.000
840.09	160.000
840.39	166.667
840.69	173.913
840.99	233.333
841.29	310.000
841.59	158.333
841.88	237.500
842.18	141.379
842.48	157.143
842.78	140.000
843.08	139.130
843.38	118.750
843.68	433.333
843.97	126.923
844.27	144.828
844.57	185.714
844.87	293.750
845.17	118.519
845.47	733.333
845.76	222.222
846.06	247.059
846.36	250.000
846.66	278.571
846.96	156.250
847.25	300.000
847.55	145.455
847.85	108.696
848.15	390.000
848.44	150.000
848.74	100.000
849.04	205.882
849.34	270.000
849.63	173.684
849.93	245.455
850.23	560.000
850.53	321.429
850.82	2050.000
851.12	-2100.000
851.42	2400.000
851.71	130.000
852.01	-200.000
852.31	145.833
852.61	1100.000
852.90	214.286
853.20	164.000
853.50	176.471
853.79	166.667
854.09	116.667
854.39	187.500
854.68	102.703
854.98	122.581
855.28	103.333
855.57	141.379
855.87	144.444
856.17	147.368
856.46	126.667
856.76	170.588
857.05	113.793
857.35	145.833
857.65	220.000
857.94	130.435
858.24	196.154
858.53	160.000
858.83	172.727
859.13	153.333
859.42	0.000
859.72	355.556
860.01	209.091
860.31	181.818
860.60	194.737
860.90	195.652
861.20	377.778
861.49	350.000
861.79	-3000.000
862.08	487.500
862.38	252.381
862.67	284.615
862.97	229.412
863.26	411.111
863.56	177.778
863.85	241.667
864.15	387.500
864.44	193.333
864.74	533.333
865.03	500.000
865.33	194.737
865.62	318.182
865.92	276.923
866.21	266.667
866.51	0.000
866.80	290.909
867.10	640.000
867.39	253.846
867.69	290.909
867.98	184.211
868.27	181.818
868.57	194.737
868.86	-3000.000
869.16	250.000
869.45	1300.000
869.75	-2000.000
870.04	375.000
870.33	385.714
870.63	775.000
870.92	1450.000
871.22	385.714
871.51	217.647
871.80	147.619
872.10	250.000
>>>>>End Processed Spectral Data<<<<<
