SpectraSuite Data File
++++++++++++++++++++++++++++++++++++
Date: Wed May 13 16:01:58 PDT 2015
User: schluterlab
Dark Spectrum Present: Yes
Reference Spectrum Present: Yes
Number of Sampled Component Spectra: 1
Spectrometers: USB2E3373
Integration Time (usec): 3000 (USB2E3373)
Spectra Averaged: 3 (USB2E3373)
Boxcar Smoothing: 0 (USB2E3373)
Correct for Electrical Dark: No (USB2E3373)
Strobe/Lamp Enabled: No (USB2E3373)
Correct for Detector Non-linearity: No (USB2E3373)
Correct for Stray Light: No (USB2E3373)
Number of Pixels in Processed Spectrum: 2048
>>>>>Begin Processed Spectral Data<<<<<
178.53	0.000
178.91	-500.000
179.29	-550.000
179.67	-38.889
180.04	-550.000
180.42	400.000
180.80	360.000
181.18	-475.000
181.56	228.571
181.94	0.000
182.31	-157.143
182.69	500.000
183.07	-37.500
183.45	-211.111
183.83	218.182
184.20	-100.000
184.58	700.000
184.96	1800.000
185.34	-320.000
185.72	-275.000
186.09	-500.000
186.47	900.000
186.85	1000.000
187.23	1200.000
187.61	-500.000
187.98	300.000
188.36	227.273
188.74	209.091
189.12	-420.000
189.49	300.000
189.87	-1900.000
190.25	-525.000
190.63	228.571
191.00	223.077
191.38	300.000
191.76	-350.000
192.14	625.000
192.51	212.500
192.89	450.000
193.27	187.500
193.65	-375.000
194.02	160.000
194.40	400.000
194.78	180.000
195.15	183.333
195.53	310.000
195.91	-650.000
196.29	112.500
196.66	157.895
197.04	-20.000
197.42	0.000
197.79	270.000
198.17	-1800.000
198.55	285.714
198.92	287.500
199.30	180.000
199.68	0.000
200.05	172.222
200.43	328.571
200.81	700.000
201.18	800.000
201.56	-633.333
201.94	11.111
202.31	255.556
202.69	208.333
203.07	220.000
203.44	0.000
203.82	475.000
204.19	371.429
204.57	178.571
204.95	212.500
205.32	566.667
205.70	154.545
206.08	192.857
206.45	1150.000
206.83	137.500
207.20	366.667
207.58	260.000
207.96	155.556
208.33	400.000
208.71	-383.333
209.08	271.429
209.46	211.111
209.84	327.273
210.21	-200.000
210.59	575.000
210.96	-100.000
211.34	900.000
211.71	240.000
212.09	116.667
212.46	0.000
212.84	566.667
213.22	375.000
213.59	-1500.000
213.97	283.333
214.34	428.571
214.72	290.909
215.09	440.000
215.47	-600.000
215.84	-1100.000
216.22	833.333
216.59	142.857
216.97	300.000
217.34	118.182
217.72	-200.000
218.09	0.000
218.47	-1600.000
218.84	177.778
219.22	200.000
219.59	700.000
219.97	-85.714
220.34	340.000
220.72	-700.000
221.09	135.714
221.47	675.000
221.84	-300.000
222.22	0.000
222.59	425.000
222.97	-1200.000
223.34	440.000
223.72	192.308
224.09	520.000
224.46	700.000
224.84	-1500.000
225.21	-280.000
225.59	-900.000
225.96	300.000
226.34	100.000
226.71	950.000
227.08	137.500
227.46	250.000
227.83	-475.000
228.21	-1150.000
228.58	211.111
228.95	-400.000
229.33	-500.000
229.70	700.000
230.08	342.857
230.45	-200.000
230.82	141.667
231.20	366.667
231.57	285.714
231.95	183.333
232.32	54.545
232.69	172.727
233.07	285.714
233.44	100.000
233.81	-766.667
234.19	136.842
234.56	166.667
234.93	75.000
235.31	127.273
235.68	76.923
236.05	150.000
236.43	87.879
236.80	94.737
237.17	500.000
237.55	85.714
237.92	78.571
238.29	85.714
238.67	35.484
239.04	89.655
239.41	58.333
239.79	73.913
240.16	71.429
240.53	45.455
240.91	27.451
241.28	46.000
241.65	42.000
242.02	46.377
242.40	37.097
242.77	50.000
243.14	40.860
243.51	56.180
243.89	36.471
244.26	35.556
244.63	38.710
245.00	36.170
245.38	32.673
245.75	34.579
246.12	26.606
246.49	35.036
246.87	31.200
247.24	34.615
247.61	31.429
247.98	26.797
248.36	33.108
248.73	30.573
249.10	35.669
249.47	31.073
249.84	28.877
250.22	30.481
250.59	24.260
250.96	28.283
251.33	25.592
251.70	22.772
252.08	21.429
252.45	21.076
252.82	29.130
253.19	26.809
253.56	25.098
253.94	26.141
254.31	21.484
254.68	28.462
255.05	24.354
255.42	25.203
255.79	25.000
256.16	25.632
256.54	21.555
256.91	25.267
257.28	19.424
257.65	22.112
258.02	22.981
258.39	20.505
258.76	25.084
259.14	24.107
259.51	23.100
259.88	20.186
260.25	23.565
260.62	23.121
260.99	22.360
261.36	22.523
261.73	23.209
262.10	20.930
262.47	25.070
262.85	23.955
263.22	19.943
263.59	23.647
263.96	21.978
264.33	21.149
264.70	20.526
265.07	21.483
265.44	22.222
265.81	21.411
266.18	21.106
266.55	21.463
266.92	21.622
267.29	21.759
267.66	22.018
268.03	20.227
268.40	22.664
268.77	21.002
269.14	21.396
269.51	20.316
269.88	22.378
270.25	19.187
270.62	21.348
270.99	23.011
271.36	22.103
271.73	19.159
272.10	19.348
272.47	21.720
272.84	20.996
273.21	20.126
273.58	21.834
273.95	19.287
274.32	17.975
274.69	19.914
275.06	19.488
275.43	22.553
275.80	20.441
276.17	19.959
276.54	21.206
276.91	20.356
277.28	19.727
277.65	20.890
278.02	20.290
278.39	21.484
278.76	20.000
279.13	21.132
279.50	20.112
279.87	20.120
280.23	20.758
280.60	20.503
280.97	19.963
281.34	23.186
281.71	21.273
282.08	19.578
282.45	20.182
282.82	19.005
283.19	17.825
283.56	20.702
283.92	21.827
284.29	17.284
284.66	20.508
285.03	18.987
285.40	18.134
285.77	18.519
286.14	19.171
286.51	18.667
286.87	19.658
287.24	18.567
287.61	19.262
287.98	18.344
288.35	19.176
288.72	17.445
289.08	20.188
289.45	16.969
289.82	20.000
290.19	16.327
290.56	18.070
290.93	16.314
291.29	17.331
291.66	17.699
292.03	18.023
292.40	18.649
292.77	17.012
293.13	16.269
293.50	17.784
293.87	15.704
294.24	16.000
294.60	16.157
294.97	15.262
295.34	16.925
295.71	17.614
296.08	15.670
296.44	16.369
296.81	15.588
297.18	16.802
297.55	14.908
297.91	14.512
298.28	14.859
298.65	16.188
299.02	15.547
299.38	15.007
299.75	13.881
300.12	15.453
300.48	16.125
300.85	15.660
301.22	14.904
301.59	14.268
301.95	13.854
302.32	14.634
302.69	14.934
303.05	13.333
303.42	14.074
303.79	14.270
304.15	13.986
304.52	13.441
304.89	13.589
305.25	13.689
305.62	15.742
305.99	14.758
306.35	14.653
306.72	13.789
307.09	14.428
307.45	15.315
307.82	12.612
308.19	13.797
308.55	14.671
308.92	14.286
309.29	12.883
309.65	13.574
310.02	14.588
310.38	14.624
310.75	13.833
311.12	14.944
311.48	15.674
311.85	14.151
312.22	13.736
312.58	14.033
312.95	14.044
313.31	13.786
313.68	13.929
314.05	16.371
314.41	15.678
314.78	15.408
315.14	15.194
315.51	14.521
315.87	15.446
316.24	13.803
316.61	13.645
316.97	13.503
317.34	13.894
317.70	15.774
318.07	16.266
318.43	14.677
318.80	16.307
319.16	16.290
319.53	13.977
319.89	14.667
320.26	16.100
320.62	15.774
320.99	16.566
321.35	15.758
321.72	16.940
322.08	16.979
322.45	17.711
322.81	18.605
323.18	18.593
323.54	16.605
323.91	16.981
324.27	17.591
324.64	16.216
325.00	16.321
325.37	18.653
325.73	18.851
326.10	18.358
326.46	18.011
326.83	19.931
327.19	17.677
327.56	18.118
327.92	18.635
328.29	19.255
328.65	19.521
329.01	18.141
329.38	19.704
329.74	18.744
330.11	18.756
330.47	19.192
330.84	19.761
331.20	19.217
331.56	18.716
331.93	18.704
332.29	19.521
332.66	20.531
333.02	20.475
333.38	20.235
333.75	20.321
334.11	20.641
334.48	19.610
334.84	19.393
335.20	19.727
335.57	19.039
335.93	19.464
336.29	20.788
336.66	20.379
337.02	19.276
337.38	20.000
337.75	20.143
338.11	21.038
338.47	20.258
338.84	19.615
339.20	19.450
339.56	19.982
339.93	19.364
340.29	20.743
340.65	20.499
341.02	21.291
341.38	19.840
341.74	19.737
342.11	21.834
342.47	19.471
342.83	19.777
343.20	20.433
343.56	19.461
343.92	20.614
344.28	20.153
344.65	19.862
345.01	19.865
345.37	19.640
345.73	19.712
346.10	19.352
346.46	20.169
346.82	20.181
347.19	20.217
347.55	20.525
347.91	20.631
348.27	20.789
348.63	20.652
349.00	19.579
349.36	20.197
349.72	20.690
350.08	20.665
350.45	20.993
350.81	20.796
351.17	21.313
351.53	20.639
351.89	19.307
352.26	21.310
352.62	21.171
352.98	20.421
353.34	21.528
353.70	19.640
354.07	20.726
354.43	19.841
354.79	20.515
355.15	19.872
355.51	20.544
355.87	19.510
356.24	21.580
356.60	19.647
356.96	21.722
357.32	20.769
357.68	21.024
358.04	20.586
358.40	20.982
358.77	20.344
359.13	20.600
359.49	21.490
359.85	20.238
360.21	20.813
360.57	21.012
360.93	21.615
361.29	21.542
361.66	21.207
362.02	21.642
362.38	20.760
362.74	21.949
363.10	21.318
363.46	20.763
363.82	21.240
364.18	21.586
364.54	22.437
364.90	22.380
365.26	21.324
365.62	22.498
365.98	22.279
366.35	21.347
366.71	22.415
367.07	21.486
367.43	21.698
367.79	23.055
368.15	22.989
368.51	22.093
368.87	22.198
369.23	22.677
369.59	23.606
369.95	22.647
370.31	22.792
370.67	22.174
371.03	23.820
371.39	23.032
371.75	23.162
372.11	23.044
372.47	24.340
372.83	23.559
373.19	23.699
373.55	24.021
373.91	25.552
374.27	22.887
374.63	23.855
374.99	24.859
375.35	23.587
375.71	24.263
376.07	24.348
376.42	24.759
376.78	25.580
377.14	24.288
377.50	25.232
377.86	24.601
378.22	25.601
378.58	24.875
378.94	25.644
379.30	24.873
379.66	26.269
380.02	25.553
380.38	25.865
380.74	26.170
381.09	25.978
381.45	26.183
381.81	26.290
382.17	26.815
382.53	26.289
382.89	27.407
383.25	27.079
383.61	27.138
383.97	27.517
384.32	27.074
384.68	27.447
385.04	27.720
385.40	27.121
385.76	27.580
386.12	27.720
386.48	28.634
386.83	28.801
387.19	29.128
387.55	28.571
387.91	29.383
388.27	28.571
388.62	29.502
388.98	28.317
389.34	30.663
389.70	29.307
390.06	30.101
390.42	29.248
390.77	29.771
391.13	29.866
391.49	29.315
391.85	28.899
392.20	28.959
392.56	31.187
392.92	29.665
393.28	29.349
393.64	29.796
393.99	29.933
394.35	30.459
394.71	29.799
395.07	29.097
395.42	29.852
395.78	30.534
396.14	30.416
396.50	31.078
396.85	30.579
397.21	29.346
397.57	30.874
397.92	30.168
398.28	29.204
398.64	30.585
399.00	30.498
399.35	28.990
399.71	30.035
400.07	31.461
400.42	30.798
400.78	31.484
401.14	30.549
401.49	30.507
401.85	30.913
402.21	29.641
402.57	30.537
402.92	30.895
403.28	31.043
403.63	30.322
403.99	30.382
404.35	29.636
404.70	29.736
405.06	30.518
405.42	30.692
405.77	29.657
406.13	29.740
406.49	30.574
406.84	30.538
407.20	29.905
407.55	29.355
407.91	31.267
408.27	30.504
408.62	30.945
408.98	30.392
409.34	30.320
409.69	30.129
410.05	30.050
410.40	30.581
410.76	30.287
411.11	30.458
411.47	30.288
411.83	30.238
412.18	29.623
412.54	30.137
412.89	31.145
413.25	30.106
413.60	31.130
413.96	29.569
414.31	29.526
414.67	30.418
415.03	31.523
415.38	30.541
415.74	30.868
416.09	31.287
416.45	30.388
416.80	29.941
417.16	30.898
417.51	31.453
417.87	30.507
418.22	30.789
418.58	30.665
418.93	30.467
419.29	32.145
419.64	32.179
420.00	30.061
420.35	30.261
420.71	31.441
421.06	30.609
421.42	31.287
421.77	30.998
422.12	30.152
422.48	31.409
422.83	31.392
423.19	31.823
423.54	31.109
423.90	31.072
424.25	30.709
424.61	31.488
424.96	31.778
425.31	30.509
425.67	31.742
426.02	32.000
426.38	31.074
426.73	31.714
427.09	31.854
427.44	32.777
427.79	32.145
428.15	33.155
428.50	32.475
428.85	31.704
429.21	32.137
429.56	32.348
429.92	32.562
430.27	32.026
430.62	32.156
430.98	32.122
431.33	32.216
431.68	33.194
432.04	31.416
432.39	32.439
432.74	32.675
433.10	33.673
433.45	33.411
433.80	32.871
434.16	33.173
434.51	32.842
434.86	32.725
435.22	33.963
435.57	32.827
435.92	32.885
436.28	33.393
436.63	33.113
436.98	32.856
437.34	33.512
437.69	34.656
438.04	34.682
438.39	34.567
438.75	35.096
439.10	34.469
439.45	33.707
439.81	34.743
440.16	34.613
440.51	33.216
440.86	35.843
441.22	33.426
441.57	34.660
441.92	34.800
442.27	34.822
442.63	33.965
442.98	35.155
443.33	34.565
443.68	35.261
444.03	35.041
444.39	34.615
444.74	34.740
445.09	34.232
445.44	34.445
445.79	34.290
446.15	35.310
446.50	35.003
446.85	35.200
447.20	35.645
447.55	35.958
447.91	35.521
448.26	36.728
448.61	36.631
448.96	36.323
449.31	36.670
449.66	36.353
450.02	35.599
450.37	35.431
450.72	36.097
451.07	36.015
451.42	34.650
451.77	36.759
452.12	36.374
452.47	36.816
452.83	35.839
453.18	35.880
453.53	36.735
453.88	35.735
454.23	36.940
454.58	36.705
454.93	37.063
455.28	35.910
455.63	36.833
455.98	38.036
456.34	37.374
456.69	36.506
457.04	37.523
457.39	36.528
457.74	36.042
458.09	37.033
458.44	36.602
458.79	36.388
459.14	36.907
459.49	37.128
459.84	36.676
460.19	36.181
460.54	35.301
460.89	35.875
461.24	36.855
461.59	36.723
461.94	37.115
462.29	37.151
462.64	36.631
462.99	37.085
463.34	37.200
463.69	37.086
464.04	36.290
464.39	35.942
464.74	37.017
465.09	37.274
465.44	36.676
465.79	36.018
466.14	35.906
466.49	37.097
466.84	36.836
467.19	36.693
467.54	37.375
467.89	36.134
468.24	37.056
468.59	37.668
468.94	36.714
469.29	37.404
469.64	37.952
469.99	37.415
470.34	36.526
470.68	38.362
471.03	37.891
471.38	40.167
471.73	38.041
472.08	38.947
472.43	37.123
472.78	37.656
473.13	39.281
473.48	39.263
473.83	38.476
474.17	38.270
474.52	38.586
474.87	38.938
475.22	38.247
475.57	36.862
475.92	39.087
476.27	37.824
476.61	37.617
476.96	37.713
477.31	38.148
477.66	38.512
478.01	38.526
478.36	38.710
478.70	38.318
479.05	38.232
479.40	38.843
479.75	38.078
480.10	38.767
480.45	38.696
480.79	37.554
481.14	38.014
481.49	38.111
481.84	37.769
482.19	38.255
482.53	38.761
482.88	38.250
483.23	38.692
483.58	39.627
483.92	39.269
484.27	36.906
484.62	38.147
484.97	37.722
485.31	37.500
485.66	36.259
486.01	34.875
486.36	34.982
486.70	33.986
487.05	35.250
487.40	35.955
487.75	36.528
488.09	37.034
488.44	37.592
488.79	38.517
489.13	38.426
489.48	38.254
489.83	38.800
490.17	38.623
490.52	38.485
490.87	39.168
491.22	38.518
491.56	37.631
491.91	38.902
492.26	39.412
492.60	37.972
492.95	38.213
493.30	37.944
493.64	38.824
493.99	38.487
494.34	39.084
494.68	38.919
495.03	38.957
495.37	38.809
495.72	39.717
496.07	39.258
496.41	38.142
496.76	38.698
497.11	38.811
497.45	38.519
497.80	38.484
498.14	40.000
498.49	38.634
498.84	39.262
499.18	39.286
499.53	39.601
499.87	39.842
500.22	39.378
500.56	40.583
500.91	40.673
501.26	39.308
501.60	41.149
501.95	38.726
502.29	40.019
502.64	40.549
502.98	39.598
503.33	38.894
503.67	40.696
504.02	40.552
504.36	39.541
504.71	40.205
505.06	40.434
505.40	40.885
505.75	40.116
506.09	39.990
506.44	41.391
506.78	41.257
507.13	41.393
507.47	42.374
507.82	41.844
508.16	42.097
508.51	42.314
508.85	41.609
509.19	41.735
509.54	41.633
509.88	40.958
510.23	43.342
510.57	43.189
510.92	42.413
511.26	42.292
511.61	43.413
511.95	42.484
512.30	43.372
512.64	42.988
512.98	44.909
513.33	44.647
513.67	43.543
514.02	43.019
514.36	45.057
514.70	44.826
515.05	44.841
515.39	45.317
515.74	46.115
516.08	45.053
516.42	44.950
516.77	46.321
517.11	44.395
517.46	45.880
517.80	47.677
518.14	46.555
518.49	47.783
518.83	45.511
519.17	46.651
519.52	47.821
519.86	47.233
520.20	48.671
520.55	49.013
520.89	48.723
521.23	50.362
521.58	47.899
521.92	49.357
522.26	48.261
522.61	48.723
522.95	48.803
523.29	49.178
523.64	49.390
523.98	50.092
524.32	49.276
524.66	49.308
525.01	49.203
525.35	49.442
525.69	49.015
526.04	50.093
526.38	49.542
526.72	49.325
527.06	49.906
527.41	48.329
527.75	51.061
528.09	50.610
528.43	50.605
528.78	51.383
529.12	49.455
529.46	50.643
529.80	51.114
530.15	50.903
530.49	48.677
530.83	49.684
531.17	52.285
531.51	51.621
531.86	49.871
532.20	51.565
532.54	51.313
532.88	51.155
533.22	50.843
533.57	49.568
533.91	50.391
534.25	49.696
534.59	50.153
534.93	49.316
535.27	49.909
535.62	50.366
535.96	50.220
536.30	50.159
536.64	50.805
536.98	51.758
537.32	50.955
537.66	51.000
538.01	52.666
538.35	51.325
538.69	52.138
539.03	50.292
539.37	50.479
539.71	49.255
540.05	51.046
540.39	51.096
540.73	50.129
541.07	51.979
541.42	50.163
541.76	52.000
542.10	51.746
542.44	50.728
542.78	50.791
543.12	49.520
543.46	49.311
543.80	50.813
544.14	50.513
544.48	52.317
544.82	50.417
545.16	51.529
545.50	50.193
545.84	49.798
546.18	50.707
546.52	51.686
546.86	52.027
547.20	51.315
547.54	50.969
547.88	51.658
548.22	49.502
548.56	50.503
548.90	50.320
549.24	50.505
549.58	51.023
549.92	51.648
550.26	53.196
550.60	50.692
550.94	50.704
551.28	51.134
551.62	51.761
551.96	51.088
552.30	51.877
552.64	51.724
552.98	52.000
553.32	51.989
553.66	51.397
554.00	51.338
554.34	51.553
554.68	52.718
555.02	52.468
555.36	50.383
555.69	49.256
556.03	52.086
556.37	50.546
556.71	50.614
557.05	49.930
557.39	51.435
557.73	50.812
558.07	52.284
558.41	52.750
558.75	52.314
559.08	52.125
559.42	52.381
559.76	53.382
560.10	51.178
560.44	51.502
560.78	49.834
561.12	51.055
561.45	49.739
561.79	51.945
562.13	51.777
562.47	50.820
562.81	52.092
563.15	50.435
563.48	51.592
563.82	51.076
564.16	50.360
564.50	49.870
564.84	49.937
565.17	50.901
565.51	50.096
565.85	51.332
566.19	48.904
566.52	50.792
566.86	49.066
567.20	50.943
567.54	48.973
567.88	48.289
568.21	49.841
568.55	47.927
568.89	48.541
569.23	46.747
569.56	47.126
569.90	46.038
570.24	46.430
570.57	45.869
570.91	43.859
571.25	44.935
571.59	45.214
571.92	44.988
572.26	44.685
572.60	44.354
572.93	44.228
573.27	43.863
573.61	44.752
573.95	44.315
574.28	43.744
574.62	43.878
574.96	43.154
575.29	43.307
575.63	43.547
575.97	43.478
576.30	43.999
576.64	43.771
576.98	43.923
577.31	43.184
577.65	43.279
577.98	42.984
578.32	42.315
578.66	43.019
578.99	43.757
579.33	43.258
579.67	43.201
580.00	43.347
580.34	43.925
580.67	43.441
581.01	43.805
581.35	43.404
581.68	43.184
582.02	42.277
582.35	43.219
582.69	43.017
583.02	43.461
583.36	43.579
583.70	43.906
584.03	44.175
584.37	44.453
584.70	44.880
585.04	44.374
585.37	44.385
585.71	43.961
586.04	44.069
586.38	43.809
586.72	44.849
587.05	43.928
587.39	43.931
587.72	44.035
588.06	43.890
588.39	44.307
588.73	44.911
589.06	45.217
589.40	45.724
589.73	45.970
590.07	46.192
590.40	45.269
590.73	46.292
591.07	47.456
591.40	46.478
591.74	46.710
592.07	46.684
592.41	47.458
592.74	45.880
593.08	44.670
593.41	44.416
593.75	43.785
594.08	44.485
594.41	45.246
594.75	45.619
595.08	44.810
595.42	45.744
595.75	45.691
596.09	45.963
596.42	46.130
596.75	46.222
597.09	47.229
597.42	45.320
597.75	46.529
598.09	46.739
598.42	45.833
598.76	45.602
599.09	45.344
599.42	44.250
599.76	45.132
600.09	44.408
600.42	44.449
600.76	44.714
601.09	44.736
601.42	44.977
601.76	45.237
602.09	46.008
602.42	45.661
602.76	47.118
603.09	45.948
603.42	46.115
603.76	45.655
604.09	45.366
604.42	45.495
604.76	46.014
605.09	45.391
605.42	46.131
605.75	45.985
606.09	45.750
606.42	45.934
606.75	45.334
607.09	46.128
607.42	46.727
607.75	45.570
608.08	45.897
608.42	46.481
608.75	45.987
609.08	45.236
609.41	46.359
609.75	45.450
610.08	46.843
610.41	46.601
610.74	46.641
611.07	46.591
611.41	46.026
611.74	47.763
612.07	46.739
612.40	47.587
612.73	46.947
613.07	47.414
613.40	46.551
613.73	47.037
614.06	47.796
614.39	47.247
614.72	46.211
615.06	46.429
615.39	45.276
615.72	46.319
616.05	46.199
616.38	46.748
616.71	48.219
617.05	47.939
617.38	47.745
617.71	48.949
618.04	48.738
618.37	46.718
618.70	48.102
619.03	48.816
619.36	49.491
619.69	48.944
620.03	48.832
620.36	48.864
620.69	49.041
621.02	49.705
621.35	49.726
621.68	49.922
622.01	49.381
622.34	49.092
622.67	49.658
623.00	48.936
623.33	49.249
623.66	50.536
623.99	49.485
624.32	49.073
624.65	48.093
624.99	49.504
625.32	47.864
625.65	49.812
625.98	50.576
626.31	49.922
626.64	51.265
626.97	51.538
627.30	51.288
627.63	51.025
627.96	51.976
628.29	51.094
628.62	51.601
628.95	53.868
629.28	52.007
629.61	52.887
629.94	53.238
630.26	53.003
630.59	51.764
630.92	50.766
631.25	50.543
631.58	51.051
631.91	51.623
632.24	53.270
632.57	56.348
632.90	53.838
633.23	55.369
633.56	53.559
633.89	53.907
634.22	53.575
634.55	55.740
634.88	55.569
635.20	55.197
635.53	54.699
635.86	55.569
636.19	53.294
636.52	54.210
636.85	53.265
637.18	54.032
637.51	54.965
637.83	50.555
638.16	54.859
638.49	54.408
638.82	53.856
639.15	54.250
639.48	55.985
639.81	55.630
640.13	55.339
640.46	54.497
640.79	54.293
641.12	54.883
641.45	56.564
641.77	56.259
642.10	55.409
642.43	56.456
642.76	58.050
643.09	58.742
643.41	54.780
643.74	57.562
644.07	57.317
644.40	56.595
644.73	58.110
645.05	57.686
645.38	55.134
645.71	56.683
646.04	58.472
646.36	58.097
646.69	59.365
647.02	60.374
647.35	58.076
647.67	58.938
648.00	57.886
648.33	56.766
648.66	52.121
648.98	56.372
649.31	55.007
649.64	55.306
649.96	54.545
650.29	55.450
650.62	55.178
650.94	56.240
651.27	59.797
651.60	57.903
651.92	55.751
652.25	55.863
652.58	55.452
652.90	57.504
653.23	53.159
653.56	54.961
653.88	55.151
654.21	56.556
654.54	56.271
654.86	55.452
655.19	51.622
655.52	40.885
655.84	36.647
656.17	45.580
656.49	60.314
656.82	60.932
657.15	46.633
657.47	34.589
657.80	27.331
658.13	28.573
658.45	42.686
658.78	44.081
659.10	45.375
659.43	46.256
659.75	48.772
660.08	52.658
660.41	54.935
660.73	58.323
661.06	57.484
661.38	58.364
661.71	59.038
662.03	60.750
662.36	54.076
662.68	57.028
663.01	59.798
663.33	57.537
663.66	60.924
663.98	61.555
664.31	60.084
664.63	56.478
664.96	57.143
665.28	57.787
665.61	55.750
665.93	57.143
666.26	58.824
666.58	58.787
666.91	58.351
667.23	58.202
667.56	56.803
667.88	56.624
668.21	59.701
668.53	57.267
668.86	57.359
669.18	62.473
669.50	55.652
669.83	58.606
670.15	57.111
670.48	57.298
670.80	59.483
671.13	57.962
671.45	55.532
671.77	58.452
672.10	56.007
672.42	54.064
672.75	53.731
673.07	53.873
673.39	56.781
673.72	56.250
674.04	55.294
674.37	56.311
674.69	53.988
675.01	58.368
675.34	58.522
675.66	59.368
675.98	54.786
676.31	55.462
676.63	59.236
676.95	57.652
677.28	60.280
677.60	58.242
677.92	60.338
678.25	57.290
678.57	55.777
678.89	57.315
679.22	54.420
679.54	53.626
679.86	55.046
680.18	52.773
680.51	53.369
680.83	53.203
681.15	56.981
681.48	55.955
681.80	55.126
682.12	55.364
682.44	54.932
682.77	56.415
683.09	57.296
683.41	54.989
683.73	58.057
684.06	57.231
684.38	55.773
684.70	54.457
685.02	54.221
685.34	53.297
685.67	51.748
685.99	51.890
686.31	53.242
686.63	51.943
686.96	51.964
687.28	52.708
687.60	53.080
687.92	54.296
688.24	53.232
688.56	54.217
688.89	54.979
689.21	59.170
689.53	55.532
689.85	54.989
690.17	52.174
690.49	55.414
690.82	59.579
691.14	55.580
691.46	53.165
691.78	53.213
692.10	55.372
692.42	51.697
692.74	53.942
693.06	56.809
693.39	54.620
693.71	51.528
694.03	53.895
694.35	54.762
694.67	56.522
694.99	58.537
695.31	56.373
695.63	57.416
695.95	55.257
696.27	54.315
696.59	54.145
696.91	53.627
697.23	52.113
697.56	54.158
697.88	48.671
698.20	52.708
698.52	51.183
698.84	53.007
699.16	51.152
699.48	52.732
699.80	56.039
700.12	57.662
700.44	54.907
700.76	56.077
701.08	58.333
701.40	57.263
701.72	56.851
702.04	59.091
702.36	54.674
702.68	60.340
703.00	56.233
703.32	53.191
703.64	52.547
703.96	59.053
704.28	56.395
704.60	56.305
704.91	55.193
705.23	54.252
705.55	59.136
705.87	59.468
706.19	60.071
706.51	56.386
706.83	59.697
707.15	52.381
707.47	54.040
707.79	52.826
708.11	53.425
708.43	50.476
708.74	51.531
709.06	53.506
709.38	52.493
709.70	56.105
710.02	54.896
710.34	54.848
710.66	55.224
710.98	53.977
711.29	50.872
711.61	55.752
711.93	53.205
712.25	61.093
712.57	61.765
712.89	55.709
713.20	56.231
713.52	59.211
713.84	53.481
714.16	56.402
714.48	56.034
714.80	58.663
715.11	55.331
715.43	48.368
715.75	51.884
716.07	54.952
716.39	52.978
716.70	59.468
717.02	55.036
717.34	56.890
717.66	60.448
717.97	60.159
718.29	58.519
718.61	55.474
718.93	53.676
719.24	53.633
719.56	50.169
719.88	53.220
720.20	55.743
720.51	58.188
720.83	59.851
721.15	53.358
721.46	55.674
721.78	51.971
722.10	57.358
722.42	55.639
722.73	58.427
723.05	61.885
723.37	57.085
723.68	56.757
724.00	57.724
724.32	52.823
724.63	56.504
724.95	59.833
725.27	55.061
725.58	53.516
725.90	52.920
726.22	56.981
726.53	52.431
726.85	52.901
727.16	55.516
727.48	55.674
727.80	52.652
728.11	55.072
728.43	52.692
728.74	51.971
729.06	56.204
729.38	52.941
729.69	49.822
730.01	52.218
730.32	49.653
730.64	49.498
730.96	48.185
731.27	57.285
731.59	50.765
731.90	48.105
732.22	50.000
732.53	50.155
732.85	50.000
733.16	51.125
733.48	55.150
733.80	50.000
734.11	53.822
734.43	50.000
734.74	48.286
735.06	45.845
735.37	48.266
735.69	45.541
736.00	53.595
736.32	48.910
736.63	49.201
736.95	47.923
737.26	46.939
737.58	52.903
737.89	49.164
738.21	50.171
738.52	50.714
738.83	50.566
739.15	49.615
739.46	53.285
739.78	54.167
740.09	49.231
740.41	50.968
740.72	50.174
741.04	48.519
741.35	56.667
741.66	57.333
741.98	60.849
742.29	56.938
742.61	59.914
742.92	52.489
743.23	51.282
743.55	55.200
743.86	53.509
744.18	56.195
744.49	59.809
744.80	54.930
745.12	57.273
745.43	52.423
745.74	54.054
746.06	57.339
746.37	56.054
746.68	50.679
747.00	57.407
747.31	52.381
747.62	54.867
747.94	53.304
748.25	53.617
748.56	53.744
748.88	54.950
749.19	63.500
749.50	58.140
749.82	46.341
750.13	53.469
750.44	48.540
750.75	53.333
751.07	48.232
751.38	51.568
751.69	48.375
752.01	51.880
752.32	47.653
752.63	51.064
752.94	49.590
753.26	57.200
753.57	48.374
753.88	53.906
754.19	50.714
754.51	50.347
754.82	45.487
755.13	52.830
755.44	49.624
755.75	48.905
756.07	46.809
756.38	47.810
756.69	50.000
757.00	46.108
757.31	46.884
757.63	46.784
757.94	41.555
758.25	47.059
758.56	42.716
758.87	46.237
759.18	46.061
759.50	47.335
759.81	48.287
760.12	46.875
760.43	45.559
760.74	45.380
761.05	48.023
761.36	44.920
761.67	44.886
761.99	43.478
762.30	52.778
762.61	48.473
762.92	46.484
763.23	50.840
763.54	54.000
763.85	47.656
764.16	48.846
764.47	50.190
764.78	43.463
765.10	42.405
765.41	45.428
765.72	44.611
766.03	45.768
766.34	40.667
766.65	55.319
766.96	50.427
767.27	53.299
767.58	54.688
767.89	51.579
768.20	58.621
768.51	51.269
768.82	50.459
769.13	47.967
769.44	44.130
769.75	46.781
770.06	44.037
770.37	46.154
770.68	52.778
770.99	46.222
771.30	46.721
771.61	48.879
771.92	50.820
772.23	54.622
772.54	48.718
772.85	51.309
773.16	49.468
773.47	54.348
773.78	50.761
774.09	52.976
774.39	50.877
774.70	51.235
775.01	65.217
775.32	55.556
775.63	57.237
775.94	53.237
776.25	64.567
776.56	55.224
776.87	45.082
777.18	57.812
777.48	54.962
777.79	53.030
778.10	55.556
778.41	58.929
778.72	47.445
779.03	57.047
779.34	53.691
779.65	53.378
779.95	52.761
780.26	51.634
780.57	57.931
780.88	59.375
781.19	54.887
781.50	52.703
781.80	53.459
782.11	48.023
782.42	44.937
782.73	49.080
783.04	53.378
783.34	52.817
783.65	63.699
783.96	60.448
784.27	53.846
784.57	48.921
784.88	50.000
785.19	58.730
785.50	57.547
785.81	51.493
786.11	56.557
786.42	58.140
786.73	52.212
787.04	53.774
787.34	58.036
787.65	68.000
787.96	49.550
788.26	57.025
788.57	65.254
788.88	59.504
789.19	54.167
789.49	59.091
789.80	43.511
790.11	61.905
790.41	63.366
790.72	62.651
791.03	65.217
791.33	55.814
791.64	56.701
791.95	64.356
792.25	82.222
792.56	67.532
792.87	66.667
793.17	75.949
793.48	60.920
793.79	57.471
794.09	70.455
794.40	52.941
794.70	44.853
795.01	48.148
795.32	46.043
795.62	48.819
795.93	53.448
796.23	52.212
796.54	61.176
796.85	43.243
797.15	85.915
797.46	77.273
797.76	75.904
798.07	64.557
798.37	66.154
798.68	65.152
798.99	50.704
799.29	59.740
799.60	48.864
799.90	68.493
800.21	67.164
800.51	77.586
800.82	61.404
801.12	77.049
801.43	71.212
801.73	47.297
802.04	77.778
802.34	64.198
802.65	54.688
802.95	62.712
803.26	82.813
803.56	62.857
803.87	61.538
804.17	52.941
804.48	72.222
804.78	51.724
805.09	55.882
805.39	59.615
805.70	66.071
806.00	68.852
806.30	59.091
806.61	70.732
806.91	65.823
807.22	56.579
807.52	64.179
807.83	53.521
808.13	73.438
808.43	75.000
808.74	48.684
809.04	73.913
809.35	67.164
809.65	65.789
809.95	82.258
810.26	66.102
810.56	58.730
810.86	127.273
811.17	92.857
811.47	80.000
811.77	79.630
812.08	70.909
812.38	76.000
812.69	102.778
812.99	115.909
813.29	71.429
813.59	52.381
813.90	85.714
814.20	67.273
814.50	67.692
814.81	66.176
815.11	91.837
815.41	68.852
815.72	83.333
816.02	69.091
816.32	73.810
816.62	90.000
816.93	80.488
817.23	92.857
817.53	75.000
817.84	109.091
818.14	91.304
818.44	62.222
818.74	114.706
819.04	72.500
819.35	68.571
819.65	73.529
819.95	82.143
820.25	140.000
820.56	123.077
820.86	93.182
821.16	93.023
821.46	82.051
821.76	82.000
822.07	140.000
822.37	100.000
822.67	84.848
822.97	74.510
823.27	128.571
823.57	94.595
823.88	105.000
824.18	126.667
824.48	88.095
824.78	92.000
825.08	91.667
825.38	86.486
825.69	80.488
825.99	129.167
826.29	79.310
826.59	76.316
826.89	89.474
827.19	67.647
827.49	103.226
827.79	84.091
828.09	90.909
828.39	87.234
828.70	63.265
829.00	66.667
829.30	80.645
829.60	52.500
829.90	166.667
830.20	110.714
830.50	73.913
830.80	147.826
831.10	126.667
831.40	90.000
831.70	130.435
832.00	100.000
832.30	107.407
832.60	131.250
832.90	103.333
833.20	200.000
833.50	90.323
833.80	113.793
834.10	137.500
834.40	111.538
834.70	144.444
835.00	176.190
835.30	108.571
835.60	146.154
835.90	110.345
836.20	85.714
836.50	113.793
836.80	72.000
837.10	116.667
837.40	128.571
837.70	147.059
838.00	88.889
838.30	133.333
838.60	147.619
838.90	103.846
839.19	125.000
839.49	171.429
839.79	190.000
840.09	130.000
840.39	119.048
840.69	195.652
840.99	127.778
841.29	160.000
841.59	141.667
841.88	225.000
842.18	96.552
842.48	133.333
842.78	93.333
843.08	130.435
843.38	118.750
843.68	250.000
843.97	138.462
844.27	93.103
844.57	176.190
844.87	112.500
845.17	100.000
845.47	366.667
845.76	144.444
846.06	152.941
846.36	250.000
846.66	142.857
846.96	75.000
847.25	127.273
847.55	136.364
847.85	134.783
848.15	250.000
848.44	128.571
848.74	77.778
849.04	135.294
849.34	130.000
849.63	105.263
849.93	163.636
850.23	460.000
850.53	157.143
850.82	1400.000
851.12	-1800.000
851.42	1700.000
851.71	155.000
852.01	-366.667
852.31	104.167
852.61	900.000
852.90	123.810
853.20	104.000
853.50	147.059
853.79	90.476
854.09	108.333
854.39	162.500
854.68	102.703
854.98	96.774
855.28	113.333
855.57	103.448
855.87	133.333
856.17	115.789
856.46	80.000
856.76	123.529
857.05	75.862
857.35	100.000
857.65	140.000
857.94	95.652
858.24	153.846
858.53	115.000
858.83	113.636
859.13	160.000
859.42	0.000
859.72	188.889
860.01	172.727
860.31	145.455
860.60	136.842
860.90	100.000
861.20	277.778
861.49	258.333
861.79	-1900.000
862.08	287.500
862.38	128.571
862.67	107.692
862.97	158.824
863.26	211.111
863.56	116.667
863.85	133.333
864.15	225.000
864.44	186.667
864.74	400.000
865.03	312.500
865.33	142.105
865.62	145.455
865.92	192.308
866.21	191.667
866.51	0.000
866.80	218.182
867.10	540.000
867.39	215.385
867.69	145.455
867.98	131.579
868.27	163.636
868.57	147.368
868.86	-900.000
869.16	81.250
869.45	450.000
869.75	-800.000
870.04	225.000
870.33	357.143
870.63	300.000
870.92	1150.000
871.22	271.429
871.51	164.706
871.80	104.762
872.10	200.000
>>>>>End Processed Spectral Data<<<<<
