SpectraSuite Data File
++++++++++++++++++++++++++++++++++++
Date: Wed May 13 16:06:17 PDT 2015
User: schluterlab
Dark Spectrum Present: Yes
Reference Spectrum Present: Yes
Number of Sampled Component Spectra: 1
Spectrometers: USB2E3373
Integration Time (usec): 3000 (USB2E3373)
Spectra Averaged: 3 (USB2E3373)
Boxcar Smoothing: 0 (USB2E3373)
Correct for Electrical Dark: No (USB2E3373)
Strobe/Lamp Enabled: No (USB2E3373)
Correct for Detector Non-linearity: No (USB2E3373)
Correct for Stray Light: No (USB2E3373)
Number of Pixels in Processed Spectrum: 2048
>>>>>Begin Processed Spectral Data<<<<<
178.53	0.000
178.91	-975.000
179.29	-900.000
179.67	-127.778
180.04	-700.000
180.42	1150.000
180.80	800.000
181.18	-600.000
181.56	385.714
181.94	0.000
182.31	-371.429
182.69	966.667
183.07	-275.000
183.45	-344.444
183.83	381.818
184.20	-250.000
184.58	850.000
184.96	3000.000
185.34	-360.000
185.72	-312.500
186.09	-1400.000
186.47	1600.000
186.85	1450.000
187.23	2300.000
187.61	-1166.667
187.98	950.000
188.36	336.364
188.74	345.455
189.12	-440.000
189.49	390.000
189.87	-2500.000
190.25	-775.000
190.63	285.714
191.00	269.231
191.38	583.333
191.76	-750.000
192.14	875.000
192.51	375.000
192.89	683.333
193.27	300.000
193.65	-775.000
194.02	320.000
194.40	640.000
194.78	410.000
195.15	358.333
195.53	490.000
195.91	-1450.000
196.29	181.250
196.66	168.421
197.04	-100.000
197.42	0.000
197.79	360.000
198.17	-2100.000
198.55	442.857
198.92	375.000
199.30	420.000
199.68	0.000
200.05	255.556
200.43	600.000
200.81	2200.000
201.18	966.667
201.56	-966.667
201.94	322.222
202.31	344.444
202.69	200.000
203.07	280.000
203.44	0.000
203.82	800.000
204.19	400.000
204.57	242.857
204.95	475.000
205.32	566.667
205.70	281.818
206.08	285.714
206.45	1300.000
206.83	225.000
207.20	483.333
207.58	320.000
207.96	188.889
208.33	450.000
208.71	-466.667
209.08	514.286
209.46	400.000
209.84	290.909
210.21	-733.333
210.59	925.000
210.96	-350.000
211.34	1900.000
211.71	400.000
212.09	533.333
212.46	0.000
212.84	1066.667
213.22	900.000
213.59	-2900.000
213.97	516.667
214.34	542.857
214.72	427.273
215.09	640.000
215.47	-1100.000
215.84	-1250.000
216.22	933.333
216.59	235.714
216.97	600.000
217.34	345.455
217.72	-516.667
218.09	0.000
218.47	-2700.000
218.84	455.556
219.22	485.714
219.59	900.000
219.97	-414.286
220.34	680.000
220.72	-1066.667
221.09	278.571
221.47	575.000
221.84	-616.667
222.22	0.000
222.59	800.000
222.97	-1850.000
223.34	680.000
223.72	307.692
224.09	580.000
224.46	1500.000
224.84	-2600.000
225.21	-580.000
225.59	-2600.000
225.96	460.000
226.34	185.000
226.71	2000.000
227.08	437.500
227.46	340.000
227.83	-350.000
228.21	-1000.000
228.58	411.111
228.95	-1400.000
229.33	-850.000
229.70	933.333
230.08	457.143
230.45	-380.000
230.82	233.333
231.20	533.333
231.57	400.000
231.95	291.667
232.32	136.364
232.69	236.364
233.07	385.714
233.44	192.308
233.81	-966.667
234.19	157.895
234.56	291.667
234.93	208.333
235.31	263.636
235.68	153.846
236.05	235.714
236.43	133.333
236.80	173.684
237.17	2800.000
237.55	147.619
237.92	153.571
238.29	228.571
238.67	100.000
239.04	155.172
239.41	113.889
239.79	58.696
240.16	90.476
240.53	93.182
240.91	68.627
241.28	82.000
241.65	78.000
242.02	73.913
242.40	59.677
242.77	80.000
243.14	56.989
243.51	68.539
243.89	60.000
244.26	51.111
244.63	55.914
245.00	57.447
245.38	66.337
245.75	46.729
246.12	46.789
246.49	54.745
246.87	64.000
247.24	53.846
247.61	60.714
247.98	54.902
248.36	45.270
248.73	52.866
249.10	57.325
249.47	44.633
249.84	47.594
250.22	44.920
250.59	46.746
250.96	51.010
251.33	46.919
251.70	46.040
252.08	44.286
252.45	45.291
252.82	42.609
253.19	46.809
253.56	41.961
253.94	43.568
254.31	41.406
254.68	43.077
255.05	43.542
255.42	43.089
255.79	42.647
256.16	44.765
256.54	40.283
256.91	40.569
257.28	35.971
257.65	37.294
258.02	38.199
258.39	40.063
258.76	42.140
259.14	41.369
259.51	37.994
259.88	36.025
260.25	41.692
260.62	34.682
260.99	40.683
261.36	42.342
261.73	37.536
262.10	36.919
262.47	41.127
262.85	38.162
263.22	38.462
263.59	45.299
263.96	36.264
264.33	39.948
264.70	35.789
265.07	36.829
265.44	37.626
265.81	30.414
266.18	37.186
266.55	37.073
266.92	35.872
267.29	37.731
267.66	34.633
268.03	35.227
268.40	38.084
268.77	37.470
269.14	34.234
269.51	36.795
269.88	36.364
270.25	35.440
270.62	34.831
270.99	39.570
271.36	36.910
271.73	36.682
272.10	36.957
272.47	35.054
272.84	37.662
273.21	34.591
273.58	34.279
273.95	33.333
274.32	34.091
274.69	35.546
275.06	35.039
275.43	35.532
275.80	35.872
276.17	34.827
276.54	36.175
276.91	34.783
277.28	33.594
277.65	32.689
278.02	34.990
278.39	37.305
278.76	34.364
279.13	34.528
279.50	32.216
279.87	33.267
280.23	34.132
280.60	31.335
280.97	32.163
281.34	34.336
281.71	30.545
282.08	34.357
282.45	32.909
282.82	32.327
283.19	34.225
283.56	34.035
283.92	34.179
284.29	33.510
284.66	32.668
285.03	32.731
285.40	32.042
285.77	29.966
286.14	33.333
286.51	32.333
286.87	34.701
287.24	33.062
287.61	32.584
287.98	32.468
288.35	30.903
288.72	31.464
289.08	32.081
289.45	30.148
289.82	30.569
290.19	29.984
290.56	30.628
290.93	27.644
291.29	31.135
291.66	27.286
292.03	30.669
292.40	28.194
292.77	27.515
293.13	27.313
293.50	28.863
293.87	28.741
294.24	28.000
294.60	26.783
294.97	28.198
295.34	29.196
295.71	26.847
296.08	27.493
296.44	28.886
296.81	25.892
297.18	27.236
297.55	24.406
297.91	25.989
298.28	28.916
298.65	26.240
299.02	25.428
299.38	26.428
299.75	24.798
300.12	24.649
300.48	25.250
300.85	25.277
301.22	27.006
301.59	23.611
301.95	25.693
302.32	24.390
302.69	24.731
303.05	23.273
303.42	24.568
303.79	26.161
304.15	25.641
304.52	24.797
304.89	25.087
305.25	22.854
305.62	24.009
305.99	25.620
306.35	23.826
306.72	25.224
307.09	24.972
307.45	25.000
307.82	23.661
308.19	24.834
308.55	24.488
308.92	24.382
309.29	22.492
309.65	24.284
310.02	23.784
310.38	23.226
310.75	25.554
311.12	24.360
311.48	25.078
311.85	26.101
312.22	25.286
312.58	22.869
312.95	24.076
313.31	24.175
313.68	24.636
314.05	27.613
314.41	25.327
314.78	25.478
315.14	25.323
315.51	24.820
315.87	24.554
316.24	24.032
316.61	24.074
316.97	25.049
317.34	25.636
317.70	24.857
318.07	26.275
318.43	24.560
318.80	26.710
319.16	25.330
319.53	24.296
319.89	26.190
320.26	27.400
320.62	25.992
320.99	25.152
321.35	25.556
321.72	26.078
322.08	26.654
322.45	26.269
322.81	25.775
323.18	25.337
323.54	27.551
323.91	25.943
324.27	27.342
324.64	25.536
325.00	25.609
325.37	26.843
325.73	26.840
326.10	25.861
326.46	24.552
326.83	26.833
327.19	26.217
327.56	26.132
327.92	26.422
328.29	25.643
328.65	26.611
329.01	25.542
329.38	27.567
329.74	26.131
330.11	26.013
330.47	26.079
330.84	26.562
331.20	26.776
331.56	26.055
331.93	26.296
332.29	27.152
332.66	27.345
333.02	25.594
333.38	26.107
333.75	26.916
334.11	25.979
334.48	27.063
334.84	26.471
335.20	25.727
335.57	24.841
335.93	25.089
336.29	24.817
336.66	26.420
337.02	24.977
337.38	26.481
337.75	25.401
338.11	26.141
338.47	25.322
338.84	26.489
339.20	25.321
339.56	27.372
339.93	24.636
340.29	24.728
340.65	25.045
341.02	26.003
341.38	25.801
341.74	26.053
342.11	26.114
342.47	25.815
342.83	24.829
343.20	26.926
343.56	24.853
343.92	24.649
344.28	25.340
344.65	25.107
345.01	25.673
345.37	24.185
345.73	25.550
346.10	25.405
346.46	26.356
346.82	25.124
347.19	24.645
347.55	24.795
347.91	25.566
348.27	26.541
348.63	25.334
349.00	24.515
349.36	25.041
349.72	24.699
350.08	23.663
350.45	25.549
350.81	24.208
351.17	25.041
351.53	24.652
351.89	24.010
352.26	25.493
352.62	24.218
352.98	24.473
353.34	24.897
353.70	24.304
354.07	24.355
354.43	25.556
354.79	24.618
355.15	23.623
355.51	25.260
355.87	24.490
356.24	25.000
356.60	24.058
356.96	25.825
357.32	23.712
357.68	26.220
358.04	22.882
358.40	24.782
358.77	24.257
359.13	24.152
359.49	24.941
359.85	23.651
360.21	24.721
360.57	25.136
360.93	24.462
361.29	25.019
361.66	22.910
362.02	25.224
362.38	24.563
362.74	24.182
363.10	23.538
363.46	23.551
363.82	24.943
364.18	24.229
364.54	24.963
364.90	25.071
365.26	25.147
365.62	23.813
365.98	24.032
366.35	24.140
366.71	24.801
367.07	24.690
367.43	25.109
367.79	26.338
368.15	25.718
368.51	24.564
368.87	24.625
369.23	25.165
369.59	25.127
369.95	24.706
370.31	24.501
370.67	24.710
371.03	24.944
371.39	25.219
371.75	24.559
372.11	25.107
372.47	26.026
372.83	26.153
373.19	24.639
373.55	24.982
373.91	26.804
374.27	24.192
374.63	24.873
374.99	24.859
375.35	24.285
375.71	25.634
376.07	25.514
376.42	26.272
376.78	25.911
377.14	25.848
377.50	25.894
377.86	25.332
378.22	25.348
378.58	26.378
378.94	26.273
379.30	25.254
379.66	25.698
380.02	26.106
380.38	24.833
380.74	25.630
381.09	25.856
381.45	26.122
381.81	27.211
382.17	25.860
382.53	25.157
382.89	26.543
383.25	26.517
383.61	26.394
383.97	26.016
384.32	26.201
384.68	25.836
385.04	26.306
385.40	26.316
385.76	26.351
386.12	26.619
386.48	26.683
386.83	27.453
387.19	28.015
387.55	26.840
387.91	26.844
388.27	26.242
388.62	27.658
388.98	26.904
389.34	27.222
389.70	27.161
390.06	27.313
390.42	27.497
390.77	26.399
391.13	27.186
391.49	26.840
391.85	27.689
392.20	25.994
392.56	27.652
392.92	26.722
393.28	25.917
393.64	27.458
393.99	26.451
394.35	26.551
394.71	26.976
395.07	27.227
395.42	27.750
395.78	26.781
396.14	27.747
396.50	28.509
396.85	27.336
397.21	27.867
397.57	26.720
397.92	27.524
398.28	26.962
398.64	28.136
399.00	27.364
399.35	26.734
399.71	26.678
400.07	27.144
400.42	27.669
400.78	27.805
401.14	27.195
401.49	27.761
401.85	26.074
402.21	26.347
402.57	26.650
402.92	27.806
403.28	27.295
403.63	27.661
403.99	26.943
404.35	27.515
404.70	26.918
405.06	27.199
405.42	26.388
405.77	27.429
406.13	26.580
406.49	27.380
406.84	26.285
407.20	25.946
407.55	27.632
407.91	26.867
408.27	26.356
408.62	27.032
408.98	27.390
409.34	26.876
409.69	26.387
410.05	26.704
410.40	27.095
410.76	26.284
411.11	27.141
411.47	26.198
411.83	27.184
412.18	26.592
412.54	26.090
412.89	26.687
413.25	27.096
413.60	26.745
413.96	26.230
414.31	26.306
414.67	26.933
415.03	26.026
415.38	26.869
415.74	26.238
416.09	27.694
416.45	26.439
416.80	26.702
417.16	26.877
417.51	27.339
417.87	26.204
418.22	26.625
418.58	27.114
418.93	26.229
419.29	26.926
419.64	26.196
420.00	26.646
420.35	27.246
420.71	27.436
421.06	26.492
421.42	25.614
421.77	26.065
422.12	25.997
422.48	25.634
422.83	25.917
423.19	26.354
423.54	27.278
423.90	26.725
424.25	27.527
424.61	25.655
424.96	26.880
425.31	26.910
425.67	25.449
426.02	26.229
426.38	27.534
426.73	26.390
427.09	26.140
427.44	26.222
427.79	26.222
428.15	25.952
428.50	25.688
428.85	26.698
429.21	26.560
429.56	26.542
429.92	26.271
430.27	26.316
430.62	26.011
430.98	25.428
431.33	25.567
431.68	25.864
432.04	25.932
432.39	26.785
432.74	25.673
433.10	25.693
433.45	26.647
433.80	25.721
434.16	26.389
434.51	26.158
434.86	25.827
435.22	26.404
435.57	26.018
435.92	25.453
436.28	27.343
436.63	26.214
436.98	24.900
437.34	25.760
437.69	26.313
438.04	25.801
438.39	25.851
438.75	26.264
439.10	26.648
439.45	27.096
439.81	25.921
440.16	25.579
440.51	26.011
440.86	25.825
441.22	26.363
441.57	26.699
441.92	26.612
442.27	26.319
442.63	25.750
442.98	26.366
443.33	25.707
443.68	26.020
444.03	25.964
444.39	25.073
444.74	25.541
445.09	26.307
445.44	25.642
445.79	25.928
446.15	25.675
446.50	25.740
446.85	25.231
447.20	26.007
447.55	26.131
447.91	26.420
448.26	25.431
448.61	26.343
448.96	26.523
449.31	26.603
449.66	25.999
450.02	25.738
450.37	25.964
450.72	25.663
451.07	25.411
451.42	25.350
451.77	26.952
452.12	25.577
452.47	26.990
452.83	25.874
453.18	26.650
453.53	26.283
453.88	26.521
454.23	25.403
454.58	25.136
454.93	26.955
455.28	25.748
455.63	26.032
455.98	26.548
456.34	26.193
456.69	27.301
457.04	26.502
457.39	25.482
457.74	26.407
458.09	25.589
458.44	26.226
458.79	25.217
459.14	27.144
459.49	26.562
459.84	26.537
460.19	25.987
460.54	25.926
460.89	25.617
461.24	26.715
461.59	26.845
461.94	25.647
462.29	26.469
462.64	26.484
462.99	25.634
463.34	27.200
463.69	26.329
464.04	26.493
464.39	25.971
464.74	26.203
465.09	25.995
465.44	25.706
465.79	25.391
466.14	26.273
466.49	24.249
466.84	25.452
467.19	25.407
467.54	26.750
467.89	25.210
468.24	26.120
468.59	26.557
468.94	25.046
469.29	25.707
469.64	26.774
469.99	26.319
470.34	25.561
470.68	26.078
471.03	25.578
471.38	25.156
471.73	25.983
472.08	25.987
472.43	26.131
472.78	25.938
473.13	25.931
473.48	25.968
473.83	25.610
474.17	24.393
474.52	25.372
474.87	25.394
475.22	25.827
475.57	25.578
475.92	24.801
476.27	25.479
476.61	24.931
476.96	25.509
477.31	24.594
477.66	25.274
478.01	24.830
478.36	25.701
478.70	24.714
479.05	25.666
479.40	24.872
479.75	25.216
480.10	24.503
480.45	24.988
480.79	23.841
481.14	25.978
481.49	25.202
481.84	25.469
482.19	24.898
482.53	24.954
482.88	24.383
483.23	24.860
483.58	25.705
483.92	24.836
484.27	23.747
484.62	24.612
484.97	24.596
485.31	25.788
485.66	25.123
486.01	24.374
486.36	23.171
486.70	21.999
487.05	22.756
487.40	23.493
487.75	23.439
488.09	23.537
488.44	23.649
488.79	24.412
489.13	24.064
489.48	24.388
489.83	23.953
490.17	24.945
490.52	24.225
490.87	24.695
491.22	24.829
491.56	23.736
491.91	24.756
492.26	23.335
492.60	24.608
492.95	23.807
493.30	23.925
493.64	23.472
493.99	23.630
494.34	25.023
494.68	24.222
495.03	25.282
495.37	23.546
495.72	25.049
496.07	24.455
496.41	23.053
496.76	23.923
497.11	23.053
497.45	24.080
497.80	24.040
498.14	24.106
498.49	23.366
498.84	24.353
499.18	24.905
499.53	23.789
499.87	23.765
500.22	23.834
500.56	24.223
500.91	24.567
501.26	24.135
501.60	23.825
501.95	23.190
502.29	24.367
502.64	24.348
502.98	24.030
503.33	23.263
503.67	23.712
504.02	23.761
504.36	23.304
504.71	23.791
505.06	24.241
505.40	24.550
505.75	23.578
506.09	23.567
506.44	23.878
506.78	23.868
507.13	24.180
507.47	23.939
507.82	23.860
508.16	23.810
508.51	24.810
508.85	23.932
509.19	23.827
509.54	23.010
509.88	23.751
510.23	24.319
510.57	24.819
510.92	24.754
511.26	24.666
511.61	24.378
511.95	23.330
512.30	23.913
512.64	24.825
512.98	23.955
513.33	24.518
513.67	23.639
514.02	23.160
514.36	24.304
514.70	22.911
515.05	23.201
515.39	24.173
515.74	23.423
516.08	23.868
516.42	24.473
516.77	25.139
517.11	23.418
517.46	24.153
517.80	24.739
518.14	24.551
518.49	24.096
518.83	24.091
519.17	24.249
519.52	24.392
519.86	23.388
520.20	25.260
520.55	24.297
520.89	24.696
521.23	23.945
521.58	23.770
521.92	24.923
522.26	23.429
522.61	23.863
522.95	23.757
523.29	24.893
523.64	24.451
523.98	24.831
524.32	24.668
524.66	24.173
525.01	24.449
525.35	24.473
525.69	23.522
526.04	23.676
526.38	23.490
526.72	23.988
527.06	23.540
527.41	23.329
527.75	24.823
528.09	24.599
528.43	23.646
528.78	24.032
529.12	23.697
529.46	23.699
529.80	23.515
530.15	24.548
530.49	22.892
530.83	23.734
531.17	25.718
531.51	24.838
531.86	24.645
532.20	25.098
532.54	23.575
532.88	23.877
533.22	23.423
533.57	23.889
533.91	22.818
534.25	24.301
534.59	24.039
534.93	23.557
535.27	23.778
535.62	23.871
535.96	23.917
536.30	23.331
536.64	25.113
536.98	23.490
537.32	23.436
537.66	23.400
538.01	23.568
538.35	23.271
538.69	25.144
539.03	22.742
539.37	23.514
539.71	22.359
540.05	24.248
540.39	24.252
540.73	22.186
541.07	23.556
541.42	24.462
541.76	24.000
542.10	24.644
542.44	23.444
542.78	23.847
543.12	23.353
543.46	24.000
543.80	24.138
544.14	23.171
544.48	24.254
544.82	22.450
545.16	22.121
545.50	22.365
545.84	23.253
546.18	24.983
546.52	24.226
546.86	22.749
547.20	24.073
547.54	22.779
547.88	23.597
548.22	23.412
548.56	23.396
548.90	23.175
549.24	23.165
549.58	23.056
549.92	23.558
550.26	23.153
550.60	23.029
550.94	23.169
551.28	23.921
551.62	23.508
551.96	23.088
552.30	23.891
552.64	25.085
552.98	23.864
553.32	23.803
553.66	23.926
554.00	23.336
554.34	22.636
554.68	23.820
555.02	23.413
555.36	23.173
555.69	23.004
556.03	22.611
556.37	23.943
556.71	23.465
557.05	22.689
557.39	23.583
557.73	23.289
558.07	23.060
558.41	23.661
558.75	23.365
559.08	23.714
559.42	22.827
559.76	23.676
560.10	23.055
560.44	23.340
560.78	22.621
561.12	22.032
561.45	22.751
561.79	22.610
562.13	23.273
562.47	23.019
562.81	23.222
563.15	22.742
563.48	22.149
563.82	22.114
564.16	21.910
564.50	21.549
564.84	22.187
565.17	22.458
565.51	22.236
565.85	23.287
566.19	22.855
566.52	23.243
566.86	22.061
567.20	22.642
567.54	22.432
567.88	22.325
568.21	22.751
568.55	22.396
568.89	22.471
569.23	21.970
569.56	21.862
569.90	21.509
570.24	21.780
570.57	21.761
570.91	21.138
571.25	21.217
571.59	21.149
571.92	21.169
572.26	21.317
572.60	21.291
572.93	20.810
573.27	21.473
573.61	21.357
573.95	20.904
574.28	20.905
574.62	20.821
574.96	21.338
575.29	20.660
575.63	20.783
575.97	20.854
576.30	21.296
576.64	20.950
576.98	20.685
577.31	21.696
577.65	20.847
577.98	20.688
578.32	20.671
578.66	20.587
578.99	20.543
579.33	21.278
579.67	19.971
580.00	20.786
580.34	20.859
580.67	20.917
581.01	20.733
581.35	21.006
581.68	20.885
582.02	20.780
582.35	20.452
582.69	20.409
583.02	20.485
583.36	20.706
583.70	20.854
584.03	21.029
584.37	20.632
584.70	20.820
585.04	20.817
585.37	21.016
585.71	21.358
586.04	21.044
586.38	20.794
586.72	21.044
587.05	20.484
587.39	20.475
587.72	21.180
588.06	20.411
588.39	20.439
588.73	21.091
589.06	21.097
589.40	21.414
589.73	21.190
590.07	21.246
590.40	21.264
590.73	20.882
591.07	21.897
591.40	21.974
591.74	21.818
592.07	21.291
592.41	21.662
592.74	21.199
593.08	21.219
593.41	21.069
593.75	20.331
594.08	20.449
594.41	20.961
594.75	21.331
595.08	20.723
595.42	21.086
595.75	20.691
596.09	21.066
596.42	21.022
596.75	20.642
597.09	22.727
597.42	21.543
597.75	21.734
598.09	21.826
598.42	21.306
598.76	21.119
599.09	20.487
599.42	21.288
599.76	21.083
600.09	20.911
600.42	21.037
600.76	21.357
601.09	20.619
601.42	20.738
601.76	20.683
602.09	20.751
602.42	21.775
602.76	21.806
603.09	20.889
603.42	21.710
603.76	20.960
604.09	20.822
604.42	21.035
604.76	21.721
605.09	20.708
605.42	21.035
605.75	21.730
606.09	20.984
606.42	20.883
606.75	20.946
607.09	21.180
607.42	20.967
607.75	20.591
608.08	21.494
608.42	21.381
608.75	20.920
609.08	20.860
609.41	21.418
609.75	20.581
610.08	22.149
610.41	21.508
610.74	21.429
611.07	21.690
611.41	20.559
611.74	21.921
612.07	22.050
612.40	21.616
612.73	21.053
613.07	22.037
613.40	21.222
613.73	20.503
614.06	21.774
614.39	21.080
614.72	22.105
615.06	21.691
615.39	20.966
615.72	21.319
616.05	21.478
616.38	22.179
616.71	21.496
617.05	21.908
617.38	21.527
617.71	21.261
618.04	22.356
618.37	21.762
618.70	21.282
619.03	22.368
619.36	21.317
619.69	22.465
620.03	23.146
620.36	22.794
620.69	22.808
621.02	22.493
621.35	21.691
621.68	22.040
622.01	21.981
622.34	22.466
622.67	21.369
623.00	21.350
623.33	21.301
623.66	21.873
623.99	21.723
624.32	22.397
624.65	21.681
624.99	21.388
625.32	21.579
625.65	21.337
625.98	22.521
626.31	22.628
626.64	21.878
626.97	22.776
627.30	22.361
627.63	23.462
627.96	22.792
628.29	21.522
628.62	22.690
628.95	24.717
629.28	22.445
629.61	23.281
629.94	23.905
630.26	21.544
630.59	21.258
630.92	22.031
631.25	22.113
631.58	22.823
631.91	22.312
632.24	21.941
632.57	22.560
632.90	22.478
633.23	23.826
633.56	24.520
633.89	22.650
634.22	23.950
634.55	24.852
634.88	22.515
635.20	24.731
635.53	23.253
635.86	23.639
636.19	22.471
636.52	25.144
636.85	24.170
637.18	23.157
637.51	24.468
637.83	20.962
638.16	22.634
638.49	25.063
638.82	24.779
639.15	24.875
639.48	24.190
639.81	24.263
640.13	25.651
640.46	24.161
640.79	23.382
641.12	23.384
641.45	22.486
641.77	24.006
642.10	24.708
642.43	24.324
642.76	24.303
643.09	25.613
643.41	24.279
643.74	25.926
644.07	24.543
644.40	25.613
644.73	22.205
645.05	26.149
645.38	23.381
645.71	24.799
646.04	26.080
646.36	25.543
646.69	26.087
647.02	26.531
647.35	24.399
647.67	24.956
648.00	23.902
648.33	23.102
648.66	23.939
648.98	24.888
649.31	21.375
649.64	24.514
649.96	23.547
650.29	25.434
650.62	24.110
650.94	24.149
651.27	23.986
651.60	24.792
651.92	24.121
652.25	24.104
652.58	25.701
652.90	24.013
653.23	24.191
653.56	22.362
653.88	23.613
654.21	25.118
654.54	24.092
654.86	23.364
655.19	23.108
655.52	18.769
655.84	18.839
656.17	23.724
656.49	31.625
656.82	30.750
657.15	22.761
657.47	16.497
657.80	12.876
658.13	13.106
658.45	19.643
658.78	19.548
659.10	20.428
659.43	20.933
659.75	22.465
660.08	23.671
660.41	24.767
660.73	26.557
661.06	24.363
661.38	25.091
661.71	25.962
662.03	26.824
662.36	21.670
662.68	26.305
663.01	25.657
663.33	25.478
663.66	23.950
663.98	25.054
664.31	23.319
664.63	25.101
664.96	23.340
665.28	23.566
665.61	23.587
665.93	25.151
666.26	25.558
666.58	24.477
666.91	27.907
667.23	25.843
667.56	25.054
667.88	25.427
668.21	26.226
668.53	26.464
668.86	26.623
669.18	28.571
669.50	26.087
669.83	26.144
670.15	26.889
670.48	26.580
670.80	24.784
671.13	26.964
671.45	25.106
671.77	27.699
672.10	24.584
672.42	26.678
672.75	23.715
673.07	23.415
673.39	22.423
673.72	24.219
674.04	27.451
674.37	26.990
674.69	24.335
675.01	25.314
675.34	25.667
675.66	28.421
675.98	24.847
676.31	23.109
676.63	25.265
676.95	25.367
677.28	26.869
677.60	26.374
677.92	29.958
678.25	25.667
678.57	24.900
678.89	24.850
679.22	23.969
679.54	24.618
679.86	27.156
680.18	23.792
680.51	25.532
680.83	25.801
681.15	24.906
681.48	24.764
681.80	24.178
682.12	25.670
682.44	21.083
682.77	25.051
683.09	28.541
683.41	25.499
683.73	26.049
684.06	26.240
684.38	22.309
684.70	25.000
685.02	25.516
685.34	25.641
685.67	24.650
685.99	23.368
686.31	23.038
686.63	20.318
686.96	24.821
687.28	22.924
687.60	25.543
687.92	24.314
688.24	24.715
688.56	25.703
688.89	26.971
689.21	27.293
689.53	28.184
689.85	25.277
690.17	22.567
690.49	26.752
690.82	26.636
691.14	25.223
691.46	26.160
691.78	26.908
692.10	27.479
692.42	25.349
692.74	24.896
693.06	24.894
693.39	27.515
693.71	25.546
694.03	26.316
694.35	24.892
694.67	23.570
694.99	26.585
695.31	24.020
695.63	26.555
695.95	26.650
696.27	25.888
696.59	25.907
696.91	27.979
697.23	23.944
697.56	25.373
697.88	25.153
698.20	25.000
698.52	24.946
698.84	26.949
699.16	25.115
699.48	23.753
699.80	26.570
700.12	28.571
700.44	29.443
700.76	26.796
701.08	29.023
701.40	28.212
701.72	27.405
702.04	30.966
702.36	25.212
702.68	28.045
703.00	27.147
703.32	30.053
703.64	27.078
703.96	25.070
704.28	27.907
704.60	31.085
704.91	27.003
705.23	26.979
705.55	31.229
705.87	31.561
706.19	27.208
706.51	29.283
706.83	30.000
707.15	29.412
707.47	26.515
707.79	26.290
708.11	27.626
708.43	25.714
708.74	25.255
709.06	27.532
709.38	28.609
709.70	30.814
710.02	30.861
710.34	29.697
710.66	28.358
710.98	29.830
711.29	27.907
711.61	31.563
711.93	28.526
712.25	31.833
712.57	30.147
712.89	26.644
713.20	30.699
713.52	31.908
713.84	23.101
714.16	27.744
714.48	25.862
714.80	32.827
715.11	25.648
715.43	29.080
715.75	30.725
716.07	30.990
716.39	26.646
716.70	32.226
717.02	28.777
717.34	31.802
717.66	32.090
717.97	30.279
718.29	31.111
718.61	28.832
718.93	30.515
719.24	30.450
719.56	33.559
719.88	29.831
720.20	31.419
720.51	28.920
720.83	31.227
721.15	29.104
721.46	24.468
721.78	31.541
722.10	31.698
722.42	34.962
722.73	30.712
723.05	28.689
723.37	30.769
723.68	32.432
724.00	28.049
724.32	33.468
724.63	30.894
724.95	36.820
725.27	31.174
725.58	31.641
725.90	31.022
726.22	29.434
726.53	29.861
726.85	31.058
727.16	28.826
727.48	30.851
727.80	26.136
728.11	29.348
728.43	32.692
728.74	29.032
729.06	33.942
729.38	30.147
729.69	27.046
730.01	31.741
730.32	33.681
730.64	27.759
730.96	28.383
731.27	31.126
731.59	31.804
731.90	29.155
732.22	28.882
732.53	28.793
732.85	27.885
733.16	29.904
733.48	27.575
733.80	26.948
734.11	33.758
734.43	28.402
734.74	28.000
735.06	27.221
735.37	34.104
735.69	29.936
736.00	31.046
736.32	33.333
736.63	25.559
736.95	30.990
737.26	20.748
737.58	24.194
737.89	29.766
738.21	31.058
738.52	27.500
738.83	30.943
739.15	28.846
739.46	29.197
739.78	29.514
740.09	27.692
740.41	29.677
740.72	21.603
741.04	30.000
741.35	29.167
741.66	36.000
741.98	26.415
742.29	33.493
742.61	34.052
742.92	31.222
743.23	33.761
743.55	32.000
743.86	31.140
744.18	34.071
744.49	35.407
744.80	34.272
745.12	38.636
745.43	34.802
745.74	36.036
746.06	36.239
746.37	37.220
746.68	28.959
747.00	34.722
747.31	36.667
747.62	28.761
747.94	33.921
748.25	28.511
748.56	32.159
748.88	27.228
749.19	33.500
749.50	33.488
749.82	29.268
750.13	28.980
750.44	33.577
750.75	33.684
751.07	36.013
751.38	29.965
751.69	29.603
752.01	28.571
752.32	27.076
752.63	28.723
752.94	33.197
753.26	37.200
753.57	30.488
753.88	35.156
754.19	28.214
754.51	32.292
754.82	29.242
755.13	32.830
755.44	27.444
755.75	30.292
756.07	32.624
756.38	30.292
756.69	29.195
757.00	30.539
757.31	27.300
757.63	26.316
757.94	28.686
758.25	28.186
758.56	27.407
758.87	27.688
759.18	26.970
759.50	28.840
759.81	27.103
760.12	25.937
760.43	26.361
760.74	29.076
761.05	28.249
761.36	29.144
761.67	29.545
761.99	30.124
762.30	31.944
762.61	28.626
762.92	28.516
763.23	33.613
763.54	34.800
763.85	26.172
764.16	35.000
764.47	31.179
764.78	27.562
765.10	24.684
765.41	30.383
765.72	30.240
766.03	30.094
766.34	27.333
766.65	29.787
766.96	33.333
767.27	36.041
767.58	35.938
767.89	34.211
768.20	39.655
768.51	38.071
768.82	33.028
769.13	32.520
769.44	34.008
769.75	31.330
770.06	25.688
770.37	36.199
770.68	33.796
770.99	32.000
771.30	28.689
771.61	36.771
771.92	33.607
772.23	28.992
772.54	35.897
772.85	32.984
773.16	39.894
773.47	37.500
773.78	39.086
774.09	37.500
774.39	35.673
774.70	40.741
775.01	36.957
775.32	47.059
775.63	40.789
775.94	38.849
776.25	52.756
776.56	45.522
776.87	47.541
777.18	39.844
777.48	35.878
777.79	40.909
778.10	42.963
778.41	43.750
778.72	29.927
779.03	46.309
779.34	38.255
779.65	40.541
779.95	37.423
780.26	36.601
780.57	38.621
780.88	53.125
781.19	35.338
781.50	44.595
781.80	41.509
782.11	35.028
782.42	35.443
782.73	36.810
783.04	43.919
783.34	40.845
783.65	44.521
783.96	46.269
784.27	38.462
784.57	30.935
784.88	46.296
785.19	45.238
785.50	42.453
785.81	42.537
786.11	45.082
786.42	46.512
786.73	46.018
787.04	48.113
787.34	51.786
787.65	40.000
787.96	50.450
788.26	39.669
788.57	48.305
788.88	54.545
789.19	43.750
789.49	44.697
789.80	39.695
790.11	54.286
790.41	55.446
790.72	48.193
791.03	58.696
791.33	50.000
791.64	53.608
791.95	53.465
792.25	51.111
792.56	58.442
792.87	61.538
793.17	67.089
793.48	51.724
793.79	54.023
794.09	51.136
794.40	43.697
794.70	44.853
795.01	41.481
795.32	38.849
795.62	40.157
795.93	47.414
796.23	44.248
796.54	40.000
796.85	48.649
797.15	71.831
797.46	57.576
797.76	68.675
798.07	68.354
798.37	61.538
798.68	68.182
798.99	57.746
799.29	57.143
799.60	55.682
799.90	73.973
800.21	73.134
800.51	50.000
800.82	75.439
801.12	52.459
801.43	81.818
801.73	62.162
802.04	73.016
802.34	69.136
802.65	62.500
802.95	64.407
803.26	60.938
803.56	54.286
803.87	69.231
804.17	72.059
804.48	79.630
804.78	67.241
805.09	70.588
805.39	65.385
805.70	67.857
806.00	62.295
806.30	74.242
806.61	65.854
806.91	53.165
807.22	53.947
807.52	61.194
807.83	69.014
808.13	59.375
808.43	70.000
808.74	51.316
809.04	63.768
809.35	64.179
809.65	61.842
809.95	98.387
810.26	79.661
810.56	65.079
810.86	70.455
811.17	95.238
811.47	91.667
811.77	83.333
812.08	81.818
812.38	78.000
812.69	119.444
812.99	75.000
813.29	83.673
813.59	33.333
813.90	114.286
814.20	61.818
814.50	75.385
814.81	79.412
815.11	65.306
815.41	63.934
815.72	92.857
816.02	72.727
816.32	83.333
816.62	72.500
816.93	82.927
817.23	109.524
817.53	104.545
817.84	139.394
818.14	86.957
818.44	93.333
818.74	138.235
819.04	87.500
819.35	60.000
819.65	123.529
819.95	128.571
820.25	135.000
820.56	120.513
820.86	106.818
821.16	90.698
821.46	100.000
821.76	100.000
822.07	94.286
822.37	85.000
822.67	115.152
822.97	82.353
823.27	125.000
823.57	86.486
823.88	100.000
824.18	126.667
824.48	116.667
824.78	120.000
825.08	95.833
825.38	94.595
825.69	100.000
825.99	125.000
826.29	79.310
826.59	97.368
826.89	84.211
827.19	117.647
827.49	132.258
827.79	102.273
828.09	106.818
828.39	74.468
828.70	97.959
829.00	114.815
829.30	116.129
829.60	97.500
829.90	140.000
830.20	107.143
830.50	126.087
830.80	139.130
831.10	126.667
831.40	110.000
831.70	86.957
832.00	153.846
832.30	148.148
832.60	175.000
832.90	146.667
833.20	257.143
833.50	138.710
833.80	117.241
834.10	153.125
834.40	153.846
834.70	172.222
835.00	209.524
835.30	117.143
835.60	161.538
835.90	141.379
836.20	214.286
836.50	137.931
836.80	132.000
837.10	133.333
837.40	133.333
837.70	205.882
838.00	174.074
838.30	119.048
838.60	214.286
838.90	153.846
839.19	155.000
839.49	235.714
839.79	210.000
840.09	135.000
840.39	166.667
840.69	152.174
840.99	144.444
841.29	220.000
841.59	208.333
841.88	175.000
842.18	127.586
842.48	171.429
842.78	136.667
843.08	156.522
843.38	137.500
843.68	566.667
843.97	150.000
844.27	137.931
844.57	171.429
844.87	175.000
845.17	129.630
845.47	1200.000
845.76	300.000
846.06	135.294
846.36	425.000
846.66	221.429
846.96	168.750
847.25	200.000
847.55	209.091
847.85	204.348
848.15	260.000
848.44	264.286
848.74	155.556
849.04	223.529
849.34	340.000
849.63	142.105
849.93	300.000
850.23	640.000
850.53	292.857
850.82	1050.000
851.12	-2800.000
851.42	2600.000
851.71	160.000
852.01	-633.333
852.31	108.333
852.61	1033.333
852.90	176.190
853.20	172.000
853.50	200.000
853.79	142.857
854.09	125.000
854.39	281.250
854.68	127.027
854.98	141.935
855.28	146.667
855.57	162.069
855.87	125.926
856.17	131.579
856.46	153.333
856.76	217.647
857.05	141.379
857.35	129.167
857.65	206.667
857.94	117.391
858.24	173.077
858.53	215.000
858.83	136.364
859.13	206.667
859.42	0.000
859.72	288.889
860.01	263.636
860.31	159.091
860.60	147.368
860.90	134.783
861.20	333.333
861.49	333.333
861.79	-3300.000
862.08	537.500
862.38	209.524
862.67	253.846
862.97	205.882
863.26	311.111
863.56	227.778
863.85	241.667
864.15	312.500
864.44	213.333
864.74	650.000
865.03	450.000
865.33	200.000
865.62	263.636
865.92	284.615
866.21	241.667
866.51	0.000
866.80	263.636
867.10	760.000
867.39	246.154
867.69	309.091
867.98	184.211
868.27	245.455
868.57	263.158
868.86	-2700.000
869.16	218.750
869.45	1050.000
869.75	-1800.000
870.04	283.333
870.33	357.143
870.63	650.000
870.92	1150.000
871.22	442.857
871.51	235.294
871.80	123.810
872.10	192.857
>>>>>End Processed Spectral Data<<<<<
