SpectraSuite Data File
++++++++++++++++++++++++++++++++++++
Date: Wed May 13 16:05:47 PDT 2015
User: schluterlab
Dark Spectrum Present: Yes
Reference Spectrum Present: Yes
Number of Sampled Component Spectra: 1
Spectrometers: USB2E3373
Integration Time (usec): 3000 (USB2E3373)
Spectra Averaged: 3 (USB2E3373)
Boxcar Smoothing: 0 (USB2E3373)
Correct for Electrical Dark: No (USB2E3373)
Strobe/Lamp Enabled: No (USB2E3373)
Correct for Detector Non-linearity: No (USB2E3373)
Correct for Stray Light: No (USB2E3373)
Number of Pixels in Processed Spectrum: 2048
>>>>>Begin Processed Spectral Data<<<<<
178.53	0.000
178.91	-625.000
179.29	-800.000
179.67	-100.000
180.04	-675.000
180.42	1750.000
180.80	820.000
181.18	-575.000
181.56	328.571
181.94	0.000
182.31	-371.429
182.69	1000.000
183.07	-362.500
183.45	-266.667
183.83	300.000
184.20	-260.000
184.58	1200.000
184.96	3300.000
185.34	-480.000
185.72	-437.500
186.09	-1300.000
186.47	1750.000
186.85	1150.000
187.23	2700.000
187.61	-733.333
187.98	925.000
188.36	345.455
188.74	290.909
189.12	-500.000
189.49	350.000
189.87	-2300.000
190.25	-875.000
190.63	278.571
191.00	269.231
191.38	483.333
191.76	-550.000
192.14	950.000
192.51	237.500
192.89	600.000
193.27	350.000
193.65	-600.000
194.02	290.000
194.40	740.000
194.78	270.000
195.15	408.333
195.53	380.000
195.91	-1200.000
196.29	200.000
196.66	210.526
197.04	-140.000
197.42	0.000
197.79	440.000
198.17	-2200.000
198.55	485.714
198.92	537.500
199.30	560.000
199.68	0.000
200.05	233.333
200.43	557.143
200.81	2700.000
201.18	1000.000
201.56	-1133.333
201.94	333.333
202.31	344.444
202.69	258.333
203.07	300.000
203.44	0.000
203.82	675.000
204.19	514.286
204.57	250.000
204.95	300.000
205.32	933.333
205.70	254.545
206.08	242.857
206.45	1250.000
206.83	250.000
207.20	683.333
207.58	420.000
207.96	216.667
208.33	400.000
208.71	-500.000
209.08	600.000
209.46	366.667
209.84	363.636
210.21	-666.667
210.59	775.000
210.96	-200.000
211.34	1400.000
211.71	370.000
212.09	533.333
212.46	0.000
212.84	1166.667
213.22	800.000
213.59	-2400.000
213.97	350.000
214.34	357.143
214.72	381.818
215.09	620.000
215.47	-950.000
215.84	-1250.000
216.22	900.000
216.59	228.571
216.97	800.000
217.34	245.455
217.72	-283.333
218.09	0.000
218.47	-2200.000
218.84	422.222
219.22	342.857
219.59	1166.667
219.97	-371.429
220.34	480.000
220.72	-966.667
221.09	307.143
221.47	825.000
221.84	-616.667
222.22	0.000
222.59	900.000
222.97	-1750.000
223.34	660.000
223.72	253.846
224.09	720.000
224.46	1550.000
224.84	-2500.000
225.21	-680.000
225.59	-1900.000
225.96	350.000
226.34	205.000
226.71	1400.000
227.08	325.000
227.46	320.000
227.83	-475.000
228.21	-1450.000
228.58	388.889
228.95	-1450.000
229.33	-1250.000
229.70	1366.667
230.08	500.000
230.45	-320.000
230.82	258.333
231.20	633.333
231.57	300.000
231.95	200.000
232.32	150.000
232.69	118.182
233.07	428.571
233.44	161.538
233.81	-1000.000
234.19	163.158
234.56	233.333
234.93	208.333
235.31	327.273
235.68	223.077
236.05	235.714
236.43	118.182
236.80	168.421
237.17	2100.000
237.55	157.143
237.92	135.714
238.29	166.667
238.67	96.774
239.04	144.828
239.41	119.444
239.79	78.261
240.16	114.286
240.53	79.545
240.91	80.392
241.28	78.000
241.65	76.000
242.02	59.420
242.40	77.419
242.77	66.667
243.14	59.140
243.51	68.539
243.89	55.294
244.26	47.778
244.63	49.462
245.00	54.255
245.38	57.426
245.75	55.140
246.12	54.128
246.49	56.934
246.87	66.400
247.24	60.769
247.61	47.857
247.98	49.020
248.36	48.649
248.73	45.860
249.10	54.777
249.47	47.458
249.84	44.920
250.22	45.989
250.59	47.337
250.96	48.485
251.33	45.498
251.70	45.050
252.08	42.381
252.45	40.359
252.82	41.739
253.19	41.702
253.56	42.353
253.94	43.568
254.31	35.937
254.68	43.846
255.05	39.483
255.42	38.211
255.79	38.235
256.16	46.931
256.54	37.102
256.91	38.434
257.28	35.971
257.65	41.254
258.02	37.888
258.39	39.117
258.76	39.130
259.14	40.774
259.51	37.082
259.88	36.646
260.25	38.066
260.62	38.439
260.99	41.925
261.36	40.240
261.73	40.688
262.10	37.500
262.47	37.183
262.85	33.983
263.22	34.758
263.59	37.322
263.96	35.714
264.33	32.898
264.70	36.316
265.07	39.130
265.44	37.374
265.81	33.333
266.18	34.422
266.55	35.610
266.92	36.364
267.29	36.806
267.66	35.550
268.03	36.136
268.40	35.047
268.77	35.322
269.14	35.360
269.51	35.214
269.88	35.198
270.25	33.183
270.62	34.382
270.99	35.699
271.36	37.124
271.73	36.449
272.10	34.348
272.47	37.419
272.84	35.931
273.21	35.849
273.58	35.153
273.95	34.591
274.32	32.645
274.69	34.904
275.06	33.071
275.43	34.255
275.80	35.671
276.17	36.253
276.54	35.551
276.91	35.771
277.28	31.445
277.65	35.977
278.02	32.505
278.39	34.570
278.76	33.636
279.13	33.774
279.50	33.147
279.87	36.853
280.23	33.134
280.60	35.010
280.97	33.641
281.34	35.398
281.71	34.182
282.08	33.589
282.45	33.091
282.82	30.018
283.19	31.907
283.56	32.105
283.92	33.164
284.29	31.922
284.66	34.483
285.03	35.081
285.40	33.803
285.77	33.838
286.14	32.470
286.51	33.000
286.87	34.359
287.24	33.062
287.61	31.621
287.98	29.870
288.35	29.477
288.72	30.218
289.08	30.203
289.45	30.807
289.82	33.496
290.19	28.885
290.56	29.862
290.93	28.097
291.29	31.595
291.66	30.973
292.03	30.814
292.40	30.690
292.77	29.734
293.13	28.955
293.50	29.592
293.87	29.037
294.24	27.111
294.60	27.948
294.97	30.087
295.34	28.773
295.71	29.972
296.08	27.350
296.44	28.611
296.81	28.402
297.18	28.997
297.55	26.781
297.91	26.385
298.28	27.443
298.65	28.721
299.02	29.381
299.38	26.826
299.75	25.876
300.12	26.820
300.48	27.500
300.85	26.141
301.22	28.280
301.59	26.263
301.95	28.967
302.32	26.829
302.69	27.001
303.05	27.030
303.42	26.914
303.79	26.614
304.15	24.825
304.52	27.346
304.89	26.365
305.25	26.102
305.62	27.520
305.99	28.335
306.35	26.734
306.72	27.466
307.09	27.525
307.45	28.604
307.82	24.777
308.19	26.821
308.55	29.018
308.92	27.497
309.29	27.244
309.65	27.147
310.02	27.590
310.38	27.097
310.75	27.561
311.12	27.738
311.48	28.736
311.85	28.197
312.22	27.888
312.58	29.834
312.95	27.666
313.31	27.864
313.68	29.314
314.05	29.389
314.41	29.347
314.78	28.802
315.14	30.189
315.51	29.866
315.87	30.198
316.24	30.288
316.61	29.532
316.97	29.843
317.34	28.767
317.70	30.402
318.07	30.510
318.43	30.626
318.80	31.303
319.16	31.450
319.53	30.488
319.89	32.000
320.26	31.900
320.62	31.349
320.99	32.323
321.35	32.020
321.72	32.444
322.08	33.465
322.45	34.527
322.81	34.787
323.18	33.815
323.54	33.859
323.91	33.774
324.27	33.556
324.64	35.322
325.00	34.536
325.37	34.850
325.73	36.445
326.10	35.834
326.46	35.305
326.83	36.324
327.19	35.611
327.56	37.108
327.92	37.270
328.29	37.711
328.65	38.029
329.01	36.643
329.38	38.575
329.74	38.227
330.11	37.323
330.47	37.925
330.84	39.246
331.20	36.157
331.56	38.440
331.93	37.870
332.29	37.356
332.66	38.230
333.02	37.751
333.38	38.031
333.75	38.859
334.11	38.345
334.48	37.799
334.84	38.511
335.20	38.091
335.57	37.806
335.93	36.071
336.29	36.905
336.66	37.782
337.02	37.285
337.38	37.685
337.75	35.740
338.11	38.227
338.47	37.937
338.84	38.497
339.20	37.431
339.56	38.686
339.93	38.364
340.29	38.225
340.65	38.235
341.02	36.998
341.38	38.523
341.74	37.807
342.11	38.079
342.47	39.119
342.83	37.757
343.20	38.182
343.56	37.489
343.92	39.211
344.28	37.840
344.65	39.123
345.01	39.310
345.37	36.621
345.73	37.986
346.10	37.852
346.46	38.898
346.82	37.644
347.19	37.845
347.55	37.931
347.91	39.968
348.27	39.030
348.63	38.294
349.00	38.916
349.36	38.342
349.72	38.492
350.08	38.250
350.45	38.812
350.81	38.424
351.17	37.925
351.53	38.165
351.89	38.366
352.26	38.200
352.62	39.374
352.98	39.060
353.34	39.359
353.70	38.707
354.07	38.790
354.43	38.730
354.79	38.375
355.15	38.867
355.51	39.808
355.87	39.429
356.24	39.495
356.60	38.172
356.96	40.225
357.32	40.147
357.68	40.630
358.04	39.430
358.40	40.222
358.77	39.671
359.13	39.227
359.49	40.314
359.85	40.159
360.21	38.836
360.57	40.156
360.93	40.231
361.29	40.287
361.66	40.093
362.02	41.119
362.38	40.456
362.74	41.220
363.10	39.526
363.46	39.545
363.82	40.438
364.18	40.382
364.54	41.010
364.90	40.510
365.26	41.544
365.62	40.394
365.98	40.687
366.35	39.398
366.71	42.082
367.07	41.515
367.43	42.090
367.79	41.399
368.15	41.595
368.51	40.334
368.87	41.970
369.23	40.673
369.59	42.578
369.95	41.544
370.31	41.453
370.67	41.957
371.03	40.974
371.39	42.347
371.75	42.500
372.11	40.825
372.47	43.988
372.83	43.948
373.19	42.124
373.55	43.016
373.91	43.741
374.27	42.131
374.63	42.764
374.99	42.090
375.35	43.126
375.71	42.426
376.07	42.867
376.42	43.673
376.78	43.009
377.14	43.148
377.50	42.781
377.86	42.819
378.22	43.173
378.58	43.170
378.94	43.872
379.30	43.003
379.66	43.845
380.02	43.428
380.38	43.291
380.74	43.517
381.09	43.765
381.45	44.561
381.81	44.779
382.17	44.459
382.53	43.648
382.89	44.753
383.25	43.840
383.61	45.477
383.97	43.902
384.32	44.916
384.68	43.247
385.04	44.069
385.40	44.520
385.76	44.287
386.12	45.272
386.48	45.689
386.83	45.863
387.19	46.382
387.55	45.145
387.91	45.466
388.27	45.187
388.62	45.913
388.98	45.270
389.34	45.119
389.70	44.880
390.06	46.705
390.42	46.693
390.77	45.420
391.13	45.501
391.49	46.256
391.85	45.003
392.20	45.363
392.56	45.644
392.92	46.439
393.28	44.911
393.64	45.983
393.99	45.388
394.35	45.782
394.71	45.546
395.07	45.545
395.42	45.983
395.78	45.802
396.14	46.120
396.50	46.115
396.85	46.599
397.21	44.575
397.57	46.373
397.92	45.974
398.28	45.348
398.64	45.759
399.00	44.992
399.35	45.572
399.71	45.833
400.07	45.890
400.42	46.012
400.78	46.441
401.14	45.427
401.49	45.194
401.85	44.525
402.21	44.850
402.57	45.342
402.92	47.163
403.28	46.408
403.63	46.473
403.99	45.860
404.35	44.970
404.70	45.803
405.06	44.380
405.42	44.791
405.77	44.629
406.13	44.808
406.49	44.766
406.84	45.363
407.20	44.385
407.55	44.416
407.91	45.333
408.27	46.011
408.62	44.371
408.98	45.282
409.34	44.280
409.69	44.710
410.05	45.663
410.40	45.443
410.76	43.907
411.11	43.064
411.47	44.089
411.83	44.716
412.18	44.651
412.54	44.583
412.89	44.880
413.25	44.215
413.60	45.028
413.96	43.169
414.31	45.383
414.67	45.437
415.03	44.238
415.38	43.943
415.74	43.859
416.09	45.460
416.45	44.645
416.80	44.679
417.16	44.973
417.51	44.658
417.87	43.802
418.22	44.921
418.58	44.416
418.93	44.840
419.29	44.239
419.64	44.899
420.00	43.720
420.35	44.348
420.71	44.471
421.06	43.258
421.42	45.380
421.77	43.386
422.12	43.066
422.48	43.173
422.83	43.564
423.19	44.033
423.54	44.283
423.90	44.812
424.25	43.774
424.61	43.810
424.96	44.257
425.31	44.574
425.67	43.427
426.02	43.200
426.38	45.849
426.73	44.822
427.09	44.134
427.44	45.256
427.79	44.048
428.15	43.750
428.50	44.002
428.85	44.041
429.21	44.671
429.56	44.427
429.92	44.036
430.27	43.694
430.62	43.062
430.98	44.058
431.33	43.814
431.68	44.450
432.04	43.504
432.39	44.660
432.74	44.225
433.10	44.086
433.45	44.665
433.80	44.457
434.16	43.964
434.51	43.789
434.86	44.185
435.22	44.747
435.57	45.897
435.92	44.470
436.28	46.323
436.63	44.923
436.98	44.190
437.34	45.498
437.69	45.041
438.04	45.868
438.39	44.896
438.75	46.601
439.10	46.089
439.45	44.864
439.81	45.378
440.16	45.116
440.51	44.991
440.86	46.381
441.22	45.940
441.57	45.276
441.92	45.241
442.27	46.986
442.63	45.024
442.98	46.535
443.33	46.413
443.68	45.483
444.03	45.925
444.39	45.667
444.74	46.104
445.09	45.229
445.44	45.325
445.79	46.017
446.15	45.474
446.50	45.234
446.85	46.660
447.20	45.385
447.55	46.231
447.91	45.725
448.26	45.743
448.61	46.976
448.96	46.179
449.31	45.838
449.66	45.920
450.02	44.735
450.37	46.712
450.72	45.290
451.07	45.338
451.42	45.957
451.77	46.565
452.12	45.554
452.47	45.958
452.83	46.737
453.18	46.638
453.53	46.197
453.88	46.013
454.23	46.503
454.58	46.638
454.93	46.408
455.28	46.322
455.63	46.602
455.98	48.274
456.34	46.859
456.69	46.900
457.04	47.121
457.39	46.406
457.74	46.663
458.09	46.521
458.44	46.123
458.79	45.011
459.14	45.880
459.49	46.760
459.84	46.150
460.19	45.551
460.54	44.560
460.89	46.736
461.24	46.630
461.59	46.368
461.94	45.931
462.29	46.469
462.64	46.203
462.99	44.958
463.34	46.800
463.69	46.404
464.04	46.783
464.39	45.913
464.74	45.217
465.09	45.959
465.44	45.097
465.79	45.414
466.14	45.211
466.49	44.994
466.84	46.060
467.19	45.202
467.54	45.000
467.89	45.438
468.24	46.248
468.59	47.070
468.94	45.449
469.29	46.208
469.64	46.787
469.99	47.564
470.34	46.103
470.68	47.342
471.03	46.667
471.38	47.603
471.73	46.369
472.08	47.895
472.43	45.854
472.78	46.412
473.13	47.047
473.48	46.380
473.83	46.463
474.17	45.800
474.52	47.208
474.87	46.935
475.22	45.850
475.57	45.513
475.92	45.141
476.27	46.280
476.61	46.222
476.96	45.190
477.31	45.264
477.66	46.225
478.01	45.112
478.36	45.584
478.70	45.223
479.05	46.486
479.40	46.418
479.75	46.009
480.10	44.881
480.45	44.645
480.79	44.768
481.14	44.863
481.49	45.373
481.84	44.490
482.19	45.434
482.53	45.183
482.88	44.114
483.23	45.654
483.58	44.722
483.92	46.157
484.27	44.183
484.62	44.957
484.97	44.501
485.31	45.411
485.66	43.117
486.01	41.544
486.36	40.090
486.70	39.257
487.05	40.077
487.40	41.241
487.75	41.621
488.09	43.282
488.44	43.496
488.79	43.906
489.13	44.652
489.48	44.617
489.83	44.411
490.17	46.032
490.52	45.306
490.87	44.821
491.22	44.566
491.56	44.282
491.91	44.439
492.26	45.062
492.60	44.654
492.95	44.060
493.30	43.925
493.64	44.797
493.99	44.615
494.34	44.958
494.68	45.147
495.03	45.677
495.37	44.905
495.72	45.127
496.07	44.965
496.41	44.071
496.76	45.075
497.11	43.404
497.45	44.993
497.80	44.194
498.14	44.976
498.49	45.024
498.84	45.494
499.18	43.905
499.53	45.014
499.87	44.268
500.22	44.136
500.56	45.971
500.91	44.519
501.26	45.614
501.60	45.657
501.95	43.630
502.29	45.314
502.64	44.600
502.98	43.806
503.33	44.378
503.67	43.434
504.02	44.808
504.36	44.034
504.71	44.846
505.06	45.349
505.40	45.017
505.75	43.828
506.09	44.752
506.44	44.697
506.78	44.569
507.13	44.674
507.47	45.505
507.82	44.934
508.16	45.745
508.51	45.611
508.85	45.233
509.19	45.306
509.54	44.898
509.88	44.874
510.23	45.193
510.57	45.511
510.92	45.313
511.26	45.427
511.61	44.865
511.95	44.676
512.30	45.652
512.64	45.137
512.98	46.302
513.33	46.681
513.67	45.838
514.02	45.184
514.36	45.385
514.70	45.711
515.05	45.008
515.39	46.663
515.74	45.608
516.08	46.730
516.42	46.504
516.77	47.213
517.11	46.282
517.46	45.429
517.80	47.096
518.14	46.265
518.49	47.200
518.83	46.136
519.17	47.171
519.52	47.029
519.86	45.750
520.20	47.168
520.55	46.978
520.89	48.662
521.23	46.984
521.58	48.019
521.92	48.622
522.26	45.943
522.61	47.788
522.95	47.759
523.29	46.196
523.64	46.951
523.98	47.320
524.32	46.261
524.66	45.520
525.01	46.201
525.35	45.911
525.69	46.059
526.04	48.287
526.38	46.065
526.72	46.380
527.06	46.893
527.41	45.483
527.75	46.238
528.09	47.784
528.43	47.992
528.78	47.019
529.12	46.303
529.46	46.663
529.80	46.287
530.15	47.414
530.49	45.662
530.83	45.949
531.17	46.345
531.51	47.471
531.86	46.258
532.20	46.349
532.54	47.406
532.88	46.791
533.22	45.846
533.57	45.432
533.91	45.936
534.25	45.626
534.59	46.309
534.93	44.259
535.27	45.263
535.62	45.971
535.96	45.888
536.30	44.437
536.64	45.589
536.98	46.583
537.32	45.820
537.66	46.267
538.01	45.688
538.35	46.283
538.69	46.394
539.03	45.094
539.37	45.112
539.71	44.200
540.05	44.902
540.39	45.050
540.73	44.761
541.07	47.112
541.42	45.336
541.76	46.000
542.10	45.602
542.44	45.298
542.78	46.179
543.12	44.402
543.46	44.787
543.80	45.608
544.14	43.389
544.48	44.254
544.82	43.233
545.16	44.632
545.50	44.794
545.84	45.228
546.18	45.589
546.52	44.253
546.86	44.880
547.20	44.976
547.54	44.289
547.88	46.110
548.22	43.524
548.56	45.031
548.90	44.686
549.24	44.377
549.58	45.907
549.92	45.398
550.26	44.744
550.60	45.090
550.94	44.648
551.28	44.916
551.62	44.788
551.96	45.053
552.30	44.710
552.64	45.436
552.98	44.746
553.32	44.639
553.66	43.286
554.00	45.916
554.34	44.030
554.68	46.137
555.02	44.358
555.36	44.328
555.69	43.031
556.03	45.087
556.37	43.997
556.71	43.315
557.05	45.448
557.39	44.927
557.73	44.742
558.07	44.598
558.41	45.224
558.75	44.820
559.08	46.085
559.42	45.276
559.76	45.882
560.10	43.540
560.44	44.864
560.78	42.848
561.12	43.668
561.45	44.915
561.79	42.584
562.13	43.327
562.47	44.126
562.81	44.770
563.15	44.214
563.48	43.767
563.82	44.749
564.16	43.362
564.50	43.099
564.84	42.351
565.17	42.857
565.51	42.748
565.85	42.513
566.19	42.517
566.52	42.749
566.86	41.832
567.20	42.689
567.54	42.751
567.88	41.771
568.21	41.958
568.55	41.001
568.89	40.564
569.23	39.973
569.56	38.664
569.90	38.189
570.24	38.285
570.57	37.606
570.91	37.233
571.25	37.091
571.59	36.789
571.92	37.327
572.26	37.060
572.60	37.447
572.93	36.882
573.27	37.474
573.61	36.851
573.95	37.339
574.28	36.407
574.62	36.443
574.96	36.057
575.29	36.154
575.63	36.662
575.97	36.683
576.30	36.591
576.64	36.442
576.98	36.582
577.31	35.813
577.65	36.004
577.98	35.384
578.32	34.631
578.66	35.597
578.99	35.152
579.33	35.488
579.67	35.831
580.00	35.531
580.34	36.426
580.67	35.949
581.01	35.620
581.35	35.754
581.68	35.689
582.02	34.616
582.35	35.063
582.69	34.641
583.02	35.279
583.36	35.647
583.70	36.414
584.03	36.207
584.37	36.943
584.70	36.782
585.04	36.032
585.37	35.974
585.71	35.832
586.04	35.129
586.38	36.233
586.72	36.454
587.05	35.507
587.39	35.515
587.72	36.073
588.06	36.393
588.39	36.077
588.73	36.462
589.06	36.927
589.40	36.936
589.73	37.029
590.07	37.153
590.40	37.157
590.73	38.251
591.07	38.624
591.40	38.085
591.74	39.177
592.07	38.307
592.41	37.412
592.74	36.517
593.08	35.643
593.41	35.811
593.75	35.197
594.08	36.138
594.41	37.080
594.75	36.858
595.08	36.256
595.42	36.637
595.75	36.432
596.09	37.589
596.42	36.896
596.75	37.062
597.09	38.398
597.42	36.931
597.75	36.999
598.09	37.130
598.42	37.285
598.76	37.495
599.09	36.146
599.42	36.390
599.76	36.164
600.09	36.284
600.42	35.939
600.76	35.000
601.09	35.993
601.42	35.693
601.76	36.167
602.09	36.324
602.42	36.863
602.76	36.074
603.09	36.703
603.42	37.056
603.76	36.395
604.09	35.556
604.42	36.690
604.76	37.495
605.09	36.610
605.42	36.469
605.75	36.507
606.09	36.560
606.42	36.330
606.75	36.168
607.09	36.082
607.42	36.671
607.75	35.570
608.08	37.256
608.42	36.710
608.75	36.790
609.08	37.049
609.41	36.840
609.75	35.636
610.08	37.135
610.41	36.546
610.74	36.660
611.07	37.352
611.41	36.997
611.74	37.959
612.07	36.905
612.40	38.038
612.73	37.053
613.07	38.416
613.40	37.125
613.73	36.969
614.06	37.258
614.39	36.759
614.72	37.579
615.06	36.660
615.39	36.146
615.72	35.225
616.05	36.789
616.38	37.743
616.71	37.945
617.05	38.221
617.38	38.004
617.71	37.838
618.04	38.341
618.37	36.901
618.70	38.021
619.03	38.421
619.36	38.425
619.69	39.437
620.03	39.423
620.36	38.636
620.69	39.041
621.02	40.118
621.35	39.937
621.68	39.486
622.01	39.628
622.34	39.410
622.67	39.772
623.00	38.225
623.33	38.885
623.66	38.599
623.99	38.218
624.32	37.874
624.65	39.548
624.99	39.093
625.32	37.581
625.65	38.918
625.98	39.354
626.31	39.347
626.64	40.245
626.97	40.150
627.30	39.485
627.63	39.212
627.96	40.286
628.29	38.933
628.62	42.177
628.95	42.358
629.28	40.511
629.61	40.880
629.94	41.714
630.26	40.610
630.59	40.133
630.92	42.529
631.25	41.955
631.58	40.541
631.91	42.495
632.24	41.456
632.57	41.343
632.90	43.421
633.23	43.960
633.56	43.842
633.89	42.469
634.22	42.565
634.55	43.432
634.88	43.832
635.20	42.772
635.53	42.651
635.86	46.163
636.19	41.294
636.52	42.445
636.85	41.695
637.18	40.668
637.51	42.671
637.83	40.567
638.16	43.350
638.49	44.081
638.82	44.627
639.15	44.000
639.48	42.893
639.81	43.968
640.13	44.792
640.46	42.685
640.79	42.668
641.12	42.641
641.45	45.251
641.77	45.508
642.10	44.152
642.43	45.345
642.76	42.879
643.09	46.319
643.41	44.006
643.74	47.840
644.07	45.122
644.40	44.632
644.73	46.772
645.05	45.483
645.38	43.444
645.71	45.089
646.04	48.007
646.36	46.912
646.69	46.823
647.02	46.599
647.35	45.533
647.67	46.018
648.00	46.179
648.33	46.535
648.66	44.545
648.98	43.028
649.31	42.601
649.64	42.601
649.96	42.474
650.29	45.814
650.62	43.042
650.94	43.436
651.27	46.959
651.60	44.925
651.92	45.367
652.25	43.811
652.58	43.769
652.90	43.918
653.23	41.602
653.56	43.150
653.88	44.374
654.21	44.708
654.54	43.399
654.86	42.368
655.19	38.378
655.52	29.767
655.84	26.860
656.17	33.328
656.49	45.006
656.82	45.663
657.15	34.574
657.47	25.764
657.80	19.985
658.13	21.330
658.45	31.592
658.78	32.352
659.10	34.197
659.43	35.500
659.75	38.053
660.08	41.203
660.41	43.855
660.73	44.346
661.06	44.586
661.38	46.000
661.71	45.385
662.03	47.535
662.36	43.936
662.68	44.779
663.01	44.040
663.33	43.737
663.66	48.109
663.98	47.084
664.31	46.218
664.63	43.320
664.96	44.266
665.28	48.156
665.61	44.250
665.93	42.656
666.26	43.813
666.58	45.607
666.91	44.397
667.23	48.315
667.56	45.572
667.88	42.735
668.21	47.122
668.53	45.336
668.86	46.104
669.18	49.680
669.50	46.087
669.83	46.841
670.15	44.444
670.48	43.355
670.80	45.259
671.13	44.374
671.45	42.553
671.77	46.232
672.10	43.623
672.42	42.580
672.75	41.791
673.07	41.901
673.39	41.953
673.72	42.188
674.04	43.922
674.37	40.971
674.69	44.172
675.01	41.632
675.34	44.559
675.66	44.000
675.98	42.159
676.31	43.908
676.63	45.011
676.95	44.864
677.28	45.794
677.60	43.297
677.92	44.093
678.25	43.737
678.57	43.825
678.89	42.084
679.22	43.222
679.54	44.656
679.86	40.734
680.18	42.039
680.51	41.312
680.83	40.391
681.15	43.208
681.48	44.991
681.80	43.133
682.12	41.571
682.44	40.039
682.77	43.585
683.09	45.064
683.41	44.789
683.73	42.384
684.06	43.388
684.38	41.292
684.70	40.116
685.02	42.026
685.34	40.659
685.67	41.259
685.99	39.175
686.31	39.590
686.63	37.456
686.96	40.357
687.28	40.794
687.60	38.949
687.92	40.037
688.24	40.304
688.56	43.976
688.89	42.946
689.21	47.817
689.53	43.424
689.85	44.568
690.17	38.095
690.49	43.312
690.82	43.692
691.14	41.295
691.46	38.397
691.78	38.755
692.10	41.322
692.42	39.721
692.74	42.739
693.06	39.149
693.39	43.326
693.71	39.520
694.03	44.421
694.35	41.126
694.67	40.961
694.99	45.610
695.31	42.402
695.63	40.670
695.95	44.988
696.27	42.640
696.59	44.041
696.91	44.041
697.23	39.202
697.56	40.938
697.88	39.059
698.20	42.708
698.52	40.645
698.84	38.976
699.16	41.475
699.48	42.755
699.80	42.512
700.12	47.792
700.44	44.562
700.76	43.923
701.08	46.552
701.40	45.810
701.72	45.190
702.04	50.000
702.36	42.493
702.68	43.059
703.00	42.382
703.32	40.691
703.64	42.895
703.96	42.061
704.28	40.988
704.60	44.868
704.91	47.181
705.23	43.988
705.55	48.173
705.87	49.502
706.19	44.170
706.51	45.794
706.83	42.727
707.15	45.658
707.47	39.141
707.79	40.786
708.11	39.269
708.43	39.048
708.74	43.112
709.06	45.714
709.38	40.682
709.70	43.023
710.02	47.478
710.34	40.303
710.66	44.179
710.98	47.443
711.29	40.116
711.61	42.773
711.93	41.346
712.25	50.482
712.57	45.956
712.89	42.907
713.20	43.465
713.52	41.447
713.84	48.418
714.16	42.683
714.48	39.368
714.80	46.809
715.11	41.787
715.43	46.588
715.75	41.159
716.07	44.728
716.39	39.185
716.70	47.176
717.02	38.849
717.34	46.290
717.66	47.388
717.97	50.598
718.29	40.000
718.61	44.526
718.93	44.118
719.24	46.713
719.56	37.627
719.88	47.458
720.20	46.284
720.51	41.812
720.83	43.866
721.15	45.149
721.46	47.518
721.78	45.161
722.10	45.283
722.42	47.744
722.73	47.566
723.05	48.770
723.37	44.534
723.68	45.174
724.00	46.748
724.32	44.355
724.63	43.089
724.95	42.678
725.27	51.417
725.58	46.094
725.90	50.730
726.22	48.679
726.53	41.667
726.85	41.297
727.16	43.416
727.48	39.007
727.80	43.939
728.11	41.667
728.43	45.385
728.74	40.502
729.06	49.635
729.38	47.426
729.69	44.128
730.01	38.225
730.32	44.444
730.64	40.468
730.96	39.274
731.27	43.046
731.59	41.590
731.90	44.898
732.22	40.994
732.53	41.796
732.85	38.782
733.16	39.550
733.48	42.857
733.80	39.610
734.11	42.675
734.43	38.757
734.74	38.571
735.06	35.817
735.37	41.329
735.69	36.306
736.00	38.889
736.32	41.433
736.63	36.102
736.95	41.853
737.26	37.075
737.58	36.452
737.89	43.478
738.21	42.662
738.52	43.571
738.83	43.019
739.15	42.692
739.46	45.620
739.78	43.750
740.09	41.538
740.41	40.968
740.72	39.024
741.04	46.296
741.35	42.500
741.66	48.000
741.98	47.642
742.29	46.411
742.61	49.569
742.92	42.986
743.23	45.726
743.55	45.600
743.86	42.982
744.18	47.788
744.49	48.325
744.80	55.399
745.12	43.636
745.43	45.815
745.74	50.901
746.06	44.954
746.37	43.946
746.68	46.606
747.00	49.074
747.31	50.476
747.62	46.903
747.94	43.612
748.25	40.000
748.56	48.899
748.88	44.554
749.19	53.500
749.50	46.977
749.82	38.211
750.13	42.857
750.44	43.796
750.75	45.965
751.07	40.836
751.38	41.463
751.69	42.960
752.01	43.233
752.32	36.462
752.63	36.525
752.94	39.344
753.26	42.000
753.57	40.650
753.88	44.141
754.19	39.286
754.51	39.583
754.82	40.072
755.13	44.151
755.44	42.857
755.75	38.321
756.07	38.298
756.38	35.036
756.69	39.597
757.00	37.425
757.31	37.389
757.63	35.673
757.94	34.048
758.25	33.824
758.56	33.580
758.87	37.634
759.18	36.970
759.50	36.364
759.81	38.629
760.12	35.938
760.43	39.255
760.74	33.152
761.05	37.288
761.36	34.759
761.67	40.057
761.99	35.093
762.30	38.889
762.61	40.458
762.92	40.625
763.23	39.496
763.54	40.800
763.85	40.234
764.16	43.077
764.47	38.403
764.78	38.163
765.10	37.342
765.41	34.218
765.72	35.629
766.03	35.110
766.34	38.000
766.65	42.553
766.96	41.453
767.27	44.670
767.58	48.438
767.89	52.632
768.20	47.126
768.51	48.223
768.82	43.578
769.13	34.553
769.44	40.486
769.75	42.060
770.06	34.862
770.37	44.796
770.68	40.741
770.99	41.778
771.30	38.115
771.61	44.843
771.92	38.525
772.23	45.378
772.54	43.590
772.85	48.691
773.16	46.809
773.47	47.826
773.78	47.208
774.09	41.667
774.39	50.877
774.70	43.210
775.01	52.174
775.32	52.941
775.63	45.395
775.94	46.043
776.25	51.181
776.56	52.985
776.87	58.197
777.18	47.656
777.48	48.855
777.79	53.030
778.10	56.296
778.41	58.036
778.72	47.445
779.03	44.966
779.34	47.651
779.65	50.676
779.95	51.534
780.26	51.634
780.57	50.345
780.88	59.375
781.19	51.128
781.50	50.000
781.80	42.138
782.11	37.853
782.42	47.468
782.73	50.307
783.04	48.649
783.34	47.887
783.65	52.740
783.96	47.761
784.27	39.860
784.57	51.079
784.88	49.074
785.19	59.524
785.50	57.547
785.81	58.955
786.11	50.000
786.42	51.163
786.73	51.327
787.04	53.774
787.34	58.929
787.65	53.000
787.96	56.757
788.26	52.066
788.57	60.169
788.88	52.066
789.19	48.611
789.49	50.758
789.80	51.908
790.11	61.905
790.41	50.495
790.72	62.651
791.03	66.304
791.33	59.302
791.64	67.010
791.95	48.515
792.25	56.667
792.56	81.818
792.87	73.077
793.17	69.620
793.48	65.517
793.79	54.023
794.09	75.000
794.40	45.378
794.70	50.735
795.01	48.889
795.32	45.324
795.62	52.756
795.93	54.310
796.23	54.867
796.54	49.412
796.85	55.405
797.15	76.056
797.46	50.000
797.76	67.470
798.07	69.620
798.37	63.077
798.68	65.152
798.99	61.972
799.29	68.831
799.60	62.500
799.90	60.274
800.21	77.612
800.51	63.793
800.82	89.474
801.12	63.934
801.43	62.121
801.73	50.000
802.04	77.778
802.34	65.432
802.65	84.375
802.95	59.322
803.26	73.438
803.56	64.286
803.87	55.385
804.17	69.118
804.48	94.444
804.78	70.690
805.09	76.471
805.39	76.923
805.70	75.000
806.00	80.328
806.30	51.515
806.61	56.098
806.91	73.418
807.22	71.053
807.52	62.687
807.83	70.423
808.13	73.438
808.43	81.667
808.74	55.263
809.04	81.159
809.35	94.030
809.65	72.368
809.95	82.258
810.26	67.797
810.56	79.365
810.86	97.727
811.17	88.095
811.47	93.333
811.77	66.667
812.08	85.455
812.38	84.000
812.69	111.111
812.99	88.636
813.29	93.878
813.59	52.381
813.90	106.122
814.20	70.909
814.50	63.077
814.81	80.882
815.11	79.592
815.41	73.770
815.72	100.000
816.02	78.182
816.32	90.476
816.62	85.000
816.93	92.683
817.23	107.143
817.53	90.909
817.84	106.061
818.14	97.826
818.44	93.333
818.74	108.824
819.04	100.000
819.35	108.571
819.65	155.882
819.95	125.000
820.25	150.000
820.56	110.256
820.86	104.545
821.16	100.000
821.46	102.564
821.76	116.000
822.07	120.000
822.37	115.000
822.67	96.970
822.97	100.000
823.27	146.429
823.57	113.514
823.88	127.500
824.18	136.667
824.48	121.429
824.78	152.000
825.08	137.500
825.38	121.622
825.69	87.805
825.99	158.333
826.29	117.241
826.59	94.737
826.89	89.474
827.19	126.471
827.49	109.677
827.79	90.909
828.09	84.091
828.39	76.596
828.70	79.592
829.00	144.444
829.30	106.452
829.60	110.000
829.90	186.667
830.20	157.143
830.50	134.783
830.80	147.826
831.10	136.667
831.40	103.333
831.70	121.739
832.00	173.077
832.30	129.630
832.60	212.500
832.90	173.333
833.20	321.429
833.50	145.161
833.80	106.897
834.10	137.500
834.40	142.308
834.70	200.000
835.00	180.952
835.30	114.286
835.60	184.615
835.90	155.172
836.20	264.286
836.50	144.828
836.80	140.000
837.10	122.222
837.40	152.381
837.70	200.000
838.00	114.815
838.30	142.857
838.60	180.952
838.90	157.692
839.19	175.000
839.49	207.143
839.79	210.000
840.09	170.000
840.39	104.762
840.69	173.913
840.99	127.778
841.29	190.000
841.59	141.667
841.88	225.000
842.18	144.828
842.48	204.762
842.78	136.667
843.08	134.783
843.38	121.875
843.68	466.667
843.97	153.846
844.27	124.138
844.57	171.429
844.87	212.500
845.17	129.630
845.47	933.333
845.76	244.444
846.06	147.059
846.36	300.000
846.66	221.429
846.96	200.000
847.25	227.273
847.55	254.545
847.85	143.478
848.15	330.000
848.44	192.857
848.74	144.444
849.04	164.706
849.34	320.000
849.63	184.211
849.93	200.000
850.23	500.000
850.53	278.571
850.82	1450.000
851.12	-2000.000
851.42	1600.000
851.71	165.000
852.01	-500.000
852.31	158.333
852.61	1133.333
852.90	157.143
853.20	156.000
853.50	223.529
853.79	90.476
854.09	212.500
854.39	187.500
854.68	118.919
854.98	116.129
855.28	113.333
855.57	131.034
855.87	133.333
856.17	152.632
856.46	140.000
856.76	176.471
857.05	124.138
857.35	125.000
857.65	200.000
857.94	217.391
858.24	134.615
858.53	180.000
858.83	186.364
859.13	160.000
859.42	0.000
859.72	444.444
860.01	200.000
860.31	154.545
860.60	205.263
860.90	156.522
861.20	322.222
861.49	308.333
861.79	-2800.000
862.08	362.500
862.38	200.000
862.67	192.308
862.97	241.176
863.26	211.111
863.56	200.000
863.85	258.333
864.15	400.000
864.44	206.667
864.74	533.333
865.03	425.000
865.33	189.474
865.62	309.091
865.92	276.923
866.21	216.667
866.51	0.000
866.80	172.727
867.10	520.000
867.39	269.231
867.69	254.545
867.98	205.263
868.27	290.909
868.57	200.000
868.86	-2400.000
869.16	175.000
869.45	1200.000
869.75	-2500.000
870.04	341.667
870.33	428.571
870.63	475.000
870.92	1100.000
871.22	414.286
871.51	258.824
871.80	161.905
872.10	242.857
>>>>>End Processed Spectral Data<<<<<
