SpectraSuite Data File
++++++++++++++++++++++++++++++++++++
Date: Wed May 13 16:02:11 PDT 2015
User: schluterlab
Dark Spectrum Present: Yes
Reference Spectrum Present: Yes
Number of Sampled Component Spectra: 1
Spectrometers: USB2E3373
Integration Time (usec): 3000 (USB2E3373)
Spectra Averaged: 3 (USB2E3373)
Boxcar Smoothing: 0 (USB2E3373)
Correct for Electrical Dark: No (USB2E3373)
Strobe/Lamp Enabled: No (USB2E3373)
Correct for Detector Non-linearity: No (USB2E3373)
Correct for Stray Light: No (USB2E3373)
Number of Pixels in Processed Spectrum: 2048
>>>>>Begin Processed Spectral Data<<<<<
178.53	0.000
178.91	-700.000
179.29	-600.000
179.67	-72.222
180.04	-525.000
180.42	750.000
180.80	480.000
181.18	-225.000
181.56	200.000
181.94	0.000
182.31	-142.857
182.69	833.333
183.07	-225.000
183.45	-177.778
183.83	190.909
184.20	-80.000
184.58	950.000
184.96	2800.000
185.34	-200.000
185.72	-175.000
186.09	-750.000
186.47	1350.000
186.85	750.000
187.23	1200.000
187.61	-733.333
187.98	500.000
188.36	254.545
188.74	218.182
189.12	-240.000
189.49	210.000
189.87	-2000.000
190.25	-400.000
190.63	171.429
191.00	207.692
191.38	350.000
191.76	-225.000
192.14	700.000
192.51	275.000
192.89	516.667
193.27	287.500
193.65	-475.000
194.02	130.000
194.40	100.000
194.78	250.000
195.15	266.667
195.53	250.000
195.91	-100.000
196.29	156.250
196.66	126.316
197.04	-60.000
197.42	0.000
197.79	330.000
198.17	-900.000
198.55	200.000
198.92	362.500
199.30	320.000
199.68	0.000
200.05	133.333
200.43	385.714
200.81	1900.000
201.18	800.000
201.56	-600.000
201.94	277.778
202.31	311.111
202.69	158.333
203.07	270.000
203.44	0.000
203.82	750.000
204.19	285.714
204.57	164.286
204.95	250.000
205.32	533.333
205.70	272.727
206.08	78.571
206.45	650.000
206.83	137.500
207.20	300.000
207.58	220.000
207.96	166.667
208.33	375.000
208.71	-300.000
209.08	371.429
209.46	288.889
209.84	236.364
210.21	-433.333
210.59	475.000
210.96	-112.500
211.34	900.000
211.71	310.000
212.09	216.667
212.46	0.000
212.84	566.667
213.22	700.000
213.59	-1200.000
213.97	333.333
214.34	214.286
214.72	281.818
215.09	340.000
215.47	-900.000
215.84	-1000.000
216.22	600.000
216.59	214.286
216.97	425.000
217.34	136.364
217.72	-333.333
218.09	0.000
218.47	-800.000
218.84	277.778
219.22	285.714
219.59	866.667
219.97	-85.714
220.34	480.000
220.72	-600.000
221.09	157.143
221.47	800.000
221.84	-383.333
222.22	0.000
222.59	575.000
222.97	-800.000
223.34	540.000
223.72	176.923
224.09	480.000
224.46	950.000
224.84	-1000.000
225.21	-400.000
225.59	-2100.000
225.96	190.000
226.34	130.000
226.71	1150.000
227.08	150.000
227.46	310.000
227.83	-325.000
228.21	-700.000
228.58	288.889
228.95	-700.000
229.33	-850.000
229.70	833.333
230.08	385.714
230.45	-240.000
230.82	175.000
231.20	316.667
231.57	342.857
231.95	125.000
232.32	127.273
232.69	63.636
233.07	371.429
233.44	130.769
233.81	-500.000
234.19	126.316
234.56	191.667
234.93	100.000
235.31	118.182
235.68	46.154
236.05	150.000
236.43	39.394
236.80	121.053
237.17	1800.000
237.55	114.286
237.92	71.429
238.29	38.095
238.67	87.097
239.04	124.138
239.41	72.222
239.79	78.261
240.16	76.190
240.53	29.545
240.91	33.333
241.28	30.000
241.65	50.000
242.02	59.420
242.40	46.774
242.77	45.000
243.14	43.011
243.51	49.438
243.89	35.294
244.26	33.333
244.63	32.258
245.00	41.489
245.38	27.723
245.75	30.841
246.12	18.349
246.49	35.036
246.87	36.000
247.24	40.000
247.61	27.143
247.98	30.065
248.36	24.324
248.73	30.573
249.10	28.662
249.47	30.508
249.84	30.481
250.22	26.738
250.59	21.893
250.96	26.263
251.33	28.436
251.70	28.218
252.08	21.905
252.45	22.422
252.82	23.478
253.19	25.957
253.56	26.667
253.94	20.332
254.31	21.875
254.68	26.154
255.05	20.295
255.42	23.984
255.79	26.471
256.16	25.271
256.54	23.675
256.91	22.064
257.28	17.626
257.65	21.122
258.02	23.602
258.39	23.659
258.76	21.405
259.14	22.321
259.51	22.796
259.88	20.186
260.25	21.148
260.62	19.364
260.99	22.981
261.36	19.820
261.73	20.057
262.10	19.186
262.47	20.845
262.85	20.891
263.22	18.803
263.59	24.217
263.96	17.582
264.33	20.627
264.70	19.474
265.07	22.506
265.44	20.960
265.81	16.302
266.18	20.352
266.55	22.195
266.92	19.410
267.29	22.222
267.66	19.725
268.03	22.273
268.40	19.626
268.77	22.434
269.14	20.045
269.51	22.573
269.88	17.483
270.25	20.993
270.62	20.899
270.99	22.366
271.36	20.172
271.73	20.561
272.10	18.043
272.47	22.581
272.84	20.346
273.21	22.432
273.58	17.686
273.95	18.868
274.32	18.595
274.69	20.343
275.06	18.110
275.43	21.277
275.80	18.637
276.17	19.756
276.54	21.414
276.91	19.368
277.28	16.992
277.65	17.408
278.02	19.048
278.39	19.141
278.76	18.727
279.13	17.547
279.50	17.318
279.87	20.717
280.23	19.760
280.60	17.602
280.97	17.745
281.34	18.938
281.71	18.909
282.08	19.194
282.45	18.000
282.82	17.940
283.19	15.330
283.56	17.018
283.92	18.951
284.29	16.931
284.66	17.060
285.03	16.637
285.40	18.662
285.77	16.498
286.14	18.135
286.51	18.833
286.87	16.923
287.24	20.033
287.61	17.496
287.98	18.506
288.35	17.591
288.72	17.134
289.08	19.405
289.45	16.969
289.82	17.236
290.19	17.111
290.56	17.305
290.93	14.048
291.29	15.644
291.66	14.602
292.03	19.331
292.40	17.181
292.77	15.385
293.13	16.119
293.50	17.055
293.87	15.111
294.24	15.111
294.60	14.265
294.97	15.698
295.34	16.502
295.71	16.477
296.08	16.097
296.44	16.369
296.81	14.003
297.18	13.415
297.55	12.665
297.91	13.852
298.28	15.127
298.65	15.274
299.02	14.097
299.38	14.608
299.75	11.456
300.12	13.027
300.48	15.375
300.85	13.933
301.22	14.522
301.59	13.384
301.95	13.476
302.32	14.121
302.69	13.978
303.05	13.576
303.42	14.444
303.79	14.383
304.15	13.753
304.52	11.819
304.89	13.705
305.25	12.297
305.62	14.156
305.99	14.876
306.35	13.982
306.72	14.126
307.09	14.539
307.45	14.977
307.82	12.500
308.19	14.128
308.55	14.779
308.92	14.071
309.29	13.833
309.65	13.362
310.02	15.011
310.38	15.161
310.75	13.622
311.12	13.920
311.48	14.525
311.85	14.780
312.22	13.632
312.58	14.865
312.95	15.523
313.31	14.078
313.68	16.424
314.05	17.357
314.41	16.181
314.78	14.502
315.14	16.783
315.51	15.654
315.87	16.535
316.24	16.385
316.61	16.862
316.97	17.123
317.34	15.656
317.70	16.922
318.07	17.806
318.43	15.851
318.80	18.088
319.16	17.891
319.53	17.636
319.89	18.381
320.26	18.000
320.62	20.337
320.99	19.192
321.35	18.889
321.72	18.480
322.08	19.842
322.45	20.299
322.81	21.318
323.18	21.098
323.54	22.078
323.91	22.075
324.27	21.702
324.64	22.740
325.00	21.280
325.37	24.568
325.73	24.057
326.10	26.214
326.46	25.090
326.83	27.179
327.19	25.534
327.56	26.132
327.92	27.209
328.29	27.773
328.65	27.993
329.01	28.069
329.38	28.955
329.74	27.886
330.11	29.877
330.47	29.293
330.84	30.974
331.20	29.508
331.56	30.459
331.93	31.389
332.29	28.571
332.66	31.416
333.02	30.987
333.38	30.804
333.75	32.620
334.11	30.783
334.48	31.588
334.84	31.158
335.20	31.818
335.57	31.822
335.93	29.821
336.29	31.502
336.66	30.839
337.02	30.317
337.38	32.037
337.75	30.036
338.11	31.961
338.47	30.387
338.84	31.714
339.20	30.183
339.56	32.391
339.93	31.182
340.29	30.616
340.65	31.818
341.02	30.803
341.38	31.406
341.74	31.228
342.11	32.314
342.47	32.335
342.83	31.849
343.20	30.216
343.56	31.171
343.92	30.877
344.28	30.442
344.65	30.868
345.01	30.640
345.37	29.588
345.73	30.118
346.10	29.923
346.46	30.339
346.82	30.395
347.19	31.078
347.55	30.624
347.91	30.178
348.27	30.403
348.63	29.431
349.00	30.987
349.36	30.296
349.72	28.949
350.08	30.875
350.45	31.164
350.81	29.813
351.17	31.361
351.53	30.876
351.89	29.125
352.26	30.229
352.62	30.233
352.98	30.389
353.34	31.471
353.70	30.933
354.07	30.806
354.43	29.286
354.79	29.606
355.15	29.689
355.51	30.695
355.87	31.265
356.24	30.945
356.60	29.832
356.96	29.204
357.32	30.417
357.68	29.055
358.04	30.721
358.40	30.483
358.77	30.751
359.13	30.071
359.49	29.725
359.85	28.810
360.21	31.021
360.57	30.039
360.93	31.077
361.29	29.932
361.66	30.031
362.02	30.821
362.38	31.179
362.74	31.473
363.10	29.534
363.46	28.760
363.82	30.612
364.18	31.498
364.54	31.426
364.90	31.870
365.26	31.029
365.62	31.410
365.98	29.803
366.35	30.229
366.71	30.152
367.07	30.371
367.43	30.769
367.79	31.977
368.15	32.112
368.51	29.942
368.87	31.834
369.23	30.944
369.59	31.644
369.95	30.368
370.31	31.268
370.67	30.652
371.03	31.685
371.39	31.122
371.75	32.721
372.11	30.868
372.47	31.745
372.83	31.988
373.19	30.419
373.55	32.151
373.91	32.622
374.27	31.203
374.63	31.055
374.99	32.062
375.35	30.914
375.71	31.871
376.07	32.305
376.42	32.944
376.78	33.532
377.14	32.090
377.50	32.583
377.86	31.915
378.22	31.922
378.58	32.331
378.94	32.998
379.30	33.015
379.66	33.756
380.02	34.029
380.38	32.301
380.74	33.553
381.09	33.252
381.45	33.743
381.81	34.152
382.17	34.459
382.53	33.333
382.89	34.074
383.25	34.271
383.61	35.564
383.97	33.959
384.32	34.061
384.68	33.953
385.04	33.927
385.40	33.994
385.76	34.214
386.12	34.456
386.48	34.298
386.83	35.536
387.19	35.931
387.55	35.250
387.91	35.429
388.27	34.948
388.62	34.665
388.98	34.582
389.34	34.919
389.70	35.561
390.06	35.615
390.42	35.344
390.77	34.860
391.13	35.418
391.49	35.914
391.85	36.092
392.20	35.079
392.56	35.038
392.92	34.844
393.28	33.905
393.64	35.731
393.99	34.881
394.35	34.988
394.71	34.567
395.07	35.514
395.42	35.290
395.78	34.987
396.14	35.071
396.50	36.090
396.85	35.410
397.21	35.512
397.57	35.772
397.92	35.036
398.28	34.361
398.64	35.185
399.00	35.255
399.35	34.856
399.71	34.664
400.07	36.251
400.42	35.337
400.78	34.982
401.14	35.427
401.49	35.463
401.85	35.572
402.21	34.371
402.57	35.287
402.92	35.246
403.28	35.353
403.63	35.334
403.99	34.841
404.35	35.091
404.70	35.012
405.06	34.304
405.42	34.747
405.77	34.457
406.13	35.214
406.49	34.831
406.84	34.259
407.20	35.047
407.55	35.227
407.91	35.067
408.27	35.418
408.62	34.919
408.98	35.172
409.34	34.071
409.69	34.129
410.05	34.758
410.40	36.024
410.76	35.305
411.11	34.560
411.47	33.738
411.83	35.186
412.18	34.261
412.54	35.367
412.89	34.759
413.25	34.947
413.60	35.145
413.96	33.819
414.31	34.994
414.67	35.425
415.03	34.702
415.38	35.503
415.74	34.598
416.09	36.185
416.45	35.743
416.80	35.360
417.16	35.054
417.51	35.965
417.87	34.811
418.22	35.521
418.58	35.959
418.93	35.197
419.29	34.691
419.64	35.453
420.00	35.183
420.35	35.710
420.71	36.641
421.06	34.964
421.42	35.205
421.77	36.379
422.12	35.205
422.48	35.186
422.83	36.284
423.19	35.912
423.54	36.100
423.90	35.826
424.25	34.841
424.61	36.429
424.96	36.851
425.31	35.770
425.67	35.281
426.02	36.286
426.38	37.546
426.73	35.752
427.09	36.292
427.44	35.998
427.79	37.378
428.15	37.143
428.50	35.986
428.85	36.591
429.21	36.996
429.56	36.703
429.92	36.336
430.27	35.849
430.62	35.893
430.98	36.533
431.33	36.959
431.68	37.487
432.04	37.167
432.39	38.035
432.74	38.600
433.10	38.710
433.45	38.542
433.80	38.027
434.16	37.767
434.51	37.526
434.86	38.540
435.22	38.744
435.57	37.994
435.92	37.975
436.28	38.671
436.63	38.411
436.98	38.122
437.34	39.058
437.69	38.040
438.04	38.617
438.39	38.627
438.75	39.105
439.10	39.385
439.45	39.610
439.81	39.335
440.16	39.921
440.51	38.371
440.86	40.069
441.22	38.877
441.57	39.915
441.92	39.509
442.27	39.666
442.63	39.073
442.98	39.662
443.33	39.022
443.68	38.926
444.03	39.580
444.39	39.679
444.74	40.260
445.09	39.946
445.44	40.241
445.79	39.584
446.15	39.651
446.50	40.226
446.85	39.877
447.20	41.203
447.55	41.318
447.91	41.699
448.26	41.180
448.61	41.323
448.96	41.417
449.31	42.632
449.66	40.912
450.02	41.114
450.37	41.156
450.72	41.117
451.07	40.890
451.42	41.945
451.77	42.924
452.12	41.628
452.47	41.045
452.83	42.191
453.18	42.726
453.53	42.486
453.88	41.288
454.23	41.721
454.58	42.762
454.93	43.357
455.28	42.082
455.63	43.143
455.98	42.560
456.34	42.085
456.69	43.143
457.04	43.344
457.39	42.724
457.74	41.846
458.09	42.323
458.44	42.531
458.79	41.432
459.14	43.736
459.49	42.323
459.84	42.715
460.19	42.133
460.54	41.435
460.89	42.732
461.24	43.716
461.59	44.800
461.94	41.800
462.29	44.214
462.64	43.714
462.99	41.574
463.34	43.000
463.69	43.465
464.04	43.188
464.39	42.609
464.74	42.543
465.09	43.064
465.44	43.047
465.79	43.065
466.14	42.638
466.49	42.214
466.84	42.849
467.19	42.788
467.54	43.125
467.89	43.577
468.24	43.397
468.59	43.895
468.94	43.983
469.29	43.059
469.64	44.110
469.99	43.166
470.34	44.716
470.68	44.181
471.03	44.082
471.38	45.379
471.73	44.037
472.08	45.329
472.43	44.535
472.78	44.305
473.13	43.517
473.48	44.132
473.83	45.854
474.17	43.933
474.52	44.727
474.87	43.958
475.22	44.109
475.57	42.880
475.92	44.503
476.27	42.897
476.61	44.291
476.96	43.485
477.31	43.642
477.66	44.420
478.01	43.283
478.36	44.685
478.70	44.496
479.05	44.941
479.40	44.729
479.75	44.738
480.10	43.141
480.45	43.265
480.79	43.430
481.14	44.765
481.49	44.186
481.84	42.890
482.19	44.298
482.53	44.083
482.88	44.114
483.23	45.607
483.58	44.131
483.92	44.096
484.27	43.268
484.62	44.095
484.97	43.043
485.31	43.014
485.66	41.568
486.01	40.567
486.36	39.462
486.70	39.074
487.05	40.189
487.40	40.526
487.75	41.840
488.09	42.311
488.44	43.095
488.79	44.159
489.13	44.156
489.48	44.290
489.83	43.979
490.17	44.980
490.52	44.508
490.87	44.776
491.22	44.566
491.56	44.055
491.91	44.765
492.26	44.740
492.60	44.147
492.95	44.107
493.30	43.738
493.64	45.077
493.99	43.965
494.34	44.403
494.68	45.513
495.03	45.677
495.37	45.137
495.72	44.883
496.07	45.012
496.41	43.717
496.76	43.931
497.11	43.359
497.45	43.968
497.80	44.050
498.14	45.266
498.49	44.244
498.84	44.871
499.18	44.571
499.53	44.682
499.87	44.641
500.22	45.078
500.56	45.728
500.91	43.462
501.26	45.092
501.60	45.278
501.95	43.584
502.29	45.127
502.64	45.484
502.98	44.974
503.33	45.201
503.67	44.548
504.02	44.715
504.36	43.566
504.71	45.481
505.06	45.349
505.40	45.455
505.75	44.552
506.09	44.606
506.44	45.634
506.78	46.079
507.13	45.482
507.47	45.152
507.82	46.150
508.16	45.998
508.51	46.169
508.85	44.191
509.19	45.714
509.54	45.204
509.88	45.131
510.23	45.553
510.57	46.440
510.92	46.815
511.26	45.118
511.61	44.865
511.95	44.937
512.30	46.501
512.64	45.244
512.98	45.874
513.33	45.503
513.67	44.984
514.02	46.104
514.36	46.477
514.70	46.486
515.05	45.789
515.39	46.158
515.74	47.185
516.08	45.836
516.42	46.726
516.77	46.656
517.11	45.671
517.46	46.783
517.80	47.387
518.14	46.323
518.49	48.075
518.83	46.761
519.17	46.247
519.52	46.067
519.86	46.606
520.20	46.821
520.55	47.217
520.89	48.114
521.23	48.130
521.58	46.999
521.92	48.990
522.26	46.187
522.61	47.165
522.95	46.654
523.29	47.778
523.64	48.293
523.98	47.751
524.32	47.045
524.66	46.843
525.01	47.304
525.35	47.150
525.69	46.490
526.04	46.293
526.38	48.139
526.72	47.546
527.06	47.269
527.41	45.483
527.75	48.424
528.09	49.518
528.43	47.419
528.78	47.326
529.12	45.818
529.46	47.765
529.80	47.772
530.15	47.290
530.49	46.400
530.83	46.392
531.17	48.172
531.51	47.536
531.86	46.387
532.20	48.175
532.54	47.726
532.88	46.855
533.22	46.034
533.57	46.235
533.91	44.551
534.25	45.504
534.59	45.821
534.93	45.925
535.27	46.530
535.62	45.726
535.96	46.202
536.30	46.980
536.64	46.684
536.98	47.644
537.32	47.202
537.66	47.000
538.01	47.400
538.35	46.671
538.69	47.735
539.03	46.914
539.37	45.495
539.71	45.690
540.05	46.928
540.39	46.977
540.73	45.602
541.07	46.463
541.42	46.641
541.76	45.871
542.10	47.154
542.44	45.960
542.78	47.365
543.12	45.617
543.46	46.361
543.80	47.235
544.14	45.828
544.48	47.683
544.82	45.863
545.16	46.194
545.50	46.015
545.84	46.438
546.18	46.869
546.52	47.419
546.86	47.629
547.20	47.943
547.54	45.291
547.88	46.875
548.22	45.268
548.56	45.975
548.90	45.583
549.24	45.253
549.58	45.293
549.92	46.429
550.26	47.372
550.60	45.781
550.94	46.972
551.28	46.379
551.62	45.579
551.96	46.175
552.30	45.529
552.64	47.532
552.98	46.576
553.32	45.651
553.66	44.717
554.00	46.328
554.34	45.618
554.68	45.279
555.02	45.769
555.36	45.372
555.69	44.384
556.03	46.433
556.37	46.453
556.71	45.566
557.05	46.218
557.39	45.766
557.73	44.954
558.07	46.846
558.41	46.961
558.75	45.555
559.08	46.532
559.42	46.939
559.76	46.250
560.10	46.824
560.44	45.912
560.78	45.842
561.12	43.734
561.45	45.046
561.79	43.771
562.13	46.211
562.47	46.380
562.81	46.444
563.15	45.552
563.48	45.955
563.82	45.075
564.16	45.520
564.50	44.987
564.84	44.880
565.17	45.174
565.51	45.942
565.85	46.193
566.19	44.396
566.52	45.472
566.86	44.183
567.20	44.870
567.54	43.493
567.88	43.726
568.21	42.222
568.55	43.225
568.89	42.315
569.23	41.488
569.56	40.850
569.90	40.189
570.24	40.366
570.57	39.068
570.91	38.752
571.25	38.326
571.59	39.087
571.92	38.278
572.26	38.879
572.60	38.829
572.93	37.781
573.27	39.101
573.61	38.079
573.95	38.088
574.28	37.764
574.62	37.488
574.96	36.846
575.29	37.197
575.63	37.424
575.97	37.620
576.30	37.679
576.64	37.832
576.98	37.871
577.31	37.708
577.65	37.416
577.98	37.173
578.32	36.338
578.66	36.499
578.99	36.727
579.33	37.085
579.67	36.998
580.00	37.209
580.34	37.708
580.67	37.296
581.01	37.598
581.35	36.572
581.68	36.656
582.02	35.823
582.35	36.203
582.69	36.422
583.02	36.367
583.36	37.330
583.70	37.887
584.03	37.800
584.37	37.945
584.70	38.114
585.04	37.011
585.37	37.069
585.71	36.983
586.04	36.627
586.38	37.409
586.72	37.006
587.05	37.517
587.39	37.124
587.72	37.619
588.06	37.647
588.39	37.970
588.73	38.398
589.06	38.641
589.40	38.519
589.73	38.261
590.07	38.612
590.40	38.180
590.73	40.164
591.07	40.049
591.40	40.152
591.74	40.996
592.07	39.965
592.41	39.644
592.74	38.090
593.08	38.308
593.41	38.089
593.75	36.821
594.08	37.680
594.41	38.530
594.75	38.891
595.08	38.225
595.42	38.564
595.75	38.746
596.09	39.767
596.42	39.332
596.75	39.257
597.09	40.173
597.42	38.111
597.75	38.853
598.09	39.652
598.42	38.488
598.76	39.319
599.09	38.046
599.42	37.773
599.76	37.592
600.09	37.778
600.42	37.327
600.76	36.821
601.09	37.814
601.42	37.976
601.76	38.786
602.09	37.984
602.42	38.455
602.76	38.976
603.09	38.552
603.42	39.086
603.76	37.843
604.09	37.573
604.42	38.810
604.76	38.633
605.09	39.056
605.42	38.307
605.75	38.990
606.09	37.780
606.42	38.741
606.75	38.158
607.09	37.924
607.42	38.468
607.75	37.722
608.08	38.037
608.42	38.503
608.75	37.962
609.08	38.205
609.41	39.124
609.75	38.447
610.08	39.491
610.41	38.547
610.74	38.884
611.07	39.081
611.41	39.500
611.74	39.718
612.07	39.959
612.40	40.241
612.73	39.842
613.07	39.925
613.40	39.863
613.73	39.434
614.06	39.785
614.39	39.119
614.72	40.000
615.06	39.443
615.39	39.172
615.72	38.548
616.05	39.607
616.38	39.633
616.71	41.211
617.05	40.872
617.38	40.529
617.71	40.060
618.04	42.007
618.37	40.035
618.70	41.444
619.03	40.000
619.36	40.054
619.69	40.986
620.03	40.934
620.36	41.377
620.69	42.534
621.02	41.445
621.35	42.522
621.68	42.368
622.01	42.415
622.34	41.831
622.67	42.662
623.00	41.086
623.33	39.957
623.66	41.101
623.99	41.679
624.32	42.154
624.65	40.537
624.99	40.510
625.32	41.202
625.65	42.675
625.98	41.430
626.31	41.680
626.64	42.286
626.97	42.477
627.30	43.641
627.63	41.674
627.96	42.389
628.29	43.132
628.62	45.471
628.95	43.962
629.28	45.073
629.61	43.263
629.94	44.857
630.26	43.756
630.59	44.137
630.92	43.008
631.25	44.028
631.58	44.645
631.91	44.320
632.24	44.409
632.57	45.226
632.90	44.737
633.23	44.743
633.56	47.006
633.89	45.187
634.22	44.608
634.55	48.757
634.88	45.749
635.20	47.312
635.53	46.506
635.86	46.287
636.19	46.353
636.52	44.752
636.85	45.934
637.18	44.240
637.51	45.981
637.83	43.896
638.16	46.931
638.49	46.222
638.82	48.799
639.15	45.500
639.48	45.761
639.81	46.247
640.13	46.875
640.46	48.322
640.79	46.499
641.12	45.254
641.45	46.648
641.77	48.748
642.10	47.515
642.43	47.598
642.76	48.142
643.09	48.313
643.41	47.496
643.74	49.846
644.07	46.037
644.40	46.779
644.73	49.291
645.05	49.128
645.38	47.393
645.71	49.597
646.04	49.502
646.36	51.252
646.69	49.833
647.02	49.660
647.35	48.282
647.67	49.381
648.00	48.780
648.33	49.175
648.66	46.515
648.98	45.427
649.31	43.498
649.64	48.281
649.96	45.156
650.29	45.814
650.62	45.955
650.94	49.595
651.27	48.986
651.60	47.421
651.92	46.326
652.25	45.928
652.58	46.106
652.90	46.761
653.23	45.917
653.56	46.299
653.88	46.276
654.21	48.183
654.54	47.030
654.86	45.639
655.19	43.919
655.52	32.277
655.84	28.459
656.17	35.315
656.49	47.510
656.82	47.674
657.15	36.135
657.47	27.342
657.80	21.206
658.13	22.214
658.45	33.739
658.78	33.648
659.10	35.782
659.43	36.590
659.75	38.008
660.08	40.949
660.41	45.065
660.73	45.362
661.06	45.701
661.38	48.182
661.71	50.192
662.03	50.099
662.36	43.738
662.68	52.008
663.01	50.303
663.33	49.257
663.66	49.160
663.98	50.756
664.31	47.689
664.63	47.368
664.96	44.064
665.28	47.131
665.61	46.784
665.93	47.082
666.26	47.667
666.58	47.490
666.91	48.203
667.23	48.764
667.56	45.140
667.88	48.504
668.21	52.239
668.53	48.807
668.86	47.835
669.18	50.107
669.50	44.565
669.83	50.763
670.15	50.000
670.48	49.673
670.80	47.198
671.13	48.832
671.45	46.383
671.77	49.695
672.10	44.917
672.42	43.993
672.75	43.118
673.07	43.310
673.39	45.389
673.72	46.875
674.04	45.098
674.37	46.796
674.69	46.421
675.01	46.862
675.34	47.023
675.66	48.842
675.98	44.196
676.31	47.479
676.63	49.257
676.95	45.702
677.28	49.766
677.60	45.714
677.92	48.312
678.25	44.353
678.57	45.817
678.89	44.489
679.22	43.222
679.54	46.374
679.86	44.404
680.18	43.649
680.51	44.504
680.83	42.705
681.15	43.019
681.48	48.393
681.80	43.520
682.12	42.912
682.44	41.973
682.77	46.436
683.09	48.283
683.41	48.115
683.73	42.605
684.06	45.248
684.38	43.640
684.70	43.798
685.02	44.090
685.34	43.956
685.67	41.783
685.99	39.863
686.31	41.638
686.63	38.163
686.96	41.429
687.28	42.238
687.60	41.486
687.92	42.962
688.24	41.255
688.56	42.771
688.89	43.983
689.21	45.633
689.53	46.138
689.85	44.568
690.17	43.685
690.49	44.586
690.82	46.495
691.14	46.652
691.46	42.827
691.78	41.767
692.10	45.868
692.42	43.313
692.74	43.154
693.06	42.128
693.39	43.532
693.71	42.795
694.03	44.421
694.35	41.558
694.67	43.021
694.99	44.146
695.31	45.588
695.63	44.737
695.95	44.254
696.27	44.670
696.59	41.710
696.91	47.409
697.23	42.019
697.56	42.644
697.88	42.331
698.20	41.250
698.52	41.075
698.84	43.430
699.16	40.553
699.48	44.656
699.80	43.237
700.12	49.610
700.44	44.297
700.76	48.066
701.08	44.828
701.40	43.855
701.72	47.522
702.04	46.591
702.36	45.042
702.68	45.892
703.00	44.044
703.32	42.021
703.64	43.968
703.96	47.632
704.28	49.419
704.60	49.267
704.91	46.588
705.23	42.522
705.55	47.841
705.87	54.817
706.19	46.290
706.51	44.548
706.83	47.273
707.15	45.658
707.47	43.182
707.79	43.489
708.11	42.237
708.43	40.238
708.74	41.327
709.06	42.857
709.38	43.307
709.70	44.767
710.02	43.620
710.34	48.485
710.66	44.478
710.98	44.602
711.29	40.698
711.61	45.133
711.93	44.231
712.25	43.730
712.57	48.162
712.89	46.367
713.20	40.426
713.52	43.092
713.84	44.304
714.16	44.207
714.48	42.816
714.80	46.505
715.11	42.939
715.43	45.104
715.75	43.478
716.07	44.728
716.39	44.828
716.70	45.847
717.02	51.439
717.34	42.756
717.66	46.642
717.97	50.598
718.29	45.185
718.61	38.686
718.93	45.221
719.24	44.983
719.56	43.390
719.88	42.712
720.20	45.608
720.51	42.857
720.83	45.725
721.15	44.403
721.46	42.908
721.78	44.444
722.10	41.887
722.42	47.744
722.73	42.697
723.05	42.213
723.37	46.154
723.68	44.402
724.00	47.967
724.32	40.726
724.63	44.715
724.95	45.607
725.27	47.773
725.58	48.047
725.90	45.985
726.22	42.642
726.53	42.708
726.85	40.956
727.16	39.146
727.48	41.844
727.80	36.742
728.11	36.594
728.43	39.615
728.74	40.860
729.06	48.175
729.38	44.485
729.69	40.569
730.01	38.567
730.32	39.583
730.64	39.799
730.96	39.934
731.27	42.053
731.59	39.144
731.90	41.691
732.22	39.130
732.53	37.771
732.85	41.987
733.16	38.907
733.48	41.860
733.80	42.532
734.11	37.261
734.43	37.278
734.74	36.857
735.06	38.109
735.37	38.439
735.69	39.172
736.00	41.830
736.32	38.629
736.63	39.297
736.95	38.339
737.26	35.714
737.58	36.452
737.89	41.472
738.21	44.027
738.52	37.143
738.83	41.509
739.15	41.538
739.46	39.416
739.78	39.583
740.09	38.154
740.41	40.968
740.72	33.798
741.04	40.370
741.35	42.500
741.66	48.889
741.98	42.453
742.29	46.890
742.61	45.690
742.92	44.344
743.23	44.444
743.55	46.800
743.86	42.544
744.18	48.673
744.49	47.368
744.80	45.540
745.12	45.455
745.43	41.850
745.74	44.144
746.06	41.743
746.37	49.327
746.68	45.701
747.00	48.148
747.31	48.571
747.62	41.150
747.94	40.529
748.25	40.851
748.56	45.374
748.88	42.574
749.19	48.500
749.50	40.930
749.82	38.618
750.13	39.592
750.44	37.591
750.75	38.596
751.07	40.514
751.38	40.767
751.69	38.628
752.01	40.226
752.32	37.184
752.63	40.780
752.94	43.852
753.26	46.400
753.57	38.211
753.88	43.359
754.19	38.214
754.51	38.194
754.82	35.018
755.13	42.642
755.44	38.346
755.75	36.496
756.07	34.752
756.38	35.401
756.69	35.235
757.00	38.323
757.31	32.641
757.63	32.164
757.94	34.853
758.25	32.598
758.56	31.358
758.87	37.097
759.18	38.182
759.50	34.796
759.81	33.956
760.12	31.875
760.43	36.676
760.74	30.978
761.05	35.593
761.36	32.888
761.67	35.795
761.99	34.161
762.30	39.583
762.61	33.969
762.92	41.016
763.23	37.815
763.54	35.600
763.85	35.156
764.16	43.846
764.47	39.544
764.78	31.095
765.10	35.443
765.41	37.463
765.72	38.024
766.03	33.542
766.34	34.333
766.65	41.702
766.96	38.034
767.27	44.162
767.58	44.792
767.89	48.421
768.20	40.805
768.51	35.533
768.82	38.532
769.13	34.553
769.44	35.628
769.75	36.910
770.06	33.945
770.37	45.249
770.68	41.667
770.99	38.222
771.30	33.197
771.61	38.565
771.92	36.885
772.23	43.277
772.54	40.513
772.85	39.267
773.16	37.766
773.47	40.217
773.78	45.685
774.09	43.452
774.39	45.614
774.70	43.210
775.01	41.304
775.32	53.595
775.63	49.342
775.94	35.252
776.25	46.457
776.56	57.463
776.87	51.639
777.18	45.313
777.48	46.565
777.79	44.697
778.10	47.407
778.41	53.571
778.72	35.766
779.03	39.597
779.34	38.926
779.65	41.216
779.95	36.196
780.26	48.366
780.57	50.345
780.88	49.219
781.19	40.602
781.50	51.351
781.80	37.736
782.11	37.853
782.42	39.873
782.73	38.037
783.04	47.297
783.34	45.775
783.65	47.945
783.96	55.970
784.27	44.056
784.57	43.165
784.88	45.370
785.19	45.238
785.50	45.283
785.81	44.030
786.11	50.820
786.42	51.163
786.73	48.673
787.04	63.208
787.34	48.214
787.65	58.000
787.96	45.946
788.26	38.843
788.57	49.153
788.88	52.893
789.19	43.056
789.49	47.727
789.80	43.511
790.11	59.048
790.41	44.554
790.72	36.145
791.03	44.565
791.33	53.488
791.64	42.268
791.95	50.495
792.25	53.333
792.56	61.039
792.87	60.256
793.17	68.354
793.48	52.874
793.79	37.931
794.09	59.091
794.40	48.739
794.70	46.324
795.01	38.519
795.32	41.007
795.62	43.307
795.93	43.966
796.23	46.903
796.54	36.471
796.85	41.892
797.15	73.239
797.46	54.545
797.76	65.060
798.07	44.304
798.37	56.923
798.68	59.091
798.99	54.930
799.29	55.844
799.60	53.409
799.90	49.315
800.21	71.642
800.51	55.172
800.82	71.930
801.12	54.098
801.43	63.636
801.73	47.297
802.04	68.254
802.34	64.198
802.65	48.438
802.95	67.797
803.26	62.500
803.56	44.286
803.87	47.692
804.17	64.706
804.48	72.222
804.78	43.103
805.09	39.706
805.39	65.385
805.70	53.571
806.00	65.574
806.30	56.061
806.61	54.878
806.91	41.772
807.22	47.368
807.52	49.254
807.83	54.930
808.13	75.000
808.43	71.667
808.74	43.421
809.04	55.072
809.35	61.194
809.65	59.211
809.95	80.645
810.26	49.153
810.56	65.079
810.86	84.091
811.17	90.476
811.47	68.333
811.77	50.000
812.08	49.091
812.38	64.000
812.69	72.222
812.99	97.727
813.29	89.796
813.59	33.333
813.90	73.469
814.20	65.455
814.50	60.000
814.81	63.235
815.11	61.224
815.41	65.574
815.72	83.333
816.02	78.182
816.32	64.286
816.62	55.000
816.93	80.488
817.23	90.476
817.53	52.273
817.84	63.636
818.14	91.304
818.44	86.667
818.74	79.412
819.04	57.500
819.35	45.714
819.65	102.941
819.95	96.429
820.25	90.000
820.56	76.923
820.86	81.818
821.16	86.047
821.46	87.179
821.76	82.000
822.07	80.000
822.37	82.500
822.67	109.091
822.97	37.255
823.27	153.571
823.57	64.865
823.88	87.500
824.18	80.000
824.48	76.190
824.78	100.000
825.08	95.833
825.38	67.568
825.69	65.854
825.99	125.000
826.29	113.793
826.59	86.842
826.89	76.316
827.19	111.765
827.49	74.194
827.79	77.273
828.09	77.273
828.39	74.468
828.70	71.429
829.00	66.667
829.30	51.613
829.60	90.000
829.90	86.667
830.20	71.429
830.50	56.522
830.80	73.913
831.10	103.333
831.40	66.667
831.70	82.609
832.00	96.154
832.30	74.074
832.60	175.000
832.90	113.333
833.20	135.714
833.50	83.871
833.80	100.000
834.10	96.875
834.40	138.462
834.70	116.667
835.00	152.381
835.30	94.286
835.60	100.000
835.90	68.966
836.20	114.286
836.50	103.448
836.80	72.000
837.10	108.333
837.40	128.571
837.70	164.706
838.00	107.407
838.30	85.714
838.60	161.905
838.90	107.692
839.19	125.000
839.49	192.857
839.79	160.000
840.09	90.000
840.39	100.000
840.69	156.522
840.99	122.222
841.29	210.000
841.59	125.000
841.88	162.500
842.18	89.655
842.48	128.571
842.78	93.333
843.08	95.652
843.38	106.250
843.68	333.333
843.97	96.154
844.27	103.448
844.57	128.571
844.87	106.250
845.17	107.407
845.47	600.000
845.76	177.778
846.06	147.059
846.36	125.000
846.66	121.429
846.96	81.250
847.25	254.545
847.55	200.000
847.85	139.130
848.15	150.000
848.44	150.000
848.74	38.889
849.04	117.647
849.34	290.000
849.63	84.211
849.93	245.455
850.23	460.000
850.53	214.286
850.82	950.000
851.12	-1500.000
851.42	1400.000
851.71	160.000
852.01	-366.667
852.31	120.833
852.61	866.667
852.90	138.095
853.20	120.000
853.50	111.765
853.79	104.762
854.09	58.333
854.39	137.500
854.68	89.189
854.98	96.774
855.28	113.333
855.57	89.655
855.87	74.074
856.17	147.368
856.46	66.667
856.76	123.529
857.05	75.862
857.35	100.000
857.65	153.333
857.94	60.870
858.24	123.077
858.53	195.000
858.83	127.273
859.13	166.667
859.42	0.000
859.72	300.000
860.01	272.727
860.31	90.909
860.60	100.000
860.90	121.739
861.20	311.111
861.49	258.333
861.79	-800.000
862.08	287.500
862.38	85.714
862.67	76.923
862.97	176.471
863.26	188.889
863.56	66.667
863.85	166.667
864.15	275.000
864.44	246.667
864.74	383.333
865.03	325.000
865.33	178.947
865.62	163.636
865.92	215.385
866.21	166.667
866.51	0.000
866.80	172.727
867.10	580.000
867.39	153.846
867.69	190.909
867.98	126.316
868.27	209.091
868.57	168.421
868.86	-1400.000
869.16	181.250
869.45	350.000
869.75	-900.000
870.04	233.333
870.33	185.714
870.63	350.000
870.92	1100.000
871.22	271.429
871.51	170.588
871.80	80.952
872.10	178.571
>>>>>End Processed Spectral Data<<<<<
