SpectraSuite Data File
++++++++++++++++++++++++++++++++++++
Date: Wed May 13 16:42:41 PDT 2015
User: schluterlab
Dark Spectrum Present: Yes
Reference Spectrum Present: Yes
Number of Sampled Component Spectra: 1
Spectrometers: USB2E3373
Integration Time (usec): 3000 (USB2E3373)
Spectra Averaged: 3 (USB2E3373)
Boxcar Smoothing: 0 (USB2E3373)
Correct for Electrical Dark: No (USB2E3373)
Strobe/Lamp Enabled: No (USB2E3373)
Correct for Detector Non-linearity: No (USB2E3373)
Correct for Stray Light: No (USB2E3373)
Number of Pixels in Processed Spectrum: 2048
>>>>>Begin Processed Spectral Data<<<<<
178.53	0.000
178.91	-1500.000
179.29	-1200.000
179.67	-266.667
180.04	-1350.000
180.42	2750.000
180.80	1120.000
181.18	-875.000
181.56	714.286
181.94	0.000
182.31	-657.143
182.69	1600.000
183.07	-525.000
183.45	-455.556
183.83	527.273
184.20	-390.000
184.58	2500.000
184.96	6500.000
185.34	-780.000
185.72	-487.500
186.09	-2600.000
186.47	2850.000
186.85	2600.000
187.23	5200.000
187.61	-1800.000
187.98	1375.000
188.36	518.182
188.74	518.182
189.12	-960.000
189.49	530.000
189.87	-5300.000
190.25	-1300.000
190.63	414.286
191.00	407.692
191.38	783.333
191.76	-1500.000
192.14	1650.000
192.51	612.500
192.89	1083.333
193.27	575.000
193.65	-925.000
194.02	530.000
194.40	920.000
194.78	530.000
195.15	475.000
195.53	640.000
195.91	-1950.000
196.29	387.500
196.66	315.789
197.04	-480.000
197.42	0.000
197.79	660.000
198.17	-5100.000
198.55	514.286
198.92	612.500
199.30	940.000
199.68	0.000
200.05	277.778
200.43	742.857
200.81	4800.000
201.18	1733.333
201.56	-1633.333
201.94	622.222
202.31	611.111
202.69	450.000
203.07	510.000
203.44	0.000
203.82	1325.000
204.19	814.286
204.57	364.286
204.95	687.500
205.32	1600.000
205.70	509.091
206.08	378.571
206.45	2500.000
206.83	337.500
207.20	933.333
207.58	700.000
207.96	300.000
208.33	862.500
208.71	-800.000
209.08	785.714
209.46	511.111
209.84	554.545
210.21	-1333.333
210.59	1450.000
210.96	-475.000
211.34	3000.000
211.71	590.000
212.09	783.333
212.46	0.000
212.84	1700.000
213.22	1300.000
213.59	-4500.000
213.97	933.333
214.34	842.857
214.72	581.818
215.09	1160.000
215.47	-2500.000
215.84	-2150.000
216.22	1500.000
216.59	342.857
216.97	1450.000
217.34	527.273
217.72	-650.000
218.09	0.000
218.47	-4200.000
218.84	700.000
219.22	842.857
219.59	1566.667
219.97	-642.857
220.34	960.000
220.72	-1766.667
221.09	414.286
221.47	1400.000
221.84	-933.333
222.22	0.000
222.59	1200.000
222.97	-2650.000
223.34	1120.000
223.72	469.231
224.09	1140.000
224.46	2300.000
224.84	-4600.000
225.21	-780.000
225.59	-6500.000
225.96	620.000
226.34	345.000
226.71	2900.000
227.08	675.000
227.46	550.000
227.83	-1025.000
228.21	-2350.000
228.58	611.111
228.95	-2450.000
229.33	-2000.000
229.70	2000.000
230.08	771.429
230.45	-1040.000
230.82	466.667
231.20	883.333
231.57	571.429
231.95	450.000
232.32	227.273
232.69	554.545
233.07	600.000
233.44	384.615
233.81	-1466.667
234.19	310.526
234.56	491.667
234.93	383.333
235.31	518.182
235.68	323.077
236.05	357.143
236.43	187.879
236.80	247.368
237.17	3400.000
237.55	209.524
237.92	217.857
238.29	252.381
238.67	151.613
239.04	172.414
239.41	150.000
239.79	121.739
240.16	138.095
240.53	115.909
240.91	105.882
241.28	94.000
241.65	110.000
242.02	84.058
242.40	83.871
242.77	71.667
243.14	74.194
243.51	82.022
243.89	62.353
244.26	50.000
244.63	47.312
245.00	53.191
245.38	60.396
245.75	44.860
246.12	52.294
246.49	47.445
246.87	51.200
247.24	52.308
247.61	42.143
247.98	36.601
248.36	33.108
248.73	35.032
249.10	35.032
249.47	37.288
249.84	34.759
250.22	32.620
250.59	27.811
250.96	33.838
251.33	34.123
251.70	35.644
252.08	30.476
252.45	26.906
252.82	26.522
253.19	28.511
253.56	28.235
253.94	29.046
254.31	25.000
254.68	23.846
255.05	23.985
255.42	23.984
255.79	22.794
256.16	25.632
256.54	19.788
256.91	24.911
257.28	21.583
257.65	23.102
258.02	24.845
258.39	19.243
258.76	22.408
259.14	21.726
259.51	18.845
259.88	18.323
260.25	20.242
260.62	20.520
260.99	21.739
261.36	19.520
261.73	19.198
262.10	18.314
262.47	19.718
262.85	18.663
263.22	16.809
263.59	19.088
263.96	19.505
264.33	19.321
264.70	19.474
265.07	18.670
265.44	16.414
265.81	16.302
266.18	16.834
266.55	16.829
266.92	18.919
267.29	17.824
267.66	16.972
268.03	15.682
268.40	16.589
268.77	15.274
269.14	15.315
269.51	16.253
269.88	17.483
270.25	18.059
270.62	15.955
270.99	17.634
271.36	18.455
271.73	14.486
272.10	14.783
272.47	16.129
272.84	16.450
273.21	17.820
273.58	13.537
273.95	12.788
274.32	15.289
274.69	15.846
275.06	12.205
275.43	14.681
275.80	14.629
276.17	14.868
276.54	15.593
276.91	14.229
277.28	15.234
277.65	15.087
278.02	14.079
278.39	16.211
278.76	14.182
279.13	15.472
279.50	14.898
279.87	14.343
280.23	13.573
280.60	13.926
280.97	11.645
281.34	16.106
281.71	14.182
282.08	15.931
282.45	12.909
282.82	13.321
283.19	11.586
283.56	13.158
283.92	14.213
284.29	11.817
284.66	13.793
285.03	11.935
285.40	13.380
285.77	12.458
286.14	14.162
286.51	14.500
286.87	14.017
287.24	14.332
287.61	13.965
287.98	12.825
288.35	14.105
288.72	12.305
289.08	12.989
289.45	13.509
289.82	15.285
290.19	12.402
290.56	13.017
290.93	11.178
291.29	11.963
291.66	12.979
292.03	12.500
292.40	12.628
292.77	11.686
293.13	14.179
293.50	10.204
293.87	12.741
294.24	12.148
294.60	12.518
294.97	12.936
295.34	13.963
295.71	12.358
296.08	13.248
296.44	12.930
296.81	10.964
297.18	14.905
297.55	10.818
297.91	12.401
298.28	15.663
298.65	13.708
299.02	11.726
299.38	12.218
299.75	12.534
300.12	12.005
300.48	10.375
300.85	12.824
301.22	12.102
301.59	12.374
301.95	12.343
302.32	12.067
302.69	12.664
303.05	11.758
303.42	12.099
303.79	13.250
304.15	12.005
304.52	12.283
304.89	12.195
305.25	12.645
305.62	12.571
305.99	12.397
306.35	11.969
306.72	13.901
307.09	12.986
307.45	14.752
307.82	12.723
308.19	13.245
308.55	14.239
308.92	13.749
309.29	12.883
309.65	12.089
310.02	13.636
310.38	14.624
310.75	12.988
311.12	12.897
311.48	14.525
311.85	14.256
312.22	14.464
312.58	14.345
312.95	14.467
313.31	13.204
313.68	13.617
314.05	15.385
314.41	14.975
314.78	14.904
315.14	14.796
315.51	15.345
315.87	14.950
316.24	16.087
316.61	15.010
316.97	16.047
317.34	16.047
317.70	15.966
318.07	17.421
318.43	17.515
318.80	17.245
319.16	18.173
319.53	15.385
319.89	17.810
320.26	18.500
320.62	17.460
320.99	18.687
321.35	20.202
321.72	18.172
322.08	18.164
322.45	20.100
322.81	19.574
323.18	20.906
323.54	21.243
323.91	22.264
324.27	21.511
324.64	20.224
325.00	21.010
325.37	22.293
325.73	24.506
326.10	24.360
326.46	23.477
326.83	25.108
327.19	24.936
327.56	24.652
327.92	26.159
328.29	25.732
328.65	26.611
329.01	26.083
329.38	27.012
329.74	27.331
330.11	27.521
330.47	28.007
330.84	28.401
331.20	28.780
331.56	29.083
331.93	28.333
332.29	28.305
332.66	28.584
333.02	28.336
333.38	28.907
333.75	27.807
334.11	28.292
334.48	28.305
334.84	29.963
335.20	29.364
335.57	29.828
335.93	28.571
336.29	30.128
336.66	30.298
337.02	28.959
337.38	29.907
337.75	28.699
338.11	29.454
338.47	29.742
338.84	29.789
339.20	28.807
339.56	30.292
339.93	29.909
340.29	27.989
340.65	29.234
341.02	29.668
341.38	29.893
341.74	30.965
342.11	30.044
342.47	29.956
342.83	30.051
343.20	30.563
343.56	28.728
343.92	29.211
344.28	30.527
344.65	30.782
345.01	29.040
345.37	30.189
345.73	29.526
346.10	29.923
346.46	29.068
346.82	28.913
347.19	29.073
347.55	29.228
347.91	30.178
348.27	30.238
348.63	29.264
349.00	28.074
349.36	29.639
349.72	29.270
350.08	29.660
350.45	29.536
350.81	29.245
351.17	30.065
351.53	29.975
351.89	28.548
352.26	29.597
352.62	29.912
352.98	30.713
353.34	30.403
353.70	28.560
354.07	30.645
354.43	29.762
354.79	29.525
355.15	29.689
355.51	30.536
355.87	29.306
356.24	32.166
356.60	30.233
356.96	29.445
357.32	30.253
357.68	29.528
358.04	31.037
358.40	30.562
358.77	30.282
359.13	29.676
359.49	30.980
359.85	30.397
360.21	30.622
360.57	31.673
360.93	30.615
361.29	31.519
361.66	30.418
362.02	31.194
362.38	31.103
362.74	29.836
363.10	29.460
363.46	30.301
363.82	30.461
364.18	30.250
364.54	30.684
364.90	31.374
365.26	31.103
365.62	30.825
365.98	30.972
366.35	31.089
366.71	29.863
367.07	31.027
367.43	31.930
367.79	32.191
368.15	31.968
368.51	31.323
368.87	32.905
369.23	32.114
369.59	33.164
369.95	32.574
370.31	31.766
370.67	31.232
371.03	33.034
371.39	31.851
371.75	31.985
372.11	32.930
372.47	33.138
372.83	33.429
373.19	31.936
373.55	33.186
373.91	33.137
374.27	31.821
374.63	33.091
374.99	34.534
375.35	32.449
375.71	32.625
376.07	34.088
376.42	34.044
376.78	34.195
377.14	34.261
377.50	32.583
377.86	32.912
378.22	33.881
378.58	33.083
378.94	33.124
379.30	32.634
379.66	34.074
380.02	33.600
380.38	33.333
380.74	34.334
381.09	34.963
381.45	35.280
381.81	34.091
382.17	34.331
382.53	33.899
382.89	34.506
383.25	35.585
383.61	35.750
383.97	35.084
384.32	35.246
384.68	34.882
385.04	34.665
385.40	34.427
385.76	35.319
386.12	34.067
386.48	35.494
386.83	35.856
387.19	36.364
387.55	36.178
387.91	35.732
388.27	35.438
388.62	35.034
388.98	34.521
389.34	36.170
389.70	35.929
390.06	37.326
390.42	36.381
390.77	35.941
391.13	36.056
391.49	35.470
391.85	35.073
392.20	35.394
392.56	36.553
392.92	36.492
393.28	34.497
393.64	35.192
393.99	34.881
394.35	35.856
394.71	35.885
395.07	36.137
395.42	35.661
395.78	35.305
396.14	33.892
396.50	35.088
396.85	34.647
397.21	34.649
397.57	34.904
397.92	35.457
398.28	34.081
398.64	34.886
399.00	34.415
399.35	34.123
399.71	34.317
400.07	34.654
400.42	34.785
400.78	35.103
401.14	34.634
401.49	34.746
401.85	34.422
402.21	33.234
402.57	34.732
402.92	34.300
403.28	35.166
403.63	34.777
403.99	34.650
404.35	33.576
404.70	33.873
405.06	33.547
405.42	35.434
405.77	32.857
406.13	31.659
406.49	34.004
406.84	33.786
407.20	33.511
407.55	34.397
407.91	34.533
408.27	33.886
408.62	33.654
408.98	33.150
409.34	33.764
409.69	34.129
410.05	33.767
410.40	32.905
410.76	33.094
411.11	33.896
411.47	32.396
411.83	33.354
412.18	33.766
412.54	33.188
412.89	32.771
413.25	33.884
413.60	32.736
413.96	32.848
414.31	33.475
414.67	33.904
415.03	34.106
415.38	32.088
415.74	33.376
416.09	34.618
416.45	33.534
416.80	33.179
417.16	34.718
417.51	34.107
417.87	32.820
418.22	33.880
418.58	33.957
418.93	33.661
419.29	33.800
419.64	33.753
420.00	33.354
420.35	33.217
420.71	33.712
421.06	35.143
421.42	34.035
421.77	33.072
422.12	33.633
422.48	33.189
422.83	33.955
423.19	33.149
423.54	33.952
423.90	33.971
424.25	34.003
424.61	34.226
424.96	34.461
425.31	34.884
425.67	33.427
426.02	34.571
426.38	35.409
426.73	34.348
427.09	34.590
427.44	34.905
427.79	35.423
428.15	35.298
428.50	34.874
428.85	34.982
429.21	35.008
429.56	35.874
429.92	35.632
430.27	35.104
430.62	34.050
430.98	34.198
431.33	34.948
431.68	36.178
432.04	34.718
432.39	35.979
432.74	35.727
433.10	36.050
433.45	36.268
433.80	35.477
434.16	36.432
434.51	36.000
434.86	36.659
435.22	37.021
435.57	36.353
435.92	36.688
436.28	36.833
436.63	37.196
436.98	35.833
437.34	36.792
437.69	37.106
438.04	37.830
438.39	36.896
438.75	37.071
439.10	36.704
439.45	36.482
439.81	36.133
440.16	37.211
440.51	37.903
440.86	37.290
441.22	37.097
441.57	36.837
441.92	37.155
442.27	36.437
442.63	36.230
442.98	36.845
443.33	37.283
443.68	36.809
444.03	37.335
444.39	35.881
444.74	37.013
445.09	36.712
445.44	36.851
445.79	37.407
446.15	37.639
446.50	37.426
446.85	37.256
447.20	36.920
447.55	37.521
447.91	36.735
448.26	37.451
448.61	37.875
448.96	37.929
449.31	37.177
449.66	37.760
450.02	36.825
450.37	37.642
450.72	38.127
451.07	37.112
451.42	37.568
451.77	38.109
452.12	36.952
452.47	38.184
452.83	37.413
453.18	37.103
453.53	38.404
453.88	38.689
454.23	38.314
454.58	38.098
454.93	38.525
455.28	37.095
455.63	36.711
455.98	38.512
456.34	38.128
456.69	38.698
457.04	38.514
457.39	37.814
457.74	36.970
458.09	37.780
458.44	38.312
458.79	37.093
459.14	37.810
459.49	38.237
459.84	36.620
460.19	37.596
460.54	36.921
460.89	37.685
461.24	38.251
461.59	37.536
461.94	37.916
462.29	37.567
462.64	37.332
462.99	36.565
463.34	38.400
463.69	38.899
464.04	37.971
464.39	37.565
464.74	37.314
465.09	37.877
465.44	36.898
465.79	36.018
466.14	36.836
466.49	35.818
466.84	38.004
467.19	37.477
467.54	37.000
467.89	37.035
468.24	37.522
468.59	37.973
468.94	36.042
469.29	36.825
469.64	38.420
469.99	37.889
470.34	38.309
470.68	38.003
471.03	37.347
471.38	39.055
471.73	37.375
472.08	38.750
472.43	36.683
472.78	37.854
473.13	38.703
473.48	37.578
473.83	37.439
474.17	36.279
474.52	38.586
474.87	38.762
475.22	36.796
475.57	36.539
475.92	36.484
476.27	36.246
476.61	36.735
476.96	36.998
477.31	36.682
477.66	37.254
478.01	36.644
478.36	37.176
478.70	35.722
479.05	36.848
479.40	36.540
479.75	36.146
480.10	36.083
480.45	36.221
480.79	36.264
481.14	36.497
481.49	36.165
481.84	36.946
482.19	36.393
482.53	35.780
482.88	36.668
483.23	35.841
483.58	36.715
483.92	36.036
484.27	34.597
484.62	35.647
484.97	35.278
485.31	36.062
485.66	34.341
486.01	32.627
486.36	31.437
486.70	31.277
487.05	31.890
487.40	32.967
487.75	34.228
488.09	34.395
488.44	34.590
488.79	35.949
489.13	36.134
489.48	35.848
489.83	35.606
490.17	36.125
490.52	35.607
490.87	35.550
491.22	35.061
491.56	35.308
491.91	35.086
492.26	35.599
492.60	34.839
492.95	34.612
493.30	35.514
493.64	35.324
493.99	34.819
494.34	35.523
494.68	35.073
495.03	35.761
495.37	34.481
495.72	36.062
496.07	35.824
496.41	34.204
496.76	35.356
497.11	34.939
497.45	35.165
497.80	35.317
498.14	35.314
498.49	34.683
498.84	34.995
499.18	35.333
499.53	34.805
499.87	34.902
500.22	34.856
500.56	36.311
500.91	35.048
501.26	35.230
501.60	36.118
501.95	33.868
502.29	35.520
502.64	35.940
502.98	35.063
503.33	34.781
503.67	34.664
504.02	34.986
504.36	33.832
504.71	34.685
505.06	35.566
505.40	34.808
505.75	34.957
506.09	34.694
506.44	34.978
506.78	34.535
507.13	35.184
507.47	35.152
507.82	35.208
508.16	34.954
508.51	35.769
508.85	33.863
509.19	35.000
509.54	35.816
509.88	34.879
510.23	34.756
510.57	35.707
510.92	35.111
511.26	34.892
511.61	34.544
511.95	34.186
512.30	34.517
512.64	35.250
512.98	35.209
513.33	35.974
513.67	34.525
514.02	34.632
514.36	36.264
514.70	35.418
515.05	35.081
515.39	35.222
515.74	35.980
516.08	35.048
516.42	35.572
516.77	36.622
517.11	34.573
517.46	35.384
517.80	35.656
518.14	34.916
518.49	35.123
518.83	35.568
519.17	36.028
519.52	35.314
519.86	34.969
520.20	34.740
520.55	35.727
520.89	36.496
521.23	35.525
521.58	34.994
521.92	35.640
522.26	35.754
522.61	36.137
522.95	35.421
523.29	35.606
523.64	36.463
523.98	35.490
524.32	35.283
524.66	35.057
525.01	34.804
525.35	35.812
525.69	35.037
526.04	35.514
526.38	34.655
526.72	35.276
527.06	36.911
527.41	34.097
527.75	35.434
528.09	35.389
528.43	34.481
528.78	35.956
529.12	35.152
529.46	35.946
529.80	34.653
530.15	36.199
530.49	34.092
530.83	35.190
531.17	35.836
531.51	35.603
531.86	33.935
532.20	35.137
532.54	36.259
532.88	34.981
533.22	33.854
533.57	33.951
533.91	34.317
534.25	34.386
534.59	34.106
534.93	33.135
535.27	33.675
535.62	34.371
535.96	33.710
536.30	34.647
536.64	34.514
536.98	35.766
537.32	34.826
537.66	34.400
538.01	34.891
538.35	33.549
538.69	34.269
539.03	33.658
539.37	33.994
539.71	31.821
540.05	34.771
540.39	34.817
540.73	33.182
541.07	34.393
541.42	34.051
541.76	34.129
542.10	33.700
542.44	33.775
542.78	34.783
543.12	32.885
543.46	34.164
543.80	33.897
544.14	32.413
544.48	33.460
544.82	33.675
545.16	34.223
545.50	33.162
545.84	33.871
546.18	33.805
546.52	35.237
546.86	35.601
547.20	34.187
547.54	33.801
547.88	33.929
548.22	31.009
548.56	32.956
548.90	32.394
549.24	32.795
549.58	33.492
549.92	33.585
550.26	33.736
550.60	33.472
550.94	33.521
551.28	33.870
551.62	33.789
551.96	33.965
552.30	34.949
552.64	33.469
552.98	33.966
553.32	33.513
553.66	34.628
554.00	33.288
554.34	33.609
554.68	33.763
555.02	34.344
555.36	33.820
555.69	33.018
556.03	32.907
556.37	34.243
556.71	32.606
557.05	33.894
557.39	33.520
557.73	33.028
558.07	33.793
558.41	33.719
558.75	33.137
559.08	34.601
559.42	34.316
559.76	33.529
560.10	33.191
560.44	33.403
560.78	32.335
561.12	33.575
561.45	33.703
561.79	33.421
562.13	33.602
562.47	33.197
562.81	34.100
563.15	32.308
563.48	32.626
563.82	33.138
564.16	33.486
564.50	32.552
564.84	32.364
565.17	33.526
565.51	33.355
565.85	32.297
566.19	32.123
566.52	32.109
566.86	32.911
567.20	32.724
567.54	31.279
567.88	31.613
568.21	30.423
568.55	29.980
568.89	30.350
569.23	30.481
569.56	29.109
569.90	29.472
570.24	28.884
570.57	28.596
570.91	27.699
571.25	27.671
571.59	28.159
571.92	27.794
572.26	27.181
572.60	27.778
572.93	27.316
573.27	28.157
573.61	27.554
573.95	27.416
574.28	26.709
574.62	26.774
574.96	26.332
575.29	26.503
575.63	26.956
575.97	26.712
576.30	27.005
576.64	26.864
576.98	26.373
577.31	26.687
577.65	26.471
577.98	25.754
578.32	25.913
578.66	25.996
578.99	26.273
579.33	26.652
579.67	26.198
580.00	26.732
580.34	26.815
580.67	26.519
581.01	26.692
581.35	26.324
581.68	25.832
582.02	25.241
582.35	25.443
582.69	26.132
583.02	26.114
583.36	27.231
583.70	27.622
584.03	26.724
584.37	27.852
584.70	27.874
585.04	26.614
585.37	25.885
585.71	26.292
586.04	26.238
586.38	27.116
586.72	27.672
587.05	26.705
587.39	26.939
587.72	27.106
588.06	27.134
588.39	27.517
588.73	27.075
589.06	28.077
589.40	28.350
589.73	28.194
590.07	28.256
590.40	27.987
590.73	28.571
591.07	29.101
591.40	29.523
591.74	29.784
592.07	29.276
592.41	28.938
592.74	28.165
593.08	28.081
593.41	27.491
593.75	26.858
594.08	28.059
594.41	27.572
594.75	27.689
595.08	27.881
595.42	28.301
595.75	28.063
596.09	28.652
596.42	28.841
596.75	29.084
597.09	29.091
597.42	28.246
597.75	29.366
598.09	29.000
598.42	29.081
598.76	27.807
599.09	27.594
599.42	27.911
599.76	27.123
600.09	27.505
600.42	26.589
600.76	27.393
601.09	28.015
601.42	27.816
601.76	27.818
602.09	28.300
602.42	28.264
602.76	29.061
603.09	28.600
603.42	28.270
603.76	27.973
604.09	27.297
604.42	28.170
604.76	28.891
605.09	28.135
605.42	28.431
605.75	28.063
606.09	27.328
606.42	27.503
606.75	27.582
607.09	28.129
607.42	27.685
607.75	27.384
608.08	27.746
608.42	28.373
608.75	27.908
609.08	28.168
609.41	28.510
609.75	28.061
610.08	28.935
610.41	28.212
610.74	28.382
611.07	28.557
611.41	28.999
611.74	28.808
612.07	28.623
612.40	29.958
612.73	28.421
613.07	29.526
613.40	28.278
613.73	28.631
614.06	28.763
614.39	29.103
614.72	28.263
615.06	28.519
615.39	29.140
615.72	28.783
616.05	28.017
616.38	29.461
616.71	29.572
617.05	29.800
617.38	29.465
617.71	29.369
618.04	30.108
618.37	29.982
618.70	30.180
619.03	31.250
619.36	30.414
619.69	31.197
620.03	30.838
620.36	30.882
620.69	30.205
621.02	31.195
621.35	31.323
621.68	30.218
622.01	31.347
622.34	32.300
622.67	32.091
623.00	29.787
623.33	30.021
623.66	30.879
623.99	30.560
624.32	30.670
624.65	30.226
624.99	30.312
625.32	29.761
625.65	31.255
625.98	30.284
626.31	31.804
626.64	33.224
626.97	31.920
627.30	29.426
627.63	31.747
627.96	32.128
628.29	32.633
628.62	32.296
628.95	33.962
629.28	32.208
629.61	32.447
629.94	32.857
630.26	32.698
630.59	31.745
630.92	32.280
631.25	32.774
631.58	32.533
631.91	33.874
632.24	34.177
632.57	33.998
632.90	34.759
633.23	35.347
633.56	35.141
633.89	34.881
634.22	35.074
634.55	35.030
634.88	33.772
635.20	35.364
635.53	34.699
635.86	34.406
636.19	34.941
636.52	34.256
636.85	34.021
637.18	32.949
637.51	33.688
637.83	33.046
638.16	36.061
638.49	35.139
638.82	34.640
639.15	34.875
639.48	35.910
639.81	35.657
640.13	35.807
640.46	34.497
640.79	34.478
641.12	34.388
641.45	35.196
641.77	39.764
642.10	33.772
642.43	37.988
642.76	37.926
643.09	36.196
643.41	36.571
643.74	38.426
644.07	35.823
644.40	37.270
644.73	39.528
645.05	38.035
645.38	36.493
645.71	36.876
646.04	38.538
646.36	38.898
646.69	37.960
647.02	37.415
647.35	37.629
647.67	38.761
648.00	38.049
648.33	37.129
648.66	36.818
648.98	36.732
649.31	34.978
649.64	34.828
649.96	35.320
650.29	37.599
650.62	35.275
650.94	37.763
651.27	37.838
651.60	38.769
651.92	39.297
652.25	37.948
652.58	36.293
652.90	36.019
653.23	34.052
653.56	34.331
653.88	37.084
654.21	36.177
654.54	37.954
654.86	36.916
655.19	33.649
655.52	23.311
655.84	19.407
656.17	24.913
656.49	33.331
656.82	34.349
657.15	26.289
657.47	19.934
657.80	15.302
658.13	16.167
658.45	24.753
658.78	25.258
659.10	26.876
659.43	28.251
659.75	30.192
660.08	32.975
660.41	35.754
660.73	37.103
661.06	35.987
661.38	40.364
661.71	39.231
662.03	40.828
662.36	36.581
662.68	39.960
663.01	36.970
663.33	40.340
663.66	41.176
663.98	40.821
664.31	41.176
664.63	38.057
664.96	36.620
665.28	39.959
665.61	39.181
665.93	38.431
666.26	36.714
666.58	39.331
666.91	40.592
667.23	40.449
667.56	39.093
667.88	38.462
668.21	40.725
668.53	40.347
668.86	38.745
669.18	41.791
669.50	41.957
669.83	40.959
670.15	40.444
670.48	39.216
670.80	38.578
671.13	40.127
671.45	39.787
671.77	39.919
672.10	38.817
672.42	36.749
672.75	35.489
673.07	35.915
673.39	35.081
673.72	38.477
674.04	37.059
674.37	37.282
674.69	37.014
675.01	37.238
675.34	40.041
675.66	45.053
675.98	39.511
676.31	38.655
676.63	39.490
676.95	41.090
677.28	39.720
677.60	40.000
677.92	40.084
678.25	39.425
678.57	37.450
678.89	36.072
679.22	37.917
679.54	36.832
679.86	37.064
680.18	35.957
680.51	34.752
680.83	36.299
681.15	36.415
681.48	37.051
681.80	36.364
682.12	34.866
682.44	36.170
682.77	37.475
683.09	42.489
683.41	35.477
683.73	41.060
684.06	38.843
684.38	36.986
684.70	36.240
685.02	37.336
685.34	34.982
685.67	33.916
685.99	32.474
686.31	33.447
686.63	32.509
686.96	35.714
687.28	34.477
687.60	34.058
687.92	37.477
688.24	34.030
688.56	38.755
688.89	38.589
689.21	41.048
689.53	37.578
689.85	40.576
690.17	35.818
690.49	36.306
690.82	38.084
691.14	37.054
691.46	35.232
691.78	36.546
692.10	36.364
692.42	35.928
692.74	35.270
693.06	37.447
693.39	37.166
693.71	36.681
694.03	36.211
694.35	37.013
694.67	37.757
694.99	38.293
695.31	39.706
695.63	37.560
695.95	39.853
696.27	37.817
696.59	39.378
696.91	39.378
697.23	37.089
697.56	34.115
697.88	35.583
698.20	32.917
698.52	36.129
698.84	34.967
699.16	33.180
699.48	38.242
699.80	39.855
700.12	45.455
700.44	40.584
700.76	40.331
701.08	40.805
701.40	39.385
701.72	40.816
702.04	45.170
702.36	39.093
702.68	41.926
703.00	41.274
703.32	41.223
703.64	42.359
703.96	41.504
704.28	37.791
704.60	45.748
704.91	40.653
705.23	43.402
705.55	42.193
705.87	47.841
706.19	46.643
706.51	46.417
706.83	44.242
707.15	42.017
707.47	38.889
707.79	40.049
708.11	37.900
708.43	36.667
708.74	36.224
709.06	37.922
709.38	38.058
709.70	43.023
710.02	41.246
710.34	37.273
710.66	42.687
710.98	41.761
711.29	41.279
711.61	40.708
711.93	42.628
712.25	42.444
712.57	48.529
712.89	44.983
713.20	40.729
713.52	44.408
713.84	40.190
714.16	41.463
714.48	40.230
714.80	42.857
715.11	40.058
715.43	38.576
715.75	37.971
716.07	42.173
716.39	40.439
716.70	43.854
717.02	42.446
717.34	45.230
717.66	47.015
717.97	49.402
718.29	42.963
718.61	43.796
718.93	46.691
719.24	41.522
719.56	42.034
719.88	39.661
720.20	43.581
720.51	41.115
720.83	46.840
721.15	41.418
721.46	42.553
721.78	43.728
722.10	47.170
722.42	43.233
722.73	41.948
723.05	43.852
723.37	40.891
723.68	47.104
724.00	44.309
724.32	48.387
724.63	48.780
724.95	46.025
725.27	45.749
725.58	46.484
725.90	43.066
726.22	48.679
726.53	43.056
726.85	40.956
727.16	44.484
727.48	42.553
727.80	45.833
728.11	44.203
728.43	41.923
728.74	37.993
729.06	44.891
729.38	48.162
729.69	44.128
730.01	35.495
730.32	40.972
730.64	40.134
730.96	33.993
731.27	40.066
731.59	39.144
731.90	37.318
732.22	41.615
732.53	37.152
732.85	38.782
733.16	40.514
733.48	40.864
733.80	42.857
734.11	44.904
734.43	41.124
734.74	37.143
735.06	35.530
735.37	37.861
735.69	37.261
736.00	42.810
736.32	38.941
736.63	40.575
736.95	38.978
737.26	35.714
737.58	35.161
737.89	38.462
738.21	42.662
738.52	40.714
738.83	40.000
739.15	41.923
739.46	44.891
739.78	37.500
740.09	37.846
740.41	39.677
740.72	37.979
741.04	38.148
741.35	44.167
741.66	47.111
741.98	47.170
742.29	52.153
742.61	49.138
742.92	45.249
743.23	43.162
743.55	42.800
743.86	43.860
744.18	48.673
744.49	49.282
744.80	50.704
745.12	50.909
745.43	44.493
745.74	50.450
746.06	50.917
746.37	43.498
746.68	43.439
747.00	43.981
747.31	48.095
747.62	40.708
747.94	47.137
748.25	42.128
748.56	48.018
748.88	45.050
749.19	50.500
749.50	44.651
749.82	42.683
750.13	44.490
750.44	46.350
750.75	39.298
751.07	41.801
751.38	42.160
751.69	39.711
752.01	40.602
752.32	39.711
752.63	39.007
752.94	44.672
753.26	49.200
753.57	39.431
753.88	44.141
754.19	37.143
754.51	40.972
754.82	37.184
755.13	41.887
755.44	43.609
755.75	39.781
756.07	37.234
756.38	39.416
756.69	34.899
757.00	33.234
757.31	36.202
757.63	32.749
757.94	36.997
758.25	33.333
758.56	31.111
758.87	33.871
759.18	36.061
759.50	35.737
759.81	35.202
760.12	32.500
760.43	34.670
760.74	32.880
761.05	34.181
761.36	32.086
761.67	36.932
761.99	35.404
762.30	41.667
762.61	38.931
762.92	44.141
763.23	46.218
763.54	44.400
763.85	41.016
764.16	45.769
764.47	36.122
764.78	34.982
765.10	36.392
765.41	38.643
765.72	35.329
766.03	37.618
766.34	39.333
766.65	42.979
766.96	45.299
767.27	46.701
767.58	49.479
767.89	51.053
768.20	50.000
768.51	47.208
768.82	45.872
769.13	39.837
769.44	40.081
769.75	39.056
770.06	38.991
770.37	49.774
770.68	49.537
770.99	42.667
771.30	38.934
771.61	42.152
771.92	43.443
772.23	49.160
772.54	48.718
772.85	49.738
773.16	50.532
773.47	50.000
773.78	49.239
774.09	47.024
774.39	52.047
774.70	47.531
775.01	63.768
775.32	60.131
775.63	55.921
775.94	56.835
776.25	61.417
776.56	63.433
776.87	68.852
777.18	63.281
777.48	59.542
777.79	59.091
778.10	57.037
778.41	65.179
778.72	51.825
779.03	55.034
779.34	55.034
779.65	50.676
779.95	52.147
780.26	55.556
780.57	62.069
780.88	64.062
781.19	55.639
781.50	64.865
781.80	47.799
782.11	44.633
782.42	50.633
782.73	49.080
783.04	56.081
783.34	54.930
783.65	64.384
783.96	59.701
784.27	50.350
784.57	51.799
784.88	54.630
785.19	61.905
785.50	69.811
785.81	64.925
786.11	63.934
786.42	68.992
786.73	64.602
787.04	74.528
787.34	75.893
787.65	75.000
787.96	58.559
788.26	61.157
788.57	69.492
788.88	62.810
789.19	54.861
789.49	60.606
789.80	56.489
790.11	82.857
790.41	80.198
790.72	75.904
791.03	73.913
791.33	82.558
791.64	69.072
791.95	76.238
792.25	73.333
792.56	84.416
792.87	93.590
793.17	100.000
793.48	87.356
793.79	80.460
794.09	84.091
794.40	63.866
794.70	56.618
795.01	62.222
795.32	55.396
795.62	67.717
795.93	63.793
796.23	65.487
796.54	72.941
796.85	82.432
797.15	101.408
797.46	104.545
797.76	89.157
798.07	91.139
798.37	72.308
798.68	103.030
798.99	90.141
799.29	83.117
799.60	79.545
799.90	101.370
800.21	101.493
800.51	110.345
800.82	107.018
801.12	103.279
801.43	86.364
801.73	85.135
802.04	120.635
802.34	97.531
802.65	104.688
802.95	110.169
803.26	107.813
803.56	70.000
803.87	89.231
804.17	88.235
804.48	124.074
804.78	98.276
805.09	91.176
805.39	107.692
805.70	94.643
806.00	108.197
806.30	100.000
806.61	89.024
806.91	72.152
807.22	78.947
807.52	91.045
807.83	90.141
808.13	92.188
808.43	103.333
808.74	72.368
809.04	88.406
809.35	92.537
809.65	96.053
809.95	125.806
810.26	111.864
810.56	100.000
810.86	138.636
811.17	147.619
811.47	100.000
811.77	109.259
812.08	129.091
812.38	138.000
812.69	141.667
812.99	147.727
813.29	144.898
813.59	111.905
813.90	126.531
814.20	98.182
814.50	104.615
814.81	110.294
815.11	130.612
815.41	111.475
815.72	147.619
816.02	127.273
816.32	116.667
816.62	115.000
816.93	119.512
817.23	166.667
817.53	136.364
817.84	184.848
818.14	150.000
818.44	135.556
818.74	182.353
819.04	110.000
819.35	154.286
819.65	185.294
819.95	207.143
820.25	210.000
820.56	161.538
820.86	129.545
821.16	148.837
821.46	130.769
821.76	128.000
822.07	168.571
822.37	170.000
822.67	160.606
822.97	123.529
823.27	185.714
823.57	154.054
823.88	190.000
824.18	210.000
824.48	173.810
824.78	248.000
825.08	220.833
825.38	135.135
825.69	139.024
825.99	233.333
826.29	193.103
826.59	165.789
826.89	150.000
827.19	138.235
827.49	196.774
827.79	161.364
828.09	134.091
828.39	121.277
828.70	138.776
829.00	162.963
829.30	145.161
829.60	140.000
829.90	333.333
830.20	196.429
830.50	234.783
830.80	226.087
831.10	200.000
831.40	173.333
831.70	195.652
832.00	234.615
832.30	244.444
832.60	306.250
832.90	223.333
833.20	371.429
833.50	209.677
833.80	168.966
834.10	184.375
834.40	257.692
834.70	277.778
835.00	295.238
835.30	162.857
835.60	353.846
835.90	206.897
836.20	342.857
836.50	179.310
836.80	204.000
837.10	152.778
837.40	276.190
837.70	358.824
838.00	200.000
838.30	266.667
838.60	271.429
838.90	242.308
839.19	235.000
839.49	442.857
839.79	350.000
840.09	260.000
840.39	266.667
840.69	239.130
840.99	333.333
841.29	500.000
841.59	316.667
841.88	343.750
842.18	175.862
842.48	266.667
842.78	196.667
843.08	226.087
843.38	193.750
843.68	950.000
843.97	211.538
844.27	168.966
844.57	280.952
844.87	318.750
845.17	222.222
845.47	1733.333
845.76	388.889
846.06	311.765
846.36	562.500
846.66	407.143
846.96	287.500
847.25	454.545
847.55	445.455
847.85	234.783
848.15	490.000
848.44	378.571
848.74	238.889
849.04	323.529
849.34	480.000
849.63	305.263
849.93	472.727
850.23	1080.000
850.53	400.000
850.82	1950.000
851.12	-3700.000
851.42	3600.000
851.71	290.000
852.01	-1433.333
852.31	254.167
852.61	1800.000
852.90	276.190
853.20	240.000
853.50	347.059
853.79	266.667
854.09	208.333
854.39	425.000
854.68	183.784
854.98	212.903
855.28	180.000
855.57	224.138
855.87	218.519
856.17	210.526
856.46	240.000
856.76	252.941
857.05	189.655
857.35	195.833
857.65	413.333
857.94	239.130
858.24	226.923
858.53	315.000
858.83	281.818
859.13	286.667
859.42	0.000
859.72	644.444
860.01	445.455
860.31	250.000
860.60	305.263
860.90	221.739
861.20	566.667
861.49	450.000
861.79	-4700.000
862.08	725.000
862.38	271.429
862.67	292.308
862.97	329.412
863.26	633.333
863.56	266.667
863.85	433.333
864.15	575.000
864.44	400.000
864.74	866.667
865.03	700.000
865.33	284.211
865.62	436.364
865.92	438.462
866.21	416.667
866.51	0.000
866.80	500.000
867.10	1140.000
867.39	400.000
867.69	418.182
867.98	268.421
868.27	472.727
868.57	273.684
868.86	-4700.000
869.16	375.000
869.45	2250.000
869.75	-4400.000
870.04	375.000
870.33	628.571
870.63	1200.000
870.92	2200.000
871.22	828.571
871.51	323.529
871.80	252.381
872.10	385.714
>>>>>End Processed Spectral Data<<<<<
