SpectraSuite Data File
++++++++++++++++++++++++++++++++++++
Date: Wed May 13 15:58:23 PDT 2015
User: schluterlab
Dark Spectrum Present: Yes
Reference Spectrum Present: Yes
Number of Sampled Component Spectra: 1
Spectrometers: USB2E3373
Integration Time (usec): 3000 (USB2E3373)
Spectra Averaged: 3 (USB2E3373)
Boxcar Smoothing: 0 (USB2E3373)
Correct for Electrical Dark: No (USB2E3373)
Strobe/Lamp Enabled: No (USB2E3373)
Correct for Detector Non-linearity: No (USB2E3373)
Correct for Stray Light: No (USB2E3373)
Number of Pixels in Processed Spectrum: 2048
>>>>>Begin Processed Spectral Data<<<<<
178.53	0.000
178.91	-225.000
179.29	-200.000
179.67	-50.000
180.04	-150.000
180.42	500.000
180.80	260.000
181.18	-200.000
181.56	100.000
181.94	0.000
182.31	-85.714
182.69	366.667
183.07	-12.500
183.45	33.333
183.83	154.545
184.20	-0.000
184.58	200.000
184.96	800.000
185.34	-140.000
185.72	-150.000
186.09	-700.000
186.47	500.000
186.85	150.000
187.23	-100.000
187.61	166.667
187.98	475.000
188.36	154.545
188.74	127.273
189.12	-120.000
189.49	140.000
189.87	-0.000
190.25	-275.000
190.63	164.286
191.00	115.385
191.38	83.333
191.76	-275.000
192.14	250.000
192.51	100.000
192.89	216.667
193.27	50.000
193.65	-150.000
194.02	110.000
194.40	260.000
194.78	240.000
195.15	133.333
195.53	180.000
195.91	-150.000
196.29	118.750
196.66	52.632
197.04	60.000
197.42	0.000
197.79	210.000
198.17	-900.000
198.55	14.286
198.92	225.000
199.30	180.000
199.68	0.000
200.05	116.667
200.43	128.571
200.81	300.000
201.18	200.000
201.56	-333.333
201.94	144.444
202.31	200.000
202.69	158.333
203.07	120.000
203.44	0.000
203.82	300.000
204.19	328.571
204.57	164.286
204.95	212.500
205.32	233.333
205.70	118.182
206.08	92.857
206.45	550.000
206.83	87.500
207.20	300.000
207.58	-80.000
207.96	66.667
208.33	225.000
208.71	-83.333
209.08	171.429
209.46	66.667
209.84	54.545
210.21	-33.333
210.59	400.000
210.96	-37.500
211.34	-100.000
211.71	120.000
212.09	116.667
212.46	0.000
212.84	266.667
213.22	350.000
213.59	-300.000
213.97	216.667
214.34	185.714
214.72	209.091
215.09	380.000
215.47	-250.000
215.84	-350.000
216.22	466.667
216.59	150.000
216.97	225.000
217.34	100.000
217.72	33.333
218.09	0.000
218.47	-1600.000
218.84	211.111
219.22	71.429
219.59	0.000
219.97	28.571
220.34	100.000
220.72	-533.333
221.09	42.857
221.47	425.000
221.84	16.667
222.22	0.000
222.59	450.000
222.97	-550.000
223.34	340.000
223.72	146.154
224.09	340.000
224.46	-50.000
224.84	-600.000
225.21	-80.000
225.59	-300.000
225.96	90.000
226.34	50.000
226.71	550.000
227.08	112.500
227.46	80.000
227.83	-100.000
228.21	350.000
228.58	122.222
228.95	50.000
229.33	-650.000
229.70	466.667
230.08	100.000
230.45	-0.000
230.82	100.000
231.20	200.000
231.57	185.714
231.95	133.333
232.32	36.364
232.69	18.182
233.07	57.143
233.44	69.231
233.81	-200.000
234.19	36.842
234.56	116.667
234.93	50.000
235.31	54.545
235.68	15.385
236.05	14.286
236.43	48.485
236.80	15.789
237.17	300.000
237.55	4.762
237.92	28.571
238.29	0.000
238.67	9.677
239.04	37.931
239.41	11.111
239.79	17.391
240.16	38.095
240.53	2.273
240.91	23.529
241.28	14.000
241.65	28.000
242.02	28.986
242.40	17.742
242.77	8.333
243.14	19.355
243.51	12.360
243.89	3.529
244.26	-3.333
244.63	2.151
245.00	5.319
245.38	4.950
245.75	1.869
246.12	-0.917
246.49	18.978
246.87	17.600
247.24	8.462
247.61	14.286
247.98	9.804
248.36	1.351
248.73	5.096
249.10	3.185
249.47	7.345
249.84	8.556
250.22	6.952
250.59	5.917
250.96	7.071
251.33	13.270
251.70	8.416
252.08	5.238
252.45	1.345
252.82	3.478
253.19	5.532
253.56	6.667
253.94	8.299
254.31	3.906
254.68	9.615
255.05	6.273
255.42	4.878
255.79	4.044
256.16	2.888
256.54	2.473
256.91	5.694
257.28	2.158
257.65	2.310
258.02	2.174
258.39	3.785
258.76	2.341
259.14	3.571
259.51	2.736
259.88	4.658
260.25	4.834
260.62	1.734
260.99	4.037
261.36	3.904
261.73	4.298
262.10	1.744
262.47	4.507
262.85	2.228
263.22	1.709
263.59	4.558
263.96	2.198
264.33	3.133
264.70	5.000
265.07	5.371
265.44	3.535
265.81	3.163
266.18	1.256
266.55	1.463
266.92	1.966
267.29	6.250
267.66	4.587
268.03	4.318
268.40	2.570
268.77	1.193
269.14	1.802
269.51	5.192
269.88	1.166
270.25	2.483
270.62	3.596
270.99	4.516
271.36	6.009
271.73	3.972
272.10	0.870
272.47	4.086
272.84	3.680
273.21	4.822
273.58	-0.437
273.95	2.935
274.32	2.273
274.69	2.141
275.06	0.787
275.43	1.915
275.80	3.006
276.17	2.037
276.54	3.326
276.91	2.767
277.28	3.125
277.65	5.416
278.02	1.656
278.39	4.102
278.76	4.182
279.13	2.075
279.50	3.911
279.87	2.988
280.23	3.792
280.60	1.934
280.97	2.033
281.34	3.363
281.71	2.000
282.08	4.798
282.45	0.182
282.82	3.020
283.19	0.713
283.56	2.632
283.92	2.200
284.29	3.351
284.66	1.270
285.03	2.351
285.40	3.697
285.77	3.872
286.14	2.591
286.51	3.833
286.87	1.368
287.24	2.769
287.61	3.852
287.98	4.058
288.35	2.536
288.72	2.336
289.08	4.382
289.45	1.812
289.82	1.951
290.19	1.884
290.56	2.144
290.93	0.906
291.29	1.840
291.66	2.360
292.03	4.797
292.40	2.790
292.77	3.254
293.13	3.134
293.50	1.895
293.87	2.222
294.24	1.037
294.60	2.038
294.97	3.198
295.34	5.360
295.71	3.125
296.08	2.991
296.44	3.851
296.81	3.170
297.18	3.659
297.55	1.979
297.91	3.166
298.28	4.685
298.65	3.525
299.02	3.689
299.38	2.922
299.75	2.022
300.12	2.427
300.48	3.375
300.85	4.316
301.22	3.439
301.59	3.157
301.95	3.149
302.32	2.824
302.69	4.421
303.05	3.515
303.42	4.444
303.79	3.964
304.15	2.914
304.52	2.202
304.89	3.484
305.25	3.712
305.62	4.417
305.99	4.014
306.35	3.915
306.72	3.700
307.09	5.327
307.45	5.856
307.82	3.906
308.19	5.188
308.55	4.962
308.92	5.048
309.29	5.385
309.65	4.136
310.02	5.497
310.38	4.516
310.75	5.385
311.12	5.322
311.48	5.956
311.85	5.765
312.22	5.931
312.58	5.821
312.95	6.441
313.31	5.922
313.68	5.821
314.05	8.876
314.41	7.739
314.78	6.747
315.14	7.051
315.51	6.694
315.87	7.030
316.24	7.547
316.61	7.797
316.97	7.926
317.34	6.849
317.70	8.700
318.07	7.700
318.43	8.219
318.80	7.779
319.16	8.192
319.53	8.161
319.89	9.143
320.26	9.100
320.62	9.524
320.99	9.495
321.35	9.091
321.72	9.959
322.08	10.563
322.45	11.144
322.81	10.950
323.18	11.946
323.54	12.430
323.91	13.585
324.27	11.759
324.64	12.302
325.00	12.353
325.37	14.013
325.73	13.914
326.10	14.740
326.46	12.993
326.83	14.754
327.19	14.518
327.56	15.157
327.92	16.185
328.29	17.214
328.65	16.390
329.01	16.516
329.38	16.929
329.74	16.159
330.11	16.305
330.47	17.447
330.84	18.290
331.20	17.304
331.56	17.339
331.93	18.241
332.29	17.569
332.66	18.407
333.02	17.916
333.38	17.615
333.75	18.449
334.11	19.039
334.48	17.125
334.84	18.566
335.20	19.182
335.57	18.223
335.93	17.679
336.29	18.590
336.66	19.657
337.02	18.281
337.38	18.519
337.75	18.093
338.11	18.621
338.47	17.219
338.84	18.882
339.20	18.073
339.56	18.704
339.93	17.545
340.29	18.478
340.65	18.895
341.02	19.023
341.38	20.196
341.74	17.632
342.11	19.738
342.47	18.414
342.83	18.065
343.20	18.961
343.56	19.714
343.92	18.333
344.28	18.112
344.65	18.487
345.01	18.603
345.37	18.353
345.73	18.528
346.10	18.670
346.46	18.051
346.82	19.110
347.19	18.881
347.55	17.734
347.91	19.175
348.27	19.721
348.63	19.064
349.00	18.932
349.36	18.473
349.72	18.364
350.08	18.476
350.45	20.342
350.81	19.009
351.17	18.476
351.53	18.837
351.89	18.399
352.26	20.442
352.62	18.605
352.98	19.044
353.34	18.652
353.70	19.313
354.07	20.081
354.43	19.524
354.79	18.504
355.15	18.117
355.51	19.984
355.87	19.918
356.24	18.730
356.60	18.925
356.96	18.986
357.32	18.479
357.68	20.000
358.04	19.398
358.40	19.794
358.77	19.953
359.13	19.021
359.49	19.373
359.85	18.492
360.21	19.617
360.57	19.767
360.93	20.154
361.29	19.728
361.66	17.802
362.02	20.746
362.38	19.924
362.74	20.610
363.10	19.615
363.46	19.076
363.82	20.030
364.18	19.457
364.54	20.579
364.90	20.538
365.26	19.338
365.62	20.818
365.98	19.795
366.35	19.269
366.71	20.680
367.07	19.665
367.43	20.755
367.79	20.842
368.15	21.624
368.51	19.622
368.87	20.628
369.23	21.214
369.59	20.565
369.95	20.588
370.31	20.513
370.67	20.725
371.03	21.873
371.39	20.700
371.75	21.103
372.11	20.555
372.47	21.041
372.83	22.046
373.19	21.387
373.55	21.138
373.91	21.723
374.27	21.237
374.63	21.745
374.99	22.175
375.35	20.935
375.71	20.493
376.07	21.605
376.42	20.220
376.78	22.399
377.14	21.574
377.50	22.517
377.86	21.210
378.22	22.756
378.58	21.491
378.94	21.999
379.30	21.247
379.66	22.589
380.02	22.052
380.38	22.344
380.74	22.329
381.09	21.760
381.45	22.434
381.81	22.727
382.17	22.866
382.53	22.327
382.89	22.716
383.25	22.639
383.61	22.243
383.97	24.015
384.32	23.581
384.68	22.986
385.04	22.311
385.40	23.591
385.76	22.604
386.12	23.316
386.48	23.033
386.83	23.092
387.19	23.933
387.55	23.253
387.91	24.123
388.27	22.685
388.62	23.663
388.98	22.666
389.34	23.905
389.70	23.421
390.06	23.447
390.42	23.281
390.77	22.901
391.13	24.059
391.49	23.921
391.85	23.234
392.20	22.145
392.56	23.169
392.92	22.719
393.28	21.598
393.64	23.561
393.99	23.641
394.35	23.573
394.71	22.585
395.07	22.928
395.42	23.300
395.78	23.092
396.14	22.657
396.50	23.058
396.85	23.522
397.21	22.935
397.57	22.815
397.92	23.678
398.28	22.422
398.64	23.596
399.00	23.223
399.35	23.463
399.71	22.569
400.07	24.128
400.42	23.374
400.78	22.979
401.14	23.232
401.49	23.045
401.85	22.202
402.21	22.156
402.57	21.838
402.92	23.392
403.28	23.048
403.63	22.896
403.99	22.548
404.35	23.758
404.70	22.422
405.06	22.714
405.42	22.021
405.77	22.514
406.13	22.460
406.49	23.714
406.84	22.386
407.20	20.981
407.55	23.101
407.91	22.133
408.27	21.761
408.62	21.553
408.98	21.752
409.34	22.632
409.69	22.839
410.05	21.995
410.40	22.569
410.76	22.700
411.11	21.954
411.47	21.725
411.83	21.930
412.18	22.449
412.54	22.167
412.89	22.470
413.25	21.488
413.60	22.236
413.96	21.311
414.31	21.689
414.67	22.307
415.03	22.053
415.38	21.907
415.74	22.251
416.09	22.273
416.45	22.222
416.80	21.414
417.16	23.123
417.51	22.031
417.87	22.222
418.22	21.956
418.58	21.950
418.93	22.420
419.29	22.342
419.64	22.544
420.00	22.256
420.35	22.841
420.71	23.072
421.06	21.480
421.42	22.105
421.77	22.534
422.12	21.561
422.48	21.371
422.83	22.365
423.19	22.541
423.54	22.751
423.90	21.855
424.25	22.669
424.61	22.738
424.96	22.741
425.31	22.370
425.67	21.854
426.02	21.486
426.38	22.527
426.73	21.826
427.09	22.067
427.44	22.082
427.79	21.794
428.15	22.440
428.50	22.820
428.85	22.825
429.21	22.363
429.56	22.291
429.92	21.993
430.27	21.748
430.62	21.915
430.98	21.796
431.33	22.423
431.68	22.461
432.04	22.790
432.39	22.159
432.74	22.801
433.10	22.807
433.45	22.332
433.80	22.007
434.16	22.970
434.51	22.632
434.86	22.976
435.22	22.513
435.57	22.918
435.92	21.943
436.28	23.072
436.63	23.289
436.98	22.496
437.34	22.242
437.69	23.046
438.04	22.990
438.39	22.925
438.75	22.719
439.10	22.346
439.45	22.668
439.81	23.384
440.16	22.812
440.51	23.257
440.86	22.409
441.22	22.859
441.57	22.505
441.92	23.490
442.27	23.036
442.63	23.065
442.98	23.268
443.33	23.152
443.68	22.664
444.03	23.426
444.39	23.515
444.74	23.323
445.09	23.396
445.44	23.018
445.79	22.415
446.15	22.975
446.50	22.079
446.85	23.022
447.20	22.693
447.55	22.892
447.91	22.725
448.26	22.371
448.61	23.120
448.96	23.311
449.31	23.622
449.66	23.523
450.02	22.841
450.37	22.846
450.72	23.294
451.07	23.035
451.42	23.830
451.77	23.547
452.12	22.748
452.47	23.694
452.83	22.960
453.18	23.533
453.53	23.871
453.88	22.800
454.23	23.790
454.58	23.259
454.93	24.412
455.28	23.254
455.63	22.512
455.98	23.512
456.34	22.173
456.69	23.607
457.04	23.344
457.39	22.969
457.74	23.331
458.09	23.519
458.44	22.634
458.79	22.234
459.14	23.815
459.49	23.234
459.84	22.604
460.19	22.982
460.54	22.685
460.89	23.204
461.24	23.862
461.59	23.591
461.94	21.640
462.29	23.917
462.64	22.910
462.99	22.446
463.34	23.267
463.69	21.951
464.04	23.884
464.39	22.957
464.74	22.757
465.09	22.859
465.44	21.939
465.79	22.931
466.14	23.591
466.49	22.414
466.84	23.292
467.19	22.209
467.54	22.875
467.89	22.509
468.24	22.978
468.59	23.138
468.94	22.114
469.29	23.072
469.64	22.959
469.99	23.004
470.34	22.457
470.68	22.055
471.03	22.517
471.38	23.211
471.73	22.518
472.08	22.895
472.43	22.173
472.78	22.054
473.13	23.492
473.48	22.659
473.83	22.683
474.17	22.091
474.52	22.333
474.87	22.358
475.22	22.867
475.57	22.192
475.92	21.774
476.27	22.435
476.61	22.449
476.96	21.880
477.31	21.716
477.66	23.140
478.01	21.694
478.36	22.422
478.70	20.717
479.05	22.311
479.40	22.057
479.75	22.166
480.10	22.167
480.45	21.799
480.79	20.688
481.14	22.065
481.49	22.212
481.84	21.171
482.19	22.172
482.53	21.972
482.88	21.824
483.23	22.103
483.58	22.111
483.92	22.540
484.27	21.264
484.62	21.897
484.97	21.640
485.31	21.918
485.66	20.944
486.01	20.929
486.36	20.738
486.70	20.370
487.05	20.771
487.40	20.710
487.75	20.235
488.09	21.565
488.44	21.181
488.79	21.013
489.13	21.658
489.48	21.085
489.83	21.536
490.17	21.526
490.52	21.568
490.87	20.986
491.22	21.601
491.56	21.185
491.91	21.126
492.26	20.946
492.60	20.783
492.95	21.001
493.30	20.888
493.64	21.185
493.99	20.288
494.34	21.970
494.68	21.474
495.03	21.006
495.37	20.521
495.72	21.150
496.07	21.531
496.41	21.150
496.76	21.240
497.11	21.252
497.45	20.913
497.80	21.545
498.14	20.628
498.49	20.829
498.84	21.189
499.18	20.762
499.53	20.750
499.87	20.876
500.22	20.820
500.56	21.748
500.91	20.288
501.26	21.195
501.60	21.215
501.95	21.036
502.29	21.087
502.64	20.577
502.98	20.757
503.33	20.110
503.67	22.042
504.02	21.001
504.36	20.777
504.71	21.251
505.06	20.000
505.40	20.564
505.75	20.588
506.09	20.408
506.44	20.375
506.78	20.896
507.13	20.798
507.47	21.061
507.82	20.466
508.16	21.023
508.51	21.005
508.85	20.506
509.19	20.408
509.54	20.204
509.88	20.453
510.23	20.720
510.57	21.311
510.92	21.284
511.26	18.859
511.61	20.643
511.95	19.311
512.30	20.255
512.64	20.365
512.98	20.900
513.33	19.968
513.67	20.384
514.02	20.076
514.36	21.464
514.70	20.808
515.05	20.468
515.39	20.471
515.74	19.707
516.08	20.291
516.42	20.533
516.77	20.847
517.11	19.922
517.46	19.865
517.80	20.325
518.14	20.382
518.49	20.420
518.83	20.511
519.17	20.497
519.52	20.260
519.86	20.593
520.20	20.809
520.55	21.065
520.89	20.316
521.23	20.748
521.58	20.288
521.92	20.943
522.26	19.402
522.61	20.748
522.95	20.258
523.29	19.781
523.64	21.159
523.98	20.394
524.32	19.602
524.66	20.565
525.01	20.527
525.35	18.278
525.69	19.335
526.04	20.312
526.38	19.402
526.72	19.693
527.06	20.025
527.41	18.688
527.75	20.000
528.09	20.809
528.43	20.140
528.78	19.361
529.12	18.909
529.46	19.596
529.80	20.111
530.15	20.125
530.49	19.692
530.83	19.494
531.17	20.757
531.51	20.169
531.86	20.387
532.20	19.883
532.54	19.987
532.88	19.961
533.22	20.050
533.57	19.383
533.91	19.807
534.25	19.380
534.59	19.524
534.93	19.453
535.27	19.252
535.62	19.597
535.96	19.648
536.30	19.962
536.64	19.897
536.98	19.575
537.32	18.565
537.66	18.800
538.01	20.079
538.35	19.651
538.69	20.230
539.03	18.648
539.37	18.594
539.71	18.211
540.05	19.673
540.39	18.870
540.73	18.693
541.07	19.273
541.42	18.395
541.76	18.839
542.10	19.987
542.44	18.808
542.78	19.763
543.12	18.554
543.46	19.279
543.80	19.519
544.14	18.421
544.48	19.238
544.82	18.409
545.16	18.608
545.50	18.638
545.84	19.355
546.18	19.192
546.52	19.683
546.86	19.107
547.20	19.622
547.54	18.771
547.88	18.878
548.22	18.493
548.56	18.805
548.90	18.950
549.24	17.980
549.58	19.031
549.92	18.544
550.26	19.034
550.60	19.364
550.94	19.296
551.28	18.215
551.62	19.051
551.96	18.596
552.30	18.840
552.64	18.999
552.98	18.983
553.32	18.476
553.66	19.291
554.00	18.668
554.34	18.357
554.68	20.601
555.02	18.265
555.36	18.511
555.69	18.742
556.03	17.766
556.37	18.827
556.71	18.895
557.05	18.067
557.39	18.265
557.73	18.843
558.07	18.782
558.41	18.234
558.75	18.883
559.08	19.389
559.42	18.443
559.76	18.897
560.10	18.059
560.44	18.029
560.78	17.565
561.12	17.546
561.45	18.253
561.79	18.721
562.13	17.975
562.47	17.691
562.81	19.247
563.15	18.194
563.48	17.507
563.82	18.004
564.16	17.528
564.50	16.797
564.84	17.446
565.17	18.662
565.51	17.508
565.85	18.401
566.19	16.969
566.52	18.556
566.86	17.782
567.20	18.514
567.54	17.979
567.88	17.979
568.21	17.725
568.55	17.695
568.89	17.412
569.23	17.201
569.56	17.490
569.90	17.208
570.24	17.008
570.57	17.239
570.91	17.098
571.25	16.553
571.59	17.054
571.92	17.310
572.26	17.129
572.60	17.117
572.93	16.642
573.27	17.155
573.61	17.420
573.95	17.132
574.28	17.085
574.62	16.497
574.96	16.726
575.29	16.756
575.63	16.768
575.97	16.506
576.30	16.729
576.64	16.351
576.98	16.383
577.31	16.636
577.65	16.743
577.98	16.727
578.32	16.243
578.66	16.771
578.99	16.709
579.33	16.800
579.67	16.492
580.00	16.423
580.34	16.730
580.67	16.805
581.01	16.820
581.35	16.731
581.68	16.664
582.02	15.952
582.35	16.293
582.69	16.316
583.02	16.447
583.36	16.694
583.70	16.983
584.03	16.379
584.37	16.891
584.70	16.327
585.04	16.610
585.37	16.659
585.71	16.776
586.04	16.018
586.38	16.223
586.72	16.819
587.05	16.735
587.39	16.464
587.72	16.722
588.06	16.756
588.39	16.735
588.73	16.339
589.06	16.952
589.40	16.902
589.73	16.367
590.07	17.117
590.40	16.186
590.73	16.940
591.07	17.053
591.40	16.871
591.74	17.273
592.07	16.623
592.41	16.577
592.74	16.592
593.08	16.389
593.41	16.735
593.75	16.427
594.08	16.359
594.41	16.790
594.75	16.525
595.08	16.249
595.42	16.988
595.75	16.489
596.09	16.635
596.42	16.817
596.75	16.589
597.09	17.143
597.42	16.231
597.75	16.343
598.09	16.565
598.42	16.151
598.76	16.579
599.09	16.306
599.42	16.084
599.76	16.837
600.09	16.794
600.42	15.924
600.76	16.036
601.09	16.211
601.42	16.400
601.76	16.015
602.09	16.285
602.42	16.640
602.76	16.848
603.09	17.034
603.42	16.283
603.76	16.159
604.09	16.518
604.42	16.388
604.76	16.744
605.09	16.863
605.42	16.118
605.75	16.308
606.09	16.023
606.42	16.551
606.75	16.425
607.09	17.120
607.42	16.132
607.75	16.329
608.08	16.327
608.42	16.002
608.75	15.735
609.08	16.096
609.41	16.183
609.75	15.484
610.08	16.447
610.41	15.736
610.74	15.799
611.07	16.848
611.41	16.290
611.74	16.390
612.07	16.511
612.40	17.261
612.73	16.947
613.07	16.595
613.40	16.377
613.73	15.994
614.06	16.075
614.39	16.203
614.72	16.737
615.06	15.599
615.39	17.251
615.72	16.155
616.05	15.683
616.38	16.509
616.71	17.162
617.05	16.843
617.38	15.454
617.71	15.976
618.04	16.046
618.37	15.967
618.70	16.117
619.03	16.382
619.36	16.429
619.69	16.197
620.03	16.209
620.36	17.580
620.69	16.301
621.02	16.962
621.35	16.210
621.68	16.121
622.01	16.254
622.34	17.247
622.67	15.970
623.00	15.774
623.33	16.226
623.66	17.155
623.99	15.758
624.32	15.692
624.65	16.737
624.99	15.722
625.32	15.424
625.65	16.153
625.98	17.064
626.31	16.563
626.64	16.000
626.97	16.625
627.30	15.960
627.63	16.981
627.96	17.662
628.29	15.486
628.62	17.292
628.95	16.981
629.28	16.697
629.61	17.049
629.94	16.571
630.26	16.683
630.59	16.301
630.92	16.858
631.25	15.893
631.58	16.316
631.91	15.619
632.24	16.561
632.57	17.314
632.90	16.557
633.23	17.002
633.56	16.723
633.89	15.742
634.22	17.594
634.55	16.805
634.88	15.808
635.20	17.563
635.53	16.627
635.86	16.460
636.19	17.529
636.52	16.148
636.85	16.495
637.18	15.553
637.51	17.494
637.83	14.180
638.16	16.496
638.49	15.113
638.82	15.171
639.15	17.750
639.48	17.332
639.81	18.499
640.13	16.276
640.46	18.121
640.79	17.834
641.12	16.231
641.45	16.061
641.77	18.704
642.10	15.936
642.43	17.267
642.76	17.957
643.09	19.018
643.41	15.175
643.74	17.438
644.07	16.921
644.40	17.945
644.73	17.795
645.05	18.700
645.38	15.166
645.71	16.586
646.04	17.774
646.36	20.367
646.69	17.726
647.02	17.007
647.35	16.838
647.67	16.460
648.00	19.187
648.33	15.512
648.66	15.606
648.98	17.091
649.31	15.845
649.64	15.546
649.96	16.095
650.29	16.272
650.62	15.858
650.94	17.342
651.27	18.412
651.60	16.306
651.92	17.891
652.25	16.287
652.58	16.511
652.90	19.115
653.23	15.716
653.56	15.276
653.88	16.482
654.21	16.746
654.54	16.007
654.86	16.355
655.19	15.946
655.52	13.748
655.84	13.914
656.17	17.059
656.49	22.469
656.82	22.212
657.15	16.698
657.47	12.279
657.80	9.483
658.13	9.884
658.45	14.438
658.78	14.342
659.10	14.931
659.43	15.487
659.75	15.275
660.08	15.253
660.41	16.294
660.73	17.916
661.06	14.650
661.38	16.545
661.71	16.538
662.03	18.343
662.36	12.127
662.68	14.859
663.01	14.949
663.33	14.013
663.66	16.597
663.98	14.687
664.31	15.546
664.63	14.777
664.96	14.487
665.28	16.189
665.61	15.205
665.93	15.694
666.26	13.996
666.58	17.782
666.91	16.490
667.23	16.180
667.56	14.039
667.88	17.308
668.21	15.991
668.53	14.967
668.86	16.667
669.18	18.550
669.50	15.870
669.83	18.301
670.15	14.889
670.48	16.776
670.80	16.164
671.13	15.711
671.45	14.681
671.77	17.312
672.10	16.451
672.42	16.254
672.75	15.755
673.07	15.669
673.39	15.009
673.72	13.086
674.04	14.902
674.37	15.728
674.69	12.270
675.01	15.272
675.34	17.248
675.66	18.105
675.98	17.923
676.31	16.176
676.63	16.348
676.95	15.094
677.28	14.252
677.60	15.824
677.92	16.034
678.25	16.427
678.57	16.135
678.89	13.627
679.22	15.914
679.54	16.031
679.86	15.780
680.18	16.995
680.51	13.652
680.83	15.658
681.15	15.660
681.48	17.202
681.80	16.634
682.12	15.900
682.44	14.507
682.77	16.904
683.09	18.884
683.41	15.965
683.73	17.219
684.06	17.769
684.38	14.286
684.70	15.504
685.02	16.886
685.34	16.117
685.67	12.937
685.99	14.605
686.31	15.529
686.63	12.014
686.96	15.179
687.28	16.606
687.60	15.580
687.92	14.077
688.24	15.209
688.56	18.273
688.89	15.768
689.21	16.376
689.53	17.954
689.85	19.069
690.17	14.700
690.49	17.410
690.82	15.187
691.14	13.616
691.46	13.080
691.78	16.867
692.10	16.116
692.42	15.768
692.74	13.900
693.06	15.745
693.39	15.811
693.71	15.066
694.03	15.158
694.35	15.152
694.67	15.332
694.99	16.585
695.31	14.461
695.63	14.115
695.95	15.892
696.27	12.690
696.59	12.176
696.91	14.767
697.23	13.146
697.56	15.139
697.88	14.519
698.20	14.375
698.52	15.914
698.84	13.586
699.16	13.364
699.48	16.865
699.80	14.251
700.12	17.403
700.44	17.241
700.76	12.431
701.08	12.931
701.40	16.480
701.72	16.327
702.04	21.023
702.36	11.615
702.68	16.997
703.00	17.175
703.32	15.426
703.64	13.941
703.96	15.320
704.28	16.570
704.60	16.129
704.91	16.320
705.23	15.249
705.55	14.286
705.87	20.266
706.19	14.134
706.51	14.019
706.83	17.273
707.15	17.367
707.47	12.121
707.79	18.919
708.11	15.525
708.43	13.095
708.74	14.031
709.06	17.143
709.38	16.535
709.70	12.791
710.02	15.727
710.34	14.848
710.66	16.418
710.98	17.614
711.29	15.407
711.61	17.699
711.93	14.423
712.25	18.328
712.57	16.544
712.89	16.263
713.20	17.933
713.52	18.750
713.84	15.190
714.16	13.110
714.48	13.793
714.80	16.413
715.11	15.562
715.43	15.134
715.75	15.072
716.07	14.058
716.39	17.868
716.70	15.947
717.02	17.986
717.34	15.194
717.66	18.657
717.97	19.124
718.29	15.185
718.61	13.504
718.93	12.868
719.24	13.841
719.56	12.203
719.88	15.593
720.20	18.581
720.51	17.770
720.83	17.844
721.15	11.940
721.46	16.667
721.78	20.430
722.10	15.849
722.42	17.293
722.73	15.730
723.05	13.934
723.37	17.004
723.68	14.286
724.00	17.073
724.32	12.500
724.63	11.789
724.95	12.552
725.27	15.789
725.58	17.578
725.90	17.883
726.22	13.585
726.53	14.931
726.85	17.747
727.16	16.370
727.48	13.121
727.80	17.045
728.11	17.029
728.43	13.462
728.74	13.620
729.06	19.708
729.38	17.647
729.69	16.370
730.01	14.334
730.32	13.194
730.64	13.378
730.96	13.201
731.27	17.219
731.59	18.043
731.90	16.910
732.22	8.075
732.53	13.003
732.85	13.782
733.16	13.505
733.48	14.286
733.80	13.636
734.11	16.561
734.43	12.130
734.74	12.000
735.06	11.748
735.37	16.763
735.69	11.783
736.00	13.725
736.32	16.822
736.63	13.738
736.95	18.530
737.26	8.844
737.58	11.290
737.89	14.716
738.21	14.676
738.52	13.929
738.83	11.698
739.15	7.308
739.46	15.693
739.78	15.625
740.09	17.231
740.41	16.774
740.72	13.937
741.04	17.037
741.35	12.500
741.66	20.444
741.98	15.094
742.29	18.182
742.61	17.672
742.92	15.837
743.23	14.103
743.55	14.400
743.86	14.035
744.18	15.487
744.49	15.789
744.80	20.657
745.12	14.091
745.43	13.656
745.74	18.018
746.06	15.138
746.37	10.762
746.68	14.027
747.00	17.593
747.31	22.381
747.62	11.947
747.94	15.859
748.25	17.021
748.56	16.300
748.88	17.822
749.19	16.000
749.50	13.023
749.82	15.854
750.13	15.510
750.44	11.679
750.75	17.895
751.07	18.971
751.38	18.118
751.69	14.801
752.01	10.902
752.32	13.357
752.63	15.603
752.94	13.934
753.26	17.200
753.57	8.943
753.88	21.094
754.19	15.714
754.51	22.222
754.82	13.718
755.13	17.358
755.44	13.158
755.75	16.788
756.07	14.894
756.38	9.489
756.69	17.114
757.00	11.976
757.31	13.353
757.63	14.327
757.94	14.477
758.25	13.235
758.56	15.062
758.87	13.978
759.18	13.939
759.50	11.912
759.81	12.461
760.12	9.062
760.43	14.613
760.74	11.957
761.05	15.537
761.36	12.834
761.67	13.636
761.99	12.422
762.30	13.194
762.61	10.687
762.92	16.406
763.23	12.185
763.54	15.600
763.85	11.719
764.16	18.077
764.47	14.068
764.78	12.367
765.10	11.076
765.41	16.814
765.72	12.575
766.03	13.793
766.34	13.000
766.65	13.191
766.96	11.538
767.27	16.751
767.58	21.354
767.89	20.000
768.20	13.218
768.51	14.721
768.82	16.055
769.13	10.569
769.44	11.336
769.75	12.446
770.06	10.092
770.37	19.005
770.68	12.500
770.99	12.000
771.30	13.525
771.61	11.211
771.92	11.066
772.23	19.328
772.54	12.821
772.85	17.277
773.16	13.298
773.47	24.457
773.78	21.827
774.09	16.667
774.39	15.205
774.70	21.605
775.01	15.217
775.32	20.261
775.63	17.105
775.94	11.511
776.25	17.323
776.56	16.418
776.87	14.754
777.18	14.063
777.48	13.740
777.79	16.667
778.10	21.481
778.41	10.714
778.72	13.139
779.03	20.134
779.34	15.436
779.65	17.568
779.95	18.405
780.26	21.569
780.57	18.621
780.88	17.969
781.19	15.038
781.50	20.270
781.80	15.723
782.11	15.254
782.42	12.025
782.73	18.405
783.04	14.189
783.34	16.901
783.65	16.438
783.96	16.418
784.27	13.986
784.57	11.511
784.88	5.556
785.19	27.778
785.50	9.434
785.81	24.627
786.11	19.672
786.42	25.581
786.73	16.814
787.04	15.094
787.34	17.857
787.65	6.000
787.96	11.712
788.26	17.355
788.57	22.034
788.88	26.446
789.19	27.778
789.49	21.970
789.80	16.794
790.11	37.143
790.41	19.802
790.72	1.205
791.03	25.000
791.33	22.093
791.64	18.557
791.95	15.842
792.25	16.667
792.56	12.987
792.87	17.949
793.17	21.519
793.48	26.437
793.79	20.690
794.09	17.045
794.40	21.849
794.70	19.118
795.01	12.593
795.32	23.022
795.62	13.386
795.93	21.552
796.23	19.469
796.54	18.824
796.85	10.811
797.15	30.986
797.46	15.152
797.76	34.940
798.07	20.253
798.37	7.692
798.68	19.697
798.99	9.859
799.29	19.481
799.60	12.500
799.90	30.137
800.21	32.836
800.51	22.414
800.82	22.807
801.12	3.279
801.43	13.636
801.73	22.973
802.04	20.635
802.34	32.099
802.65	29.688
802.95	30.508
803.26	39.062
803.56	14.286
803.87	20.000
804.17	26.471
804.48	35.185
804.78	18.966
805.09	26.471
805.39	23.077
805.70	30.357
806.00	32.787
806.30	13.636
806.61	31.707
806.91	27.848
807.22	17.105
807.52	22.388
807.83	29.577
808.13	26.563
808.43	13.333
808.74	17.105
809.04	28.986
809.35	23.881
809.65	17.105
809.95	40.323
810.26	18.644
810.56	31.746
810.86	38.636
811.17	28.571
811.47	35.000
811.77	42.593
812.08	29.091
812.38	24.000
812.69	19.444
812.99	45.455
813.29	46.939
813.59	-2.381
813.90	26.531
814.20	9.091
814.50	6.154
814.81	29.412
815.11	20.408
815.41	29.508
815.72	38.095
816.02	52.727
816.32	42.857
816.62	7.500
816.93	17.073
817.23	26.190
817.53	29.545
817.84	6.061
818.14	39.130
818.44	42.222
818.74	20.588
819.04	10.000
819.35	20.000
819.65	29.412
819.95	-3.571
820.25	0.000
820.56	25.641
820.86	34.091
821.16	55.814
821.46	12.821
821.76	44.000
822.07	28.571
822.37	15.000
822.67	15.152
822.97	19.608
823.27	78.571
823.57	24.324
823.88	45.000
824.18	23.333
824.48	42.857
824.78	0.000
825.08	12.500
825.38	43.243
825.69	60.976
825.99	87.500
826.29	3.448
826.59	57.895
826.89	39.474
827.19	52.941
827.49	25.806
827.79	47.727
828.09	40.909
828.39	27.660
828.70	40.816
829.00	7.407
829.30	32.258
829.60	57.500
829.90	46.667
830.20	28.571
830.50	17.391
830.80	39.130
831.10	43.333
831.40	46.667
831.70	21.739
832.00	50.000
832.30	48.148
832.60	56.250
832.90	56.667
833.20	85.714
833.50	61.290
833.80	13.793
834.10	78.125
834.40	61.538
834.70	44.444
835.00	90.476
835.30	22.857
835.60	0.000
835.90	48.276
836.20	50.000
836.50	27.586
836.80	-4.000
837.10	47.222
837.40	28.571
837.70	58.824
838.00	74.074
838.30	28.571
838.60	109.524
838.90	61.538
839.19	50.000
839.49	42.857
839.79	45.000
840.09	70.000
840.39	100.000
840.69	52.174
840.99	16.667
841.29	20.000
841.59	100.000
841.88	118.750
842.18	20.690
842.48	76.190
842.78	53.333
843.08	78.261
843.38	25.000
843.68	116.667
843.97	30.769
844.27	24.138
844.57	114.286
844.87	43.750
845.17	59.259
845.47	200.000
845.76	-22.222
846.06	76.471
846.36	-37.500
846.66	35.714
846.96	6.250
847.25	81.818
847.55	90.909
847.85	69.565
848.15	80.000
848.44	64.286
848.74	33.333
849.04	64.706
849.34	80.000
849.63	57.895
849.93	54.545
850.23	-60.000
850.53	135.714
850.82	100.000
851.12	100.000
851.42	0.000
851.71	75.000
852.01	300.000
852.31	54.167
852.61	500.000
852.90	71.429
853.20	44.000
853.50	41.176
853.79	33.333
854.09	20.833
854.39	50.000
854.68	62.162
854.98	48.387
855.28	20.000
855.57	65.517
855.87	81.481
856.17	78.947
856.46	33.333
856.76	29.412
857.05	72.414
857.35	25.000
857.65	86.667
857.94	56.522
858.24	69.231
858.53	75.000
858.83	63.636
859.13	93.333
859.42	0.000
859.72	0.000
860.01	-45.455
860.31	68.182
860.60	42.105
860.90	39.130
861.20	0.000
861.49	116.667
861.79	-300.000
862.08	162.500
862.38	95.238
862.67	-23.077
862.97	76.471
863.26	22.222
863.56	38.889
863.85	50.000
864.15	112.500
864.44	86.667
864.74	66.667
865.03	212.500
865.33	63.158
865.62	127.273
865.92	176.923
866.21	-16.667
866.51	0.000
866.80	36.364
867.10	280.000
867.39	115.385
867.69	9.091
867.98	57.895
868.27	100.000
868.57	89.474
868.86	-800.000
869.16	37.500
869.45	400.000
869.75	200.000
870.04	83.333
870.33	171.429
870.63	-125.000
870.92	150.000
871.22	128.571
871.51	123.529
871.80	38.095
872.10	42.857
>>>>>End Processed Spectral Data<<<<<
