SpectraSuite Data File
++++++++++++++++++++++++++++++++++++
Date: Wed May 13 16:55:47 PDT 2015
User: schluterlab
Dark Spectrum Present: Yes
Reference Spectrum Present: Yes
Number of Sampled Component Spectra: 1
Spectrometers: USB2E3373
Integration Time (usec): 3000 (USB2E3373)
Spectra Averaged: 3 (USB2E3373)
Boxcar Smoothing: 0 (USB2E3373)
Correct for Electrical Dark: No (USB2E3373)
Strobe/Lamp Enabled: No (USB2E3373)
Correct for Detector Non-linearity: No (USB2E3373)
Correct for Stray Light: No (USB2E3373)
Number of Pixels in Processed Spectrum: 2048
>>>>>Begin Processed Spectral Data<<<<<
178.53	0.000
178.91	-1250.000
179.29	-1225.000
179.67	-250.000
180.04	-1325.000
180.42	3050.000
180.80	1160.000
181.18	-1075.000
181.56	671.429
181.94	0.000
182.31	-671.429
182.69	1800.000
183.07	-475.000
183.45	-566.667
183.83	454.545
184.20	-430.000
184.58	2300.000
184.96	5800.000
185.34	-780.000
185.72	-700.000
186.09	-2500.000
186.47	2350.000
186.85	2600.000
187.23	5500.000
187.61	-1700.000
187.98	1350.000
188.36	554.545
188.74	500.000
189.12	-1020.000
189.49	520.000
189.87	-5000.000
190.25	-1500.000
190.63	457.143
191.00	492.308
191.38	950.000
191.76	-975.000
192.14	1475.000
192.51	662.500
192.89	983.333
193.27	650.000
193.65	-1175.000
194.02	590.000
194.40	900.000
194.78	630.000
195.15	541.667
195.53	670.000
195.91	-2050.000
196.29	437.500
196.66	326.316
197.04	-450.000
197.42	0.000
197.79	680.000
198.17	-3800.000
198.55	685.714
198.92	612.500
199.30	980.000
199.68	0.000
200.05	327.778
200.43	714.286
200.81	4800.000
201.18	1666.667
201.56	-1633.333
201.94	566.667
202.31	600.000
202.69	458.333
203.07	560.000
203.44	0.000
203.82	1125.000
204.19	685.714
204.57	450.000
204.95	650.000
205.32	1500.000
205.70	590.909
206.08	421.429
206.45	2850.000
206.83	368.750
207.20	900.000
207.58	800.000
207.96	350.000
208.33	762.500
208.71	-883.333
209.08	828.571
209.46	677.778
209.84	581.818
210.21	-1633.333
210.59	1325.000
210.96	-537.500
211.34	2550.000
211.71	550.000
212.09	816.667
212.46	0.000
212.84	1933.333
213.22	1375.000
213.59	-5300.000
213.97	850.000
214.34	785.714
214.72	681.818
215.09	960.000
215.47	-2000.000
215.84	-2750.000
216.22	1733.333
216.59	414.286
216.97	1400.000
217.34	436.364
217.72	-783.333
218.09	0.000
218.47	-4500.000
218.84	577.778
219.22	814.286
219.59	1400.000
219.97	-571.429
220.34	1020.000
220.72	-1666.667
221.09	442.857
221.47	1600.000
221.84	-833.333
222.22	0.000
222.59	1325.000
222.97	-2600.000
223.34	1240.000
223.72	415.385
224.09	1100.000
224.46	2550.000
224.84	-5000.000
225.21	-940.000
225.59	-5200.000
225.96	580.000
226.34	355.000
226.71	2750.000
227.08	537.500
227.46	500.000
227.83	-1225.000
228.21	-1950.000
228.58	600.000
228.95	-1950.000
229.33	-2200.000
229.70	1866.667
230.08	757.143
230.45	-900.000
230.82	566.667
231.20	816.667
231.57	671.429
231.95	433.333
232.32	290.909
232.69	454.545
233.07	657.143
233.44	284.615
233.81	-1800.000
234.19	310.526
234.56	433.333
234.93	416.667
235.31	427.273
235.68	353.846
236.05	421.429
236.43	172.727
236.80	257.895
237.17	4000.000
237.55	238.095
237.92	214.286
238.29	252.381
238.67	167.742
239.04	206.897
239.41	122.222
239.79	119.565
240.16	152.381
240.53	138.636
240.91	101.961
241.28	96.000
241.65	98.000
242.02	102.899
242.40	106.452
242.77	98.333
243.14	82.796
243.51	70.787
243.89	74.118
244.26	60.000
244.63	66.667
245.00	58.511
245.38	64.356
245.75	62.617
246.12	56.881
246.49	61.314
246.87	61.600
247.24	58.462
247.61	50.000
247.98	47.712
248.36	54.730
248.73	46.497
249.10	53.503
249.47	49.718
249.84	49.733
250.22	48.663
250.59	42.012
250.96	46.465
251.33	45.024
251.70	41.584
252.08	40.952
252.45	38.565
252.82	39.130
253.19	44.681
253.56	41.961
253.94	41.909
254.31	42.187
254.68	41.154
255.05	38.007
255.42	35.366
255.79	36.029
256.16	38.628
256.54	35.689
256.91	37.011
257.28	32.734
257.65	37.624
258.02	36.957
258.39	34.700
258.76	34.783
259.14	35.119
259.51	32.523
259.88	30.124
260.25	33.837
260.62	29.769
260.99	32.609
261.36	33.934
261.73	30.086
262.10	32.267
262.47	33.239
262.85	32.869
263.22	29.630
263.59	35.328
263.96	29.670
264.33	31.593
264.70	28.947
265.07	31.202
265.44	32.828
265.81	29.440
266.18	33.166
266.55	28.049
266.92	29.730
267.29	29.167
267.66	28.440
268.03	27.727
268.40	27.804
268.77	28.640
269.14	29.505
269.51	27.991
269.88	29.837
270.25	27.540
270.62	27.865
270.99	32.903
271.36	29.614
271.73	26.869
272.10	28.261
272.47	26.882
272.84	28.571
273.21	26.415
273.58	27.511
273.95	27.673
274.32	25.413
274.69	28.480
275.06	26.378
275.43	30.000
275.80	25.050
276.17	26.884
276.54	28.482
276.91	26.087
277.28	26.953
277.65	27.853
278.02	25.052
278.39	29.102
278.76	28.182
279.13	26.604
279.50	26.071
279.87	27.092
280.23	26.547
280.60	24.952
280.97	26.248
281.34	26.018
281.71	25.091
282.08	27.063
282.45	24.182
282.82	23.801
283.19	22.282
283.56	25.789
283.92	25.719
284.29	26.102
284.66	23.956
285.03	25.678
285.40	25.000
285.77	23.232
286.14	23.834
286.51	22.500
286.87	23.761
287.24	23.127
287.61	23.756
287.98	23.377
288.35	24.089
288.72	23.209
289.08	23.474
289.45	21.087
289.82	22.439
290.19	22.606
290.56	22.358
290.93	19.940
291.29	22.853
291.66	22.271
292.03	25.436
292.40	23.054
292.77	21.450
293.13	22.836
293.50	21.866
293.87	21.333
294.24	21.037
294.60	21.543
294.97	22.384
295.34	21.016
295.71	21.165
296.08	19.373
296.44	20.083
296.81	19.947
297.18	22.222
297.55	18.602
297.91	20.712
298.28	20.348
298.65	19.974
299.02	20.026
299.38	19.788
299.75	19.003
300.12	18.902
300.48	18.625
300.85	19.605
301.22	18.471
301.59	19.066
301.95	18.640
302.32	18.999
302.69	18.638
303.05	19.030
303.42	18.889
303.79	17.101
304.15	17.832
304.52	17.265
304.89	18.235
305.25	18.213
305.62	17.441
305.99	19.362
306.35	19.463
306.72	18.946
307.09	18.979
307.45	20.383
307.82	18.750
308.19	18.985
308.55	18.986
308.92	18.582
309.29	18.268
309.65	18.240
310.02	18.922
310.38	17.849
310.75	19.007
311.12	19.345
311.48	18.286
311.85	18.553
312.22	18.522
312.58	18.815
312.95	19.747
313.31	18.932
313.68	18.295
314.05	21.696
314.41	18.693
314.78	19.033
315.14	19.960
315.51	19.567
315.87	20.000
316.24	19.464
316.61	20.858
316.97	20.450
317.34	19.569
317.70	21.128
318.07	19.731
318.43	20.254
318.80	20.150
319.16	20.998
319.53	19.231
319.89	21.714
320.26	22.100
320.62	22.222
320.99	22.020
321.35	22.222
321.72	22.177
322.08	22.606
322.45	24.876
322.81	22.868
323.18	24.085
323.54	22.820
323.91	23.302
324.27	22.849
324.64	22.647
325.00	22.723
325.37	23.567
325.73	24.955
326.10	24.095
326.46	23.387
326.83	24.849
327.19	25.021
327.56	24.913
327.92	25.722
328.29	25.821
328.65	24.862
329.01	26.625
329.38	25.717
329.74	25.854
330.11	25.636
330.47	26.538
330.84	25.735
331.20	25.592
331.56	24.771
331.93	26.944
332.29	26.531
332.66	26.726
333.02	25.137
333.38	27.552
333.75	27.184
334.11	27.046
334.48	27.684
334.84	26.746
335.20	27.636
335.57	25.476
335.93	26.696
336.29	26.465
336.66	26.781
337.02	26.425
337.38	27.963
337.75	26.203
338.11	27.484
338.47	26.611
338.84	26.673
339.20	27.431
339.56	26.916
339.93	26.727
340.29	26.449
340.65	26.827
341.02	28.272
341.38	27.758
341.74	26.842
342.11	25.764
342.47	26.960
342.83	26.798
343.20	27.879
343.56	25.779
343.92	27.456
344.28	26.190
344.65	27.343
345.01	27.778
345.37	26.501
345.73	27.411
346.10	26.939
346.46	27.458
346.82	26.606
347.19	26.149
347.55	26.847
347.91	27.427
348.27	27.855
348.63	28.679
349.00	27.427
349.36	26.273
349.72	27.747
350.08	26.985
350.45	28.234
350.81	27.864
351.17	27.634
351.53	27.846
351.89	26.815
352.26	27.703
352.62	27.827
352.98	28.039
353.34	27.609
353.70	27.414
354.07	27.419
354.43	27.937
354.79	26.146
355.15	28.332
355.51	29.257
355.87	28.490
356.24	28.420
356.60	27.586
356.96	28.801
357.32	28.209
357.68	28.346
358.04	28.187
358.40	27.553
358.77	29.343
359.13	28.098
359.49	28.314
359.85	26.825
360.21	28.628
360.57	29.261
360.93	29.231
361.29	29.327
361.66	28.096
362.02	29.552
362.38	29.582
362.74	30.655
363.10	28.868
363.46	28.907
363.82	29.403
364.18	29.369
364.54	29.272
364.90	29.887
365.26	29.485
365.62	29.730
365.98	29.730
366.35	29.155
366.71	30.152
367.07	29.497
367.43	29.245
367.79	29.907
368.15	31.537
368.51	30.160
368.87	30.835
369.23	30.432
369.59	31.499
369.95	30.441
370.31	30.484
370.67	30.725
371.03	31.985
371.39	31.778
371.75	31.912
372.11	31.223
372.47	32.258
372.83	32.637
373.19	31.936
373.55	33.407
373.91	34.168
374.27	32.165
374.63	32.873
374.99	33.545
375.35	32.659
375.71	32.968
376.07	33.471
376.42	33.081
376.78	33.930
377.14	32.972
377.50	34.172
377.86	34.441
378.22	35.398
378.58	33.083
378.94	34.067
379.30	34.860
379.66	35.216
380.02	35.258
380.38	34.669
380.74	35.114
381.09	35.758
381.45	35.956
381.81	36.118
382.17	35.669
382.53	35.786
382.89	36.728
383.25	37.211
383.61	37.546
383.97	36.961
384.32	36.806
384.68	36.865
385.04	36.447
385.40	38.080
385.76	37.408
386.12	37.694
386.48	38.641
386.83	38.679
387.19	39.518
387.55	39.579
387.91	38.996
388.27	39.056
388.62	39.828
388.98	39.066
389.34	39.362
389.70	39.240
390.06	41.508
390.42	41.310
390.77	40.712
391.13	41.161
391.49	40.863
391.85	39.911
392.20	39.558
392.56	41.035
392.92	41.201
393.28	40.710
393.64	41.727
393.99	41.784
394.35	42.556
394.71	41.782
395.07	40.498
395.42	41.718
395.78	42.494
396.14	42.644
396.50	41.980
396.85	42.276
397.21	42.602
397.57	42.653
397.92	42.668
398.28	42.601
398.64	42.951
399.00	42.753
399.35	42.358
399.71	43.866
400.07	43.938
400.42	43.252
400.78	44.029
401.14	44.329
401.49	43.343
401.85	43.497
402.21	43.593
402.57	43.800
402.92	44.641
403.28	45.846
403.63	43.688
403.99	44.268
404.35	43.697
404.70	44.724
405.06	44.205
405.42	45.602
405.77	44.400
406.13	44.300
406.49	44.293
406.84	44.123
407.20	44.208
407.55	45.437
407.91	47.067
408.27	45.948
408.62	45.154
408.98	45.833
409.34	45.264
409.69	46.000
410.05	45.725
410.40	44.465
410.76	46.057
411.11	45.356
411.47	44.601
411.83	46.182
412.18	46.506
412.54	46.202
412.89	46.566
413.25	46.694
413.60	47.746
413.96	45.234
414.31	46.233
414.67	47.529
415.03	47.285
415.38	47.294
415.74	47.460
416.09	47.289
416.45	47.323
416.80	47.323
417.16	47.319
417.51	48.374
417.87	46.757
418.22	47.760
418.58	46.482
418.93	47.666
419.29	46.785
419.64	47.355
420.00	48.049
420.35	46.841
420.71	48.356
421.06	46.718
421.42	48.070
421.77	47.309
422.12	46.042
422.48	45.710
422.83	47.641
423.19	45.801
423.54	47.475
423.90	46.841
424.25	46.454
424.61	46.845
424.96	47.464
425.31	47.453
425.67	46.124
426.02	46.743
426.38	48.718
426.73	46.870
427.09	47.234
427.44	46.866
427.79	46.233
428.15	47.738
428.50	46.987
428.85	47.735
429.21	47.432
429.56	48.108
429.92	46.905
430.27	46.723
430.62	46.493
430.98	46.601
431.33	46.134
431.68	47.173
432.04	46.645
432.39	47.516
432.74	47.457
433.10	47.595
433.45	48.455
433.80	47.395
434.16	47.382
434.51	47.842
434.86	47.891
435.22	47.971
435.57	47.781
435.92	47.104
436.28	48.221
436.63	47.351
436.98	46.938
437.34	48.539
437.69	47.958
438.04	48.061
438.39	48.239
438.75	48.344
439.10	47.765
439.45	47.639
439.81	48.097
440.16	47.431
440.51	48.272
440.86	47.481
441.22	47.775
441.57	48.726
441.92	48.209
442.27	47.632
442.63	47.867
442.98	48.563
443.33	48.750
443.68	47.651
444.03	47.438
444.39	45.764
444.74	48.485
445.09	47.385
445.44	47.895
445.79	47.254
446.15	47.485
446.50	47.604
446.85	47.482
447.20	46.915
447.55	49.023
447.91	47.766
448.26	47.746
448.61	47.824
448.96	48.616
449.31	48.369
449.66	47.102
450.02	46.964
450.37	46.655
450.72	47.377
451.07	47.898
451.42	47.173
451.77	48.503
452.12	47.344
452.47	48.010
452.83	48.252
453.18	48.044
453.53	48.423
453.88	47.903
454.23	47.101
454.58	47.608
454.93	49.777
455.28	48.504
455.63	47.876
455.98	48.036
456.34	48.430
456.69	49.217
457.04	47.864
457.39	48.159
457.74	46.489
458.09	48.764
458.44	48.461
458.79	46.421
459.14	47.743
459.49	46.468
459.84	47.091
460.19	47.908
460.54	46.296
460.89	47.010
461.24	47.905
461.59	48.693
461.94	47.965
462.29	48.427
462.64	47.033
462.99	47.300
463.34	48.533
463.69	48.093
464.04	46.145
464.39	46.783
464.74	47.891
465.09	46.743
465.44	46.814
465.79	46.421
466.14	45.703
466.49	46.329
466.84	47.344
467.19	46.470
467.54	46.500
467.89	46.579
468.24	47.179
468.59	47.619
468.94	46.671
469.29	47.686
469.64	48.059
469.99	48.714
470.34	47.820
470.68	47.557
471.03	46.259
471.38	48.784
471.73	47.835
472.08	49.013
472.43	47.362
472.78	48.387
473.13	46.983
473.48	47.690
473.83	47.317
474.17	47.355
474.52	46.960
474.87	47.811
475.22	47.185
475.57	45.459
475.92	46.362
476.27	46.618
476.61	47.104
476.96	47.444
477.31	46.520
477.66	45.952
478.01	45.949
478.36	45.637
478.70	45.535
479.05	46.539
479.40	47.083
479.75	46.060
480.10	45.129
480.45	45.835
480.79	45.533
481.14	46.331
481.49	46.701
481.84	45.039
482.19	45.616
482.53	45.092
482.88	46.301
483.23	46.682
483.58	45.678
483.92	46.111
484.27	44.052
484.62	45.647
484.97	44.856
485.31	45.788
485.66	44.641
486.01	42.189
486.36	40.703
486.70	39.586
487.05	41.114
487.40	41.803
487.75	42.004
488.09	42.948
488.44	43.129
488.79	45.316
489.13	44.882
489.48	45.106
489.83	45.015
490.17	45.726
490.52	44.686
490.87	45.183
491.22	44.839
491.56	44.191
491.91	44.858
492.26	44.511
492.60	44.977
492.95	44.995
493.30	44.439
493.64	45.217
493.99	44.986
494.34	45.976
494.68	45.742
495.03	45.818
495.37	44.160
495.72	46.053
496.07	45.290
496.41	43.850
496.76	44.723
497.11	43.854
497.45	46.018
497.80	45.777
498.14	44.831
498.49	44.976
498.84	43.912
499.18	44.905
499.53	44.587
499.87	45.294
500.22	44.654
500.56	45.146
500.91	44.135
501.26	44.618
501.60	46.227
501.95	44.042
502.29	45.267
502.64	45.205
502.98	44.694
503.33	44.196
503.67	44.130
504.02	44.153
504.36	44.221
504.71	45.237
505.06	44.867
505.40	44.385
505.75	44.311
506.09	44.266
506.44	45.190
506.78	44.228
507.13	45.785
507.47	45.253
507.82	45.238
508.16	45.086
508.51	45.003
508.85	44.240
509.19	45.153
509.54	45.357
509.88	45.131
510.23	45.604
510.57	46.646
510.92	45.676
511.26	45.272
511.61	45.488
511.95	44.624
512.30	45.069
512.64	46.749
512.98	45.016
513.33	46.039
513.67	44.931
514.02	44.426
514.36	46.368
514.70	45.877
515.05	46.514
515.39	45.653
515.74	46.002
516.08	46.395
516.42	46.670
516.77	47.157
517.11	45.727
517.46	45.429
517.80	48.026
518.14	46.207
518.49	47.725
518.83	46.591
519.17	46.940
519.52	46.576
519.86	46.891
520.20	46.069
520.55	46.978
520.89	48.418
521.23	48.191
521.58	47.119
521.92	48.010
522.26	46.980
522.61	48.723
522.95	47.145
523.29	47.778
523.64	48.232
523.98	48.244
524.32	47.829
524.66	48.046
525.01	48.346
525.35	46.654
525.69	46.367
526.04	46.978
526.38	48.627
526.72	46.503
527.06	47.834
527.41	45.421
527.75	47.846
528.09	48.298
528.43	48.247
528.78	48.310
529.12	47.758
529.46	48.132
529.80	47.958
530.15	48.660
530.49	45.846
530.83	47.658
531.17	49.413
531.51	48.314
531.86	48.000
532.20	48.566
532.54	48.046
532.88	47.754
533.22	46.346
533.57	47.160
533.91	47.140
534.25	47.631
534.59	46.980
534.93	46.817
535.27	45.263
535.62	47.985
535.96	47.897
536.30	46.790
536.64	48.229
536.98	48.308
537.32	47.268
537.66	48.467
538.01	48.321
538.35	47.188
538.69	47.990
539.03	48.343
539.37	46.390
539.71	47.051
540.05	47.255
540.39	49.236
540.73	47.154
541.07	48.215
541.42	47.815
541.76	47.613
542.10	46.831
542.44	46.821
542.78	49.407
543.12	45.745
543.46	47.016
543.80	48.016
544.14	46.149
544.48	47.873
544.82	47.210
545.16	47.885
545.50	46.208
545.84	47.849
546.18	47.744
546.52	47.144
546.86	47.835
547.20	48.146
547.54	47.027
547.88	48.023
548.22	46.949
548.56	46.038
548.90	46.159
549.24	47.744
549.58	46.999
549.92	46.703
550.26	47.514
550.60	46.542
550.94	47.676
551.28	46.964
551.62	47.088
551.96	48.070
552.30	47.782
552.64	47.329
552.98	47.661
553.32	47.404
553.66	45.944
554.00	48.044
554.34	46.377
554.68	49.499
555.02	47.602
555.36	47.808
555.69	47.023
556.03	46.703
556.37	46.862
556.71	46.453
557.05	47.479
557.39	47.096
557.73	46.436
558.07	49.021
558.41	47.250
558.75	48.567
559.08	49.068
559.42	47.997
559.76	48.235
560.10	48.108
560.44	47.100
560.78	46.640
561.12	47.691
561.45	47.132
561.79	46.407
562.13	47.015
562.47	46.243
562.81	46.374
563.15	46.421
563.48	45.491
563.82	46.445
564.16	46.174
564.50	46.745
564.84	45.702
565.17	46.139
565.51	46.837
565.85	45.749
566.19	45.773
566.52	46.105
566.86	45.389
567.20	47.583
567.54	45.776
567.88	44.704
568.21	45.450
568.55	44.742
568.89	44.358
569.23	43.538
569.56	42.551
569.90	42.415
570.24	42.124
570.57	41.006
570.91	41.112
571.25	40.828
571.59	40.206
571.92	40.265
572.26	39.890
572.60	40.751
572.93	40.540
573.27	40.254
573.61	40.341
573.95	40.388
574.28	39.724
574.62	40.209
574.96	38.973
575.29	38.967
575.63	39.812
575.97	39.026
576.30	40.069
576.64	39.525
576.98	39.791
577.31	39.348
577.65	39.175
577.98	39.144
578.32	38.602
578.66	38.910
578.99	38.781
579.33	39.434
579.67	38.579
580.00	39.127
580.34	40.081
580.67	39.447
581.01	39.690
581.35	38.965
581.68	39.223
582.02	38.674
582.35	38.137
582.69	38.355
583.02	39.025
583.36	39.128
583.70	39.885
584.03	39.838
584.37	40.132
584.70	40.099
585.04	39.506
585.37	39.212
585.71	39.262
586.04	38.971
586.38	40.099
586.72	40.210
587.05	39.419
587.39	39.235
587.72	39.680
588.06	39.354
588.39	39.534
588.73	40.100
589.06	40.511
589.40	40.707
589.73	41.042
590.07	41.174
590.40	40.227
590.73	41.647
591.07	42.409
591.40	42.176
591.74	41.818
592.07	41.885
592.41	42.332
592.74	40.749
593.08	40.007
593.41	40.683
593.75	39.663
594.08	40.127
594.41	40.156
594.75	40.518
595.08	40.623
595.42	40.701
595.75	40.491
596.09	40.894
596.42	41.454
596.75	42.043
597.09	42.424
597.42	41.147
597.75	41.397
598.09	41.783
598.42	40.979
598.76	41.508
599.09	40.517
599.42	39.410
599.76	39.495
600.09	40.474
600.42	40.212
600.76	40.214
601.09	40.146
601.42	40.982
601.76	40.721
602.09	40.751
602.42	41.242
602.76	41.354
603.09	41.070
603.42	41.039
603.76	40.777
604.09	40.442
604.42	40.766
604.76	42.092
605.09	41.721
605.42	40.958
605.75	40.853
606.09	40.545
606.42	41.561
606.75	40.730
607.09	40.896
607.42	42.276
607.75	40.759
608.08	40.773
608.42	41.641
608.75	40.712
609.08	41.674
609.41	41.504
609.75	42.068
610.08	42.790
610.41	42.272
610.74	41.627
611.07	43.577
611.41	42.640
611.74	43.389
612.07	43.116
612.40	42.865
612.73	42.000
613.07	43.050
613.40	42.865
613.73	42.737
614.06	42.097
614.39	43.104
614.72	42.579
615.06	42.174
615.39	41.879
615.72	42.178
616.05	42.052
616.38	43.302
616.71	43.705
617.05	43.698
617.38	43.656
617.71	44.505
618.04	45.433
618.37	43.525
618.70	44.431
619.03	45.724
619.36	44.739
619.69	45.141
620.03	44.849
620.36	44.786
620.69	45.616
621.02	45.501
621.35	45.732
621.68	45.561
622.01	44.969
622.34	45.537
622.67	45.932
623.00	44.974
623.33	45.032
623.66	46.462
623.99	46.686
624.32	45.292
624.65	45.551
624.99	44.051
625.32	44.098
625.65	45.079
625.98	46.656
626.31	46.267
626.64	46.939
626.97	46.800
627.30	46.966
627.63	47.580
627.96	46.426
628.29	46.894
628.62	48.765
628.95	48.868
629.28	48.266
629.61	48.671
629.94	48.857
630.26	49.571
630.59	48.522
630.92	47.989
631.25	49.358
631.58	48.649
631.91	48.479
632.24	48.523
632.57	49.213
632.90	50.548
633.23	49.217
633.56	50.734
633.89	51.302
634.22	50.851
634.55	54.083
634.88	50.659
635.20	50.418
635.53	50.723
635.86	51.980
636.19	50.353
636.52	50.865
636.85	51.203
637.18	49.424
637.51	50.473
637.83	50.062
638.16	51.151
638.49	50.756
638.82	53.097
639.15	51.875
639.48	52.993
639.81	55.228
640.13	52.344
640.46	52.081
640.79	52.840
641.12	51.032
641.45	54.330
641.77	55.965
642.10	53.363
642.43	52.703
642.76	52.941
643.09	56.442
643.41	54.173
643.74	54.321
644.07	55.488
644.40	54.294
644.73	55.276
645.05	57.052
645.38	54.502
645.71	53.623
646.04	58.140
646.36	56.761
646.69	56.187
647.02	56.122
647.35	55.155
647.67	55.929
648.00	55.285
648.33	55.281
648.66	51.818
648.98	54.123
649.31	53.363
649.64	54.410
649.96	51.416
650.29	54.028
650.62	52.751
650.94	53.160
651.27	58.615
651.60	53.910
651.92	53.195
652.25	53.094
652.58	54.673
652.90	55.134
653.23	50.385
653.56	55.433
653.88	52.298
654.21	53.239
654.54	53.465
654.86	53.894
655.19	49.054
655.52	38.016
655.84	33.501
656.17	43.228
656.49	57.361
656.82	57.537
657.15	43.301
657.47	32.052
657.80	24.642
658.13	25.803
658.45	37.956
658.78	37.997
659.10	39.218
659.43	40.470
659.75	43.368
660.08	46.329
660.41	50.372
660.73	55.273
661.06	55.096
661.38	57.636
661.71	59.038
662.03	60.552
662.36	55.865
662.68	59.839
663.01	57.576
663.33	57.113
663.66	59.664
663.98	60.475
664.31	57.353
664.63	55.668
664.96	55.332
665.28	56.967
665.61	53.996
665.93	56.137
666.26	56.187
666.58	56.695
666.91	58.562
667.23	60.000
667.56	56.156
667.88	58.120
668.21	59.701
668.53	55.315
668.86	56.277
669.18	58.849
669.50	58.261
669.83	59.913
670.15	60.889
670.48	57.298
670.80	59.267
671.13	59.023
671.45	56.383
671.77	58.452
672.10	55.638
672.42	58.127
672.75	52.736
673.07	53.873
673.39	51.356
673.72	55.859
674.04	57.255
674.37	56.117
674.69	57.260
675.01	53.556
675.34	58.932
675.66	58.947
675.98	55.397
676.31	58.193
676.63	56.900
676.95	53.878
677.28	59.813
677.60	58.242
677.92	58.861
678.25	54.620
678.57	58.167
678.89	57.715
679.22	54.224
679.54	53.435
679.86	54.312
680.18	52.415
680.51	53.546
680.83	53.559
681.15	55.094
681.48	58.223
681.80	53.965
682.12	52.490
682.44	50.290
682.77	57.841
683.09	59.227
683.41	57.428
683.73	55.850
684.06	56.405
684.38	54.795
684.70	53.876
685.02	57.974
685.34	53.297
685.67	51.224
685.99	52.234
686.31	52.389
686.63	51.943
686.96	51.429
687.28	54.332
687.60	53.080
687.92	52.285
688.24	53.042
688.56	56.627
688.89	59.129
689.21	57.424
689.53	54.906
689.85	58.093
690.17	53.623
690.49	56.476
690.82	58.411
691.14	55.134
691.46	55.485
691.78	53.012
692.10	56.198
692.42	55.090
692.74	54.979
693.06	54.894
693.39	54.620
693.71	54.367
694.03	54.105
694.35	53.680
694.67	53.089
694.99	59.268
695.31	58.088
695.63	56.699
695.95	59.902
696.27	58.883
696.59	55.699
696.91	56.477
697.23	55.869
697.56	52.878
697.88	49.898
698.20	54.792
698.52	55.699
698.84	54.788
699.16	55.300
699.48	56.532
699.80	57.971
700.12	60.519
700.44	60.212
700.76	61.602
701.08	61.494
701.40	61.453
701.72	58.017
702.04	60.227
702.36	54.108
702.68	58.924
703.00	60.942
703.32	57.979
703.64	55.228
703.96	56.825
704.28	61.047
704.60	59.238
704.91	63.501
705.23	59.824
705.55	64.784
705.87	69.103
706.19	57.597
706.51	63.551
706.83	60.303
707.15	63.866
707.47	56.566
707.79	58.722
708.11	55.936
708.43	56.429
708.74	53.827
709.06	55.325
709.38	59.843
709.70	59.884
710.02	62.315
710.34	60.303
710.66	62.388
710.98	57.955
711.29	57.558
711.61	61.947
711.93	57.051
712.25	62.379
712.57	68.382
712.89	63.322
713.20	58.967
713.52	61.842
713.84	58.861
714.16	56.402
714.48	60.057
714.80	64.134
715.11	54.467
715.43	55.193
715.75	57.101
716.07	60.064
716.39	65.831
716.70	62.791
717.02	67.626
717.34	61.837
717.66	63.060
717.97	68.127
718.29	65.185
718.61	60.584
718.93	62.500
719.24	62.976
719.56	59.661
719.88	63.390
720.20	64.527
720.51	61.324
720.83	64.312
721.15	59.328
721.46	62.411
721.78	65.950
722.10	67.925
722.42	65.789
722.73	64.794
723.05	66.393
723.37	65.182
723.68	65.251
724.00	66.260
724.32	65.323
724.63	68.293
724.95	68.201
725.27	69.636
725.58	64.453
725.90	63.139
726.22	57.736
726.53	62.500
726.85	55.631
727.16	59.075
727.48	59.574
727.80	61.742
728.11	61.957
728.43	62.692
728.74	62.724
729.06	62.774
729.38	66.544
729.69	63.701
730.01	59.727
730.32	56.944
730.64	58.863
730.96	61.716
731.27	62.252
731.59	57.798
731.90	55.394
732.22	57.764
732.53	54.799
732.85	58.013
733.16	56.913
733.48	60.133
733.80	60.065
734.11	60.828
734.43	53.846
734.74	56.857
735.06	54.441
735.37	57.803
735.69	59.873
736.00	58.824
736.32	56.698
736.63	56.550
736.95	61.022
737.26	52.041
737.58	57.097
737.89	56.522
738.21	57.338
738.52	56.429
738.83	58.113
739.15	59.231
739.46	64.599
739.78	63.194
740.09	58.462
740.41	61.613
740.72	56.446
741.04	63.704
741.35	59.583
741.66	72.889
741.98	66.509
742.29	64.115
742.61	64.224
742.92	68.778
743.23	59.402
743.55	63.200
743.86	64.035
744.18	65.487
744.49	72.727
744.80	74.648
745.12	68.636
745.43	65.639
745.74	69.369
746.06	68.807
746.37	64.126
746.68	63.348
747.00	72.222
747.31	68.095
747.62	61.062
747.94	67.841
748.25	67.234
748.56	64.317
748.88	66.832
749.19	72.500
749.50	58.140
749.82	59.756
750.13	59.592
750.44	64.599
750.75	61.404
751.07	59.164
751.38	59.233
751.69	55.957
752.01	57.143
752.32	57.762
752.63	60.284
752.94	61.885
753.26	70.400
753.57	59.350
753.88	62.109
754.19	60.000
754.51	59.722
754.82	57.040
755.13	60.755
755.44	60.150
755.75	58.394
756.07	56.383
756.38	55.109
756.69	57.047
757.00	54.491
757.31	53.116
757.63	54.386
757.94	52.011
758.25	47.794
758.56	47.407
758.87	52.419
759.18	55.152
759.50	52.978
759.81	54.517
760.12	52.187
760.43	56.160
760.74	50.272
761.05	54.237
761.36	52.674
761.67	54.830
761.99	54.348
762.30	57.292
762.61	58.397
762.92	53.906
763.23	64.706
763.54	61.200
763.85	53.125
764.16	59.615
764.47	59.316
764.78	56.184
765.10	51.266
765.41	51.622
765.72	58.383
766.03	54.545
766.34	55.667
766.65	66.383
766.96	62.821
767.27	67.513
767.58	69.271
767.89	70.526
768.20	73.563
768.51	64.975
768.82	63.761
769.13	58.130
769.44	59.514
769.75	63.090
770.06	59.174
770.37	66.516
770.68	60.648
770.99	59.556
771.30	56.967
771.61	63.677
771.92	61.885
772.23	64.706
772.54	68.718
772.85	69.634
773.16	70.745
773.47	71.196
773.78	67.513
774.09	65.476
774.39	68.421
774.70	77.160
775.01	81.159
775.32	79.739
775.63	71.711
775.94	76.259
776.25	93.701
776.56	81.343
776.87	79.508
777.18	73.438
777.48	83.206
777.79	83.333
778.10	75.556
778.41	87.500
778.72	76.642
779.03	75.168
779.34	77.852
779.65	75.000
779.95	73.006
780.26	73.203
780.57	81.379
780.88	81.250
781.19	72.932
781.50	79.730
781.80	73.585
782.11	65.537
782.42	65.190
782.73	66.258
783.04	70.946
783.34	70.423
783.65	84.932
783.96	85.075
784.27	68.531
784.57	69.065
784.88	75.926
785.19	80.952
785.50	88.679
785.81	81.343
786.11	86.066
786.42	78.295
786.73	74.336
787.04	90.566
787.34	84.821
787.65	86.000
787.96	83.784
788.26	76.033
788.57	91.525
788.88	85.124
789.19	77.083
789.49	84.848
789.80	81.679
790.11	93.333
790.41	99.010
790.72	95.181
791.03	106.522
791.33	98.837
791.64	89.691
791.95	97.030
792.25	98.889
792.56	114.286
792.87	121.795
793.17	120.253
793.48	104.598
793.79	98.851
794.09	100.000
794.40	82.353
794.70	77.941
795.01	71.111
795.32	71.942
795.62	74.016
795.93	86.207
796.23	85.841
796.54	100.000
796.85	95.946
797.15	119.718
797.46	109.091
797.76	120.482
798.07	88.608
798.37	116.923
798.68	122.727
798.99	105.634
799.29	96.104
799.60	85.227
799.90	108.219
800.21	116.418
800.51	118.966
800.82	135.088
801.12	119.672
801.43	116.667
801.73	106.757
802.04	141.270
802.34	109.877
802.65	121.875
802.95	120.339
803.26	120.313
803.56	97.143
803.87	113.846
804.17	114.706
804.48	148.148
804.78	127.586
805.09	113.235
805.39	126.923
805.70	117.857
806.00	118.033
806.30	109.091
806.61	98.780
806.91	100.000
807.22	98.684
807.52	105.970
807.83	114.085
808.13	115.625
808.43	126.667
808.74	101.316
809.04	110.145
809.35	111.940
809.65	101.316
809.95	140.323
810.26	94.915
810.56	125.397
810.86	181.818
811.17	161.905
811.47	138.333
811.77	133.333
812.08	138.182
812.38	154.000
812.69	225.000
812.99	152.273
813.29	151.020
813.59	138.095
813.90	155.102
814.20	125.455
814.50	112.308
814.81	123.529
815.11	126.531
815.41	109.836
815.72	161.905
816.02	138.182
816.32	161.905
816.62	155.000
816.93	168.293
817.23	166.667
817.53	161.364
817.84	221.212
818.14	160.870
818.44	128.889
818.74	179.412
819.04	160.000
819.35	174.286
819.65	220.588
819.95	210.714
820.25	255.000
820.56	194.872
820.86	143.182
821.16	158.140
821.46	161.538
821.76	160.000
822.07	211.429
822.37	185.000
822.67	196.970
822.97	139.216
823.27	239.286
823.57	167.568
823.88	165.000
824.18	213.333
824.48	178.571
824.78	232.000
825.08	191.667
825.38	183.784
825.69	156.098
825.99	262.500
826.29	220.690
826.59	197.368
826.89	163.158
827.19	191.176
827.49	232.258
827.79	156.818
828.09	150.000
828.39	123.404
828.70	134.694
829.00	218.519
829.30	193.548
829.60	172.500
829.90	353.333
830.20	207.143
830.50	269.565
830.80	273.913
831.10	196.667
831.40	226.667
831.70	213.043
832.00	226.923
832.30	218.519
832.60	412.500
832.90	230.000
833.20	450.000
833.50	203.226
833.80	258.621
834.10	228.125
834.40	253.846
834.70	377.778
835.00	300.000
835.30	180.000
835.60	430.769
835.90	251.724
836.20	400.000
836.50	196.552
836.80	256.000
837.10	200.000
837.40	280.952
837.70	294.118
838.00	218.519
838.30	290.476
838.60	304.762
838.90	180.769
839.19	300.000
839.49	357.143
839.79	340.000
840.09	280.000
840.39	261.905
840.69	300.000
840.99	322.222
841.29	460.000
841.59	441.667
841.88	343.750
842.18	200.000
842.48	271.429
842.78	213.333
843.08	221.739
843.38	200.000
843.68	1083.333
843.97	230.769
844.27	210.345
844.57	290.476
844.87	362.500
845.17	240.741
845.47	1800.000
845.76	555.556
846.06	341.176
846.36	525.000
846.66	407.143
846.96	325.000
847.25	427.273
847.55	436.364
847.85	239.130
848.15	490.000
848.44	400.000
848.74	261.111
849.04	288.235
849.34	510.000
849.63	252.632
849.93	527.273
850.23	1100.000
850.53	464.286
850.82	2750.000
851.12	-5000.000
851.42	4700.000
851.71	285.000
852.01	-1500.000
852.31	237.500
852.61	1600.000
852.90	266.667
853.20	268.000
853.50	382.353
853.79	290.476
854.09	262.500
854.39	406.250
854.68	200.000
854.98	225.806
855.28	180.000
855.57	231.034
855.87	200.000
856.17	305.263
856.46	320.000
856.76	341.176
857.05	227.586
857.35	266.667
857.65	353.333
857.94	230.435
858.24	234.615
858.53	265.000
858.83	240.909
859.13	326.667
859.42	0.000
859.72	577.778
860.01	463.636
860.31	281.818
860.60	257.895
860.90	217.391
861.20	577.778
861.49	483.333
861.79	-4500.000
862.08	762.500
862.38	261.905
862.67	361.538
862.97	382.353
863.26	588.889
863.56	316.667
863.85	508.333
864.15	587.500
864.44	400.000
864.74	950.000
865.03	775.000
865.33	284.211
865.62	436.364
865.92	376.923
866.21	391.667
866.51	0.000
866.80	445.455
867.10	860.000
867.39	461.538
867.69	490.909
867.98	284.211
868.27	509.091
868.57	278.947
868.86	-4000.000
869.16	368.750
869.45	2300.000
869.75	-3500.000
870.04	375.000
870.33	600.000
870.63	1050.000
870.92	2500.000
871.22	885.714
871.51	400.000
871.80	209.524
872.10	392.857
>>>>>End Processed Spectral Data<<<<<
