SpectraSuite Data File
++++++++++++++++++++++++++++++++++++
Date: Wed May 13 16:42:15 PDT 2015
User: schluterlab
Dark Spectrum Present: Yes
Reference Spectrum Present: Yes
Number of Sampled Component Spectra: 1
Spectrometers: USB2E3373
Integration Time (usec): 3000 (USB2E3373)
Spectra Averaged: 3 (USB2E3373)
Boxcar Smoothing: 0 (USB2E3373)
Correct for Electrical Dark: No (USB2E3373)
Strobe/Lamp Enabled: No (USB2E3373)
Correct for Detector Non-linearity: No (USB2E3373)
Correct for Stray Light: No (USB2E3373)
Number of Pixels in Processed Spectrum: 2048
>>>>>Begin Processed Spectral Data<<<<<
178.53	0.000
178.91	-1325.000
179.29	-1300.000
179.67	-205.556
180.04	-1400.000
180.42	2600.000
180.80	1040.000
181.18	-1050.000
181.56	585.714
181.94	0.000
182.31	-628.571
182.69	1466.667
183.07	-675.000
183.45	-488.889
183.83	472.727
184.20	-400.000
184.58	2400.000
184.96	5900.000
185.34	-700.000
185.72	-662.500
186.09	-2300.000
186.47	2900.000
186.85	3000.000
187.23	4900.000
187.61	-1733.333
187.98	1350.000
188.36	518.182
188.74	590.909
189.12	-920.000
189.49	570.000
189.87	-4900.000
190.25	-1150.000
190.63	392.857
191.00	523.077
191.38	883.333
191.76	-1150.000
192.14	1350.000
192.51	675.000
192.89	916.667
193.27	725.000
193.65	-1300.000
194.02	560.000
194.40	1080.000
194.78	520.000
195.15	591.667
195.53	590.000
195.91	-2400.000
196.29	350.000
196.66	289.474
197.04	-270.000
197.42	0.000
197.79	520.000
198.17	-5400.000
198.55	800.000
198.92	825.000
199.30	980.000
199.68	0.000
200.05	366.667
200.43	957.143
200.81	4900.000
201.18	1733.333
201.56	-1800.000
201.94	544.444
202.31	622.222
202.69	500.000
203.07	570.000
203.44	0.000
203.82	1150.000
204.19	800.000
204.57	442.857
204.95	712.500
205.32	1633.333
205.70	481.818
206.08	342.857
206.45	2300.000
206.83	375.000
207.20	1016.667
207.58	960.000
207.96	300.000
208.33	687.500
208.71	-850.000
209.08	814.286
209.46	688.889
209.84	472.727
210.21	-1433.333
210.59	1500.000
210.96	-537.500
211.34	2450.000
211.71	620.000
212.09	716.667
212.46	0.000
212.84	1833.333
213.22	1275.000
213.59	-4500.000
213.97	900.000
214.34	785.714
214.72	572.727
215.09	1200.000
215.47	-1900.000
215.84	-2350.000
216.22	1833.333
216.59	378.571
216.97	1225.000
217.34	500.000
217.72	-750.000
218.09	0.000
218.47	-5600.000
218.84	700.000
219.22	700.000
219.59	1433.333
219.97	-571.429
220.34	920.000
220.72	-1733.333
221.09	428.571
221.47	1325.000
221.84	-733.333
222.22	0.000
222.59	1400.000
222.97	-2500.000
223.34	1220.000
223.72	515.385
224.09	1120.000
224.46	2250.000
224.84	-4700.000
225.21	-920.000
225.59	-5500.000
225.96	620.000
226.34	290.000
226.71	2550.000
227.08	600.000
227.46	580.000
227.83	-1025.000
228.21	-2150.000
228.58	566.667
228.95	-2600.000
229.33	-2500.000
229.70	1666.667
230.08	857.143
230.45	-800.000
230.82	483.333
231.20	983.333
231.57	671.429
231.95	441.667
232.32	268.182
232.69	427.273
233.07	771.429
233.44	376.923
233.81	-1633.333
234.19	331.579
234.56	500.000
234.93	341.667
235.31	436.364
235.68	361.538
236.05	457.143
236.43	145.455
236.80	315.789
237.17	5400.000
237.55	276.190
237.92	221.429
238.29	223.810
238.67	161.290
239.04	234.483
239.41	180.556
239.79	136.957
240.16	142.857
240.53	165.909
240.91	109.804
241.28	136.000
241.65	124.000
242.02	105.797
242.40	114.516
242.77	115.000
243.14	84.946
243.51	97.753
243.89	88.235
244.26	83.333
244.63	76.344
245.00	85.106
245.38	84.158
245.75	78.505
246.12	69.725
246.49	75.182
246.87	80.800
247.24	66.923
247.61	65.714
247.98	61.438
248.36	63.514
248.73	63.057
249.10	71.338
249.47	65.537
249.84	58.289
250.22	58.289
250.59	61.538
250.96	60.606
251.33	56.872
251.70	66.832
252.08	52.857
252.45	51.570
252.82	56.522
253.19	56.170
253.56	50.980
253.94	51.452
254.31	51.953
254.68	55.769
255.05	48.339
255.42	60.569
255.79	53.676
256.16	51.264
256.54	50.883
256.91	54.093
257.28	46.763
257.65	46.865
258.02	48.758
258.39	46.688
258.76	45.819
259.14	50.298
259.51	45.289
259.88	43.789
260.25	49.547
260.62	44.798
260.99	43.789
261.36	48.949
261.73	45.559
262.10	46.221
262.47	47.042
262.85	44.011
263.22	44.444
263.59	46.724
263.96	46.429
264.33	42.037
264.70	46.316
265.07	43.990
265.44	42.677
265.81	42.579
266.18	44.975
266.55	42.927
266.92	47.666
267.29	41.667
267.66	44.725
268.03	40.227
268.40	42.991
268.77	41.050
269.14	42.568
269.51	41.986
269.88	43.357
270.25	44.695
270.62	41.124
270.99	42.151
271.36	40.343
271.73	41.589
272.10	41.087
272.47	41.720
272.84	41.126
273.21	41.929
273.58	40.830
273.95	40.252
274.32	39.669
274.69	40.471
275.06	37.598
275.43	42.128
275.80	37.275
276.17	42.974
276.54	42.204
276.91	38.735
277.28	40.234
277.65	40.812
278.02	42.029
278.39	41.016
278.76	38.727
279.13	38.679
279.50	40.410
279.87	38.446
280.23	41.916
280.60	37.911
280.97	39.187
281.34	38.053
281.71	38.727
282.08	40.307
282.45	39.636
282.82	39.432
283.19	36.542
283.56	38.246
283.92	40.102
284.29	36.332
284.66	37.750
285.03	37.251
285.40	36.796
285.77	37.542
286.14	36.442
286.51	38.000
286.87	35.556
287.24	40.228
287.61	37.721
287.98	36.526
288.35	36.133
288.72	34.268
289.08	36.307
289.45	35.420
289.82	34.959
290.19	32.025
290.56	33.691
290.93	32.477
291.29	34.049
291.66	32.006
292.03	33.285
292.40	33.627
292.77	31.213
293.13	31.343
293.50	33.382
293.87	31.259
294.24	31.556
294.60	30.422
294.97	31.105
295.34	32.440
295.71	32.244
296.08	30.484
296.44	30.536
296.81	29.590
297.18	32.520
297.55	27.968
297.91	31.662
298.28	30.120
298.65	29.112
299.02	29.381
299.38	29.349
299.75	28.167
300.12	28.352
300.48	28.000
300.85	28.113
301.22	29.809
301.59	27.904
301.95	26.700
302.32	28.370
302.69	28.196
303.05	26.303
303.42	27.778
303.79	27.407
304.15	26.923
304.52	25.956
304.89	26.597
305.25	25.058
305.62	26.840
305.99	27.391
306.35	25.839
306.72	25.448
307.09	27.081
307.45	27.477
307.82	25.223
308.19	28.698
308.55	28.047
308.92	26.531
309.29	25.766
309.65	24.602
310.02	25.899
310.38	25.806
310.75	26.610
311.12	25.179
311.48	27.795
311.85	26.939
312.22	26.431
312.58	26.507
312.95	27.561
313.31	24.757
313.68	26.611
314.05	26.824
314.41	25.729
314.78	25.579
315.14	25.521
315.51	25.747
315.87	26.931
316.24	24.826
316.61	26.121
316.97	25.440
317.34	25.636
317.70	25.717
318.07	25.602
318.43	25.342
318.80	24.836
319.16	25.706
319.53	25.047
319.89	25.619
320.26	27.100
320.62	25.099
320.99	25.051
321.35	25.960
321.72	26.078
322.08	26.752
322.45	25.572
322.81	26.550
323.18	25.915
323.54	26.809
323.91	25.660
324.27	25.048
324.64	24.604
325.00	25.248
325.37	24.477
325.73	25.853
326.10	24.360
326.46	24.552
326.83	24.935
327.19	24.167
327.56	25.000
327.92	24.059
328.29	24.490
328.65	25.322
329.01	25.181
329.38	24.607
329.74	24.192
330.11	24.599
330.47	25.344
330.84	24.724
331.20	25.046
331.56	24.495
331.93	23.241
332.29	24.579
332.66	25.664
333.02	23.949
333.38	24.571
333.75	25.134
334.11	24.822
334.48	22.626
334.84	22.702
335.20	23.727
335.57	23.935
335.93	24.464
336.29	22.985
336.66	23.715
337.02	24.615
337.38	23.981
337.75	23.529
338.11	23.456
338.47	23.481
338.84	23.648
339.20	23.303
339.56	23.996
339.93	22.909
340.29	22.464
340.65	24.153
341.02	23.647
341.38	22.865
341.74	22.105
342.11	23.843
342.47	23.612
342.83	23.373
343.20	23.117
343.56	22.831
343.92	23.421
344.28	22.959
344.65	23.474
345.01	22.727
345.37	22.127
345.73	22.589
346.10	22.677
346.46	23.475
346.82	22.158
347.19	22.723
347.55	22.167
347.91	22.735
348.27	24.076
348.63	23.579
349.00	23.301
349.36	22.742
349.72	22.374
350.08	22.285
350.45	22.213
350.81	22.502
351.17	22.366
351.53	23.260
351.89	21.700
352.26	22.731
352.62	22.294
352.98	22.285
353.34	22.514
353.70	21.604
354.07	23.226
354.43	20.714
354.79	21.319
355.15	21.788
355.51	22.782
355.87	21.551
356.24	22.231
356.60	21.251
356.96	21.963
357.32	22.240
357.68	21.811
358.04	22.724
358.40	21.298
358.77	23.005
359.13	21.626
359.49	21.412
359.85	21.508
360.21	21.212
360.57	21.634
360.93	22.000
361.29	21.769
361.66	20.588
362.02	22.313
362.38	21.369
362.74	21.131
363.10	20.947
363.46	20.543
363.82	21.164
364.18	21.219
364.54	21.768
364.90	22.167
365.26	21.471
365.62	21.402
365.98	20.380
366.35	21.132
366.71	21.186
367.07	21.122
367.43	20.682
367.79	21.842
368.15	21.839
368.51	20.930
368.87	21.413
369.23	20.190
369.59	21.723
369.95	21.176
370.31	21.011
370.67	20.580
371.03	22.322
371.39	21.720
371.75	20.882
372.11	21.764
372.47	22.141
372.83	21.614
373.19	20.376
373.55	21.434
373.91	22.459
374.27	20.412
374.63	20.582
374.99	21.822
375.35	20.935
375.71	20.425
376.07	21.879
376.42	20.426
376.78	21.869
377.14	20.488
377.50	20.795
377.86	20.213
378.22	20.986
378.58	19.925
378.94	20.176
379.30	19.784
379.66	20.685
380.02	20.639
380.38	19.490
380.74	20.888
381.09	19.804
381.45	21.082
381.81	20.577
382.17	21.210
382.53	20.000
382.89	20.802
383.25	20.513
383.61	20.756
383.97	20.388
384.32	20.399
384.68	20.384
385.04	20.160
385.40	20.000
385.76	20.025
386.12	20.337
386.48	21.649
386.83	20.911
387.19	21.769
387.55	20.408
387.91	20.375
388.27	20.110
388.62	20.774
388.98	19.902
389.34	21.026
389.70	19.559
390.06	20.659
390.42	19.844
390.77	20.929
391.13	20.804
391.49	21.129
391.85	20.496
392.20	19.685
392.56	20.581
392.92	20.071
393.28	20.059
393.64	20.743
393.99	20.525
394.35	20.285
394.71	20.954
395.07	20.623
395.42	19.778
395.78	20.611
396.14	20.857
396.50	21.115
396.85	21.170
397.21	19.482
397.57	19.715
397.92	21.454
398.28	19.563
398.64	20.609
399.00	20.257
399.35	19.459
399.71	20.023
400.07	19.870
400.42	20.429
400.78	21.230
401.14	20.549
401.49	20.418
401.85	19.177
402.21	19.521
402.57	20.173
402.92	20.303
403.28	19.863
403.63	19.431
403.99	20.127
404.35	20.667
404.70	20.024
405.06	19.685
405.42	20.274
405.77	19.371
406.13	20.147
406.49	20.698
406.84	20.260
407.20	19.858
407.55	21.315
407.91	20.600
408.27	21.123
408.62	19.627
408.98	20.037
409.34	20.234
409.69	20.129
410.05	20.508
410.40	20.428
410.76	19.534
411.11	20.024
411.47	19.425
411.83	20.342
412.18	19.357
412.54	20.112
412.89	20.060
413.25	20.130
413.60	19.765
413.96	19.247
414.31	19.806
414.67	20.089
415.03	19.669
415.38	20.425
415.74	20.000
416.09	20.248
416.45	19.946
416.80	19.299
417.16	21.515
417.51	20.703
417.87	19.782
418.22	20.189
418.58	20.271
418.93	20.762
419.29	19.542
419.64	19.899
420.00	20.427
420.35	20.406
420.71	20.084
421.06	19.809
421.42	20.058
421.77	20.235
422.12	18.922
422.48	19.320
422.83	19.744
423.19	19.890
423.54	19.443
423.90	21.159
424.25	19.765
424.61	19.940
424.96	19.942
425.31	19.324
425.67	19.157
426.02	19.200
426.38	19.963
426.73	20.012
427.09	19.878
427.44	19.666
427.79	19.896
428.15	20.833
428.50	20.714
428.85	21.275
429.21	19.492
429.56	19.959
429.92	19.175
430.27	18.868
430.62	19.252
430.98	19.824
431.33	19.021
431.68	19.581
432.04	19.329
432.39	19.817
432.74	19.749
433.10	19.751
433.45	20.117
433.80	19.512
434.16	20.032
434.51	18.947
434.86	20.011
435.22	19.956
435.57	19.696
435.92	19.778
436.28	20.641
436.63	19.923
436.98	19.805
437.34	20.274
437.69	20.478
438.04	20.349
438.39	20.299
438.75	19.698
439.10	19.777
439.45	20.071
439.81	20.060
440.16	20.102
440.51	19.625
440.86	20.845
441.22	19.800
441.57	19.851
441.92	20.317
442.27	19.699
442.63	19.695
442.98	20.845
443.33	20.380
443.68	19.257
444.03	20.059
444.39	18.695
444.74	20.671
445.09	20.162
445.44	20.230
445.79	19.693
446.15	20.593
446.50	19.925
446.85	19.579
447.20	19.888
447.55	20.436
447.91	20.132
448.26	19.755
448.61	20.011
448.96	20.764
449.31	20.922
449.66	19.977
450.02	19.944
450.37	20.181
450.72	20.417
451.07	19.744
451.42	19.696
451.77	21.491
452.12	19.804
452.47	20.771
452.83	19.347
453.18	20.049
453.53	21.027
453.88	19.846
454.23	19.665
454.58	21.563
454.93	21.360
455.28	20.200
455.63	20.449
455.98	21.429
456.34	19.849
456.69	20.163
457.04	20.433
457.39	19.930
457.74	20.023
458.09	20.242
458.44	20.525
458.79	19.957
459.14	20.993
459.49	20.315
459.84	19.501
460.19	19.800
460.54	20.602
460.89	20.680
461.24	20.461
461.59	21.441
461.94	20.900
462.29	20.356
462.64	20.357
462.99	20.104
463.34	21.267
463.69	20.575
464.04	20.986
464.39	19.884
464.74	20.559
465.09	19.723
465.44	19.723
465.79	20.246
466.14	19.814
466.49	19.689
466.84	20.724
467.19	20.036
467.54	21.500
467.89	19.028
468.24	21.059
468.59	19.841
468.94	20.281
469.29	20.244
469.64	21.687
469.99	20.636
470.34	20.410
470.68	20.905
471.03	20.000
471.38	20.639
471.73	21.053
472.08	20.724
472.43	20.729
472.78	21.001
473.13	21.245
473.48	20.974
473.83	20.427
474.17	20.348
474.52	20.037
474.87	20.724
475.22	20.429
475.57	19.667
475.92	20.446
476.27	20.180
476.61	20.022
476.96	19.681
477.31	19.937
477.66	20.460
478.01	19.237
478.36	20.360
478.70	20.249
479.05	20.501
479.40	20.317
479.75	20.132
480.10	20.527
480.45	19.610
480.79	18.681
481.14	20.157
481.49	19.696
481.84	19.890
482.19	19.582
482.53	19.404
482.88	20.335
483.23	20.234
483.58	20.564
483.92	20.103
484.27	18.867
484.62	18.966
484.97	18.959
485.31	20.034
485.66	18.191
486.01	17.428
486.36	17.145
486.70	16.691
487.05	17.907
487.40	17.952
487.75	18.620
488.09	18.835
488.44	18.679
488.79	20.036
489.13	19.290
489.48	19.821
489.83	19.594
490.17	19.816
490.52	19.353
490.87	19.991
491.22	19.827
491.56	19.089
491.91	19.823
492.26	19.752
492.60	19.816
492.95	19.270
493.30	19.486
493.64	19.645
493.99	19.591
494.34	19.611
494.68	20.238
495.03	20.066
495.37	19.916
495.72	19.981
496.07	20.186
496.41	18.850
496.76	19.877
497.11	19.811
497.45	19.516
497.80	20.010
498.14	19.420
498.49	19.805
498.84	19.847
499.18	19.571
499.53	20.133
499.87	19.851
500.22	19.124
500.56	20.049
500.91	20.096
501.26	19.440
501.60	20.266
501.95	20.119
502.29	20.712
502.64	19.879
502.98	19.168
503.33	19.424
503.67	19.722
504.02	19.551
504.36	18.905
504.71	19.443
505.06	20.193
505.40	20.029
505.75	19.865
506.09	19.825
506.44	21.115
506.78	19.289
507.13	20.343
507.47	20.303
507.82	20.669
508.16	20.213
508.51	20.142
508.85	19.613
509.19	20.051
509.54	20.612
509.88	19.990
510.23	20.154
510.57	21.311
510.92	20.663
511.26	19.938
511.61	20.228
511.95	19.676
512.30	19.141
512.64	21.601
512.98	21.275
513.33	20.931
513.67	20.277
514.02	20.076
514.36	20.972
514.70	20.697
515.05	20.134
515.39	20.864
515.74	21.059
516.08	20.235
516.42	21.032
516.77	21.572
517.11	20.477
517.46	20.880
517.80	21.429
518.14	20.903
518.49	21.645
518.83	21.193
519.17	21.247
519.52	20.939
519.86	21.734
520.20	21.676
520.55	21.185
520.89	20.620
521.23	21.773
521.58	21.789
521.92	21.372
522.26	21.354
522.61	22.181
522.95	22.284
523.29	21.120
523.64	21.280
523.98	21.627
524.32	21.351
524.66	21.648
525.01	22.120
525.35	21.747
525.69	20.874
526.04	21.246
526.38	22.087
526.72	21.350
527.06	21.532
527.41	21.040
527.75	22.444
528.09	21.708
528.43	21.861
528.78	22.250
529.12	21.455
529.46	22.841
529.80	22.277
530.15	21.869
530.49	21.477
530.83	22.089
531.17	21.802
531.51	23.346
531.86	21.742
532.20	22.686
532.54	22.357
532.88	21.823
533.22	21.174
533.57	21.852
533.91	21.613
534.25	21.567
534.59	21.965
534.93	21.535
535.27	22.209
535.62	21.734
535.96	21.594
536.30	21.678
536.64	22.537
536.98	21.699
537.32	21.922
537.66	22.000
538.01	22.251
538.35	22.560
538.69	23.038
539.03	21.767
539.37	20.511
539.71	20.739
540.05	21.961
540.39	21.395
540.73	20.828
541.07	22.713
541.42	21.983
541.76	22.129
542.10	22.833
542.44	21.523
542.78	22.332
543.12	20.665
543.46	22.361
543.80	21.601
544.14	22.015
544.48	22.540
544.82	22.065
545.16	21.145
545.50	21.337
545.84	21.102
546.18	21.616
546.52	22.023
546.86	21.787
547.20	22.724
547.54	22.044
547.88	22.321
548.22	21.918
548.56	22.327
548.90	21.511
549.24	21.751
549.58	22.578
549.92	21.635
550.26	23.082
550.60	22.407
550.94	22.535
551.28	21.580
551.62	22.717
551.96	22.456
552.30	23.072
552.64	22.921
552.98	23.186
553.32	22.589
553.66	23.108
554.00	22.924
554.34	21.877
554.68	23.391
555.02	22.355
555.36	22.269
555.69	22.733
556.03	22.611
556.37	22.783
556.71	22.510
557.05	21.779
557.39	23.373
557.73	22.442
558.07	22.698
558.41	22.504
558.75	22.851
559.08	24.609
559.42	22.751
559.76	23.676
560.10	21.913
560.44	22.851
560.78	21.623
561.12	22.098
561.45	22.555
561.79	22.347
562.13	22.267
562.47	22.678
562.81	22.664
563.15	22.742
563.48	22.745
563.82	22.309
564.16	22.498
564.50	22.266
564.84	22.061
565.17	23.295
565.51	22.300
565.85	22.208
566.19	21.853
566.52	22.799
566.86	21.037
567.20	22.583
567.54	21.404
567.88	20.261
568.21	20.847
568.55	20.627
568.89	20.720
569.23	20.143
569.56	19.717
569.90	19.434
570.24	19.519
570.57	19.279
570.91	18.746
571.25	19.456
571.59	19.470
571.92	19.412
572.26	19.035
572.60	19.520
572.93	19.190
573.27	19.432
573.61	19.682
573.95	19.432
574.28	18.995
574.62	19.363
574.96	18.423
575.29	18.501
575.63	18.318
575.97	18.667
576.30	19.570
576.64	18.802
576.98	18.887
577.31	18.738
577.65	18.480
577.98	18.355
578.32	18.030
578.66	18.889
578.99	18.786
579.33	18.446
579.67	18.779
580.00	19.180
580.34	19.008
580.67	19.097
581.01	19.519
581.35	18.818
581.68	18.784
582.02	18.104
582.35	18.318
582.69	18.401
583.02	18.372
583.36	18.930
583.70	19.106
584.03	19.201
584.37	20.079
584.70	19.540
585.04	18.958
585.37	19.199
585.71	19.243
586.04	18.773
586.38	19.175
586.72	19.387
587.05	19.125
587.39	18.522
587.72	19.016
588.06	18.810
588.39	19.424
588.73	19.654
589.06	20.193
589.40	20.202
589.73	20.310
590.07	19.929
590.40	20.095
590.73	19.945
591.07	21.042
591.40	20.498
591.74	20.996
592.07	20.244
592.41	20.050
592.74	19.438
593.08	19.254
593.41	20.215
593.75	18.770
594.08	19.444
594.41	19.972
594.75	19.926
595.08	19.828
595.42	19.685
595.75	19.836
596.09	19.865
596.42	20.432
596.75	20.388
597.09	20.736
597.42	20.573
597.75	20.138
598.09	20.739
598.42	20.576
598.76	19.822
599.09	19.536
599.42	19.469
599.76	19.510
600.09	19.271
600.42	20.234
600.76	19.393
601.09	19.381
601.42	20.091
601.76	19.431
602.09	19.842
602.42	20.342
602.76	19.790
603.09	20.378
603.42	20.226
603.76	19.436
604.09	19.853
604.42	19.976
604.76	20.835
605.09	20.358
605.42	20.094
605.75	20.240
606.09	20.171
606.42	19.657
606.75	19.950
607.09	19.883
607.42	19.812
607.75	18.987
608.08	19.931
608.42	20.574
608.75	20.153
609.08	20.305
609.41	20.847
609.75	20.772
610.08	20.547
610.41	20.112
610.74	20.435
611.07	20.405
611.41	20.658
611.74	21.166
612.07	20.238
612.40	21.668
612.73	20.632
613.07	21.013
613.40	21.116
613.73	20.661
614.06	20.806
614.39	20.713
614.72	20.316
615.06	20.903
615.39	20.488
615.72	20.348
616.05	19.830
616.38	20.956
616.71	22.150
617.05	21.319
617.38	20.385
617.71	20.901
618.04	21.815
618.37	21.112
618.70	21.469
619.03	21.645
619.36	21.249
619.69	21.972
620.03	22.734
620.36	21.457
620.69	22.945
621.02	21.386
621.35	21.848
621.68	21.495
622.01	22.833
622.34	22.769
622.67	22.586
623.00	21.056
623.33	21.658
623.66	22.016
623.99	21.281
624.32	21.897
624.65	21.751
624.99	21.388
625.32	21.434
625.65	21.563
625.98	22.675
626.31	23.406
626.64	23.592
626.97	22.943
627.30	21.779
627.63	22.888
627.96	24.138
628.29	24.147
628.62	24.245
628.95	24.811
629.28	22.993
629.61	24.656
629.94	22.762
630.26	22.879
630.59	23.642
630.92	22.222
631.25	23.692
631.58	23.223
631.91	23.834
632.24	22.152
632.57	23.715
632.90	23.575
633.23	24.497
633.56	24.972
633.89	24.122
634.22	25.653
634.55	24.260
634.88	25.030
635.20	26.165
635.53	25.663
635.86	24.752
636.19	25.882
636.52	25.721
636.85	24.742
637.18	23.848
637.51	25.296
637.83	22.688
638.16	24.808
638.49	25.315
638.82	26.169
639.15	26.125
639.48	26.060
639.81	26.273
640.13	25.911
640.46	26.846
640.79	25.627
641.12	24.347
641.45	25.140
641.77	26.657
642.10	24.708
642.43	24.925
642.76	26.935
643.09	26.074
643.41	26.100
643.74	25.617
644.07	25.152
644.40	26.380
644.73	28.661
645.05	29.160
645.38	28.436
645.71	24.316
646.04	27.907
646.36	29.883
646.69	26.087
647.02	27.381
647.35	27.835
647.67	27.965
648.00	27.805
648.33	27.393
648.66	25.455
648.98	27.586
649.31	26.906
649.64	26.308
649.96	25.782
650.29	25.592
650.62	25.890
650.94	27.391
651.27	28.378
651.60	28.286
651.92	27.316
652.25	25.570
652.58	26.791
652.90	26.540
653.23	25.886
653.56	25.039
653.88	28.526
654.21	29.068
654.54	27.228
654.86	27.103
655.19	24.324
655.52	17.215
655.84	14.726
656.17	18.935
656.49	25.711
656.82	26.413
657.15	20.293
657.47	15.479
657.80	12.071
658.13	12.848
658.45	19.396
658.78	19.657
659.10	21.274
659.43	22.158
659.75	23.225
660.08	25.000
660.41	26.723
660.73	28.335
661.06	28.344
661.38	26.727
661.71	28.462
662.03	30.572
662.36	27.038
662.68	30.120
663.01	28.687
663.33	30.361
663.66	27.731
663.98	29.590
664.31	28.782
664.63	25.101
664.96	28.571
665.28	27.869
665.61	26.511
665.93	27.364
666.26	26.775
666.58	31.381
666.91	31.078
667.23	31.461
667.56	29.590
667.88	31.838
668.21	29.851
668.53	30.803
668.86	26.623
669.18	31.770
669.50	30.000
669.83	28.758
670.15	28.889
670.48	27.233
670.80	29.310
671.13	29.724
671.45	28.723
671.77	27.902
672.10	29.205
672.42	26.502
672.75	26.202
673.07	23.768
673.39	25.678
673.72	26.172
674.04	30.784
674.37	27.573
674.69	27.198
675.01	26.360
675.34	31.622
675.66	32.211
675.98	28.717
676.31	29.202
676.63	31.423
676.95	27.254
677.28	30.841
677.60	28.571
677.92	30.802
678.25	28.747
678.57	26.892
678.89	29.459
679.22	29.077
679.54	29.962
679.86	29.174
680.18	27.013
680.51	25.887
680.83	27.402
681.15	29.057
681.48	27.410
681.80	26.499
682.12	27.586
682.44	25.919
682.77	30.143
683.09	31.974
683.41	29.268
683.73	30.243
684.06	29.132
684.38	27.789
684.70	28.876
685.02	27.392
685.34	26.923
685.67	26.748
685.99	26.976
686.31	24.061
686.63	23.675
686.96	25.714
687.28	25.090
687.60	26.449
687.92	27.239
688.24	27.567
688.56	28.313
688.89	29.461
689.21	31.878
689.53	30.271
689.85	30.820
690.17	25.259
690.49	29.087
690.82	31.075
691.14	27.679
691.46	27.004
691.78	30.321
692.10	28.099
692.42	27.545
692.74	28.008
693.06	28.298
693.39	29.158
693.71	28.384
694.03	29.263
694.35	29.437
694.67	28.833
694.99	30.976
695.31	28.676
695.63	27.512
695.95	31.785
696.27	28.680
696.59	30.052
696.91	27.461
697.23	26.526
697.56	28.785
697.88	24.744
698.20	27.917
698.52	29.247
698.84	27.394
699.16	28.111
699.48	28.266
699.80	30.193
700.12	34.805
700.44	30.504
700.76	30.110
701.08	29.598
701.40	30.726
701.72	32.362
702.04	32.955
702.36	32.578
702.68	29.178
703.00	27.701
703.32	30.053
703.64	28.954
703.96	30.919
704.28	30.523
704.60	31.672
704.91	30.267
705.23	31.965
705.55	37.542
705.87	36.545
706.19	34.276
706.51	33.645
706.83	33.636
707.15	33.613
707.47	28.788
707.79	26.536
708.11	27.626
708.43	30.714
708.74	27.806
709.06	30.390
709.38	29.396
709.70	35.465
710.02	32.344
710.34	31.818
710.66	34.328
710.98	30.114
711.29	32.267
711.61	33.038
711.93	33.013
712.25	36.334
712.57	37.500
712.89	34.602
713.20	31.307
713.52	35.197
713.84	30.063
714.16	32.927
714.48	29.885
714.80	37.386
715.11	32.565
715.43	29.970
715.75	35.652
716.07	34.185
716.39	31.975
716.70	33.223
717.02	30.576
717.34	34.276
717.66	36.194
717.97	36.255
718.29	33.333
718.61	37.591
718.93	31.618
719.24	35.986
719.56	33.898
719.88	36.610
720.20	35.135
720.51	34.146
720.83	37.918
721.15	34.701
721.46	32.979
721.78	35.125
722.10	33.208
722.42	38.722
722.73	34.457
723.05	36.475
723.37	34.008
723.68	40.154
724.00	31.301
724.32	39.516
724.63	39.431
724.95	33.891
725.27	41.296
725.58	35.937
725.90	35.401
726.22	36.226
726.53	38.889
726.85	33.788
727.16	33.096
727.48	30.142
727.80	36.742
728.11	33.333
728.43	31.538
728.74	31.900
729.06	40.511
729.38	38.603
729.69	39.146
730.01	34.130
730.32	32.292
730.64	34.114
730.96	30.363
731.27	37.417
731.59	33.333
731.90	31.778
732.22	35.093
732.53	31.579
732.85	32.692
733.16	31.833
733.48	32.226
733.80	31.818
734.11	35.669
734.43	32.840
734.74	30.286
735.06	30.086
735.37	33.815
735.69	29.618
736.00	33.660
736.32	34.579
736.63	31.310
736.95	30.990
737.26	26.190
737.58	27.097
737.89	34.448
738.21	34.471
738.52	35.714
738.83	28.679
739.15	36.538
739.46	36.861
739.78	36.806
740.09	34.769
740.41	36.129
740.72	31.707
741.04	34.074
741.35	32.917
741.66	40.889
741.98	39.151
742.29	42.105
742.61	40.948
742.92	33.937
743.23	35.470
743.55	38.000
743.86	32.895
744.18	45.133
744.49	40.670
744.80	40.845
745.12	41.364
745.43	37.004
745.74	40.991
746.06	41.284
746.37	38.565
746.68	37.557
747.00	43.981
747.31	44.762
747.62	37.611
747.94	41.410
748.25	34.894
748.56	40.088
748.88	38.119
749.19	44.000
749.50	43.256
749.82	34.553
750.13	35.510
750.44	32.117
750.75	36.491
751.07	37.942
751.38	33.798
751.69	35.379
752.01	35.338
752.32	34.657
752.63	36.879
752.94	36.885
753.26	40.000
753.57	36.179
753.88	37.891
754.19	36.786
754.51	38.194
754.82	27.798
755.13	34.717
755.44	37.594
755.75	32.482
756.07	34.397
756.38	32.482
756.69	32.886
757.00	29.341
757.31	29.970
757.63	31.871
757.94	29.491
758.25	30.637
758.56	27.160
758.87	25.000
759.18	31.818
759.50	29.781
759.81	29.907
760.12	32.188
760.43	31.519
760.74	29.348
761.05	31.638
761.36	30.214
761.67	34.091
761.99	31.056
762.30	31.250
762.61	35.115
762.92	35.937
763.23	38.235
763.54	37.200
763.85	33.984
764.16	41.538
764.47	37.262
764.78	31.802
765.10	29.747
765.41	30.088
765.72	33.533
766.03	31.661
766.34	34.000
766.65	40.000
766.96	35.897
767.27	43.655
767.58	46.354
767.89	43.684
768.20	46.552
768.51	41.117
768.82	42.661
769.13	32.114
769.44	34.413
769.75	35.622
770.06	33.486
770.37	42.534
770.68	41.667
770.99	40.889
771.30	31.967
771.61	39.910
771.92	34.836
772.23	44.118
772.54	40.513
772.85	45.550
773.16	44.149
773.47	48.913
773.78	47.716
774.09	44.048
774.39	42.690
774.70	51.235
775.01	53.623
775.32	54.902
775.63	50.000
775.94	48.921
776.25	55.118
776.56	62.687
776.87	62.295
777.18	54.688
777.48	56.489
777.79	50.758
778.10	49.630
778.41	61.607
778.72	51.825
779.03	53.691
779.34	51.678
779.65	50.676
779.95	50.307
780.26	50.980
780.57	48.276
780.88	59.375
781.19	52.632
781.50	55.405
781.80	54.717
782.11	41.808
782.42	50.000
782.73	40.491
783.04	47.973
783.34	46.479
783.65	56.164
783.96	57.463
784.27	46.853
784.57	47.482
784.88	46.296
785.19	63.492
785.50	59.434
785.81	55.970
786.11	57.377
786.42	62.791
786.73	68.142
787.04	69.811
787.34	58.929
787.65	72.000
787.96	63.063
788.26	52.893
788.57	59.322
788.88	55.372
789.19	61.111
789.49	59.091
789.80	54.198
790.11	77.143
790.41	71.287
790.72	63.855
791.03	70.652
791.33	74.419
791.64	64.948
791.95	60.396
792.25	77.778
792.56	71.429
792.87	82.051
793.17	91.139
793.48	80.460
793.79	72.414
794.09	78.409
794.40	59.664
794.70	59.559
795.01	48.148
795.32	52.518
795.62	51.181
795.93	56.897
796.23	59.292
796.54	78.824
796.85	79.730
797.15	101.408
797.46	96.970
797.76	81.928
798.07	83.544
798.37	89.231
798.68	87.879
798.99	69.014
799.29	77.922
799.60	80.682
799.90	83.562
800.21	82.090
800.51	98.276
800.82	110.526
801.12	93.443
801.43	98.485
801.73	75.676
802.04	93.651
802.34	88.889
802.65	110.938
802.95	111.864
803.26	115.625
803.56	78.571
803.87	87.692
804.17	100.000
804.48	118.519
804.78	86.207
805.09	94.118
805.39	105.769
805.70	100.000
806.00	95.082
806.30	80.303
806.61	90.244
806.91	64.557
807.22	82.895
807.52	88.060
807.83	83.099
808.13	103.125
808.43	96.667
808.74	75.000
809.04	91.304
809.35	92.537
809.65	93.421
809.95	108.065
810.26	106.780
810.56	93.651
810.86	111.364
811.17	150.000
811.47	101.667
811.77	101.852
812.08	118.182
812.38	138.000
812.69	150.000
812.99	143.182
813.29	132.653
813.59	80.952
813.90	114.286
814.20	107.273
814.50	90.769
814.81	95.588
815.11	126.531
815.41	111.475
815.72	154.762
816.02	138.182
816.32	142.857
816.62	120.000
816.93	141.463
817.23	159.524
817.53	134.091
817.84	160.606
818.14	130.435
818.44	124.444
818.74	155.882
819.04	110.000
819.35	157.143
819.65	185.294
819.95	171.429
820.25	245.000
820.56	143.590
820.86	120.455
821.16	134.884
821.46	128.205
821.76	126.000
822.07	151.429
822.37	132.500
822.67	163.636
822.97	109.804
823.27	185.714
823.57	154.054
823.88	142.500
824.18	190.000
824.48	152.381
824.78	204.000
825.08	216.667
825.38	183.784
825.69	134.146
825.99	245.833
826.29	151.724
826.59	165.789
826.89	157.895
827.19	144.118
827.49	203.226
827.79	127.273
828.09	136.364
828.39	131.915
828.70	142.857
829.00	162.963
829.30	190.323
829.60	142.500
829.90	300.000
830.20	192.857
830.50	182.609
830.80	265.217
831.10	196.667
831.40	193.333
831.70	208.696
832.00	234.615
832.30	196.296
832.60	300.000
832.90	190.000
833.20	442.857
833.50	206.452
833.80	175.862
834.10	178.125
834.40	223.077
834.70	316.667
835.00	290.476
835.30	162.857
835.60	346.154
835.90	168.966
836.20	407.143
836.50	162.069
836.80	212.000
837.10	163.889
837.40	257.143
837.70	329.412
838.00	211.111
838.30	223.810
838.60	295.238
838.90	234.615
839.19	280.000
839.49	350.000
839.79	310.000
840.09	285.000
840.39	309.524
840.69	247.826
840.99	322.222
841.29	480.000
841.59	400.000
841.88	400.000
842.18	165.517
842.48	266.667
842.78	203.333
843.08	239.130
843.38	178.125
843.68	833.333
843.97	211.538
844.27	189.655
844.57	300.000
844.87	343.750
845.17	222.222
845.47	1366.667
845.76	533.333
846.06	282.353
846.36	562.500
846.66	335.714
846.96	325.000
847.25	400.000
847.55	409.091
847.85	213.043
848.15	450.000
848.44	321.429
848.74	255.556
849.04	305.882
849.34	550.000
849.63	263.158
849.93	490.909
850.23	1020.000
850.53	457.143
850.82	2950.000
851.12	-4500.000
851.42	4500.000
851.71	275.000
852.01	-1200.000
852.31	229.167
852.61	1633.333
852.90	280.952
853.20	240.000
853.50	352.941
853.79	300.000
854.09	237.500
854.39	400.000
854.68	175.676
854.98	193.548
855.28	176.667
855.57	196.552
855.87	214.815
856.17	252.632
856.46	300.000
856.76	288.235
857.05	203.448
857.35	183.333
857.65	306.667
857.94	239.130
858.24	246.154
858.53	330.000
858.83	277.273
859.13	413.333
859.42	0.000
859.72	566.667
860.01	427.273
860.31	254.545
860.60	263.158
860.90	269.565
861.20	611.111
861.49	416.667
861.79	-4000.000
862.08	587.500
862.38	266.667
862.67	376.923
862.97	305.882
863.26	622.222
863.56	233.333
863.85	408.333
864.15	587.500
864.44	420.000
864.74	966.667
865.03	700.000
865.33	289.474
865.62	427.273
865.92	430.769
866.21	358.333
866.51	0.000
866.80	427.273
867.10	1080.000
867.39	446.154
867.69	454.545
867.98	326.316
868.27	518.182
868.57	252.632
868.86	-5500.000
869.16	356.250
869.45	1950.000
869.75	-3800.000
870.04	450.000
870.33	771.429
870.63	1075.000
870.92	2550.000
871.22	757.143
871.51	335.294
871.80	214.286
872.10	357.143
>>>>>End Processed Spectral Data<<<<<
