SpectraSuite Data File
++++++++++++++++++++++++++++++++++++
Date: Wed May 13 16:17:34 PDT 2015
User: schluterlab
Dark Spectrum Present: Yes
Reference Spectrum Present: Yes
Number of Sampled Component Spectra: 1
Spectrometers: USB2E3373
Integration Time (usec): 3000 (USB2E3373)
Spectra Averaged: 3 (USB2E3373)
Boxcar Smoothing: 0 (USB2E3373)
Correct for Electrical Dark: No (USB2E3373)
Strobe/Lamp Enabled: No (USB2E3373)
Correct for Detector Non-linearity: No (USB2E3373)
Correct for Stray Light: No (USB2E3373)
Number of Pixels in Processed Spectrum: 2048
>>>>>Begin Processed Spectral Data<<<<<
178.53	0.000
178.91	-1075.000
179.29	-1125.000
179.67	-172.222
180.04	-1050.000
180.42	2050.000
180.80	780.000
181.18	-1075.000
181.56	614.286
181.94	0.000
182.31	-528.571
182.69	1533.333
183.07	-525.000
183.45	-444.444
183.83	518.182
184.20	-320.000
184.58	1700.000
184.96	3900.000
185.34	-660.000
185.72	-475.000
186.09	-1550.000
186.47	3000.000
186.85	1650.000
187.23	3400.000
187.61	-1266.667
187.98	1000.000
188.36	418.182
188.74	500.000
189.12	-620.000
189.49	430.000
189.87	-3500.000
190.25	-875.000
190.63	321.429
191.00	407.692
191.38	733.333
191.76	-925.000
192.14	1275.000
192.51	550.000
192.89	833.333
193.27	425.000
193.65	-1000.000
194.02	320.000
194.40	760.000
194.78	440.000
195.15	408.333
195.53	500.000
195.91	-1500.000
196.29	250.000
196.66	315.789
197.04	-240.000
197.42	0.000
197.79	460.000
198.17	-3500.000
198.55	628.571
198.92	512.500
199.30	620.000
199.68	0.000
200.05	338.889
200.43	685.714
200.81	3700.000
201.18	1400.000
201.56	-866.667
201.94	444.444
202.31	422.222
202.69	358.333
203.07	460.000
203.44	0.000
203.82	1125.000
204.19	600.000
204.57	314.286
204.95	475.000
205.32	1500.000
205.70	381.818
206.08	271.429
206.45	2150.000
206.83	262.500
207.20	716.667
207.58	500.000
207.96	277.778
208.33	612.500
208.71	-666.667
209.08	700.000
209.46	455.556
209.84	363.636
210.21	-1333.333
210.59	925.000
210.96	-362.500
211.34	1950.000
211.71	590.000
212.09	650.000
212.46	0.000
212.84	1466.667
213.22	1150.000
213.59	-4300.000
213.97	650.000
214.34	614.286
214.72	427.273
215.09	920.000
215.47	-1700.000
215.84	-1850.000
216.22	1066.667
216.59	321.429
216.97	1000.000
217.34	409.091
217.72	-516.667
218.09	0.000
218.47	-4300.000
218.84	522.222
219.22	514.286
219.59	1400.000
219.97	-471.429
220.34	880.000
220.72	-1200.000
221.09	278.571
221.47	1175.000
221.84	-766.667
222.22	0.000
222.59	950.000
222.97	-2700.000
223.34	1000.000
223.72	376.923
224.09	640.000
224.46	1400.000
224.84	-4300.000
225.21	-720.000
225.59	-3700.000
225.96	580.000
226.34	215.000
226.71	2350.000
227.08	512.500
227.46	590.000
227.83	-950.000
228.21	-1950.000
228.58	511.111
228.95	-1750.000
229.33	-2100.000
229.70	1666.667
230.08	685.714
230.45	-800.000
230.82	325.000
231.20	533.333
231.57	557.143
231.95	366.667
232.32	240.909
232.69	290.909
233.07	457.143
233.44	253.846
233.81	-1000.000
234.19	236.842
234.56	341.667
234.93	316.667
235.31	327.273
235.68	338.462
236.05	207.143
236.43	136.364
236.80	231.579
237.17	3000.000
237.55	128.571
237.92	157.143
238.29	200.000
238.67	129.032
239.04	148.276
239.41	102.778
239.79	86.957
240.16	102.381
240.53	95.455
240.91	70.588
241.28	84.000
241.65	58.000
242.02	73.913
242.40	61.290
242.77	45.000
243.14	44.086
243.51	62.921
243.89	52.941
244.26	46.667
244.63	38.710
245.00	29.787
245.38	37.624
245.75	28.972
246.12	30.275
246.49	40.876
246.87	42.400
247.24	37.692
247.61	30.000
247.98	31.373
248.36	24.324
248.73	33.121
249.10	28.025
249.47	24.859
249.84	31.016
250.22	25.668
250.59	28.994
250.96	28.283
251.33	29.384
251.70	25.743
252.08	20.952
252.45	21.525
252.82	17.826
253.19	20.851
253.56	16.863
253.94	19.917
254.31	19.922
254.68	22.308
255.05	16.605
255.42	19.512
255.79	16.176
256.16	19.134
256.54	18.728
256.91	15.658
257.28	14.748
257.65	19.142
258.02	20.807
258.39	13.565
258.76	13.378
259.14	17.262
259.51	13.070
259.88	15.839
260.25	17.825
260.62	17.052
260.99	9.627
261.36	14.414
261.73	12.321
262.10	14.826
262.47	11.268
262.85	11.978
263.22	8.832
263.59	12.821
263.96	10.989
264.33	14.099
264.70	13.684
265.07	14.066
265.44	11.616
265.81	12.409
266.18	13.065
266.55	13.171
266.92	11.057
267.29	12.963
267.66	13.303
268.03	13.864
268.40	10.748
268.77	10.024
269.14	11.261
269.51	14.447
269.88	10.723
270.25	9.255
270.62	11.910
270.99	13.548
271.36	11.373
271.73	7.009
272.10	9.783
272.47	12.258
272.84	10.823
273.21	13.836
273.58	9.389
273.95	11.321
274.32	11.364
274.69	11.563
275.06	12.008
275.43	10.213
275.80	11.022
276.17	10.591
276.54	10.811
276.91	11.660
277.28	10.547
277.65	11.025
278.02	9.317
278.39	9.766
278.76	11.636
279.13	12.264
279.50	12.477
279.87	10.757
280.23	9.581
280.60	11.605
280.97	9.982
281.34	10.442
281.71	11.455
282.08	9.597
282.45	9.455
282.82	11.723
283.19	6.774
283.56	9.649
283.92	11.844
284.29	8.289
284.66	10.345
285.03	8.499
285.40	8.451
285.77	8.418
286.14	8.981
286.51	10.167
286.87	9.573
287.24	9.772
287.61	8.507
287.98	10.877
288.35	8.558
288.72	7.788
289.08	9.233
289.45	8.567
289.82	8.618
290.19	8.477
290.56	7.351
290.93	7.704
291.29	7.669
291.66	8.555
292.03	10.756
292.40	10.573
292.77	8.432
293.13	9.403
293.50	9.767
293.87	7.259
294.24	9.037
294.60	6.259
294.97	8.576
295.34	9.027
295.71	8.665
296.08	8.974
296.44	9.078
296.81	7.266
297.18	9.079
297.55	6.332
297.91	6.860
298.28	8.835
298.65	8.747
299.02	8.696
299.38	7.835
299.75	5.930
300.12	6.386
300.48	7.500
300.85	7.645
301.22	7.898
301.59	7.828
301.95	8.060
302.32	9.371
302.69	7.288
303.05	7.394
303.42	7.407
303.79	7.588
304.15	6.993
304.52	7.068
304.89	6.272
305.25	7.309
305.62	8.720
305.99	8.737
306.35	8.054
306.72	7.175
307.09	8.546
307.45	8.784
307.82	7.366
308.19	9.051
308.55	8.414
308.92	7.519
309.29	7.603
309.65	7.847
310.02	8.351
310.38	7.419
310.75	7.814
311.12	9.007
311.48	9.613
311.85	7.966
312.22	8.637
312.58	8.316
312.95	8.870
313.31	7.767
313.68	7.380
314.05	9.566
314.41	7.839
314.78	9.668
315.14	8.242
315.51	9.166
315.87	8.317
316.24	8.640
316.61	8.480
316.97	8.513
317.34	8.121
317.70	8.509
318.07	8.277
318.43	7.828
318.80	8.622
319.16	10.734
319.53	7.786
319.89	10.095
320.26	9.500
320.62	9.127
320.99	10.606
321.35	9.899
321.72	9.856
322.08	11.254
322.45	10.547
322.81	10.950
323.18	10.116
323.54	10.853
323.91	10.660
324.27	10.229
324.64	10.252
325.00	9.197
325.37	9.827
325.73	11.759
326.10	10.768
326.46	9.677
326.83	11.907
327.19	10.077
327.56	11.237
327.92	10.499
328.29	13.221
328.65	12.431
329.01	11.552
329.38	11.841
329.74	11.634
330.11	11.876
330.47	11.478
330.84	13.603
331.20	11.749
331.56	11.927
331.93	11.296
332.29	12.156
332.66	13.186
333.02	12.157
333.38	13.008
333.75	12.478
334.11	11.477
334.48	12.511
334.84	11.949
335.20	13.000
335.57	13.509
335.93	11.161
336.29	12.637
336.66	11.903
337.02	12.579
337.38	13.611
337.75	11.676
338.11	11.996
338.47	12.247
338.84	11.274
339.20	11.835
339.56	13.960
339.93	11.909
340.29	11.504
340.65	11.676
341.02	11.257
341.38	12.811
341.74	12.018
342.11	11.965
342.47	12.511
342.83	13.014
343.20	11.775
343.56	11.626
343.92	11.053
344.28	12.500
344.65	11.866
345.01	10.522
345.37	12.178
345.73	12.183
346.10	11.765
346.46	11.780
346.82	11.779
347.19	10.359
347.55	11.084
347.91	12.136
348.27	12.490
348.63	11.455
349.00	11.246
349.36	11.987
349.72	11.628
350.08	11.588
350.45	11.961
350.81	12.429
351.17	11.831
351.53	11.466
351.89	11.469
352.26	11.839
352.62	11.307
352.98	11.426
353.34	11.339
353.70	10.802
354.07	11.855
354.43	10.794
354.79	11.102
355.15	10.375
355.51	11.751
355.87	11.020
356.24	10.993
356.60	10.505
356.96	11.504
357.32	11.365
357.68	11.496
358.04	11.164
358.40	12.035
358.77	10.720
359.13	10.339
359.49	11.137
359.85	10.159
360.21	9.809
360.57	10.661
360.93	10.769
361.29	10.960
361.66	10.372
362.02	10.970
362.38	11.255
362.74	10.342
363.10	10.215
363.46	10.271
363.82	10.733
364.18	10.646
364.54	10.327
364.90	10.836
365.26	10.515
365.62	10.519
365.98	10.080
366.35	9.670
366.71	10.918
367.07	10.051
367.43	9.869
367.79	10.350
368.15	11.279
368.51	10.392
368.87	10.350
369.23	9.876
369.59	10.138
369.95	10.221
370.31	10.470
370.67	10.725
371.03	10.861
371.39	10.277
371.75	10.221
372.11	10.526
372.47	11.437
372.83	10.375
373.19	10.260
373.55	10.126
373.91	10.972
374.27	10.584
374.63	10.182
374.99	10.099
375.35	9.630
375.71	10.829
376.07	10.768
376.42	10.248
376.78	12.061
377.14	10.719
377.50	9.934
377.86	9.574
378.22	10.556
378.58	9.837
378.94	9.428
379.30	9.224
379.66	10.216
380.02	10.504
380.38	9.350
380.74	10.204
381.09	10.147
381.45	10.449
381.81	10.627
382.17	9.936
382.53	9.308
382.89	10.370
383.25	9.881
383.61	10.409
383.97	10.507
384.32	9.170
384.68	9.480
385.04	10.756
385.40	9.598
385.76	10.074
386.12	10.168
386.48	10.321
386.83	9.750
387.19	10.451
387.55	9.338
387.91	10.580
388.27	8.890
388.62	10.572
388.98	9.582
389.34	10.075
389.70	10.178
390.06	10.203
390.42	10.182
390.77	10.433
391.13	9.572
391.49	10.216
391.85	9.357
392.20	9.148
392.56	9.217
392.92	10.065
393.28	8.402
393.64	9.892
393.99	9.774
394.35	9.801
394.71	9.348
395.07	8.847
395.42	9.456
395.78	9.733
396.14	9.683
396.50	9.962
396.85	10.108
397.21	9.309
397.57	9.299
397.92	8.834
398.28	8.800
398.64	9.677
399.00	8.954
399.35	8.911
399.71	8.333
400.07	9.462
400.42	9.387
400.78	9.771
401.14	8.780
401.49	8.836
401.85	9.195
402.21	9.162
402.57	8.390
402.92	8.953
403.28	9.619
403.63	7.921
403.99	8.599
404.35	8.848
404.70	8.453
405.06	8.853
405.42	8.609
405.77	8.457
406.13	7.957
406.49	9.225
406.84	8.506
407.20	8.570
407.55	8.743
407.91	8.600
408.27	8.232
408.62	8.248
408.98	8.027
409.34	8.426
409.69	8.387
410.05	7.807
410.40	7.706
410.76	7.706
411.11	8.444
411.47	8.626
411.83	8.125
412.18	7.978
412.54	7.970
412.89	8.675
413.25	8.323
413.60	8.400
413.96	8.743
414.31	7.837
414.67	8.619
415.03	8.146
415.38	8.827
415.74	8.296
416.09	8.883
416.45	7.831
416.80	7.997
417.16	8.445
417.51	8.295
417.87	8.157
418.22	8.391
418.58	8.586
418.93	8.415
419.29	8.339
419.64	8.627
420.00	8.963
420.35	8.058
420.71	8.308
421.06	7.995
421.42	8.304
421.77	8.800
422.12	7.243
422.48	7.285
422.83	8.212
423.19	8.785
423.54	7.893
423.90	8.580
424.25	8.654
424.61	8.274
424.96	9.329
425.31	7.752
425.67	7.584
426.02	7.829
426.38	9.524
426.73	8.367
427.09	8.571
427.44	7.706
427.79	8.108
428.15	8.393
428.50	8.133
428.85	8.999
429.21	8.448
429.56	8.139
429.92	7.901
430.27	8.342
430.62	7.783
430.98	8.303
431.33	8.351
431.68	8.272
432.04	8.307
432.39	7.938
432.74	8.498
433.10	8.376
433.45	8.222
433.80	8.315
434.16	8.494
434.51	8.211
434.86	8.666
435.22	8.004
435.57	9.240
435.92	8.250
436.28	8.897
436.63	9.106
436.98	8.701
437.34	8.945
437.69	8.810
438.04	8.544
438.39	8.896
438.75	9.297
439.10	9.497
439.45	8.442
439.81	8.520
440.16	9.204
440.51	9.080
440.86	9.670
441.22	8.065
441.57	8.970
441.92	8.905
442.27	9.150
442.63	8.425
442.98	9.915
443.33	9.511
443.68	9.293
444.03	8.882
444.39	8.423
444.74	9.199
445.09	9.488
445.44	9.513
445.79	9.104
446.15	9.529
446.50	9.370
446.85	8.787
447.20	9.281
447.55	9.715
447.91	9.322
448.26	9.572
448.61	8.988
448.96	9.911
449.31	9.674
449.66	10.017
450.02	9.136
450.37	8.503
450.72	9.532
451.07	8.531
451.42	10.091
451.77	10.041
452.12	9.873
452.47	9.950
452.83	9.557
453.18	9.719
453.53	10.142
453.88	9.214
454.23	9.444
454.58	11.084
454.93	10.935
455.28	8.728
455.63	9.466
455.98	10.417
456.34	9.987
456.69	11.083
457.04	10.341
457.39	9.760
457.74	10.157
458.09	10.121
458.44	9.977
458.79	9.002
459.14	9.819
459.49	10.158
459.84	10.083
460.19	10.077
460.54	10.185
460.89	9.654
461.24	10.018
461.59	11.273
461.94	10.789
462.29	11.039
462.64	10.211
462.99	10.345
463.34	11.600
463.69	10.194
464.04	10.667
464.39	10.551
464.74	10.933
465.09	9.891
465.44	10.139
465.79	9.899
466.14	10.454
466.49	10.011
466.84	9.924
467.19	10.260
467.54	11.312
467.89	10.804
468.24	10.413
468.59	10.440
468.94	9.957
469.29	10.283
469.64	11.111
469.99	10.622
470.34	10.634
470.68	10.991
471.03	10.544
471.38	10.285
471.73	10.993
472.08	10.395
472.43	9.987
472.78	10.402
473.13	10.911
473.48	11.298
473.83	10.427
474.17	10.268
474.52	11.352
474.87	10.741
475.22	11.085
475.57	10.210
475.92	9.984
476.27	10.823
476.61	10.535
476.96	10.885
477.31	10.518
477.66	10.230
478.01	9.880
478.36	10.365
478.70	9.865
479.05	9.851
479.40	11.105
479.75	10.625
480.10	10.636
480.45	10.424
480.79	9.699
481.14	9.980
481.49	10.394
481.84	10.334
482.19	10.450
482.53	9.679
482.88	9.586
483.23	10.140
483.58	10.965
483.92	10.309
484.27	9.630
484.62	9.440
484.97	10.209
485.31	10.205
485.66	9.292
486.01	8.935
486.36	8.556
486.70	8.254
487.05	9.066
487.40	9.397
487.75	9.502
488.09	9.857
488.44	9.473
488.79	9.693
489.13	10.390
489.48	10.767
489.83	10.099
490.17	9.908
490.52	10.319
490.87	10.176
491.22	9.868
491.56	10.342
491.91	10.796
492.26	10.519
492.60	10.184
492.95	10.150
493.30	10.421
493.64	10.219
493.99	10.353
494.34	10.453
494.68	10.668
495.03	10.056
495.37	9.958
495.72	10.916
496.07	10.070
496.41	10.442
496.76	10.378
497.11	10.086
497.45	10.340
497.80	10.317
498.14	10.048
498.49	10.341
498.84	10.499
499.18	10.333
499.53	10.494
499.87	10.252
500.22	11.163
500.56	10.825
500.91	10.240
501.26	10.289
501.60	10.346
501.95	9.945
502.29	10.497
502.64	10.801
502.98	10.332
503.33	10.146
503.67	10.951
504.02	10.617
504.36	10.763
504.71	10.503
505.06	10.651
505.40	10.549
505.75	10.463
506.09	10.982
506.44	10.952
506.78	10.472
507.13	11.055
507.47	11.364
507.82	10.588
508.16	11.094
508.51	10.249
508.85	10.675
509.19	11.122
509.54	11.122
509.88	11.180
510.23	10.848
510.57	11.610
510.92	11.134
511.26	11.100
511.61	11.255
511.95	10.282
512.30	11.135
512.64	11.177
512.98	10.236
513.33	11.670
513.67	10.779
514.02	9.470
514.36	11.196
514.70	10.736
515.05	11.099
515.39	10.881
515.74	10.304
516.08	12.074
516.42	11.654
516.77	11.706
517.11	10.377
517.46	10.948
517.80	10.743
518.14	10.828
518.49	10.968
518.83	11.136
519.17	11.028
519.52	10.922
519.86	11.751
520.20	11.156
520.55	11.789
520.89	11.010
521.23	11.821
521.58	10.564
521.92	11.758
522.26	10.250
522.61	11.713
522.95	11.418
523.29	10.590
523.64	10.915
523.98	12.015
524.32	11.158
524.66	11.365
525.01	11.213
525.35	11.152
525.69	10.406
526.04	11.589
526.38	10.921
526.72	11.963
527.06	10.672
527.41	10.272
527.75	10.161
528.09	11.432
528.43	11.536
528.78	11.063
529.12	10.848
529.46	11.145
529.80	12.067
530.15	11.277
530.49	10.892
530.83	11.772
531.17	11.031
531.51	12.516
531.86	11.419
532.20	11.930
532.54	11.403
532.88	11.232
533.22	11.368
533.57	12.099
533.91	10.897
534.25	11.422
534.59	11.165
534.93	11.660
535.27	10.923
535.62	10.867
535.96	11.488
536.30	10.871
536.64	10.947
536.98	11.082
537.32	10.599
537.66	11.000
538.01	11.389
538.35	11.571
538.69	11.806
539.03	11.371
539.37	10.607
539.71	10.110
540.05	11.373
540.39	11.229
540.73	11.061
541.07	12.265
541.42	12.003
541.76	11.613
542.10	12.096
542.44	10.728
542.78	11.660
543.12	10.237
543.46	11.344
543.80	10.800
544.14	11.040
544.48	11.365
544.82	10.006
545.16	10.865
545.50	11.311
545.84	11.626
546.18	10.572
546.52	11.493
546.86	11.340
547.20	11.666
547.54	12.024
547.88	12.054
548.22	11.021
548.56	11.321
548.90	10.691
549.24	10.101
549.58	11.869
549.92	11.607
550.26	11.719
550.60	10.719
550.94	10.493
551.28	9.802
551.62	11.071
551.96	10.947
552.30	11.331
552.64	11.359
552.98	10.441
553.32	10.587
553.66	11.247
554.00	11.050
554.34	11.111
554.68	12.017
555.02	11.001
555.36	10.299
555.69	10.690
556.03	10.229
556.37	11.323
556.71	10.846
557.05	10.784
557.39	11.407
557.73	10.797
558.07	11.458
558.41	9.986
558.75	11.315
559.08	11.409
559.42	10.884
559.76	11.765
560.10	10.635
560.44	12.020
560.78	10.512
561.12	10.290
561.45	11.213
561.79	10.679
562.13	10.932
562.47	10.929
562.81	10.530
563.15	10.100
563.48	10.942
563.82	11.155
564.16	10.137
564.50	10.807
564.84	11.125
565.17	10.167
565.51	10.288
565.85	10.850
566.19	10.895
566.52	10.640
566.86	10.307
567.20	11.026
567.54	10.046
567.88	9.777
568.21	10.582
568.55	9.909
568.89	9.776
569.23	9.848
569.56	9.514
569.90	9.283
570.24	9.114
570.57	8.705
570.91	8.985
571.25	8.802
571.59	8.778
571.92	8.641
572.26	9.185
572.60	9.069
572.93	8.666
573.27	9.287
573.61	8.934
573.95	8.915
574.28	8.291
574.62	8.892
574.96	8.698
575.29	8.293
575.63	8.460
575.97	8.826
576.30	8.603
576.64	8.415
576.98	8.386
577.31	8.618
577.65	8.599
577.98	8.444
578.32	8.161
578.66	8.344
578.99	8.468
579.33	8.327
579.67	8.708
580.00	8.559
580.34	8.519
580.67	8.461
581.01	8.702
581.35	8.325
581.68	8.071
582.02	7.924
582.35	8.065
582.69	8.376
583.02	8.433
583.36	8.370
583.70	8.516
584.03	9.065
584.37	8.854
584.70	8.882
585.04	8.684
585.37	8.388
585.71	8.647
586.04	8.601
586.38	8.621
586.72	8.754
587.05	8.720
587.39	8.417
587.72	8.503
588.06	8.458
588.39	8.807
588.73	8.947
589.06	8.881
589.40	8.788
589.73	9.328
590.07	8.897
590.40	8.550
590.73	9.329
591.07	9.524
591.40	9.321
591.74	10.087
592.07	9.380
592.41	9.756
592.74	9.176
593.08	9.094
593.41	8.890
593.75	8.557
594.08	8.884
594.41	9.014
594.75	9.242
595.08	9.091
595.42	9.562
595.75	8.654
596.09	9.050
596.42	9.666
596.75	9.118
597.09	9.784
597.42	9.317
597.75	9.746
598.09	9.522
598.42	9.450
598.76	8.756
599.09	8.704
599.42	9.389
599.76	8.748
600.09	8.780
600.42	8.839
600.76	8.750
601.09	9.180
601.42	8.600
601.76	9.488
602.09	8.735
602.42	9.554
602.76	8.908
603.09	8.773
603.42	9.332
603.76	8.918
604.09	8.104
604.42	9.499
604.76	9.026
605.09	9.174
605.42	9.021
605.75	8.816
606.09	9.028
606.42	8.664
606.75	9.000
607.09	9.041
607.42	8.858
607.75	8.523
608.08	8.554
608.42	9.144
608.75	8.702
609.08	9.297
609.41	9.234
609.75	9.576
610.08	9.472
610.41	9.218
610.74	8.988
611.07	8.794
611.41	9.078
611.74	10.055
612.07	9.524
612.40	10.021
612.73	9.368
613.07	9.429
613.40	9.637
613.73	8.547
614.06	8.817
614.39	10.016
614.72	9.632
615.06	10.032
615.39	9.342
615.72	9.100
616.05	8.931
616.38	9.005
616.71	9.620
617.05	11.013
617.38	9.441
617.71	9.309
618.04	10.757
618.37	9.758
618.70	10.268
619.03	10.789
619.36	10.115
619.69	9.930
620.03	10.096
620.36	10.695
620.69	10.274
621.02	10.472
621.35	10.258
621.68	9.891
622.01	9.985
622.34	11.195
622.67	10.798
623.00	9.391
623.33	9.936
623.66	10.365
623.99	9.867
624.32	10.271
624.65	9.110
624.99	9.207
625.32	9.703
625.65	9.692
625.98	10.453
626.31	10.731
626.64	10.857
626.97	10.723
627.30	11.222
627.63	11.403
627.96	10.849
628.29	11.286
628.62	11.070
628.95	11.698
629.28	11.131
629.61	11.274
629.94	12.286
630.26	10.772
630.59	10.010
630.92	10.536
631.25	10.464
631.58	11.612
631.91	10.446
632.24	10.970
632.57	12.592
632.90	12.171
633.23	10.850
633.56	11.864
633.89	11.325
634.22	12.372
634.55	12.663
634.88	11.856
635.20	11.708
635.53	12.048
635.86	11.757
636.19	12.941
636.52	12.341
636.85	11.226
637.18	11.175
637.51	12.411
637.83	10.481
638.16	12.276
638.49	11.965
638.82	10.619
639.15	13.875
639.48	12.843
639.81	12.064
640.13	12.760
640.46	12.752
640.79	12.946
641.12	12.792
641.45	12.570
641.77	12.960
642.10	12.135
642.43	12.012
642.76	11.146
643.09	13.190
643.41	13.961
643.74	15.123
644.07	12.348
644.40	14.110
644.73	15.118
645.05	14.263
645.38	12.322
645.71	12.560
646.04	13.289
646.36	15.192
646.69	14.381
647.02	15.136
647.35	14.605
647.67	12.743
648.00	13.984
648.33	12.376
648.66	13.485
648.98	12.894
649.31	13.752
649.64	11.510
649.96	12.519
650.29	12.480
650.62	12.136
650.94	12.966
651.27	15.034
651.60	14.309
651.92	12.939
652.25	10.261
652.58	13.863
652.90	13.270
653.23	11.710
653.56	13.228
653.88	14.739
654.21	15.798
654.54	13.366
654.86	13.084
655.19	11.892
655.52	7.950
655.84	5.970
656.17	7.515
656.49	10.199
656.82	10.278
657.15	7.810
657.47	5.915
657.80	4.581
658.13	4.796
658.45	7.105
658.78	7.665
659.10	8.034
659.43	8.407
659.75	9.201
660.08	10.063
660.41	12.197
660.73	13.342
661.06	10.669
661.38	13.273
661.71	16.346
662.03	15.976
662.36	11.928
662.68	15.060
663.01	13.939
663.33	14.650
663.66	15.546
663.98	11.879
664.31	14.286
664.63	14.170
664.96	12.274
665.28	14.139
665.61	15.400
665.93	13.682
666.26	13.185
666.58	13.808
666.91	13.319
667.23	15.281
667.56	11.231
667.88	15.812
668.21	17.271
668.53	14.967
668.86	16.234
669.18	15.778
669.50	14.348
669.83	18.736
670.15	15.111
670.48	16.122
670.80	16.379
671.13	16.348
671.45	13.617
671.77	15.071
672.10	14.233
672.42	13.781
672.75	13.930
673.07	12.676
673.39	12.477
673.72	11.719
674.04	13.137
674.37	13.786
674.69	13.701
675.01	12.762
675.34	16.016
675.66	16.211
675.98	14.868
676.31	18.067
676.63	13.588
676.95	15.094
677.28	12.850
677.60	15.824
677.92	17.932
678.25	14.784
678.57	15.737
678.89	12.625
679.22	14.342
679.54	14.313
679.86	13.945
680.18	15.385
680.51	14.716
680.83	14.235
681.15	14.906
681.48	13.800
681.80	12.379
682.12	13.985
682.44	11.219
682.77	14.868
683.09	16.094
683.41	15.521
683.73	13.907
684.06	15.909
684.38	15.068
684.70	15.891
685.02	13.696
685.34	15.018
685.67	12.238
685.99	11.512
686.31	12.628
686.63	12.014
686.96	11.964
687.28	15.523
687.60	13.043
687.92	13.163
688.24	12.167
688.56	14.859
688.89	14.315
689.21	17.031
689.53	14.405
689.85	15.299
690.17	15.114
690.49	16.773
690.82	17.991
691.14	14.732
691.46	13.924
691.78	16.466
692.10	15.496
692.42	14.970
692.74	14.523
693.06	15.957
693.39	14.990
693.71	14.847
694.03	13.684
694.35	13.853
694.67	14.645
694.99	16.585
695.31	14.951
695.63	16.507
695.95	14.670
696.27	13.706
696.59	17.358
696.91	16.580
697.23	14.085
697.56	17.697
697.88	11.861
698.20	14.167
698.52	13.118
698.84	16.704
699.16	12.212
699.48	14.489
699.80	16.908
700.12	17.143
700.44	18.568
700.76	16.298
701.08	16.667
701.40	15.642
701.72	19.534
702.04	24.148
702.36	13.598
702.68	18.130
703.00	15.789
703.32	15.691
703.64	16.354
703.96	16.435
704.28	18.314
704.60	19.355
704.91	18.694
705.23	19.648
705.55	21.595
705.87	21.262
706.19	19.435
706.51	19.003
706.83	17.879
707.15	16.527
707.47	13.384
707.79	17.936
708.11	17.123
708.43	17.143
708.74	15.561
709.06	16.883
709.38	18.373
709.70	18.314
710.02	19.881
710.34	15.455
710.66	18.209
710.98	15.909
711.29	19.477
711.61	19.764
711.93	16.987
712.25	16.720
712.57	18.382
712.89	22.145
713.20	17.325
713.52	21.382
713.84	16.456
714.16	15.854
714.48	16.667
714.80	19.149
715.11	15.562
715.43	18.694
715.75	16.812
716.07	19.489
716.39	15.047
716.70	22.259
717.02	23.741
717.34	18.728
717.66	21.269
717.97	21.116
718.29	18.519
718.61	20.073
718.93	24.265
719.24	20.415
719.56	20.000
719.88	18.983
720.20	21.284
720.51	20.906
720.83	20.446
721.15	16.791
721.46	23.050
721.78	22.222
722.10	22.642
722.42	19.925
722.73	23.221
723.05	18.443
723.37	17.409
723.68	20.077
724.00	19.512
724.32	18.548
724.63	21.951
724.95	22.176
725.27	23.077
725.58	24.609
725.90	24.818
726.22	21.509
726.53	18.056
726.85	18.771
727.16	20.641
727.48	20.567
727.80	21.591
728.11	19.203
728.43	18.077
728.74	16.129
729.06	23.723
729.38	26.838
729.69	22.776
730.01	17.747
730.32	18.750
730.64	17.391
730.96	15.512
731.27	18.212
731.59	19.878
731.90	16.035
732.22	17.702
732.53	18.266
732.85	16.346
733.16	18.328
733.48	20.266
733.80	21.104
734.11	19.108
734.43	15.680
734.74	18.000
735.06	14.040
735.37	19.075
735.69	14.013
736.00	21.569
736.32	17.757
736.63	16.613
736.95	19.169
737.26	12.585
737.58	18.710
737.89	18.060
738.21	17.406
738.52	21.071
738.83	17.358
739.15	20.385
739.46	22.263
739.78	20.486
740.09	18.462
740.41	15.484
740.72	18.118
741.04	21.111
741.35	20.417
741.66	24.444
741.98	21.698
742.29	23.923
742.61	23.276
742.92	20.814
743.23	22.222
743.55	21.600
743.86	20.175
744.18	26.549
744.49	27.273
744.80	27.700
745.12	26.818
745.43	24.670
745.74	26.577
746.06	21.101
746.37	23.318
746.68	19.457
747.00	24.074
747.31	22.857
747.62	20.796
747.94	25.551
748.25	19.574
748.56	26.432
748.88	19.307
749.19	29.000
749.50	22.791
749.82	20.732
750.13	18.776
750.44	22.628
750.75	20.351
751.07	22.186
751.38	23.345
751.69	20.939
752.01	16.917
752.32	19.495
752.63	20.567
752.94	18.852
753.26	26.800
753.57	19.512
753.88	23.828
754.19	20.357
754.51	22.917
754.82	18.773
755.13	21.887
755.44	18.421
755.75	17.518
756.07	16.312
756.38	17.518
756.69	21.477
757.00	17.665
757.31	17.804
757.63	17.251
757.94	15.550
758.25	15.931
758.56	14.321
758.87	16.129
759.18	20.303
759.50	17.241
759.81	15.265
760.12	17.188
760.43	15.759
760.74	15.217
761.05	19.492
761.36	17.647
761.67	18.466
761.99	17.081
762.30	18.750
762.61	21.374
762.92	22.266
763.23	16.387
763.54	26.800
763.85	17.578
764.16	22.692
764.47	20.913
764.78	16.608
765.10	16.139
765.41	17.994
765.72	19.162
766.03	16.301
766.34	15.333
766.65	21.702
766.96	22.222
767.27	24.873
767.58	22.396
767.89	29.474
768.20	25.862
768.51	20.812
768.82	22.936
769.13	22.358
769.44	17.814
769.75	20.601
770.06	16.514
770.37	24.434
770.68	24.074
770.99	24.000
771.30	18.033
771.61	22.870
771.92	19.262
772.23	26.471
772.54	21.026
772.85	28.272
773.16	27.128
773.47	27.717
773.78	26.396
774.09	30.357
774.39	30.409
774.70	33.951
775.01	37.681
775.32	32.680
775.63	34.868
775.94	30.216
776.25	34.646
776.56	39.552
776.87	29.508
777.18	40.625
777.48	42.748
777.79	31.061
778.10	42.222
778.41	39.286
778.72	25.547
779.03	30.201
779.34	29.530
779.65	27.703
779.95	34.356
780.26	37.255
780.57	37.931
780.88	44.531
781.19	32.331
781.50	36.486
781.80	27.044
782.11	29.944
782.42	31.013
782.73	27.607
783.04	38.514
783.34	33.803
783.65	43.151
783.96	35.075
784.27	27.273
784.57	24.460
784.88	32.407
785.19	35.714
785.50	40.566
785.81	40.299
786.11	45.082
786.42	37.984
786.73	37.168
787.04	41.509
787.34	39.286
787.65	38.000
787.96	41.441
788.26	29.752
788.57	42.373
788.88	43.802
789.19	34.722
789.49	46.212
789.80	35.878
790.11	45.714
790.41	44.554
790.72	51.807
791.03	40.217
791.33	58.140
791.64	41.237
791.95	53.465
792.25	43.333
792.56	54.545
792.87	64.103
793.17	67.089
793.48	58.621
793.79	56.322
794.09	57.955
794.40	44.538
794.70	41.176
795.01	32.593
795.32	35.971
795.62	46.457
795.93	42.241
796.23	40.708
796.54	43.529
796.85	52.703
797.15	64.789
797.46	59.091
797.76	60.241
798.07	50.633
798.37	43.077
798.68	63.636
798.99	47.887
799.29	53.247
799.60	47.727
799.90	63.014
800.21	68.657
800.51	60.345
800.82	78.947
801.12	62.295
801.43	77.273
801.73	62.162
802.04	66.667
802.34	64.198
802.65	48.438
802.95	62.712
803.26	71.875
803.56	50.000
803.87	63.077
804.17	55.882
804.48	68.519
804.78	63.793
805.09	80.882
805.39	69.231
805.70	71.429
806.00	78.689
806.30	74.242
806.61	59.756
806.91	51.899
807.22	59.211
807.52	49.254
807.83	70.423
808.13	50.000
808.43	81.667
808.74	43.421
809.04	71.014
809.35	55.224
809.65	71.053
809.95	87.097
810.26	72.881
810.56	68.254
810.86	88.636
811.17	114.286
811.47	86.667
811.77	70.370
812.08	74.545
812.38	106.000
812.69	77.778
812.99	125.000
813.29	93.878
813.59	66.667
813.90	100.000
814.20	63.636
814.50	69.231
814.81	73.529
815.11	81.633
815.41	68.852
815.72	95.238
816.02	103.636
816.32	104.762
816.62	117.500
816.93	97.561
817.23	114.286
817.53	84.091
817.84	100.000
818.14	102.174
818.44	82.222
818.74	126.471
819.04	102.500
819.35	134.286
819.65	123.529
819.95	128.571
820.25	145.000
820.56	133.333
820.86	93.182
821.16	93.023
821.46	100.000
821.76	102.000
822.07	114.286
822.37	117.500
822.67	121.212
822.97	88.235
823.27	167.857
823.57	124.324
823.88	142.500
824.18	143.333
824.48	121.429
824.78	184.000
825.08	83.333
825.38	110.811
825.69	97.561
825.99	150.000
826.29	110.345
826.59	142.105
826.89	110.526
827.19	129.412
827.49	141.935
827.79	125.000
828.09	100.000
828.39	97.872
828.70	95.918
829.00	125.926
829.30	112.903
829.60	97.500
829.90	233.333
830.20	139.286
830.50	126.087
830.80	152.174
831.10	163.333
831.40	146.667
831.70	130.435
832.00	150.000
832.30	162.963
832.60	237.500
832.90	163.333
833.20	264.286
833.50	122.581
833.80	144.828
834.10	140.625
834.40	165.385
834.70	205.556
835.00	219.048
835.30	117.143
835.60	223.077
835.90	165.517
836.20	278.571
836.50	141.379
836.80	148.000
837.10	133.333
837.40	200.000
837.70	223.529
838.00	166.667
838.30	190.476
838.60	271.429
838.90	169.231
839.19	230.000
839.49	285.714
839.79	245.000
840.09	175.000
840.39	195.238
840.69	152.174
840.99	244.444
841.29	240.000
841.59	200.000
841.88	281.250
842.18	134.483
842.48	233.333
842.78	160.000
843.08	160.870
843.38	143.750
843.68	666.667
843.97	184.615
844.27	158.621
844.57	238.095
844.87	262.500
845.17	140.741
845.47	1066.667
845.76	411.111
846.06	247.059
846.36	350.000
846.66	335.714
846.96	206.250
847.25	327.273
847.55	309.091
847.85	139.130
848.15	430.000
848.44	257.143
848.74	161.111
849.04	241.176
849.34	380.000
849.63	215.789
849.93	345.455
850.23	780.000
850.53	342.857
850.82	1700.000
851.12	-3500.000
851.42	3200.000
851.71	160.000
852.01	-900.000
852.31	204.167
852.61	1066.667
852.90	190.476
853.20	168.000
853.50	264.706
853.79	195.238
854.09	179.167
854.39	262.500
854.68	137.838
854.98	138.710
855.28	103.333
855.57	162.069
855.87	129.630
856.17	142.105
856.46	200.000
856.76	235.294
857.05	158.621
857.35	200.000
857.65	266.667
857.94	204.348
858.24	192.308
858.53	245.000
858.83	195.455
859.13	253.333
859.42	0.000
859.72	444.444
860.01	327.273
860.31	186.364
860.60	221.053
860.90	208.696
861.20	488.889
861.49	333.333
861.79	-3200.000
862.08	437.500
862.38	257.143
862.67	169.231
862.97	329.412
863.26	288.889
863.56	277.778
863.85	291.667
864.15	537.500
864.44	293.333
864.74	833.333
865.03	550.000
865.33	236.842
865.62	354.545
865.92	238.462
866.21	333.333
866.51	0.000
866.80	327.273
867.10	700.000
867.39	353.846
867.69	354.545
867.98	205.263
868.27	390.909
868.57	252.632
868.86	-3500.000
869.16	231.250
869.45	1650.000
869.75	-2800.000
870.04	383.333
870.33	485.714
870.63	775.000
870.92	2550.000
871.22	600.000
871.51	352.941
871.80	204.762
872.10	328.571
>>>>>End Processed Spectral Data<<<<<
