SpectraSuite Data File
++++++++++++++++++++++++++++++++++++
Date: Wed May 13 16:42:27 PDT 2015
User: schluterlab
Dark Spectrum Present: Yes
Reference Spectrum Present: Yes
Number of Sampled Component Spectra: 1
Spectrometers: USB2E3373
Integration Time (usec): 3000 (USB2E3373)
Spectra Averaged: 3 (USB2E3373)
Boxcar Smoothing: 0 (USB2E3373)
Correct for Electrical Dark: No (USB2E3373)
Strobe/Lamp Enabled: No (USB2E3373)
Correct for Detector Non-linearity: No (USB2E3373)
Correct for Stray Light: No (USB2E3373)
Number of Pixels in Processed Spectrum: 2048
>>>>>Begin Processed Spectral Data<<<<<
178.53	0.000
178.91	-1350.000
179.29	-1375.000
179.67	-266.667
180.04	-1275.000
180.42	2650.000
180.80	1100.000
181.18	-1175.000
181.56	771.429
181.94	0.000
182.31	-457.143
182.69	1833.333
183.07	-537.500
183.45	-588.889
183.83	490.909
184.20	-390.000
184.58	2050.000
184.96	5600.000
185.34	-980.000
185.72	-587.500
186.09	-2850.000
186.47	2400.000
186.85	2200.000
187.23	4900.000
187.61	-1766.667
187.98	1400.000
188.36	454.545
188.74	463.636
189.12	-860.000
189.49	500.000
189.87	-4700.000
190.25	-1100.000
190.63	485.714
191.00	423.077
191.38	800.000
191.76	-1325.000
192.14	1400.000
192.51	787.500
192.89	1000.000
193.27	625.000
193.65	-950.000
194.02	680.000
194.40	1000.000
194.78	520.000
195.15	541.667
195.53	700.000
195.91	-2550.000
196.29	350.000
196.66	278.947
197.04	-380.000
197.42	0.000
197.79	520.000
198.17	-5100.000
198.55	642.857
198.92	700.000
199.30	1040.000
199.68	0.000
200.05	377.778
200.43	700.000
200.81	4700.000
201.18	1266.667
201.56	-1466.667
201.94	444.444
202.31	677.778
202.69	433.333
203.07	570.000
203.44	0.000
203.82	1275.000
204.19	757.143
204.57	421.429
204.95	662.500
205.32	1466.667
205.70	463.636
206.08	357.143
206.45	2700.000
206.83	400.000
207.20	916.667
207.58	740.000
207.96	300.000
208.33	725.000
208.71	-933.333
209.08	885.714
209.46	488.889
209.84	545.455
210.21	-1433.333
210.59	1150.000
210.96	-412.500
211.34	2650.000
211.71	520.000
212.09	683.333
212.46	0.000
212.84	1666.667
213.22	1050.000
213.59	-4600.000
213.97	800.000
214.34	785.714
214.72	590.909
215.09	1120.000
215.47	-2300.000
215.84	-2550.000
216.22	1666.667
216.59	385.714
216.97	1125.000
217.34	481.818
217.72	-750.000
218.09	0.000
218.47	-4900.000
218.84	577.778
219.22	771.429
219.59	1900.000
219.97	-600.000
220.34	860.000
220.72	-1766.667
221.09	357.143
221.47	1375.000
221.84	-816.667
222.22	0.000
222.59	1175.000
222.97	-2500.000
223.34	1060.000
223.72	361.538
224.09	1080.000
224.46	2500.000
224.84	-4500.000
225.21	-1000.000
225.59	-5100.000
225.96	600.000
226.34	325.000
226.71	2500.000
227.08	712.500
227.46	540.000
227.83	-950.000
228.21	-2300.000
228.58	522.222
228.95	-2300.000
229.33	-2900.000
229.70	1566.667
230.08	1014.286
230.45	-800.000
230.82	391.667
231.20	800.000
231.57	600.000
231.95	491.667
232.32	231.818
232.69	363.636
233.07	671.429
233.44	376.923
233.81	-1333.333
234.19	278.947
234.56	458.333
234.93	400.000
235.31	400.000
235.68	369.231
236.05	300.000
236.43	163.636
236.80	252.632
237.17	3700.000
237.55	261.905
237.92	217.857
238.29	223.810
238.67	167.742
239.04	186.207
239.41	147.222
239.79	108.696
240.16	123.810
240.53	125.000
240.91	107.843
241.28	68.000
241.65	80.000
242.02	82.609
242.40	69.355
242.77	88.333
243.14	74.194
243.51	64.045
243.89	56.471
244.26	46.667
244.63	47.312
245.00	46.809
245.38	47.525
245.75	42.056
246.12	36.697
246.49	56.934
246.87	44.800
247.24	43.077
247.61	31.429
247.98	41.830
248.36	29.054
248.73	33.758
249.10	38.854
249.47	34.463
249.84	35.829
250.22	29.412
250.59	27.811
250.96	30.303
251.33	27.488
251.70	32.673
252.08	27.619
252.45	22.422
252.82	23.478
253.19	25.957
253.56	21.961
253.94	25.311
254.31	23.828
254.68	22.308
255.05	28.413
255.42	21.545
255.79	22.794
256.16	21.300
256.54	16.961
256.91	23.843
257.28	18.345
257.65	19.802
258.02	19.255
258.39	17.981
258.76	17.726
259.14	21.131
259.51	17.933
259.88	13.354
260.25	18.127
260.62	16.763
260.99	15.217
261.36	18.919
261.73	14.040
262.10	16.279
262.47	16.901
262.85	15.599
263.22	14.245
263.59	18.519
263.96	15.934
264.33	16.188
264.70	16.316
265.07	16.880
265.44	15.404
265.81	13.382
266.18	16.332
266.55	14.146
266.92	15.479
267.29	12.963
267.66	14.908
268.03	16.136
268.40	14.019
268.77	11.695
269.14	14.640
269.51	14.447
269.88	14.452
270.25	13.995
270.62	13.034
270.99	14.839
271.36	15.236
271.73	11.682
272.10	12.391
272.47	14.409
272.84	14.286
273.21	12.788
273.58	12.664
273.95	10.901
274.32	11.570
274.69	13.062
275.06	12.008
275.43	9.574
275.80	10.822
276.17	10.591
276.54	13.306
276.91	13.241
277.28	9.961
277.65	13.346
278.02	12.629
278.39	13.672
278.76	12.909
279.13	14.340
279.50	13.222
279.87	12.749
280.23	11.178
280.60	10.445
280.97	8.318
281.34	12.566
281.71	12.182
282.08	12.668
282.45	12.364
282.82	9.414
283.19	9.269
283.56	10.175
283.92	11.337
284.29	10.229
284.66	10.526
285.03	10.127
285.40	8.979
285.77	10.438
286.14	11.054
286.51	10.500
286.87	9.231
287.24	11.401
287.61	10.594
287.98	10.065
288.35	9.984
288.72	11.059
289.08	11.581
289.45	9.061
289.82	9.756
290.19	8.320
290.56	8.729
290.93	8.006
291.29	9.049
291.66	11.652
292.03	11.628
292.40	10.866
292.77	9.911
293.13	11.343
293.50	10.496
293.87	8.296
294.24	8.296
294.60	9.170
294.97	9.448
295.34	10.014
295.71	9.375
296.08	9.972
296.44	9.904
296.81	8.587
297.18	10.434
297.55	6.728
297.91	8.443
298.28	9.772
298.65	8.616
299.02	8.696
299.38	8.765
299.75	5.930
300.12	8.557
300.48	9.750
300.85	8.878
301.22	7.898
301.59	8.081
301.95	8.942
302.32	8.472
302.69	8.722
303.05	7.758
303.42	9.383
303.79	9.060
304.15	7.692
304.52	8.343
304.89	8.130
305.25	8.237
305.62	10.079
305.99	8.383
306.35	8.837
306.72	8.632
307.09	9.434
307.45	8.671
307.82	6.027
308.19	11.369
308.55	9.817
308.92	8.700
309.29	8.870
309.65	8.802
310.02	8.774
310.38	9.140
310.75	8.448
311.12	9.007
311.48	8.673
311.85	9.539
312.22	7.804
312.58	8.420
312.95	8.870
313.31	8.641
313.68	9.979
314.05	10.651
314.41	10.352
314.78	8.963
315.14	9.037
315.51	10.299
315.87	10.396
316.24	9.732
316.61	9.844
316.97	9.785
317.34	9.100
317.70	10.134
318.07	10.298
318.43	9.687
318.80	10.403
319.16	10.358
319.53	9.193
319.89	10.381
320.26	10.400
320.62	9.325
320.99	10.707
321.35	11.616
321.72	10.164
322.08	11.550
322.45	12.040
322.81	11.240
323.18	10.983
323.54	10.668
323.91	10.849
324.27	11.377
324.64	11.556
325.00	10.821
325.37	12.193
325.73	12.118
326.10	12.268
326.46	11.559
326.83	13.374
327.19	12.126
327.56	11.498
327.92	11.899
328.29	14.463
328.65	12.523
329.01	11.913
329.38	12.766
329.74	12.558
330.11	12.441
330.47	14.050
330.84	12.776
331.20	13.297
331.56	12.936
331.93	11.759
332.29	13.753
332.66	13.097
333.02	13.620
333.38	13.640
333.75	13.369
334.11	12.722
334.48	12.866
334.84	13.419
335.20	13.091
335.57	13.599
335.93	13.214
336.29	12.271
336.66	13.345
337.02	11.946
337.38	12.870
337.75	12.210
338.11	12.981
338.47	12.339
338.84	13.107
339.20	11.468
339.56	14.234
339.93	13.091
340.29	14.312
340.65	12.478
341.02	13.438
341.38	12.989
341.74	12.632
342.11	13.100
342.47	13.480
342.83	14.041
343.20	13.680
343.56	12.553
343.92	12.807
344.28	13.010
344.65	12.898
345.01	12.037
345.37	12.178
345.73	12.267
346.10	12.191
346.46	12.966
346.82	12.026
347.19	12.197
347.55	12.151
347.91	12.621
348.27	13.722
348.63	13.127
349.00	13.107
349.36	12.644
349.72	12.109
350.08	11.588
350.45	12.531
350.81	12.510
351.17	12.723
351.53	11.794
351.89	11.551
352.26	12.470
352.62	12.831
352.98	13.290
353.34	12.736
353.70	10.966
354.07	12.097
354.43	11.984
354.79	11.826
355.15	12.610
355.51	12.630
355.87	13.469
356.24	12.704
356.60	12.350
356.96	12.550
357.32	12.919
357.68	12.756
358.04	12.589
358.40	13.777
358.77	13.067
359.13	12.155
359.49	12.471
359.85	11.429
360.21	12.360
360.57	13.774
360.93	12.615
361.29	13.076
361.66	13.313
362.02	13.209
362.38	12.928
362.74	13.467
363.10	12.287
363.46	13.059
363.82	12.094
364.18	13.730
364.54	13.447
364.90	13.456
365.26	12.426
365.62	13.294
365.98	12.053
366.35	11.748
366.71	12.148
367.07	12.017
367.43	12.917
367.79	13.062
368.15	14.296
368.51	13.009
368.87	13.419
369.23	13.680
369.59	13.469
369.95	13.676
370.31	13.889
370.67	12.971
371.03	13.783
371.39	13.411
371.75	13.382
372.11	13.585
372.47	13.856
372.83	13.256
373.19	12.934
373.55	13.082
373.91	14.359
374.27	13.814
374.63	13.527
374.99	14.054
375.35	13.468
375.71	13.023
376.07	14.883
376.42	13.480
376.78	14.115
377.14	13.840
377.50	14.503
377.86	12.500
378.22	14.475
378.58	13.534
378.94	13.891
379.30	13.359
379.66	14.150
380.02	14.005
380.38	13.600
380.74	13.926
381.09	13.875
381.45	14.567
381.81	14.681
382.17	14.140
382.53	14.088
382.89	14.815
383.25	14.196
383.61	14.994
383.97	14.321
384.32	13.974
384.68	14.064
385.04	14.505
385.40	13.870
385.76	14.066
386.12	14.054
386.48	15.293
386.83	14.240
387.19	14.780
387.55	14.719
387.91	13.785
388.27	14.899
388.62	14.813
388.98	14.558
389.34	14.268
389.70	15.389
390.06	14.956
390.42	15.240
390.77	15.585
391.13	14.869
391.49	15.292
391.85	15.086
392.20	14.196
392.56	14.899
392.92	15.303
393.28	14.911
393.64	14.209
393.99	15.638
394.35	14.640
394.71	15.433
395.07	14.455
395.42	14.091
395.78	14.885
396.14	14.960
396.50	15.351
396.85	15.448
397.21	15.105
397.57	14.693
397.92	14.724
398.28	14.686
398.64	14.576
399.00	14.214
399.35	13.875
399.71	14.757
400.07	15.316
400.42	14.724
400.78	14.536
401.14	13.902
401.49	14.746
401.85	14.338
402.21	14.431
402.57	14.250
402.92	15.069
403.28	15.490
403.63	15.037
403.99	14.013
404.35	14.667
404.70	14.269
405.06	13.803
405.42	14.660
405.77	14.400
406.13	13.713
406.49	14.015
406.84	14.530
407.20	13.239
407.55	15.124
407.91	15.000
408.27	14.614
408.62	13.907
408.98	14.461
409.34	14.084
409.69	14.387
410.05	14.312
410.40	14.006
410.76	13.799
411.11	14.717
411.47	14.377
411.83	14.539
412.18	13.729
412.54	14.695
412.89	14.337
413.25	14.758
413.60	14.639
413.96	14.086
414.31	14.520
414.67	15.082
415.03	14.834
415.38	14.691
415.74	14.341
416.09	15.088
416.45	14.793
416.80	14.475
417.16	15.214
417.51	15.262
417.87	15.029
418.22	14.700
418.58	14.977
418.93	14.742
419.29	14.704
419.64	15.365
420.00	14.451
420.35	14.899
420.71	15.421
421.06	13.663
421.42	13.860
421.77	14.238
422.12	13.588
422.48	13.546
422.83	14.094
423.19	14.033
423.54	14.626
423.90	14.899
424.25	15.299
424.61	14.583
424.96	14.052
425.31	14.175
425.67	13.876
426.02	14.400
426.38	14.652
426.73	14.160
427.09	14.772
427.44	14.146
427.79	14.319
428.15	14.405
428.50	14.336
428.85	14.779
429.21	13.418
429.56	13.841
429.92	14.041
430.27	13.952
430.62	13.364
430.98	13.804
431.33	14.639
431.68	13.979
432.04	13.685
432.39	13.421
432.74	14.841
433.10	14.714
433.45	14.461
433.80	13.914
434.16	13.675
434.51	14.158
434.86	14.538
435.22	14.008
435.57	13.982
435.92	15.038
436.28	14.413
436.63	14.680
436.98	13.910
437.34	14.490
437.69	14.294
438.04	14.165
438.39	14.209
438.75	13.771
439.10	14.246
439.45	14.286
439.81	14.139
440.16	14.342
440.51	14.118
440.86	14.418
441.22	13.404
441.57	14.650
441.92	14.381
442.27	13.778
442.63	13.902
442.98	15.099
443.33	14.620
443.68	14.094
444.03	13.763
444.39	13.535
444.74	13.582
445.09	14.663
445.44	14.489
445.79	14.052
446.15	14.664
446.50	14.324
446.85	14.337
447.20	14.329
447.55	14.238
447.91	13.734
448.26	14.023
448.61	14.132
448.96	14.895
449.31	13.723
449.66	14.406
450.02	14.206
450.37	13.889
450.72	14.100
451.07	13.894
451.42	14.103
451.77	14.680
452.12	14.319
452.47	14.677
452.83	13.869
453.18	14.120
453.53	13.482
453.88	13.881
454.23	14.824
454.58	14.718
454.93	15.003
455.28	15.087
455.63	14.260
455.98	15.000
456.34	15.075
456.69	14.903
457.04	13.808
457.39	14.494
457.74	13.813
458.09	14.434
458.44	13.569
458.79	13.124
459.14	14.108
459.49	14.594
459.84	13.906
460.19	13.848
460.54	14.583
460.89	13.878
461.24	15.058
461.59	14.585
461.94	14.365
462.29	14.599
462.64	13.465
462.99	13.598
463.34	15.533
463.69	14.759
464.04	15.362
464.39	14.841
464.74	14.082
465.09	14.596
465.44	14.404
465.79	13.367
466.14	14.122
466.49	14.071
466.84	14.419
467.19	14.484
467.54	15.500
467.89	14.286
468.24	14.369
468.59	15.690
468.94	13.867
469.29	14.139
469.64	14.793
469.99	15.223
470.34	15.324
470.68	14.583
471.03	14.354
471.38	14.663
471.73	14.590
472.08	15.658
472.43	13.882
472.78	15.273
473.13	14.313
473.48	14.919
473.83	13.476
474.17	13.690
474.52	15.136
474.87	14.769
475.22	14.800
475.57	14.186
475.92	12.958
476.27	14.149
476.61	13.679
476.96	13.359
477.31	14.129
477.66	14.059
478.01	13.643
478.36	14.278
478.70	13.396
479.05	13.632
479.40	13.767
479.75	13.981
480.10	14.066
480.45	13.375
480.79	13.856
481.14	13.307
481.49	14.143
481.84	12.986
482.19	14.403
482.53	14.083
482.88	13.867
483.23	13.598
483.58	14.058
483.92	13.777
484.27	13.464
484.62	13.707
484.97	13.599
485.31	13.151
485.66	11.898
486.01	11.220
486.36	10.893
486.70	10.944
487.05	11.773
487.40	12.053
487.75	12.349
488.09	12.891
488.44	12.942
488.79	13.562
489.13	13.789
489.48	13.662
489.83	13.423
490.17	13.327
490.52	13.242
490.87	13.749
491.22	14.006
491.56	12.756
491.91	13.774
492.26	13.229
492.60	13.779
492.95	13.096
493.30	13.318
493.64	13.999
493.99	13.510
494.34	13.367
494.68	13.645
495.03	13.534
495.37	13.681
495.72	12.914
496.07	13.828
496.41	13.319
496.76	13.017
497.11	13.913
497.45	13.088
497.80	13.868
498.14	13.092
498.49	13.268
498.84	13.087
499.18	13.190
499.53	13.580
499.87	13.747
500.22	13.754
500.56	14.417
500.91	13.365
501.26	14.083
501.60	14.428
501.95	13.245
502.29	13.308
502.64	13.594
502.98	13.230
503.33	13.391
503.67	14.153
504.02	13.330
504.36	13.524
504.71	13.630
505.06	14.361
505.40	14.001
505.75	13.018
506.09	13.946
506.44	14.011
506.78	13.931
507.13	13.680
507.47	14.242
507.82	14.691
508.16	14.843
508.51	14.460
508.85	13.704
509.19	14.082
509.54	13.878
509.88	14.374
510.23	13.419
510.57	15.480
510.92	14.293
511.26	14.645
511.61	14.004
511.95	14.301
512.30	13.627
512.64	14.508
512.98	14.791
513.33	14.507
513.67	14.674
514.02	14.448
514.36	14.091
514.70	15.274
515.05	14.947
515.39	15.087
515.74	14.471
516.08	15.260
516.42	15.705
516.77	15.106
517.11	14.595
517.46	15.801
517.80	15.041
518.14	14.418
518.49	15.344
518.83	14.830
519.17	15.242
519.52	15.167
519.86	15.117
520.20	15.318
520.55	15.440
520.89	15.815
521.23	16.104
521.58	15.306
521.92	16.289
522.26	14.887
522.61	16.698
522.95	15.285
523.29	15.338
523.64	16.585
523.98	15.773
524.32	15.501
524.66	15.875
525.01	15.809
525.35	15.923
525.69	15.579
526.04	16.822
526.38	16.534
526.72	15.828
527.06	16.196
527.41	14.975
527.75	16.977
528.09	16.249
528.43	16.316
528.78	16.103
529.12	15.152
529.46	16.473
529.80	16.275
530.15	16.760
530.49	15.569
530.83	16.709
531.17	16.841
531.51	18.482
531.86	16.387
532.20	16.297
532.54	16.400
532.88	17.009
533.22	16.740
533.57	16.543
533.91	16.496
534.25	16.100
534.59	16.046
534.93	16.121
535.27	16.174
535.62	16.545
535.96	16.510
536.30	16.338
536.64	16.484
536.98	16.523
537.32	16.261
537.66	16.533
538.01	16.722
538.35	16.871
538.69	17.741
539.03	16.309
539.37	15.463
539.71	15.165
540.05	15.752
540.39	16.478
540.73	16.365
541.07	17.326
541.42	16.504
541.76	16.903
542.10	16.947
542.44	17.152
542.78	17.128
543.12	16.251
543.46	16.984
543.80	16.461
544.14	15.854
544.48	17.016
544.82	16.421
545.16	17.111
545.50	16.260
545.84	16.331
546.18	16.835
546.52	16.793
546.86	16.770
547.20	17.532
547.54	17.101
547.88	17.666
548.22	15.442
548.56	16.226
548.90	15.493
549.24	16.094
549.58	17.053
549.92	16.415
550.26	17.045
550.60	16.459
550.94	17.042
551.28	15.874
551.62	17.110
551.96	17.684
552.30	16.792
552.64	16.633
552.98	15.458
553.32	16.521
553.66	17.246
554.00	17.502
554.34	16.425
554.68	17.167
555.02	16.432
555.36	16.562
555.69	16.035
556.03	17.026
556.37	16.371
556.71	15.280
557.05	16.527
557.39	16.445
557.73	16.725
558.07	17.476
558.41	16.643
558.75	17.193
559.08	18.568
559.42	15.571
559.76	17.353
560.10	16.631
560.44	16.003
560.78	16.234
561.12	16.029
561.45	16.623
561.79	16.084
562.13	15.895
562.47	16.735
562.81	16.318
563.15	15.652
563.48	16.379
563.82	15.329
564.16	15.827
564.50	15.951
564.84	15.613
565.17	15.894
565.51	16.358
565.85	15.863
566.19	15.466
566.52	16.466
566.86	15.672
567.20	16.038
567.54	14.954
567.88	14.286
568.21	15.873
568.55	14.510
568.89	14.786
569.23	14.305
569.56	14.251
569.90	14.189
570.24	14.209
570.57	13.363
570.91	12.896
571.25	13.125
571.59	13.373
571.92	13.191
572.26	13.316
572.60	13.514
572.93	13.823
573.27	13.132
573.61	13.512
573.95	13.230
574.28	12.864
574.62	12.561
574.96	12.545
575.29	12.342
575.63	12.830
575.97	12.913
576.30	13.197
576.64	12.712
576.98	12.737
577.31	12.754
577.65	12.530
577.98	12.425
578.32	12.153
578.66	12.746
578.99	12.509
579.33	13.120
579.67	12.284
580.00	12.539
580.34	12.648
580.67	12.716
581.01	12.795
581.35	12.559
581.68	12.498
582.02	11.807
582.35	11.917
582.69	12.204
583.02	12.157
583.36	12.520
583.70	13.437
584.03	12.879
584.37	13.333
584.70	13.454
585.04	12.940
585.37	12.908
585.71	12.758
586.04	12.660
586.38	12.565
586.72	13.339
587.05	12.687
587.39	12.375
587.72	12.523
588.06	12.780
588.39	12.647
588.73	12.878
589.06	13.961
589.40	13.300
589.73	13.024
590.07	13.737
590.40	13.299
590.73	13.934
591.07	14.042
591.40	13.792
591.74	13.983
592.07	14.311
592.41	13.518
592.74	13.221
593.08	13.025
593.41	12.496
593.75	12.211
594.08	12.772
594.41	13.574
594.75	12.828
595.08	13.278
595.42	13.485
595.75	13.390
596.09	13.256
596.42	13.988
596.75	14.099
597.09	14.286
597.42	13.702
597.75	13.497
598.09	14.478
598.42	14.089
598.76	13.336
599.09	12.885
599.42	12.991
599.76	13.287
600.09	12.204
600.42	13.440
600.76	12.964
601.09	13.224
601.42	12.900
601.76	13.093
602.09	13.597
602.42	13.336
602.76	13.543
603.09	13.729
603.42	13.354
603.76	13.034
604.09	12.873
604.42	13.249
604.76	14.129
605.09	13.237
605.42	13.510
605.75	13.286
606.09	12.973
606.42	13.241
606.75	13.770
607.09	13.897
607.42	12.409
607.75	13.755
608.08	13.374
608.42	13.985
608.75	13.706
609.08	13.737
609.41	13.470
609.75	13.626
610.08	14.043
610.41	13.222
610.74	13.860
611.07	13.735
611.41	13.248
611.74	14.027
612.07	14.027
612.40	13.956
612.73	13.895
613.07	14.440
613.40	14.271
613.73	13.267
614.06	13.925
614.39	14.106
614.72	13.947
615.06	14.233
615.39	13.482
615.72	13.906
616.05	13.929
616.38	14.119
616.71	14.311
617.05	14.370
617.38	13.530
617.71	14.174
618.04	14.243
618.37	14.252
618.70	14.375
619.03	14.211
619.36	14.732
619.69	14.366
620.03	15.385
620.36	14.372
620.69	15.411
621.02	15.708
621.35	15.740
621.68	15.654
622.01	14.938
622.34	16.793
622.67	17.034
623.00	14.600
623.33	14.296
623.66	15.297
623.99	15.538
624.32	15.193
624.65	14.901
624.99	14.023
625.32	14.917
625.65	16.078
625.98	15.450
626.31	15.474
626.64	16.000
626.97	15.628
627.30	15.129
627.63	16.243
627.96	16.484
628.29	16.273
628.62	16.468
628.95	17.264
629.28	15.876
629.61	16.590
629.94	15.810
630.26	16.492
630.59	16.492
630.92	15.038
631.25	16.190
631.58	16.216
631.91	16.024
632.24	15.928
632.57	16.894
632.90	17.654
633.23	16.107
633.56	19.096
633.89	16.761
634.22	17.026
634.55	17.870
634.88	17.246
635.20	18.280
635.53	17.831
635.86	16.955
636.19	17.176
636.52	17.070
636.85	17.869
637.18	17.051
637.51	18.203
637.83	17.016
638.16	16.496
638.49	17.128
638.82	18.078
639.15	18.125
639.48	18.080
639.81	18.767
640.13	16.797
640.46	18.926
640.79	18.626
641.12	18.569
641.45	17.179
641.77	19.146
642.10	17.690
642.43	16.667
642.76	18.576
643.09	18.558
643.41	19.423
643.74	21.451
644.07	19.817
644.40	20.245
644.73	20.315
645.05	21.236
645.38	19.747
645.71	20.290
646.04	18.272
646.36	20.367
646.69	21.405
647.02	21.088
647.35	21.306
647.67	20.885
648.00	21.138
648.33	18.812
648.66	17.576
648.98	17.991
649.31	18.984
649.64	18.984
649.96	18.182
650.29	19.115
650.62	18.608
650.94	20.421
651.27	20.777
651.60	19.800
651.92	19.808
652.25	18.078
652.58	19.470
652.90	19.273
653.23	18.952
653.56	19.213
653.88	20.285
654.21	20.063
654.54	19.637
654.86	18.692
655.19	15.946
655.52	11.297
655.84	8.459
656.17	10.138
656.49	13.670
656.82	14.624
657.15	11.389
657.47	8.936
657.80	7.007
658.13	7.480
658.45	11.854
658.78	12.124
659.10	13.293
659.43	14.329
659.75	15.453
660.08	16.646
660.41	19.274
660.73	20.203
661.06	19.745
661.38	22.182
661.71	22.500
662.03	22.485
662.36	20.278
662.68	21.687
663.01	20.404
663.33	20.594
663.66	23.529
663.98	21.382
664.31	20.798
664.63	21.053
664.96	19.920
665.28	21.107
665.61	20.273
665.93	20.322
666.26	20.284
666.58	19.247
666.91	22.410
667.23	20.449
667.56	19.222
667.88	22.222
668.21	23.028
668.53	21.909
668.86	25.541
669.18	24.520
669.50	21.304
669.83	24.837
670.15	21.333
670.48	20.261
670.80	22.198
671.13	26.115
671.45	19.362
671.77	23.218
672.10	18.115
672.42	18.375
672.75	20.066
673.07	18.134
673.39	17.360
673.72	21.875
674.04	21.961
674.37	18.058
674.69	19.836
675.01	20.502
675.34	22.382
675.66	24.000
675.98	21.385
676.31	21.008
676.63	22.505
676.95	21.803
677.28	20.327
677.60	20.440
677.92	22.363
678.25	21.355
678.57	21.116
678.89	20.441
679.22	20.432
679.54	19.656
679.86	20.183
680.18	19.320
680.51	19.149
680.83	20.107
681.15	20.377
681.48	20.794
681.80	21.470
682.12	19.923
682.44	17.988
682.77	22.607
683.09	24.249
683.41	22.395
683.73	20.309
684.06	23.554
684.38	20.548
684.70	19.767
685.02	21.388
685.34	19.963
685.67	18.706
685.99	17.354
686.31	18.601
686.63	17.845
686.96	19.464
687.28	19.495
687.60	17.754
687.92	18.830
688.24	19.392
688.56	21.285
688.89	21.577
689.21	24.236
689.53	21.712
689.85	23.947
690.17	20.497
690.49	21.656
690.82	22.664
691.14	20.982
691.46	20.042
691.78	21.888
692.10	22.107
692.42	20.958
692.74	18.050
693.06	21.489
693.39	21.561
693.71	20.087
694.03	21.053
694.35	18.182
694.67	20.137
694.99	23.171
695.31	20.098
695.63	22.249
695.95	23.227
696.27	21.827
696.59	22.539
696.91	23.316
697.23	21.596
697.56	21.748
697.88	18.405
698.20	19.792
698.52	19.140
698.84	24.276
699.16	17.281
699.48	22.328
699.80	22.464
700.12	27.532
700.44	26.525
700.76	26.796
701.08	23.851
701.40	23.743
701.72	27.114
702.04	26.420
702.36	22.946
702.68	23.796
703.00	20.499
703.32	20.745
703.64	21.984
703.96	25.070
704.28	21.802
704.60	27.566
704.91	27.300
705.23	27.859
705.55	24.917
705.87	28.239
706.19	27.562
706.51	29.283
706.83	23.636
707.15	22.689
707.47	23.485
707.79	22.604
708.11	20.320
708.43	21.905
708.74	20.663
709.06	20.779
709.38	22.310
709.70	25.581
710.02	24.629
710.34	27.576
710.66	29.254
710.98	24.432
711.29	28.198
711.61	28.909
711.93	24.359
712.25	26.367
712.57	26.838
712.89	27.682
713.20	25.532
713.52	27.303
713.84	23.418
714.16	26.524
714.48	25.287
714.80	27.356
715.11	23.919
715.43	23.442
715.75	24.348
716.07	24.281
716.39	23.197
716.70	26.578
717.02	26.619
717.34	25.795
717.66	28.358
717.97	29.084
718.29	31.111
718.61	27.737
718.93	27.574
719.24	28.028
719.56	25.085
719.88	29.492
720.20	30.405
720.51	29.268
720.83	30.855
721.15	22.388
721.46	25.532
721.78	31.900
722.10	29.434
722.42	29.323
722.73	28.090
723.05	29.508
723.37	26.316
723.68	27.027
724.00	29.675
724.32	29.839
724.63	25.610
724.95	31.381
725.27	32.389
725.58	27.734
725.90	26.277
726.22	26.038
726.53	22.917
726.85	30.717
727.16	24.911
727.48	30.496
727.80	24.621
728.11	28.261
728.43	30.385
728.74	26.165
729.06	32.847
729.38	29.412
729.69	27.046
730.01	24.232
730.32	23.611
730.64	28.094
730.96	19.142
731.27	26.821
731.59	27.217
731.90	24.198
732.22	25.155
732.53	21.362
732.85	27.564
733.16	21.865
733.48	23.256
733.80	24.351
734.11	25.159
734.43	25.444
734.74	20.000
735.06	22.636
735.37	25.434
735.69	25.478
736.00	24.510
736.32	24.611
736.63	23.003
736.95	26.837
737.26	20.748
737.58	18.710
737.89	25.753
738.21	29.352
738.52	25.000
738.83	23.396
739.15	25.000
739.46	30.292
739.78	22.917
740.09	26.769
740.41	30.000
740.72	22.648
741.04	28.519
741.35	24.583
741.66	32.000
741.98	28.774
742.29	33.971
742.61	38.793
742.92	26.697
743.23	27.778
743.55	29.600
743.86	35.526
744.18	34.956
744.49	35.407
744.80	35.681
745.12	37.727
745.43	29.515
745.74	33.333
746.06	33.028
746.37	30.493
746.68	34.842
747.00	31.944
747.31	30.952
747.62	28.761
747.94	30.837
748.25	25.532
748.56	34.361
748.88	30.693
749.19	40.000
749.50	31.163
749.82	30.081
750.13	23.265
750.44	26.277
750.75	25.263
751.07	29.582
751.38	24.042
751.69	28.520
752.01	26.316
752.32	27.437
752.63	31.560
752.94	28.279
753.26	35.600
753.57	27.642
753.88	31.641
754.19	31.071
754.51	29.514
754.82	24.549
755.13	27.925
755.44	22.556
755.75	25.912
756.07	24.113
756.38	24.453
756.69	24.161
757.00	23.054
757.31	25.519
757.63	23.392
757.94	23.056
758.25	20.343
758.56	17.037
758.87	20.161
759.18	24.545
759.50	23.824
759.81	24.611
760.12	18.125
760.43	22.636
760.74	24.728
761.05	24.576
761.36	24.866
761.67	22.159
761.99	22.360
762.30	23.611
762.61	28.626
762.92	31.250
763.23	29.412
763.54	31.200
763.85	27.734
764.16	31.538
764.47	29.658
764.78	22.261
765.10	20.886
765.41	24.189
765.72	22.455
766.03	24.765
766.34	25.000
766.65	31.915
766.96	32.479
767.27	33.503
767.58	36.458
767.89	38.947
768.20	37.356
768.51	33.503
768.82	29.817
769.13	26.423
769.44	26.721
769.75	24.893
770.06	27.064
770.37	34.842
770.68	32.870
770.99	26.222
771.30	29.098
771.61	29.148
771.92	34.426
772.23	36.134
772.54	33.333
772.85	37.173
773.16	38.298
773.47	40.217
773.78	40.609
774.09	38.690
774.39	39.766
774.70	38.889
775.01	48.551
775.32	49.020
775.63	43.421
775.94	39.568
776.25	50.394
776.56	50.746
776.87	46.721
777.18	45.313
777.48	40.458
777.79	45.455
778.10	54.815
778.41	53.571
778.72	47.445
779.03	30.201
779.34	42.953
779.65	33.784
779.95	38.650
780.26	44.444
780.57	45.517
780.88	54.688
781.19	51.128
781.50	48.649
781.80	42.767
782.11	34.463
782.42	35.443
782.73	34.969
783.04	46.622
783.34	42.958
783.65	47.260
783.96	47.761
784.27	39.161
784.57	38.849
784.88	46.296
785.19	47.619
785.50	59.434
785.81	48.507
786.11	51.639
786.42	51.163
786.73	53.097
787.04	54.717
787.34	48.214
787.65	49.000
787.96	58.559
788.26	52.893
788.57	58.475
788.88	43.802
789.19	50.694
789.49	56.818
789.80	42.748
790.11	63.810
790.41	70.297
790.72	63.855
791.03	70.652
791.33	70.930
791.64	59.794
791.95	63.366
792.25	62.222
792.56	67.532
792.87	91.026
793.17	91.139
793.48	59.770
793.79	74.713
794.09	61.364
794.40	47.059
794.70	53.676
795.01	37.778
795.32	44.604
795.62	41.732
795.93	62.069
796.23	60.177
796.54	61.176
796.85	67.568
797.15	85.915
797.46	75.758
797.76	78.313
798.07	72.152
798.37	60.000
798.68	78.788
798.99	64.789
799.29	76.623
799.60	61.364
799.90	83.562
800.21	94.030
800.51	81.034
800.82	89.474
801.12	101.639
801.43	95.455
801.73	83.784
802.04	87.302
802.34	75.309
802.65	79.687
802.95	98.305
803.26	87.500
803.56	67.143
803.87	69.231
804.17	76.471
804.48	107.407
804.78	86.207
805.09	72.059
805.39	90.385
805.70	80.357
806.00	103.279
806.30	74.242
806.61	82.927
806.91	59.494
807.22	76.316
807.52	76.119
807.83	80.282
808.13	82.813
808.43	98.333
808.74	73.684
809.04	82.609
809.35	92.537
809.65	71.053
809.95	104.839
810.26	88.136
810.56	88.889
810.86	125.000
811.17	147.619
811.47	120.000
811.77	116.667
812.08	96.364
812.38	98.000
812.69	125.000
812.99	115.909
813.29	124.490
813.59	109.524
813.90	130.612
814.20	81.818
814.50	87.692
814.81	86.765
815.11	108.163
815.41	100.000
815.72	123.810
816.02	116.364
816.32	123.810
816.62	110.000
816.93	129.268
817.23	133.333
817.53	111.364
817.84	169.697
818.14	121.739
818.44	124.444
818.74	173.529
819.04	137.500
819.35	145.714
819.65	185.294
819.95	182.143
820.25	190.000
820.56	146.154
820.86	163.636
821.16	109.302
821.46	128.205
821.76	134.000
822.07	148.571
822.37	117.500
822.67	169.697
822.97	100.000
823.27	189.286
823.57	143.243
823.88	142.500
824.18	180.000
824.48	154.762
824.78	212.000
825.08	166.667
825.38	121.622
825.69	131.707
825.99	245.833
826.29	186.207
826.59	142.105
826.89	163.158
827.19	173.529
827.49	177.419
827.79	143.182
828.09	115.909
828.39	112.766
828.70	130.612
829.00	159.259
829.30	170.968
829.60	140.000
829.90	233.333
830.20	214.286
830.50	221.739
830.80	243.478
831.10	160.000
831.40	163.333
831.70	165.217
832.00	230.769
832.30	207.407
832.60	256.250
832.90	200.000
833.20	442.857
833.50	167.742
833.80	179.310
834.10	190.625
834.40	211.538
834.70	255.556
835.00	271.429
835.30	162.857
835.60	361.538
835.90	206.897
836.20	264.286
836.50	182.759
836.80	164.000
837.10	175.000
837.40	280.952
837.70	288.235
838.00	203.704
838.30	214.286
838.60	238.095
838.90	253.846
839.19	280.000
839.49	407.143
839.79	335.000
840.09	280.000
840.39	266.667
840.69	221.739
840.99	311.111
841.29	450.000
841.59	366.667
841.88	293.750
842.18	172.414
842.48	276.190
842.78	196.667
843.08	178.261
843.38	162.500
843.68	900.000
843.97	200.000
844.27	196.552
844.57	285.714
844.87	343.750
845.17	233.333
845.47	1633.333
845.76	444.444
846.06	282.353
846.36	437.500
846.66	357.143
846.96	337.500
847.25	381.818
847.55	363.636
847.85	273.913
848.15	470.000
848.44	350.000
848.74	255.556
849.04	300.000
849.34	520.000
849.63	231.579
849.93	436.364
850.23	1280.000
850.53	500.000
850.82	2250.000
851.12	-4700.000
851.42	4900.000
851.71	255.000
852.01	-1366.667
852.31	254.167
852.61	1700.000
852.90	280.952
853.20	220.000
853.50	352.941
853.79	257.143
854.09	183.333
854.39	337.500
854.68	175.676
854.98	170.968
855.28	173.333
855.57	220.690
855.87	251.852
856.17	236.842
856.46	220.000
856.76	276.471
857.05	168.966
857.35	195.833
857.65	266.667
857.94	243.478
858.24	238.462
858.53	285.000
858.83	231.818
859.13	340.000
859.42	0.000
859.72	433.333
860.01	400.000
860.31	300.000
860.60	268.421
860.90	256.522
861.20	577.778
861.49	500.000
861.79	-5700.000
862.08	662.500
862.38	252.381
862.67	315.385
862.97	341.176
863.26	511.111
863.56	250.000
863.85	375.000
864.15	637.500
864.44	386.667
864.74	850.000
865.03	825.000
865.33	273.684
865.62	409.091
865.92	423.077
866.21	425.000
866.51	0.000
866.80	509.091
867.10	1060.000
867.39	369.231
867.69	418.182
867.98	278.947
868.27	400.000
868.57	347.368
868.86	-5000.000
869.16	318.750
869.45	1850.000
869.75	-4900.000
870.04	441.667
870.33	528.571
870.63	900.000
870.92	2550.000
871.22	671.429
871.51	388.235
871.80	200.000
872.10	350.000
>>>>>End Processed Spectral Data<<<<<
