SpectraSuite Data File
++++++++++++++++++++++++++++++++++++
Date: Wed May 13 16:44:59 PDT 2015
User: schluterlab
Dark Spectrum Present: Yes
Reference Spectrum Present: Yes
Number of Sampled Component Spectra: 1
Spectrometers: USB2E3373
Integration Time (usec): 3000 (USB2E3373)
Spectra Averaged: 3 (USB2E3373)
Boxcar Smoothing: 0 (USB2E3373)
Correct for Electrical Dark: No (USB2E3373)
Strobe/Lamp Enabled: No (USB2E3373)
Correct for Detector Non-linearity: No (USB2E3373)
Correct for Stray Light: No (USB2E3373)
Number of Pixels in Processed Spectrum: 2048
>>>>>Begin Processed Spectral Data<<<<<
178.53	0.000
178.91	-1275.000
179.29	-1050.000
179.67	-200.000
180.04	-1250.000
180.42	2600.000
180.80	1000.000
181.18	-1050.000
181.56	742.857
181.94	0.000
182.31	-728.571
182.69	1700.000
183.07	-550.000
183.45	-500.000
183.83	554.545
184.20	-330.000
184.58	2300.000
184.96	5100.000
185.34	-780.000
185.72	-575.000
186.09	-2300.000
186.47	2300.000
186.85	2100.000
187.23	5700.000
187.61	-1400.000
187.98	1400.000
188.36	536.364
188.74	527.273
189.12	-720.000
189.49	690.000
189.87	-5000.000
190.25	-1175.000
190.63	428.571
191.00	423.077
191.38	966.667
191.76	-975.000
192.14	1325.000
192.51	537.500
192.89	1033.333
193.27	525.000
193.65	-1300.000
194.02	590.000
194.40	1040.000
194.78	520.000
195.15	475.000
195.53	610.000
195.91	-2100.000
196.29	343.750
196.66	310.526
197.04	-300.000
197.42	0.000
197.79	620.000
198.17	-4500.000
198.55	742.857
198.92	700.000
199.30	920.000
199.68	0.000
200.05	372.222
200.43	657.143
200.81	5200.000
201.18	1666.667
201.56	-1866.667
201.94	655.556
202.31	688.889
202.69	350.000
203.07	570.000
203.44	0.000
203.82	1375.000
204.19	600.000
204.57	442.857
204.95	687.500
205.32	1533.333
205.70	518.182
206.08	350.000
206.45	2750.000
206.83	293.750
207.20	900.000
207.58	900.000
207.96	322.222
208.33	737.500
208.71	-716.667
209.08	600.000
209.46	555.556
209.84	554.545
210.21	-1500.000
210.59	1700.000
210.96	-600.000
211.34	2300.000
211.71	580.000
212.09	750.000
212.46	0.000
212.84	1466.667
213.22	1450.000
213.59	-4800.000
213.97	933.333
214.34	800.000
214.72	590.909
215.09	1060.000
215.47	-2400.000
215.84	-2350.000
216.22	1800.000
216.59	364.286
216.97	1325.000
217.34	490.909
217.72	-616.667
218.09	0.000
218.47	-4400.000
218.84	600.000
219.22	700.000
219.59	1533.333
219.97	-614.286
220.34	880.000
220.72	-1700.000
221.09	471.429
221.47	1525.000
221.84	-883.333
222.22	0.000
222.59	1275.000
222.97	-2750.000
223.34	960.000
223.72	400.000
224.09	1120.000
224.46	2200.000
224.84	-5900.000
225.21	-940.000
225.59	-4600.000
225.96	530.000
226.34	290.000
226.71	2150.000
227.08	812.500
227.46	520.000
227.83	-1075.000
228.21	-1800.000
228.58	588.889
228.95	-2450.000
229.33	-2250.000
229.70	1333.333
230.08	757.143
230.45	-1020.000
230.82	466.667
231.20	833.333
231.57	600.000
231.95	425.000
232.32	259.091
232.69	372.727
233.07	771.429
233.44	369.231
233.81	-1800.000
234.19	289.474
234.56	450.000
234.93	375.000
235.31	490.909
235.68	284.615
236.05	357.143
236.43	187.879
236.80	252.632
237.17	5100.000
237.55	247.619
237.92	214.286
238.29	257.143
238.67	170.968
239.04	196.552
239.41	147.222
239.79	123.913
240.16	140.476
240.53	129.545
240.91	119.608
241.28	114.000
241.65	100.000
242.02	82.609
242.40	82.258
242.77	103.333
243.14	69.892
243.51	79.775
243.89	74.118
244.26	60.000
244.63	66.667
245.00	60.638
245.38	64.356
245.75	57.944
246.12	57.798
246.49	61.314
246.87	67.200
247.24	58.462
247.61	55.714
247.98	52.288
248.36	49.324
248.73	45.223
249.10	48.408
249.47	46.893
249.84	45.989
250.22	41.711
250.59	51.479
250.96	45.960
251.33	49.289
251.70	44.554
252.08	40.000
252.45	36.323
252.82	43.043
253.19	38.298
253.56	36.863
253.94	42.324
254.31	35.156
254.68	40.000
255.05	37.638
255.42	37.398
255.79	34.191
256.16	41.155
256.54	33.216
256.91	37.367
257.28	32.374
257.65	34.983
258.02	34.161
258.39	29.653
258.76	30.769
259.14	37.202
259.51	32.219
259.88	33.230
260.25	33.535
260.62	32.659
260.99	32.609
261.36	35.435
261.73	34.097
262.10	29.360
262.47	33.521
262.85	30.641
263.22	29.915
263.59	31.909
263.96	29.670
264.33	32.637
264.70	32.105
265.07	31.202
265.44	28.030
265.81	29.440
266.18	32.161
266.55	29.024
266.92	31.204
267.29	29.398
267.66	28.899
268.03	30.227
268.40	28.738
268.77	29.356
269.14	27.703
269.51	28.442
269.88	29.371
270.25	29.120
270.62	30.337
270.99	28.387
271.36	29.614
271.73	28.738
272.10	29.565
272.47	29.677
272.84	28.355
273.21	29.769
273.58	28.821
273.95	24.738
274.32	25.207
274.69	26.338
275.06	26.575
275.43	27.660
275.80	28.457
276.17	26.884
276.54	29.938
276.91	25.296
277.28	24.609
277.65	27.466
278.02	26.708
278.39	26.758
278.76	24.909
279.13	25.094
279.50	27.188
279.87	26.892
280.23	23.154
280.60	25.725
280.97	24.399
281.34	26.372
281.71	26.000
282.08	25.912
282.45	27.273
282.82	24.867
283.19	23.886
283.56	26.491
283.92	24.873
284.29	24.162
284.66	25.045
285.03	24.774
285.40	23.768
285.77	24.579
286.14	25.389
286.51	25.833
286.87	24.274
287.24	24.104
287.61	24.559
287.98	25.649
288.35	22.345
288.72	24.766
289.08	24.413
289.45	22.241
289.82	25.203
290.19	21.036
290.56	22.665
290.93	21.148
291.29	22.393
291.66	21.091
292.03	23.692
292.40	23.054
292.77	21.154
293.13	22.090
293.50	21.137
293.87	21.481
294.24	20.444
294.60	20.524
294.97	20.785
295.34	22.003
295.71	20.881
296.08	19.373
296.44	21.871
296.81	20.079
297.18	21.409
297.55	17.282
297.91	18.865
298.28	20.884
298.65	21.671
299.02	20.026
299.38	19.920
299.75	18.598
300.12	17.625
300.48	19.375
300.85	18.742
301.22	18.599
301.59	17.424
301.95	19.899
302.32	18.870
302.69	19.235
303.05	18.545
303.42	17.654
303.79	19.139
304.15	17.832
304.52	17.265
304.89	19.164
305.25	18.097
305.62	17.441
305.99	18.890
306.35	18.345
306.72	17.601
307.09	17.536
307.45	18.694
307.82	16.741
308.19	18.212
308.55	18.770
308.92	17.615
309.29	17.318
309.65	18.664
310.02	17.442
310.38	18.065
310.75	18.057
311.12	17.298
311.48	17.555
311.85	18.868
312.22	19.251
312.58	19.647
312.95	18.796
313.31	16.893
313.68	19.023
314.05	20.907
314.41	18.191
314.78	18.832
315.14	18.272
315.51	19.258
315.87	18.515
316.24	20.357
316.61	18.226
316.97	19.765
317.34	19.374
317.70	21.511
318.07	20.019
318.43	19.667
318.80	21.275
319.16	20.056
319.53	20.732
319.89	21.905
320.26	22.200
320.62	22.123
320.99	21.515
321.35	22.121
321.72	22.895
322.08	22.211
322.45	22.886
322.81	23.450
323.18	23.025
323.54	23.469
323.91	23.962
324.27	24.283
324.64	23.299
325.00	23.805
325.37	24.750
325.73	25.314
326.10	24.713
326.46	24.642
326.83	25.798
327.19	26.302
327.56	25.523
327.92	26.684
328.29	27.240
328.65	27.164
329.01	26.805
329.38	26.272
329.74	26.593
330.11	28.087
330.47	29.017
330.84	28.676
331.20	28.415
331.56	28.807
331.93	28.519
332.29	27.950
332.66	28.584
333.02	29.433
333.38	29.359
333.75	29.412
334.11	30.694
334.48	29.015
334.84	30.147
335.20	29.364
335.57	29.828
335.93	29.018
336.29	30.495
336.66	29.666
337.02	29.050
337.38	30.000
337.75	29.055
338.11	29.096
338.47	30.110
338.84	28.964
339.20	29.083
339.56	31.387
339.93	29.182
340.29	29.891
340.65	29.323
341.02	29.843
341.38	29.715
341.74	28.860
342.11	29.520
342.47	29.692
342.83	30.479
343.20	29.351
343.56	29.402
343.92	29.474
344.28	29.337
344.65	29.493
345.01	28.451
345.37	27.959
345.73	29.526
346.10	30.009
346.46	29.746
346.82	30.395
347.19	29.407
347.55	29.392
347.91	29.369
348.27	29.827
348.63	29.766
349.00	28.560
349.36	28.982
349.72	28.789
350.08	28.687
350.45	29.618
350.81	28.270
351.17	27.958
351.53	28.747
351.89	28.135
352.26	29.282
352.62	29.110
352.98	29.011
353.34	29.581
353.70	28.560
354.07	28.387
354.43	28.413
354.79	28.560
355.15	27.933
355.51	29.177
355.87	28.408
356.24	28.990
356.60	29.030
356.96	29.284
357.32	29.681
357.68	29.606
358.04	29.137
358.40	30.087
358.77	28.326
359.13	27.861
359.49	28.157
359.85	27.619
360.21	28.868
360.57	29.961
360.93	29.692
361.29	29.101
361.66	28.947
362.02	27.612
362.38	28.517
362.74	27.976
363.10	29.534
363.46	28.833
363.82	28.723
364.18	28.488
364.54	29.049
364.90	28.116
365.26	28.971
365.62	28.853
365.98	28.634
366.35	28.223
366.71	29.212
367.07	28.769
367.43	28.810
367.79	29.550
368.15	28.736
368.51	27.980
368.87	29.336
369.23	29.261
369.59	29.399
369.95	28.971
370.31	28.490
370.67	29.275
371.03	29.588
371.39	28.936
371.75	29.338
372.11	28.378
372.47	29.839
372.83	29.899
373.19	28.613
373.55	29.933
373.91	30.191
374.27	28.935
374.63	29.382
374.99	29.944
375.35	28.611
375.71	29.678
376.07	29.767
376.42	29.023
376.78	29.821
377.14	31.275
377.50	29.868
377.86	29.056
378.22	30.341
378.58	28.697
378.94	29.667
379.30	29.517
379.66	29.695
380.02	30.098
380.38	29.144
380.74	29.772
381.09	30.318
381.45	31.346
381.81	30.037
382.17	30.510
382.53	30.189
382.89	30.556
383.25	29.769
383.61	30.545
383.97	31.019
384.32	30.880
384.68	30.607
385.04	30.117
385.40	29.474
385.76	30.651
386.12	29.987
386.48	30.334
386.83	30.917
387.19	31.293
387.55	30.736
387.91	30.411
388.27	29.614
388.62	30.547
388.98	28.747
389.34	31.101
389.70	30.840
390.06	31.432
390.42	29.961
390.77	30.662
391.13	30.696
391.49	30.838
391.85	28.708
392.20	29.085
392.56	31.313
392.92	31.254
393.28	28.935
393.64	31.835
393.99	29.994
394.35	30.583
394.71	29.799
395.07	29.782
395.42	31.582
395.78	29.644
396.14	29.609
396.50	31.579
396.85	30.451
397.21	30.333
397.57	31.122
397.92	30.349
398.28	28.924
398.64	29.391
399.00	29.659
399.35	29.329
399.71	29.456
400.07	30.278
400.42	30.736
400.78	30.036
401.14	29.390
401.49	30.149
401.85	29.764
402.21	29.401
402.57	29.488
402.92	29.760
403.28	30.606
403.63	30.074
403.99	30.764
404.35	28.727
404.70	29.856
405.06	29.004
405.42	30.630
405.77	29.771
406.13	29.176
406.49	29.568
406.84	30.242
407.20	29.137
407.55	30.185
407.91	30.467
408.27	29.036
408.62	28.958
408.98	28.983
409.34	29.151
409.69	29.935
410.05	29.430
410.40	29.419
410.76	28.973
411.11	29.554
411.47	29.649
411.83	29.933
412.18	29.128
412.54	30.199
412.89	28.795
413.25	29.280
413.60	29.586
413.96	29.447
414.31	29.040
414.67	29.658
415.03	29.272
415.38	29.961
415.74	29.132
416.09	31.025
416.45	28.983
416.80	29.280
417.16	29.625
417.51	29.131
417.87	28.966
418.22	29.653
418.58	29.890
418.93	29.115
419.29	29.344
419.64	29.723
420.00	29.451
420.35	29.333
420.71	29.408
421.06	28.580
421.42	28.421
421.77	29.933
422.12	28.748
422.48	28.063
422.83	29.470
423.19	29.061
423.54	29.193
423.90	29.333
424.25	28.085
424.61	28.571
424.96	29.388
425.31	28.848
425.67	28.596
426.02	29.029
426.38	29.976
426.73	29.549
427.09	29.787
427.44	28.752
427.79	28.522
428.15	28.393
428.50	29.842
428.85	29.201
429.21	29.376
429.56	29.653
429.92	28.988
430.27	29.096
430.62	29.186
430.98	29.372
431.33	28.711
431.68	29.634
432.04	29.446
432.39	29.926
432.74	30.042
433.10	29.485
433.45	30.146
433.80	29.268
434.16	29.380
434.51	29.421
434.86	29.989
435.22	29.683
435.57	30.760
435.92	29.783
436.28	30.961
436.63	31.236
436.98	29.765
437.34	29.875
437.69	30.397
438.04	30.860
438.39	30.567
438.75	30.854
439.10	30.670
439.45	30.579
439.81	30.211
440.16	30.378
440.51	30.580
440.86	30.747
441.22	30.367
441.57	30.308
441.92	31.116
442.27	31.163
442.63	30.332
442.98	31.887
443.33	31.304
443.68	30.769
444.03	31.576
444.39	30.088
444.74	31.926
445.09	31.698
445.44	30.891
445.79	30.876
446.15	31.498
446.50	30.425
446.85	31.603
447.20	31.464
447.55	32.217
447.91	31.550
448.26	31.664
448.61	31.713
448.96	33.610
449.31	33.521
449.66	32.639
450.02	32.256
450.37	32.426
450.72	32.713
451.07	32.541
451.42	32.036
451.77	32.824
452.12	33.025
452.47	32.836
452.83	32.984
453.18	32.824
453.53	34.323
453.88	32.841
454.23	33.353
454.58	33.677
454.93	35.029
455.28	32.855
455.63	32.646
455.98	33.929
456.34	33.982
456.69	33.751
457.04	34.180
457.39	33.314
457.74	32.734
458.09	33.928
458.44	33.808
458.79	33.731
459.14	33.691
459.49	33.742
459.84	33.629
460.19	33.942
460.54	33.912
460.89	33.790
461.24	33.273
461.59	34.573
461.94	34.094
462.29	34.540
462.64	33.950
462.99	34.483
463.34	34.467
463.69	33.959
464.04	34.493
464.39	34.203
464.74	34.462
465.09	34.138
465.44	33.019
465.79	33.166
466.14	32.950
466.49	34.483
466.84	34.034
467.19	33.856
467.54	35.500
467.89	33.673
468.24	35.020
468.59	34.249
468.94	34.209
469.29	34.640
469.64	35.274
469.99	35.724
470.34	35.337
470.68	36.422
471.03	35.238
471.38	36.414
471.73	35.177
472.08	35.987
472.43	34.736
472.78	36.142
473.13	34.596
473.48	34.894
473.83	34.756
474.17	35.283
474.52	35.484
474.87	35.260
475.22	35.055
475.57	34.659
475.92	35.741
476.27	35.062
476.61	35.521
476.96	35.019
477.31	34.642
477.66	35.941
478.01	33.926
478.36	34.955
478.70	35.151
479.05	35.304
479.40	35.568
479.75	36.299
480.10	35.139
480.45	35.364
480.79	33.923
481.14	35.470
481.49	35.121
481.84	34.751
482.19	34.939
482.53	34.358
482.88	35.272
483.23	35.234
483.58	35.077
483.92	34.958
484.27	33.595
484.62	35.086
484.97	35.120
485.31	35.240
485.66	33.727
486.01	32.775
486.36	31.421
486.70	30.911
487.05	31.597
487.40	32.533
487.75	32.503
488.09	33.273
488.44	33.422
488.79	35.081
489.13	34.568
489.48	35.563
489.83	34.786
490.17	35.467
490.52	35.297
490.87	35.911
491.22	35.880
491.56	34.670
491.91	35.133
492.26	35.324
492.60	35.253
492.95	34.752
493.30	34.907
493.64	35.604
493.99	35.655
494.34	35.384
494.68	36.126
495.03	35.150
495.37	35.179
495.72	35.819
496.07	36.473
496.41	34.912
496.76	35.444
497.11	35.930
497.45	35.585
497.80	36.084
498.14	35.749
498.49	35.220
498.84	35.858
499.18	35.429
499.53	35.755
499.87	36.393
500.22	35.139
500.56	36.990
500.91	36.923
501.26	35.514
501.60	36.308
501.95	35.151
502.29	37.020
502.64	35.475
502.98	35.764
503.33	35.786
503.67	36.102
504.02	35.921
504.36	35.845
504.71	36.346
505.06	35.566
505.40	36.996
505.75	35.005
506.09	36.346
506.44	37.296
506.78	36.775
507.13	36.749
507.47	36.970
507.82	36.981
508.16	37.183
508.51	37.697
508.85	36.197
509.19	36.276
509.54	38.316
509.88	37.300
510.23	37.738
510.57	38.132
510.92	37.804
511.26	36.896
511.61	37.604
511.95	37.578
512.30	38.017
512.64	36.378
512.98	37.728
513.33	37.634
513.67	37.673
514.02	37.338
514.36	37.684
514.70	38.572
515.05	38.204
515.39	38.811
515.74	38.570
516.08	38.625
516.42	38.013
516.77	39.019
517.11	38.069
517.46	39.052
517.80	39.721
518.14	38.911
518.49	40.023
518.83	39.034
519.17	37.991
519.52	40.011
519.86	39.019
520.20	40.231
520.55	39.916
520.89	39.294
521.23	40.470
521.58	39.736
521.92	39.927
522.26	39.231
522.61	40.062
522.95	39.779
523.29	39.684
523.64	40.793
523.98	40.049
524.32	39.988
524.66	39.086
525.01	40.502
525.35	38.600
525.69	39.101
526.04	40.187
526.38	39.719
526.72	40.000
527.06	40.490
527.41	38.552
527.75	41.093
528.09	41.490
528.43	41.300
528.78	41.364
529.12	38.970
529.46	40.539
529.80	40.532
530.15	40.374
530.49	39.815
530.83	40.696
531.17	42.102
531.51	41.245
531.86	39.355
532.20	41.395
532.54	40.295
532.88	40.757
533.22	39.850
533.57	40.679
533.91	39.795
534.25	39.611
534.59	40.757
534.93	39.679
535.27	40.072
535.62	40.354
535.96	40.239
536.30	39.860
536.64	41.661
536.98	40.876
537.32	40.224
537.66	40.733
538.01	41.540
538.35	40.918
538.69	40.587
539.03	39.766
539.37	40.064
539.71	39.663
540.05	39.085
540.39	41.462
540.73	39.521
541.07	40.623
541.42	41.031
541.76	42.323
542.10	41.268
542.44	41.060
542.78	41.436
543.12	38.836
543.46	41.705
543.80	40.729
544.14	40.629
544.48	40.381
544.82	40.924
545.16	40.468
545.50	40.296
545.84	40.927
546.18	41.616
546.52	41.087
546.86	40.619
547.20	42.347
547.54	40.013
547.88	40.944
548.22	39.975
548.56	40.189
548.90	39.821
549.24	40.471
549.58	40.587
549.92	41.827
550.26	41.406
550.60	40.802
550.94	41.479
551.28	40.600
551.62	40.978
551.96	40.421
552.30	42.048
552.64	42.596
552.98	40.881
553.32	40.391
553.66	40.832
554.00	40.494
554.34	40.994
554.68	41.845
555.02	41.467
555.36	41.962
555.69	40.595
556.03	40.848
556.37	41.201
556.71	39.836
557.05	41.527
557.39	40.658
557.73	41.002
558.07	41.117
558.41	41.534
558.75	42.028
559.08	43.177
559.42	43.764
559.76	41.691
560.10	40.828
560.44	42.068
560.78	40.585
561.12	41.425
561.45	40.808
561.79	40.541
562.13	41.247
562.47	41.598
562.81	42.120
563.15	41.204
563.48	41.711
563.82	42.009
564.16	40.549
564.50	40.951
564.84	40.076
565.17	40.154
565.51	42.045
565.85	40.863
566.19	41.140
566.52	41.482
566.86	40.567
567.20	41.392
567.54	40.868
567.88	40.576
568.21	40.423
568.55	39.636
568.89	39.835
569.23	38.904
569.56	37.206
569.90	38.792
570.24	38.105
570.57	37.742
570.91	37.847
571.25	37.276
571.59	37.555
571.92	37.039
572.26	36.482
572.60	37.147
572.93	36.522
573.27	36.912
573.61	36.823
573.95	36.873
574.28	36.834
574.62	36.662
574.96	35.842
575.29	36.178
575.63	36.484
575.97	36.423
576.30	36.617
576.64	36.240
576.98	36.388
577.31	37.408
577.65	36.678
577.98	36.590
578.32	35.365
578.66	35.618
578.99	35.677
579.33	35.681
579.67	36.390
580.00	36.035
580.34	36.474
580.67	36.469
581.01	36.811
581.35	37.145
581.68	36.619
582.02	36.015
582.35	36.112
582.69	35.986
583.02	36.054
583.36	36.661
583.70	37.138
584.03	37.513
584.37	37.628
584.70	37.618
585.04	36.888
585.37	36.650
585.71	37.124
586.04	37.255
586.38	37.330
586.72	38.221
587.05	37.191
587.39	37.520
587.72	37.568
588.06	36.953
588.39	37.997
588.73	38.398
589.06	38.891
589.40	38.552
589.73	39.141
590.07	38.470
590.40	39.313
590.73	39.305
591.07	39.479
591.40	39.646
591.74	40.303
592.07	40.183
592.41	40.513
592.74	39.363
593.08	39.674
593.41	38.374
593.75	38.226
594.08	38.384
594.41	38.848
594.75	38.632
595.08	38.404
595.42	38.669
595.75	39.494
596.09	39.429
596.42	40.747
596.75	39.173
597.09	40.130
597.42	39.081
597.75	40.060
598.09	40.130
598.42	39.905
598.76	40.251
599.09	39.719
599.42	38.683
599.76	39.202
600.09	39.199
600.42	38.678
600.76	38.607
601.09	39.053
601.42	39.346
601.76	40.000
602.09	40.158
602.42	39.889
602.76	39.823
603.09	40.047
603.42	39.828
603.76	39.634
604.09	39.628
604.42	39.747
604.76	40.152
605.09	40.498
605.42	39.376
605.75	40.273
606.09	39.854
606.42	40.458
606.75	39.527
607.09	39.933
607.42	39.880
607.75	39.705
608.08	40.035
608.42	40.251
608.75	40.171
609.08	40.564
609.41	41.504
609.75	41.353
610.08	40.669
610.41	39.758
610.74	41.722
611.07	41.551
611.41	40.088
611.74	40.523
612.07	41.822
612.40	42.340
612.73	41.789
613.07	41.325
613.40	42.285
613.73	41.793
614.06	42.151
614.39	40.797
614.72	40.895
615.06	41.334
615.39	41.189
615.72	41.411
616.05	40.829
616.38	41.467
616.71	43.468
617.05	42.815
617.38	41.612
617.71	43.784
618.04	42.248
618.37	42.756
618.70	42.128
619.03	45.000
619.36	43.720
619.69	44.437
620.03	45.673
620.36	43.316
620.69	45.068
621.02	45.280
621.35	44.636
621.68	44.626
622.01	44.969
622.34	45.613
622.67	45.703
623.00	44.534
623.33	44.389
623.66	43.245
623.99	44.698
624.32	43.081
624.65	43.856
624.99	43.484
625.32	44.750
625.65	44.478
625.98	44.043
626.31	45.257
626.64	46.694
626.97	46.218
627.30	43.641
627.63	44.545
627.96	45.332
628.29	45.669
628.62	46.844
628.95	48.113
629.28	46.533
629.61	47.479
629.94	48.381
630.26	46.330
630.59	48.046
630.92	46.552
631.25	45.015
631.58	47.147
631.91	47.363
632.24	48.312
632.57	47.114
632.90	47.588
633.23	48.434
633.56	49.040
633.89	49.377
634.22	48.808
634.55	49.704
634.88	48.862
635.20	50.179
635.53	49.157
635.86	48.886
636.19	49.882
636.52	48.328
636.85	48.568
637.18	47.120
637.51	48.936
637.83	47.349
638.16	50.895
638.49	51.637
638.82	50.948
639.15	49.125
639.48	49.002
639.81	50.938
640.13	51.953
640.46	51.812
640.79	48.085
641.12	49.656
641.45	50.559
641.77	51.841
642.10	50.731
642.43	53.303
642.76	53.251
643.09	51.380
643.41	51.593
643.74	54.012
644.07	52.744
644.40	51.380
644.73	53.543
645.05	54.200
645.38	52.291
645.71	51.530
646.04	53.654
646.36	54.257
646.69	53.846
647.02	52.721
647.35	55.326
647.67	54.336
648.00	53.659
648.33	51.485
648.66	50.909
648.98	50.975
649.31	50.523
649.64	52.167
649.96	51.118
650.29	54.344
650.62	49.191
650.94	53.160
651.27	53.041
651.60	52.912
651.92	50.958
652.25	52.280
652.58	52.336
652.90	50.711
653.23	49.461
653.56	49.134
653.88	51.823
654.21	51.501
654.54	54.455
654.86	50.623
655.19	48.378
655.52	36.103
655.84	32.779
656.17	42.031
656.49	56.249
656.82	55.924
657.15	42.308
657.47	31.568
657.80	24.370
658.13	25.469
658.45	38.355
658.78	38.129
659.10	39.746
659.43	41.287
659.75	42.876
660.08	47.152
660.41	50.931
660.73	53.367
661.06	53.662
661.38	54.545
661.71	54.615
662.03	55.030
662.36	52.883
662.68	54.016
663.01	55.960
663.33	56.900
663.66	56.933
663.98	53.564
664.31	56.933
664.63	51.417
664.96	52.918
665.28	54.303
665.61	53.411
665.93	54.728
666.26	54.767
666.58	54.603
666.91	55.603
667.23	57.753
667.56	53.780
667.88	59.188
668.21	56.930
668.53	55.748
668.86	54.762
669.18	56.930
669.50	57.174
669.83	57.081
670.15	55.556
670.48	55.338
670.80	57.543
671.13	54.565
671.45	56.170
671.77	53.564
672.10	50.647
672.42	51.060
672.75	50.580
673.07	50.176
673.39	52.260
673.72	50.781
674.04	53.333
674.37	52.816
674.69	53.170
675.01	51.674
675.34	57.290
675.66	56.000
675.98	54.990
676.31	56.092
676.63	53.715
676.95	52.621
677.28	56.776
677.60	54.286
677.92	56.962
678.25	54.620
678.57	51.992
678.89	52.505
679.22	51.670
679.54	51.527
679.86	51.743
680.18	51.163
680.51	52.660
680.83	48.399
681.15	51.321
681.48	54.820
681.80	51.644
682.12	52.874
682.44	49.710
682.77	52.546
683.09	55.150
683.41	57.871
683.73	53.863
684.06	55.372
684.38	51.076
684.70	52.713
685.02	50.657
685.34	52.564
685.67	48.252
685.99	46.564
686.31	47.782
686.63	48.057
686.96	50.536
687.28	51.083
687.60	50.362
687.92	52.285
688.24	51.141
688.56	53.012
688.89	54.979
689.21	57.205
689.53	54.071
689.85	55.654
690.17	49.896
690.49	54.777
690.82	53.738
691.14	53.571
691.46	53.165
691.78	49.398
692.10	51.653
692.42	53.293
692.74	52.282
693.06	52.128
693.39	51.335
693.71	54.148
694.03	51.158
694.35	52.814
694.67	53.776
694.99	54.390
695.31	55.637
695.63	54.785
695.95	55.501
696.27	54.822
696.59	54.663
696.91	56.477
697.23	51.643
697.56	51.386
697.88	47.035
698.20	50.417
698.52	50.323
698.84	52.561
699.16	52.765
699.48	50.594
699.80	52.657
700.12	57.922
700.44	58.886
700.76	57.735
701.08	58.908
701.40	55.307
701.72	54.227
702.04	62.216
702.36	52.691
702.68	56.374
703.00	56.510
703.32	52.394
703.64	54.692
703.96	55.432
704.28	57.558
704.60	57.771
704.91	57.567
705.23	54.252
705.55	60.133
705.87	66.445
706.19	60.424
706.51	57.944
706.83	54.848
707.15	57.143
707.47	53.283
707.79	51.597
708.11	49.772
708.43	50.714
708.74	51.786
709.06	54.805
709.38	52.493
709.70	57.849
710.02	56.083
710.34	53.030
710.66	55.522
710.98	52.841
711.29	56.686
711.61	59.292
711.93	55.128
712.25	56.913
712.57	59.191
712.89	59.516
713.20	55.927
713.52	58.882
713.84	55.696
714.16	55.183
714.48	53.161
714.80	56.231
715.11	52.738
715.43	54.896
715.75	53.333
716.07	58.466
716.39	56.113
716.70	59.136
717.02	60.072
717.34	56.537
717.66	63.433
717.97	64.542
718.29	58.148
718.61	59.854
718.93	60.294
719.24	61.592
719.56	55.932
719.88	57.288
720.20	60.473
720.51	55.401
720.83	66.543
721.15	58.209
721.46	53.901
721.78	60.573
722.10	60.000
722.42	64.662
722.73	58.801
723.05	61.475
723.37	55.466
723.68	60.232
724.00	60.976
724.32	64.919
724.63	60.569
724.95	61.506
725.27	59.919
725.58	60.938
725.90	59.124
726.22	63.396
726.53	57.292
726.85	56.314
727.16	58.363
727.48	53.546
727.80	57.955
728.11	54.710
728.43	56.154
728.74	56.631
729.06	59.124
729.38	56.250
729.69	55.872
730.01	52.218
730.32	52.083
730.64	55.853
730.96	49.175
731.27	58.940
731.59	51.988
731.90	51.603
732.22	53.416
732.53	52.322
732.85	54.808
733.16	49.518
733.48	55.482
733.80	51.623
734.11	55.732
734.43	50.592
734.74	50.286
735.06	47.851
735.37	56.936
735.69	55.414
736.00	50.327
736.32	57.009
736.63	50.799
736.95	55.911
737.26	50.680
737.58	49.032
737.89	54.849
738.21	53.925
738.52	52.143
738.83	49.811
739.15	55.769
739.46	57.299
739.78	52.083
740.09	56.000
740.41	52.581
740.72	52.265
741.04	56.667
741.35	56.250
741.66	68.000
741.98	60.377
742.29	64.593
742.61	62.069
742.92	58.371
743.23	57.692
743.55	62.400
743.86	59.649
744.18	62.389
744.49	66.029
744.80	65.728
745.12	62.727
745.43	60.793
745.74	68.468
746.06	59.174
746.37	64.126
746.68	61.991
747.00	58.333
747.31	62.857
747.62	49.115
747.94	59.031
748.25	54.468
748.56	64.317
748.88	63.366
749.19	66.000
749.50	60.000
749.82	55.285
750.13	60.816
750.44	54.380
750.75	57.193
751.07	53.376
751.38	54.007
751.69	52.708
752.01	59.023
752.32	51.625
752.63	56.028
752.94	56.967
753.26	59.600
753.57	55.285
753.88	62.891
754.19	53.214
754.51	54.861
754.82	49.819
755.13	58.491
755.44	54.135
755.75	54.745
756.07	53.191
756.38	49.270
756.69	52.349
757.00	44.311
757.31	51.039
757.63	50.000
757.94	46.917
758.25	44.608
758.56	45.432
758.87	45.968
759.18	51.212
759.50	53.605
759.81	49.221
760.12	50.000
760.43	46.132
760.74	50.815
761.05	47.175
761.36	45.455
761.67	49.432
761.99	48.137
762.30	54.514
762.61	52.290
762.92	52.734
763.23	57.563
763.54	56.400
763.85	48.828
764.16	59.231
764.47	60.456
764.78	51.237
765.10	46.835
765.41	50.442
765.72	49.701
766.03	49.216
766.34	47.333
766.65	59.574
766.96	55.983
767.27	63.959
767.58	60.938
767.89	62.105
768.20	64.368
768.51	57.868
768.82	56.422
769.13	55.285
769.44	53.846
769.75	60.515
770.06	51.835
770.37	54.751
770.68	56.019
770.99	56.444
771.30	50.820
771.61	59.641
771.92	54.918
772.23	60.924
772.54	62.564
772.85	64.921
773.16	65.426
773.47	62.500
773.78	63.452
774.09	55.952
774.39	64.327
774.70	70.988
775.01	74.638
775.32	67.974
775.63	70.395
775.94	68.345
776.25	81.102
776.56	74.627
776.87	71.311
777.18	76.562
777.48	70.992
777.79	73.485
778.10	77.037
778.41	86.607
778.72	65.693
779.03	65.772
779.34	65.101
779.65	70.270
779.95	61.350
780.26	74.510
780.57	66.897
780.88	83.594
781.19	71.429
781.50	72.973
781.80	71.698
782.11	67.232
782.42	67.089
782.73	61.350
783.04	66.892
783.34	77.465
783.65	73.973
783.96	70.896
784.27	68.531
784.57	57.554
784.88	69.444
785.19	70.635
785.50	83.019
785.81	72.388
786.11	75.410
786.42	75.969
786.73	70.796
787.04	78.302
787.34	86.607
787.65	92.000
787.96	69.369
788.26	68.595
788.57	77.966
788.88	75.207
789.19	70.139
789.49	84.091
789.80	72.519
790.11	80.952
790.41	84.158
790.72	90.361
791.03	82.609
791.33	86.047
791.64	74.227
791.95	90.099
792.25	94.444
792.56	96.104
792.87	93.590
793.17	107.595
793.48	91.954
793.79	93.103
794.09	94.318
794.40	81.513
794.70	82.353
795.01	65.926
795.32	66.906
795.62	67.717
795.93	78.448
796.23	80.531
796.54	89.412
796.85	101.351
797.15	116.901
797.46	104.545
797.76	97.590
798.07	93.671
798.37	130.769
798.68	119.697
798.99	95.775
799.29	93.506
799.60	94.318
799.90	108.219
800.21	111.940
800.51	96.552
800.82	121.053
801.12	113.115
801.43	107.576
801.73	100.000
802.04	119.048
802.34	96.296
802.65	117.187
802.95	113.559
803.26	115.625
803.56	90.000
803.87	103.077
804.17	110.294
804.48	150.000
804.78	120.690
805.09	119.118
805.39	115.385
805.70	119.643
806.00	116.393
806.30	104.545
806.61	92.683
806.91	77.215
807.22	96.053
807.52	89.552
807.83	97.183
808.13	110.938
808.43	111.667
808.74	84.211
809.04	102.899
809.35	114.925
809.65	113.158
809.95	133.871
810.26	101.695
810.56	107.937
810.86	145.455
811.17	150.000
811.47	130.000
811.77	124.074
812.08	125.455
812.38	144.000
812.69	138.889
812.99	168.182
813.29	124.490
813.59	152.381
813.90	163.265
814.20	129.091
814.50	107.692
814.81	100.000
815.11	138.776
815.41	109.836
815.72	178.571
816.02	132.727
816.32	138.095
816.62	137.500
816.93	148.780
817.23	142.857
817.53	140.909
817.84	190.909
818.14	145.652
818.44	133.333
818.74	185.294
819.04	155.000
819.35	160.000
819.65	185.294
819.95	182.143
820.25	260.000
820.56	192.308
820.86	156.818
821.16	162.791
821.46	146.154
821.76	152.000
822.07	157.143
822.37	167.500
822.67	181.818
822.97	129.412
823.27	253.571
823.57	181.081
823.88	177.500
824.18	186.667
824.48	169.048
824.78	216.000
825.08	216.667
825.38	167.568
825.69	156.098
825.99	208.333
826.29	200.000
826.59	171.053
826.89	160.526
827.19	191.176
827.49	190.323
827.79	159.091
828.09	131.818
828.39	134.043
828.70	122.449
829.00	162.963
829.30	158.065
829.60	155.000
829.90	353.333
830.20	228.571
830.50	243.478
830.80	200.000
831.10	226.667
831.40	223.333
831.70	247.826
832.00	211.538
832.30	207.407
832.60	281.250
832.90	186.667
833.20	442.857
833.50	177.419
833.80	200.000
834.10	218.750
834.40	250.000
834.70	316.667
835.00	314.286
835.30	148.571
835.60	407.692
835.90	231.034
836.20	357.143
836.50	200.000
836.80	224.000
837.10	188.889
837.40	266.667
837.70	341.176
838.00	233.333
838.30	266.667
838.60	304.762
838.90	253.846
839.19	335.000
839.49	435.714
839.79	340.000
840.09	265.000
840.39	261.905
840.69	278.261
840.99	277.778
841.29	490.000
841.59	350.000
841.88	425.000
842.18	196.552
842.48	290.476
842.78	210.000
843.08	239.130
843.38	175.000
843.68	866.667
843.97	253.846
844.27	213.793
844.57	280.952
844.87	375.000
845.17	185.185
845.47	1466.667
845.76	544.444
846.06	305.882
846.36	500.000
846.66	342.857
846.96	343.750
847.25	509.091
847.55	463.636
847.85	282.609
848.15	480.000
848.44	428.571
848.74	272.222
849.04	370.588
849.34	540.000
849.63	278.947
849.93	500.000
850.23	1200.000
850.53	457.143
850.82	2200.000
851.12	-4700.000
851.42	5300.000
851.71	295.000
852.01	-1366.667
852.31	250.000
852.61	2166.667
852.90	314.286
853.20	236.000
853.50	341.176
853.79	280.952
854.09	191.667
854.39	306.250
854.68	175.676
854.98	206.452
855.28	176.667
855.57	210.345
855.87	211.111
856.17	294.737
856.46	353.333
856.76	288.235
857.05	189.655
857.35	262.500
857.65	360.000
857.94	208.696
858.24	215.385
858.53	345.000
858.83	250.000
859.13	406.667
859.42	0.000
859.72	577.778
860.01	472.727
860.31	227.273
860.60	257.895
860.90	226.087
861.20	600.000
861.49	466.667
861.79	-4800.000
862.08	537.500
862.38	300.000
862.67	307.692
862.97	317.647
863.26	600.000
863.56	261.111
863.85	350.000
864.15	650.000
864.44	340.000
864.74	950.000
865.03	575.000
865.33	315.789
865.62	445.455
865.92	430.769
866.21	366.667
866.51	0.000
866.80	463.636
867.10	1120.000
867.39	492.308
867.69	409.091
867.98	294.737
868.27	472.727
868.57	305.263
868.86	-3600.000
869.16	368.750
869.45	2750.000
869.75	-4300.000
870.04	450.000
870.33	557.143
870.63	1225.000
870.92	2500.000
871.22	657.143
871.51	376.471
871.80	204.762
872.10	407.143
>>>>>End Processed Spectral Data<<<<<
