SpectraSuite Data File
++++++++++++++++++++++++++++++++++++
Date: Wed May 13 16:42:08 PDT 2015
User: schluterlab
Dark Spectrum Present: Yes
Reference Spectrum Present: Yes
Number of Sampled Component Spectra: 1
Spectrometers: USB2E3373
Integration Time (usec): 3000 (USB2E3373)
Spectra Averaged: 3 (USB2E3373)
Boxcar Smoothing: 0 (USB2E3373)
Correct for Electrical Dark: No (USB2E3373)
Strobe/Lamp Enabled: No (USB2E3373)
Correct for Detector Non-linearity: No (USB2E3373)
Correct for Stray Light: No (USB2E3373)
Number of Pixels in Processed Spectrum: 2048
>>>>>Begin Processed Spectral Data<<<<<
178.53	0.000
178.91	-1425.000
179.29	-1275.000
179.67	-172.222
180.04	-1400.000
180.42	2550.000
180.80	1080.000
181.18	-1075.000
181.56	671.429
181.94	0.000
182.31	-642.857
182.69	1600.000
183.07	-500.000
183.45	-500.000
183.83	536.364
184.20	-430.000
184.58	2350.000
184.96	6100.000
185.34	-840.000
185.72	-700.000
186.09	-2350.000
186.47	2250.000
186.85	2250.000
187.23	5400.000
187.61	-1866.667
187.98	1400.000
188.36	554.545
188.74	500.000
189.12	-960.000
189.49	500.000
189.87	-3900.000
190.25	-1000.000
190.63	400.000
191.00	438.462
191.38	766.667
191.76	-1150.000
192.14	1400.000
192.51	537.500
192.89	983.333
193.27	562.500
193.65	-1300.000
194.02	470.000
194.40	840.000
194.78	550.000
195.15	441.667
195.53	570.000
195.91	-2700.000
196.29	331.250
196.66	289.474
197.04	-430.000
197.42	0.000
197.79	650.000
198.17	-4900.000
198.55	671.429
198.92	575.000
199.30	940.000
199.68	0.000
200.05	355.556
200.43	885.714
200.81	4400.000
201.18	1433.333
201.56	-1500.000
201.94	611.111
202.31	544.444
202.69	483.333
203.07	540.000
203.44	0.000
203.82	1200.000
204.19	542.857
204.57	435.714
204.95	625.000
205.32	1233.333
205.70	536.364
206.08	428.571
206.45	2600.000
206.83	331.250
207.20	900.000
207.58	760.000
207.96	327.778
208.33	800.000
208.71	-916.667
209.08	671.429
209.46	511.111
209.84	500.000
210.21	-1433.333
210.59	1375.000
210.96	-425.000
211.34	2600.000
211.71	580.000
212.09	866.667
212.46	0.000
212.84	1600.000
213.22	1325.000
213.59	-5300.000
213.97	966.667
214.34	700.000
214.72	545.455
215.09	1140.000
215.47	-2600.000
215.84	-2200.000
216.22	1800.000
216.59	335.714
216.97	975.000
217.34	436.364
217.72	-883.333
218.09	0.000
218.47	-5100.000
218.84	611.111
219.22	657.143
219.59	1800.000
219.97	-771.429
220.34	920.000
220.72	-1533.333
221.09	350.000
221.47	1400.000
221.84	-933.333
222.22	0.000
222.59	1375.000
222.97	-2650.000
223.34	880.000
223.72	323.077
224.09	1000.000
224.46	1850.000
224.84	-5300.000
225.21	-980.000
225.59	-4800.000
225.96	530.000
226.34	315.000
226.71	2850.000
227.08	775.000
227.46	440.000
227.83	-1050.000
228.21	-2500.000
228.58	577.778
228.95	-2100.000
229.33	-2400.000
229.70	1700.000
230.08	871.429
230.45	-920.000
230.82	441.667
231.20	916.667
231.57	485.714
231.95	458.333
232.32	236.364
232.69	390.909
233.07	585.714
233.44	323.077
233.81	-1633.333
234.19	268.421
234.56	391.667
234.93	391.667
235.31	436.364
235.68	284.615
236.05	378.571
236.43	163.636
236.80	231.579
237.17	4400.000
237.55	219.048
237.92	192.857
238.29	247.619
238.67	135.484
239.04	172.414
239.41	136.111
239.79	102.174
240.16	123.810
240.53	97.727
240.91	86.275
241.28	98.000
241.65	84.000
242.02	89.855
242.40	75.806
242.77	65.000
243.14	51.613
243.51	67.416
243.89	69.412
244.26	43.333
244.63	51.613
245.00	48.936
245.38	51.485
245.75	42.991
246.12	33.028
246.49	50.365
246.87	51.200
247.24	40.769
247.61	33.571
247.98	33.333
248.36	28.378
248.73	31.210
249.10	31.847
249.47	31.073
249.84	32.086
250.22	26.203
250.59	27.219
250.96	30.808
251.33	26.540
251.70	26.238
252.08	25.238
252.45	19.731
252.82	23.043
253.19	20.426
253.56	25.098
253.94	22.407
254.31	17.969
254.68	19.615
255.05	23.247
255.42	19.512
255.79	18.750
256.16	17.329
256.54	16.608
256.91	19.217
257.28	14.748
257.65	16.172
258.02	20.807
258.39	17.035
258.76	17.726
259.14	18.452
259.51	14.894
259.88	13.043
260.25	17.523
260.62	16.763
260.99	12.733
261.36	17.417
261.73	12.894
262.10	12.791
262.47	13.803
262.85	15.599
263.22	10.256
263.59	17.949
263.96	11.264
264.33	12.794
264.70	14.737
265.07	13.299
265.44	13.384
265.81	11.922
266.18	11.558
266.55	12.195
266.92	11.057
267.29	14.583
267.66	12.615
268.03	12.955
268.40	10.981
268.77	9.547
269.14	12.387
269.51	13.318
269.88	10.256
270.25	14.898
270.62	11.910
270.99	14.194
271.36	11.373
271.73	10.280
272.10	12.174
272.47	12.258
272.84	11.688
273.21	11.740
273.58	7.860
273.95	8.595
274.32	8.678
274.69	11.991
275.06	10.630
275.43	11.277
275.80	10.621
276.17	11.813
276.54	11.435
276.91	8.893
277.28	10.547
277.65	11.025
278.02	8.903
278.39	11.328
278.76	10.545
279.13	10.189
279.50	10.801
279.87	11.155
280.23	9.780
280.60	8.704
280.97	10.166
281.34	10.973
281.71	9.455
282.08	9.981
282.45	9.455
282.82	9.414
283.19	8.200
283.56	9.649
283.92	10.321
284.29	9.347
284.66	9.256
285.03	8.137
285.40	10.035
285.77	8.249
286.14	7.599
286.51	9.833
286.87	10.427
287.24	9.446
287.61	7.223
287.98	10.065
288.35	9.033
288.72	9.034
289.08	11.424
289.45	7.414
289.82	7.317
290.19	6.907
290.56	8.423
290.93	8.761
291.29	6.748
291.66	7.965
292.03	9.738
292.40	11.307
292.77	7.101
293.13	7.612
293.50	8.017
293.87	8.296
294.24	8.000
294.60	6.841
294.97	8.285
295.34	9.450
295.71	7.102
296.08	7.265
296.44	7.978
296.81	7.001
297.18	8.537
297.55	5.145
297.91	6.332
298.28	7.764
298.65	8.747
299.02	8.169
299.38	7.968
299.75	4.717
300.12	6.003
300.48	6.250
300.85	7.398
301.22	6.497
301.59	5.303
301.95	6.171
302.32	6.033
302.69	6.571
303.05	6.788
303.42	5.926
303.79	6.682
304.15	5.944
304.52	6.257
304.89	6.504
305.25	4.988
305.62	7.928
305.99	6.494
306.35	5.705
306.72	8.072
307.09	6.326
307.45	7.320
307.82	5.134
308.19	6.402
308.55	7.335
308.92	5.585
309.29	5.913
309.65	5.090
310.02	5.814
310.38	6.237
310.75	6.653
311.12	6.653
311.48	6.688
311.85	6.499
312.22	6.764
312.58	6.029
312.95	6.653
313.31	5.825
313.68	5.821
314.05	7.988
314.41	5.226
314.78	7.351
315.14	6.554
315.51	7.415
315.87	6.238
316.24	6.356
316.61	6.530
316.97	6.067
317.34	4.990
317.70	5.736
318.07	5.679
318.43	6.654
318.80	6.748
319.16	6.780
319.53	7.036
319.89	6.762
320.26	6.800
320.62	6.151
320.99	5.960
321.35	6.162
321.72	7.290
322.08	7.108
322.45	8.358
322.81	7.171
323.18	7.322
323.54	6.772
323.91	7.925
324.27	6.405
324.64	5.405
325.00	5.861
325.37	8.098
325.73	7.271
326.10	7.944
326.46	7.079
326.83	7.161
327.19	6.832
327.56	6.446
327.92	6.562
328.29	7.453
328.65	7.827
329.01	6.588
329.38	6.290
329.74	7.664
330.11	6.692
330.47	6.703
330.84	7.445
331.20	6.375
331.56	7.890
331.93	6.574
332.29	6.921
332.66	6.903
333.02	7.313
333.38	7.949
333.75	7.754
334.11	6.584
334.48	6.566
334.84	7.077
335.20	7.364
335.57	6.437
335.93	6.071
336.29	6.868
336.66	6.943
337.02	6.516
337.38	6.389
337.75	6.061
338.11	6.625
338.47	5.801
338.84	6.324
339.20	6.697
339.56	6.934
339.93	6.182
340.29	6.250
340.65	6.863
341.02	6.195
341.38	7.028
341.74	5.263
342.11	6.900
342.47	5.639
342.83	7.106
343.20	7.359
343.56	5.897
343.92	7.105
344.28	7.058
344.65	6.019
345.01	6.229
345.37	4.974
345.73	6.007
346.10	6.223
346.46	6.695
346.82	6.919
347.19	5.848
347.55	6.240
347.91	5.906
348.27	7.313
348.63	6.020
349.00	6.796
349.36	7.307
349.72	6.415
350.08	6.159
350.45	6.672
350.81	6.011
351.17	6.078
351.53	5.651
351.89	5.693
352.26	7.103
352.62	6.496
352.98	6.402
353.34	6.081
353.70	5.646
354.07	6.935
354.43	6.349
354.79	6.275
355.15	5.666
355.51	6.875
355.87	6.367
356.24	6.026
356.60	5.854
356.96	5.632
357.32	6.460
357.68	5.512
358.04	6.730
358.40	6.730
358.77	6.338
359.13	4.893
359.49	6.039
359.85	4.841
360.21	5.104
360.57	7.393
360.93	5.769
361.29	5.367
361.66	6.037
362.02	6.567
362.38	5.019
362.74	6.027
363.10	5.255
363.46	5.429
363.82	5.745
364.18	6.167
364.54	6.241
364.90	5.595
365.26	6.103
365.62	5.917
365.98	5.625
366.35	5.158
366.71	6.580
367.07	5.462
367.43	5.660
367.79	6.495
368.15	5.460
368.51	5.596
368.87	6.138
369.23	5.852
369.59	6.445
369.95	5.735
370.31	5.484
370.67	6.014
371.03	6.592
371.39	6.195
371.75	4.926
372.11	6.117
372.47	6.232
372.83	5.836
373.19	6.142
373.55	5.395
373.91	6.554
374.27	5.223
374.63	4.945
374.99	6.427
375.35	5.234
375.71	5.141
376.07	6.379
376.42	5.433
376.78	5.500
377.14	4.817
377.50	5.894
377.86	5.186
378.22	6.511
378.58	4.762
378.94	5.657
379.30	5.153
379.66	5.203
380.02	5.405
380.38	5.404
380.74	5.462
381.09	5.440
381.45	5.040
381.81	5.774
382.17	5.796
382.53	5.660
382.89	5.432
383.25	5.253
383.61	5.390
383.97	5.941
384.32	5.989
384.68	5.948
385.04	5.286
385.40	5.201
385.76	5.774
386.12	5.959
386.48	5.727
386.83	5.516
387.19	6.370
387.55	6.122
387.91	5.260
388.27	5.150
388.62	6.085
388.98	5.590
389.34	6.446
389.70	6.254
390.06	5.957
390.42	5.383
390.77	6.361
391.13	5.935
391.49	5.711
391.85	4.901
392.20	4.669
392.56	4.987
392.92	5.533
393.28	4.675
393.64	5.815
393.99	5.864
394.35	5.831
394.71	5.458
395.07	5.483
395.42	4.821
395.78	6.234
396.14	6.331
396.50	5.514
396.85	5.976
397.21	5.302
397.57	4.960
397.92	6.010
398.28	5.045
398.64	6.452
399.00	5.820
399.35	4.907
399.71	5.498
400.07	6.032
400.42	5.583
400.78	5.489
401.14	4.817
401.49	5.552
401.85	5.384
402.21	4.970
402.57	5.182
402.92	5.738
403.28	5.247
403.63	5.507
403.99	4.904
404.35	5.212
404.70	5.336
405.06	4.776
405.42	5.614
405.77	5.029
406.13	5.361
406.49	5.855
406.84	5.670
407.20	5.024
407.55	5.552
407.91	5.467
408.27	5.424
408.62	6.081
408.98	4.534
409.34	5.105
409.69	5.871
410.05	5.081
410.40	5.688
410.76	5.078
411.11	6.092
411.47	5.495
411.83	5.437
412.18	4.700
412.54	5.417
412.89	6.024
413.25	5.195
413.60	5.435
413.96	4.979
414.31	5.589
414.67	5.830
415.03	4.901
415.38	6.250
415.74	5.659
416.09	5.291
416.45	5.020
416.80	5.552
417.16	4.960
417.51	5.309
417.87	5.202
418.22	5.615
418.58	5.875
418.93	4.975
419.29	5.347
419.64	5.479
420.00	5.671
420.35	5.449
420.71	5.619
421.06	4.714
421.42	5.439
421.77	5.269
422.12	4.548
422.48	3.832
422.83	4.659
423.19	4.972
423.54	5.223
423.90	5.565
424.25	5.360
424.61	5.000
424.96	4.781
425.31	4.817
425.67	4.888
426.02	5.086
426.38	4.823
426.73	4.623
427.09	5.653
427.44	5.405
427.79	5.060
428.15	5.714
428.50	4.623
428.85	6.019
429.21	4.694
429.56	4.925
429.92	4.831
430.27	4.518
430.62	4.455
430.98	4.774
431.33	5.309
431.68	4.869
432.04	5.378
432.39	4.854
432.74	4.608
433.10	5.263
433.45	4.723
433.80	4.823
434.16	5.556
434.51	4.947
434.86	5.074
435.22	4.614
435.57	4.985
435.92	4.798
436.28	4.982
436.63	5.740
436.98	5.152
437.34	4.890
437.69	5.484
438.04	5.003
438.39	4.776
438.75	5.171
439.10	5.251
439.45	5.549
439.81	5.317
440.16	5.251
440.51	5.390
440.86	5.096
441.22	4.505
441.57	5.202
441.92	4.606
442.27	4.952
442.63	4.687
442.98	5.577
443.33	5.435
443.68	5.369
444.03	4.978
444.39	4.041
444.74	4.870
445.09	4.744
445.44	5.085
445.79	4.503
446.15	5.611
446.50	5.008
446.85	4.625
447.20	4.895
447.55	5.416
447.91	4.964
448.26	5.120
448.61	4.522
448.96	5.150
449.31	4.781
449.66	5.065
450.02	4.345
450.37	4.535
450.72	4.456
451.07	4.509
451.42	4.316
451.77	4.874
452.12	5.370
452.47	5.473
452.83	5.012
453.18	5.134
453.53	5.937
453.88	4.430
454.23	5.081
454.58	5.754
454.93	5.976
455.28	5.112
455.63	5.340
455.98	6.012
456.34	5.779
456.69	5.009
457.04	5.015
457.39	5.319
457.74	5.223
458.09	5.578
458.44	5.929
458.79	4.989
459.14	5.869
459.49	5.371
459.84	4.875
460.19	4.596
460.54	5.440
460.89	5.211
461.24	5.586
461.59	6.217
461.94	4.932
462.29	5.519
462.64	5.552
462.99	5.400
463.34	6.067
463.69	5.378
464.04	5.217
464.39	5.797
464.74	5.585
465.09	5.006
465.44	4.820
465.79	5.425
466.14	5.364
466.49	5.784
466.84	5.079
467.19	5.371
467.54	5.750
467.89	5.642
468.24	5.643
468.59	5.861
468.94	5.620
469.29	5.334
469.64	5.756
469.99	5.954
470.34	4.954
470.68	5.891
471.03	5.782
471.38	6.254
471.73	6.129
472.08	5.855
472.43	5.465
472.78	4.674
473.13	6.418
473.48	5.743
473.83	5.427
474.17	4.916
474.52	4.591
474.87	6.188
475.22	5.049
475.57	4.514
475.92	4.886
476.27	4.735
476.61	4.964
476.96	4.783
477.31	3.872
477.66	5.306
478.01	4.966
478.36	4.812
478.70	4.361
479.05	5.272
479.40	5.220
479.75	5.491
480.10	4.771
480.45	4.474
480.79	4.396
481.14	4.648
481.49	5.505
481.84	4.298
482.19	4.407
482.53	4.771
482.88	4.793
483.23	4.860
483.58	4.959
483.92	5.014
484.27	4.314
484.62	4.353
484.97	3.981
485.31	4.418
485.66	3.564
486.01	3.021
486.36	2.852
486.70	2.855
487.05	3.383
487.40	3.524
487.75	3.560
488.09	3.852
488.44	3.669
488.79	4.774
489.13	4.011
489.48	4.282
489.83	4.014
490.17	4.428
490.52	4.606
490.87	4.342
491.22	4.411
491.56	3.781
491.91	4.514
492.26	3.996
492.60	5.300
492.95	3.882
493.30	4.766
493.64	4.573
493.99	3.946
494.34	4.487
494.68	5.311
495.03	4.746
495.37	4.374
495.72	4.483
496.07	4.548
496.41	4.513
496.76	4.529
497.11	4.502
497.45	4.611
497.80	4.702
498.14	3.865
498.49	4.585
498.84	4.794
499.18	4.143
499.53	3.989
499.87	4.287
500.22	4.946
500.56	5.340
500.91	4.231
501.26	5.026
501.60	4.746
501.95	4.766
502.29	4.686
502.64	4.190
502.98	4.208
503.33	4.890
503.67	4.223
504.02	4.771
504.36	5.101
504.71	4.739
505.06	5.205
505.40	5.250
505.75	4.629
506.09	4.519
506.44	4.391
506.78	4.871
507.13	4.442
507.47	5.101
507.82	5.268
508.16	4.762
508.51	4.820
508.85	4.618
509.19	4.796
509.54	5.306
509.88	4.585
510.23	5.039
510.57	5.573
510.92	5.075
511.26	4.779
511.61	5.239
511.95	4.802
512.30	4.825
512.64	5.159
512.98	4.984
513.33	5.246
513.67	5.176
514.02	4.978
514.36	5.079
514.70	4.925
515.05	4.964
515.39	5.328
515.74	5.124
516.08	5.757
516.42	5.494
516.77	5.574
517.11	4.828
517.46	5.700
517.80	5.517
518.14	4.980
518.49	5.601
518.83	6.080
519.17	5.196
519.52	5.320
519.86	5.990
520.20	6.069
520.55	5.386
520.89	5.474
521.23	5.971
521.58	5.042
521.92	5.818
522.26	5.308
522.61	5.670
522.95	5.279
523.29	5.660
523.64	5.610
523.98	5.052
524.32	5.489
524.66	5.352
525.01	5.515
525.35	5.266
525.69	5.419
526.04	5.421
526.38	6.040
526.72	5.583
527.06	5.399
527.41	4.827
527.75	5.659
528.09	5.523
528.43	5.545
528.78	6.331
529.12	5.758
529.46	6.185
529.80	6.064
530.15	6.729
530.49	5.292
530.83	5.759
531.17	5.483
531.51	6.485
531.86	5.419
532.20	6.323
532.54	5.894
532.88	6.226
533.22	5.684
533.57	6.173
533.91	5.599
534.25	5.832
534.59	6.040
534.93	5.235
535.27	5.432
535.62	5.800
535.96	5.650
536.30	5.404
536.64	5.731
536.98	5.574
537.32	4.806
537.66	5.733
538.01	6.057
538.35	6.141
538.69	6.573
539.03	5.718
539.37	5.879
539.71	4.925
540.05	5.425
540.39	5.382
540.73	5.563
541.07	6.944
541.42	6.132
541.76	6.129
542.10	5.886
542.44	5.364
542.78	6.192
543.12	4.990
543.46	6.689
543.80	5.725
544.14	5.071
544.48	5.651
544.82	5.645
545.16	6.376
545.50	5.656
545.84	5.712
546.18	5.387
546.52	5.643
546.86	4.536
547.20	6.676
547.54	6.079
547.88	6.569
548.22	5.479
548.56	5.975
548.90	5.122
549.24	5.051
549.58	5.730
549.92	5.632
550.26	6.179
550.60	5.187
550.94	5.493
551.28	5.267
551.62	5.751
551.96	6.035
552.30	6.485
552.64	6.964
552.98	5.492
553.32	6.136
553.66	6.339
554.00	6.589
554.34	5.728
554.68	5.937
555.02	5.924
555.36	6.193
555.69	5.142
556.03	5.720
556.37	5.662
556.71	5.321
557.05	6.022
557.39	7.068
557.73	6.069
558.07	5.801
558.41	5.427
558.75	6.319
559.08	5.593
559.42	6.122
559.76	6.176
560.10	5.710
560.44	6.010
560.78	5.655
561.12	6.464
561.45	6.649
561.79	5.405
562.13	6.170
562.47	5.601
562.81	5.927
563.15	5.485
563.48	5.305
563.82	5.610
564.16	5.036
564.50	5.469
564.84	5.120
565.17	5.534
565.51	5.623
565.85	5.520
566.19	4.947
566.52	5.700
566.86	5.124
567.20	5.955
567.54	5.479
567.88	4.889
568.21	5.185
568.55	5.511
568.89	4.426
569.23	4.813
569.56	4.656
569.90	4.566
570.24	4.270
570.57	4.216
570.91	3.782
571.25	3.799
571.59	4.242
571.92	3.139
572.26	3.871
572.60	4.204
572.93	3.748
573.27	4.289
573.61	3.657
573.95	3.773
574.28	3.518
574.62	3.547
574.96	3.608
575.29	3.443
575.63	3.786
575.97	3.437
576.30	3.532
576.64	3.639
576.98	3.379
577.31	3.142
577.65	3.496
577.98	3.277
578.32	3.058
578.66	3.480
578.99	3.447
579.33	3.268
579.67	2.895
580.00	3.045
580.34	3.370
580.67	3.073
581.01	3.688
581.35	3.191
581.68	3.217
582.02	3.149
582.35	3.038
582.69	3.165
583.02	3.139
583.36	3.505
583.70	3.472
584.03	3.553
584.37	3.926
584.70	3.370
585.04	3.620
585.37	3.472
585.71	3.759
586.04	3.600
586.38	3.553
586.72	3.949
587.05	3.749
587.39	3.193
587.72	3.607
588.06	3.308
588.39	3.512
588.73	3.843
589.06	4.051
589.40	3.939
589.73	3.872
590.07	4.093
590.40	4.019
590.73	4.333
591.07	4.151
591.40	4.386
591.74	4.719
592.07	4.319
592.41	4.713
592.74	3.933
593.08	4.197
593.41	3.796
593.75	3.966
594.08	4.023
594.41	4.419
594.75	3.734
595.08	4.474
595.42	3.888
595.75	4.238
596.09	4.056
596.42	4.872
596.75	4.686
597.09	4.978
597.42	3.879
597.75	4.398
598.09	4.652
598.42	4.424
598.76	4.094
599.09	4.067
599.42	4.148
599.76	4.283
600.09	4.117
600.42	3.835
600.76	3.821
601.09	3.825
601.42	4.186
601.76	4.288
602.09	4.150
602.42	4.299
602.76	4.716
603.09	4.327
603.42	4.451
603.76	4.078
604.09	4.033
604.42	4.077
604.76	4.808
605.09	4.369
605.42	3.848
605.75	4.387
606.09	3.904
606.42	4.291
606.75	4.562
607.09	5.023
607.42	3.808
607.75	4.304
608.08	4.038
608.42	4.886
608.75	4.193
609.08	4.672
609.41	4.522
609.75	4.669
610.08	4.524
610.41	3.818
610.74	4.588
611.07	4.150
611.41	4.563
611.74	5.229
612.07	4.969
612.40	5.037
612.73	4.684
613.07	5.334
613.40	5.424
613.73	4.143
614.06	4.731
614.39	5.244
614.72	5.053
615.06	5.305
615.39	4.565
615.72	5.215
616.05	4.785
616.38	4.780
616.71	4.988
617.05	4.888
617.38	5.111
617.71	5.465
618.04	5.889
618.37	5.027
618.70	5.787
619.03	5.789
619.36	5.906
619.69	5.775
620.03	5.632
620.36	6.283
620.69	5.753
621.02	5.531
621.35	5.403
621.68	5.374
622.01	6.579
622.34	5.749
622.67	5.703
623.00	5.429
623.33	5.289
623.66	5.718
623.99	6.112
624.32	5.563
624.65	5.720
624.99	4.816
625.32	4.634
625.65	5.860
625.98	5.688
626.31	6.843
626.64	6.612
626.97	6.318
627.30	5.320
627.63	6.317
627.96	6.812
628.29	6.124
628.62	8.326
628.95	7.736
629.28	7.299
629.61	7.149
629.94	6.476
630.26	6.482
630.59	6.673
630.92	5.268
631.25	6.120
631.58	7.007
631.91	6.592
632.24	6.646
632.57	8.814
632.90	8.443
633.23	7.606
633.56	8.588
633.89	7.928
634.22	8.627
634.55	8.284
634.88	8.024
635.20	7.407
635.53	8.313
635.86	7.302
636.19	7.412
636.52	7.382
636.85	8.477
637.18	7.719
637.51	8.274
637.83	6.905
638.16	9.335
638.49	9.572
638.82	8.091
639.15	9.000
639.48	9.102
639.81	9.517
640.13	9.245
640.46	9.664
640.79	8.454
641.12	6.602
641.45	7.961
641.77	8.100
642.10	9.064
642.43	9.459
642.76	8.669
643.09	9.816
643.41	7.891
643.74	12.654
644.07	8.537
644.40	11.043
644.73	10.236
645.05	10.301
645.38	8.847
645.71	9.179
646.04	10.299
646.36	10.684
646.69	11.538
647.02	10.714
647.35	12.027
647.67	9.912
648.00	12.358
648.33	9.241
648.66	10.455
648.98	10.945
649.31	9.268
649.64	9.567
649.96	10.134
650.29	8.689
650.62	9.385
650.94	11.507
651.27	12.500
651.60	11.148
651.92	11.182
652.25	7.492
652.58	9.969
652.90	9.953
653.23	7.704
653.56	9.921
653.88	11.886
654.21	11.374
654.54	10.231
654.86	10.592
655.19	9.054
655.52	4.244
655.84	2.424
656.17	2.632
656.49	3.411
656.82	3.361
657.15	2.782
657.47	2.028
657.80	1.705
658.13	1.908
658.45	2.831
658.78	3.009
659.10	2.986
659.43	3.880
659.75	4.466
660.08	4.937
660.41	6.052
660.73	9.911
661.06	7.803
661.38	11.455
661.71	11.154
662.03	13.609
662.36	12.525
662.68	11.446
663.01	13.131
663.33	11.040
663.66	12.185
663.98	11.447
664.31	10.294
664.63	10.526
664.96	9.457
665.28	12.090
665.61	11.306
665.93	10.664
666.26	8.925
666.58	11.297
666.91	14.588
667.23	12.584
667.56	11.447
667.88	13.462
668.21	13.006
668.53	13.015
668.86	11.472
669.18	13.006
669.50	13.696
669.83	14.597
670.15	13.111
670.48	11.983
670.80	13.578
671.13	12.527
671.45	11.064
671.77	12.220
672.10	11.460
672.42	11.307
672.75	11.277
673.07	9.683
673.39	9.042
673.72	9.570
674.04	10.980
674.37	10.485
674.69	9.611
675.01	11.925
675.34	12.936
675.66	13.895
675.98	12.220
676.31	13.445
676.63	12.739
676.95	10.901
677.28	10.981
677.60	12.308
677.92	14.979
678.25	11.910
678.57	11.952
678.89	11.222
679.22	11.002
679.54	13.740
679.86	12.477
680.18	11.270
680.51	11.525
680.83	11.566
681.15	11.321
681.48	13.611
681.80	9.671
682.12	12.644
682.44	9.091
682.77	10.183
683.09	14.378
683.41	12.639
683.73	15.453
684.06	13.636
684.38	11.742
684.70	12.403
685.02	11.820
685.34	12.637
685.67	8.217
685.99	9.622
686.31	9.727
686.63	9.187
686.96	10.893
687.28	11.913
687.60	9.964
687.92	11.152
688.24	8.365
688.56	12.048
688.89	12.448
689.21	14.410
689.53	14.196
689.85	13.082
690.17	10.766
690.49	15.499
690.82	13.785
691.14	13.170
691.46	10.970
691.78	12.048
692.10	11.364
692.42	13.174
692.74	10.581
693.06	14.043
693.39	12.526
693.71	12.445
694.03	13.053
694.35	13.203
694.67	10.984
694.99	13.902
695.31	10.539
695.63	11.005
695.95	12.225
696.27	12.183
696.59	13.472
696.91	15.803
697.23	10.798
697.56	13.220
697.88	9.816
698.20	11.250
698.52	12.903
698.84	13.140
699.16	12.212
699.48	13.302
699.80	13.768
700.12	15.325
700.44	12.997
700.76	16.298
701.08	13.218
701.40	15.084
701.72	17.201
702.04	18.466
702.36	14.164
702.68	14.448
703.00	14.127
703.32	12.766
703.64	17.158
703.96	14.763
704.28	12.500
704.60	18.182
704.91	19.288
705.23	15.249
705.55	17.276
705.87	21.262
706.19	15.901
706.51	19.003
706.83	16.364
707.15	19.328
707.47	13.889
707.79	14.742
708.11	15.297
708.43	13.810
708.74	13.520
709.06	15.065
709.38	17.848
709.70	15.698
710.02	17.211
710.34	13.636
710.66	18.209
710.98	19.602
711.29	18.895
711.61	16.519
711.93	17.628
712.25	20.579
712.57	14.706
712.89	19.723
713.20	19.757
713.52	19.079
713.84	13.608
714.16	18.598
714.48	15.805
714.80	19.453
715.11	14.697
715.43	13.947
715.75	16.812
716.07	12.141
716.39	13.480
716.70	21.262
717.02	19.784
717.34	21.201
717.66	22.761
717.97	23.108
718.29	19.630
718.61	17.883
718.93	16.176
719.24	23.183
719.56	14.237
719.88	16.949
720.20	18.919
720.51	21.254
720.83	21.933
721.15	18.284
721.46	17.376
721.78	20.072
722.10	17.358
722.42	21.053
722.73	19.850
723.05	20.082
723.37	20.648
723.68	18.919
724.00	20.325
724.32	25.403
724.63	21.138
724.95	19.247
725.27	19.028
725.58	21.484
725.90	20.073
726.22	22.264
726.53	20.486
726.85	19.113
727.16	20.285
727.48	20.213
727.80	20.076
728.11	19.565
728.43	20.769
728.74	18.280
729.06	23.358
729.38	21.324
729.69	18.505
730.01	16.724
730.32	17.014
730.64	15.385
730.96	15.182
731.27	19.205
731.59	15.291
731.90	15.160
732.22	13.665
732.53	13.313
732.85	18.590
733.16	17.042
733.48	15.615
733.80	13.636
734.11	21.975
734.43	15.976
734.74	13.429
735.06	14.327
735.37	17.919
735.69	16.879
736.00	18.627
736.32	18.069
736.63	15.016
736.95	20.128
737.26	16.667
737.58	13.226
737.89	17.391
738.21	19.795
738.52	15.357
738.83	18.868
739.15	18.077
739.46	18.978
739.78	21.875
740.09	18.154
740.41	18.710
740.72	13.240
741.04	19.259
741.35	19.583
741.66	25.778
741.98	26.415
742.29	24.880
742.61	25.862
742.92	21.719
743.23	21.368
743.55	25.200
743.86	23.684
744.18	24.336
744.49	26.316
744.80	27.230
745.12	27.727
745.43	24.229
745.74	27.928
746.06	23.853
746.37	22.422
746.68	27.602
747.00	32.407
747.31	26.190
747.62	17.699
747.94	21.145
748.25	22.979
748.56	25.110
748.88	22.772
749.19	27.000
749.50	26.512
749.82	21.951
750.13	17.959
750.44	17.883
750.75	22.456
751.07	21.543
751.38	17.770
751.69	17.329
752.01	16.165
752.32	15.523
752.63	19.858
752.94	19.672
753.26	23.600
753.57	17.073
753.88	24.609
754.19	20.714
754.51	22.222
754.82	19.856
755.13	21.509
755.44	19.925
755.75	17.883
756.07	19.149
756.38	13.504
756.69	17.785
757.00	18.563
757.31	17.507
757.63	14.327
757.94	15.013
758.25	14.461
758.56	13.827
758.87	16.398
759.18	18.485
759.50	19.436
759.81	17.445
760.12	14.687
760.43	16.619
760.74	17.120
761.05	16.949
761.36	14.973
761.67	16.761
761.99	14.907
762.30	20.486
762.61	18.321
762.92	19.922
763.23	22.269
763.54	22.400
763.85	16.016
764.16	24.231
764.47	22.814
764.78	18.728
765.10	14.241
765.41	18.584
765.72	16.766
766.03	15.361
766.34	21.000
766.65	20.426
766.96	22.222
767.27	28.426
767.58	29.167
767.89	32.105
768.20	32.759
768.51	25.888
768.82	24.771
769.13	19.106
769.44	21.457
769.75	18.455
770.06	16.055
770.37	28.054
770.68	26.852
770.99	22.222
771.30	18.033
771.61	23.318
771.92	25.820
772.23	25.210
772.54	22.564
772.85	29.319
773.16	30.851
773.47	29.891
773.78	36.548
774.09	27.976
774.39	30.409
774.70	37.037
775.01	39.130
775.32	39.216
775.63	34.868
775.94	43.165
776.25	45.669
776.56	37.313
776.87	43.443
777.18	41.406
777.48	50.382
777.79	40.909
778.10	45.185
778.41	45.536
778.72	32.847
779.03	36.913
779.34	30.201
779.65	29.730
779.95	30.675
780.26	34.641
780.57	40.000
780.88	46.875
781.19	37.594
781.50	43.243
781.80	33.333
782.11	27.684
782.42	35.443
782.73	31.288
783.04	37.162
783.34	29.577
783.65	41.781
783.96	40.299
784.27	30.070
784.57	29.496
784.88	38.889
785.19	52.381
785.50	40.566
785.81	57.463
786.11	39.344
786.42	39.535
786.73	46.018
787.04	43.396
787.34	43.750
787.65	43.000
787.96	42.342
788.26	41.322
788.57	50.000
788.88	44.628
789.19	43.750
789.49	46.212
789.80	42.748
790.11	49.524
790.41	57.426
790.72	51.807
791.03	55.435
791.33	39.535
791.64	51.546
791.95	52.475
792.25	67.778
792.56	58.442
792.87	69.231
793.17	78.481
793.48	58.621
793.79	62.069
794.09	51.136
794.40	42.017
794.70	43.382
795.01	33.333
795.32	38.129
795.62	40.157
795.93	44.828
796.23	46.018
796.54	61.176
796.85	55.405
797.15	73.239
797.46	71.212
797.76	72.289
798.07	59.494
798.37	64.615
798.68	75.758
798.99	56.338
799.29	54.545
799.60	55.682
799.90	80.822
800.21	74.627
800.51	63.793
800.82	85.965
801.12	75.410
801.43	83.333
801.73	62.162
802.04	77.778
802.34	74.074
802.65	82.813
802.95	105.085
803.26	81.250
803.56	60.000
803.87	55.385
804.17	66.176
804.48	87.037
804.78	72.414
805.09	60.294
805.39	82.692
805.70	91.071
806.00	96.721
806.30	66.667
806.61	71.951
806.91	58.228
807.22	63.158
807.52	62.687
807.83	77.465
808.13	78.125
808.43	85.000
808.74	61.842
809.04	63.768
809.35	88.060
809.65	85.526
809.95	83.871
810.26	89.831
810.56	100.000
810.86	104.545
811.17	133.333
811.47	83.333
811.77	85.185
812.08	81.818
812.38	112.000
812.69	113.889
812.99	131.818
813.29	124.490
813.59	109.524
813.90	114.286
814.20	85.455
814.50	78.462
814.81	86.765
815.11	83.673
815.41	78.689
815.72	100.000
816.02	114.545
816.32	102.381
816.62	105.000
816.93	100.000
817.23	140.476
817.53	97.727
817.84	136.364
818.14	117.391
818.44	148.889
818.74	167.647
819.04	120.000
819.35	131.429
819.65	144.118
819.95	189.286
820.25	205.000
820.56	123.077
820.86	118.182
821.16	141.860
821.46	112.821
821.76	116.000
822.07	168.571
822.37	125.000
822.67	145.455
822.97	100.000
823.27	189.286
823.57	121.622
823.88	150.000
824.18	160.000
824.48	145.238
824.78	216.000
825.08	170.833
825.38	127.027
825.69	126.829
825.99	212.500
826.29	158.621
826.59	121.053
826.89	136.842
827.19	164.706
827.49	151.613
827.79	140.909
828.09	106.818
828.39	119.149
828.70	108.163
829.00	137.037
829.30	148.387
829.60	110.000
829.90	306.667
830.20	167.857
830.50	191.304
830.80	226.087
831.10	193.333
831.40	150.000
831.70	173.913
832.00	215.385
832.30	166.667
832.60	256.250
832.90	210.000
833.20	357.143
833.50	158.065
833.80	172.414
834.10	178.125
834.40	184.615
834.70	211.111
835.00	285.714
835.30	177.143
835.60	346.154
835.90	206.897
836.20	364.286
836.50	196.552
836.80	180.000
837.10	150.000
837.40	223.810
837.70	276.471
838.00	170.370
838.30	233.333
838.60	233.333
838.90	215.385
839.19	230.000
839.49	414.286
839.79	305.000
840.09	225.000
840.39	314.286
840.69	230.435
840.99	250.000
841.29	450.000
841.59	416.667
841.88	337.500
842.18	144.828
842.48	285.714
842.78	143.333
843.08	195.652
843.38	171.875
843.68	766.667
843.97	242.308
844.27	203.448
844.57	261.905
844.87	350.000
845.17	214.815
845.47	1266.667
845.76	511.111
846.06	323.529
846.36	462.500
846.66	335.714
846.96	243.750
847.25	509.091
847.55	318.182
847.85	230.435
848.15	500.000
848.44	342.857
848.74	211.111
849.04	311.765
849.34	490.000
849.63	252.632
849.93	354.545
850.23	980.000
850.53	428.571
850.82	2050.000
851.12	-4400.000
851.42	3600.000
851.71	315.000
852.01	-1100.000
852.31	254.167
852.61	1933.333
852.90	271.429
853.20	216.000
853.50	305.882
853.79	266.667
854.09	208.333
854.39	306.250
854.68	159.459
854.98	183.871
855.28	173.333
855.57	234.483
855.87	174.074
856.17	231.579
856.46	246.667
856.76	270.588
857.05	179.310
857.35	216.667
857.65	386.667
857.94	234.783
858.24	211.538
858.53	260.000
858.83	222.727
859.13	373.333
859.42	0.000
859.72	488.889
860.01	436.364
860.31	236.364
860.60	284.211
860.90	221.739
861.20	555.556
861.49	500.000
861.79	-5000.000
862.08	675.000
862.38	290.476
862.67	330.769
862.97	364.706
863.26	577.778
863.56	261.111
863.85	425.000
864.15	500.000
864.44	346.667
864.74	700.000
865.03	687.500
865.33	252.632
865.62	481.818
865.92	415.385
866.21	358.333
866.51	0.000
866.80	436.364
867.10	1180.000
867.39	407.692
867.69	490.909
867.98	284.211
868.27	445.455
868.57	284.211
868.86	-3300.000
869.16	293.750
869.45	2450.000
869.75	-5100.000
870.04	391.667
870.33	628.571
870.63	1100.000
870.92	2650.000
871.22	771.429
871.51	358.824
871.80	195.238
872.10	407.143
>>>>>End Processed Spectral Data<<<<<
