SpectraSuite Data File
++++++++++++++++++++++++++++++++++++
Date: Wed May 13 16:49:09 PDT 2015
User: schluterlab
Dark Spectrum Present: Yes
Reference Spectrum Present: Yes
Number of Sampled Component Spectra: 1
Spectrometers: USB2E3373
Integration Time (usec): 3000 (USB2E3373)
Spectra Averaged: 3 (USB2E3373)
Boxcar Smoothing: 0 (USB2E3373)
Correct for Electrical Dark: No (USB2E3373)
Strobe/Lamp Enabled: No (USB2E3373)
Correct for Detector Non-linearity: No (USB2E3373)
Correct for Stray Light: No (USB2E3373)
Number of Pixels in Processed Spectrum: 2048
>>>>>Begin Processed Spectral Data<<<<<
178.53	0.000
178.91	-1175.000
179.29	-1575.000
179.67	-183.333
180.04	-1225.000
180.42	2750.000
180.80	800.000
181.18	-1100.000
181.56	742.857
181.94	0.000
182.31	-600.000
182.69	1600.000
183.07	-587.500
183.45	-466.667
183.83	518.182
184.20	-390.000
184.58	2250.000
184.96	5000.000
185.34	-960.000
185.72	-550.000
186.09	-2200.000
186.47	2600.000
186.85	2650.000
187.23	4100.000
187.61	-1633.333
187.98	1300.000
188.36	545.455
188.74	545.455
189.12	-900.000
189.49	630.000
189.87	-4700.000
190.25	-1225.000
190.63	392.857
191.00	492.308
191.38	733.333
191.76	-1225.000
192.14	1525.000
192.51	625.000
192.89	900.000
193.27	637.500
193.65	-975.000
194.02	500.000
194.40	900.000
194.78	560.000
195.15	525.000
195.53	720.000
195.91	-2100.000
196.29	337.500
196.66	310.526
197.04	-380.000
197.42	0.000
197.79	630.000
198.17	-3900.000
198.55	671.429
198.92	537.500
199.30	880.000
199.68	0.000
200.05	333.333
200.43	628.571
200.81	3300.000
201.18	1466.667
201.56	-1333.333
201.94	577.778
202.31	544.444
202.69	391.667
203.07	560.000
203.44	0.000
203.82	1375.000
204.19	842.857
204.57	392.857
204.95	537.500
205.32	1366.667
205.70	509.091
206.08	342.857
206.45	2100.000
206.83	337.500
207.20	916.667
207.58	620.000
207.96	394.444
208.33	725.000
208.71	-833.333
209.08	828.571
209.46	555.556
209.84	409.091
210.21	-1533.333
210.59	1325.000
210.96	-487.500
211.34	2000.000
211.71	630.000
212.09	533.333
212.46	0.000
212.84	1566.667
213.22	1450.000
213.59	-4100.000
213.97	800.000
214.34	785.714
214.72	472.727
215.09	1000.000
215.47	-1850.000
215.84	-2350.000
216.22	1400.000
216.59	407.143
216.97	1375.000
217.34	409.091
217.72	-700.000
218.09	0.000
218.47	-3900.000
218.84	588.889
219.22	800.000
219.59	1366.667
219.97	-728.571
220.34	840.000
220.72	-1900.000
221.09	385.714
221.47	1550.000
221.84	-950.000
222.22	0.000
222.59	1225.000
222.97	-2200.000
223.34	1280.000
223.72	476.923
224.09	1080.000
224.46	2400.000
224.84	-5300.000
225.21	-860.000
225.59	-4700.000
225.96	520.000
226.34	250.000
226.71	2850.000
227.08	562.500
227.46	510.000
227.83	-1175.000
228.21	-2250.000
228.58	644.444
228.95	-2200.000
229.33	-2150.000
229.70	1300.000
230.08	700.000
230.45	-800.000
230.82	391.667
231.20	850.000
231.57	585.714
231.95	375.000
232.32	227.273
232.69	354.545
233.07	614.286
233.44	338.462
233.81	-1733.333
234.19	263.158
234.56	450.000
234.93	341.667
235.31	463.636
235.68	353.846
236.05	364.286
236.43	178.788
236.80	231.579
237.17	3600.000
237.55	228.571
237.92	157.143
238.29	209.524
238.67	154.839
239.04	179.310
239.41	119.444
239.79	93.478
240.16	107.143
240.53	86.364
240.91	98.039
241.28	84.000
241.65	76.000
242.02	79.710
242.40	59.677
242.77	68.333
243.14	58.065
243.51	61.798
243.89	54.118
244.26	53.333
244.63	48.387
245.00	42.553
245.38	43.564
245.75	40.187
246.12	37.615
246.49	40.876
246.87	52.000
247.24	33.077
247.61	35.000
247.98	35.294
248.36	24.324
248.73	33.758
249.10	32.484
249.47	25.424
249.84	33.155
250.22	29.412
250.59	23.077
250.96	28.283
251.33	27.488
251.70	28.713
252.08	23.333
252.45	20.179
252.82	21.304
253.19	26.383
253.56	25.882
253.94	22.822
254.31	24.219
254.68	21.154
255.05	19.557
255.42	18.699
255.79	22.794
256.16	22.022
256.54	18.375
256.91	22.420
257.28	16.187
257.65	15.842
258.02	21.118
258.39	18.612
258.76	15.050
259.14	16.964
259.51	15.502
259.88	12.733
260.25	14.502
260.62	16.474
260.99	13.354
261.36	16.517
261.73	15.473
262.10	14.244
262.47	17.465
262.85	11.699
263.22	13.675
263.59	18.234
263.96	13.187
264.33	15.405
264.70	13.947
265.07	14.578
265.44	11.616
265.81	13.869
266.18	13.317
266.55	10.732
266.92	12.776
267.29	12.731
267.66	13.303
268.03	13.864
268.40	12.850
268.77	10.501
269.14	12.387
269.51	12.415
269.88	13.986
270.25	11.287
270.62	12.135
270.99	14.194
271.36	13.305
271.73	11.449
272.10	9.783
272.47	11.828
272.84	13.853
273.21	12.788
273.58	12.009
273.95	10.063
274.32	10.744
274.69	10.064
275.06	8.465
275.43	10.638
275.80	11.623
276.17	12.016
276.54	11.642
276.91	10.672
277.28	8.984
277.65	12.186
278.02	10.352
278.39	10.742
278.76	10.182
279.13	11.321
279.50	10.801
279.87	11.554
280.23	11.776
280.60	10.058
280.97	7.024
281.34	10.619
281.71	11.091
282.08	7.869
282.45	8.000
282.82	10.480
283.19	8.556
283.56	11.228
283.92	9.983
284.29	9.524
284.66	10.163
285.03	8.680
285.40	8.451
285.77	8.249
286.14	9.672
286.51	10.000
286.87	7.692
287.24	10.098
287.61	8.507
287.98	9.253
288.35	9.350
288.72	9.813
289.08	10.798
289.45	7.578
289.82	9.268
290.19	8.320
290.56	8.576
290.93	6.495
291.29	8.896
291.66	8.407
292.03	10.901
292.40	10.573
292.77	7.840
293.13	8.657
293.50	9.913
293.87	9.333
294.24	6.815
294.60	5.822
294.97	10.029
295.34	9.027
295.71	8.097
296.08	6.695
296.44	8.528
296.81	7.266
297.18	9.350
297.55	5.541
297.91	8.179
298.28	9.505
298.65	8.486
299.02	8.432
299.38	7.171
299.75	6.739
300.12	6.897
300.48	7.125
300.85	7.398
301.22	6.879
301.59	6.944
301.95	8.690
302.32	7.317
302.69	7.168
303.05	7.394
303.42	6.914
303.79	7.588
304.15	5.245
304.52	7.068
304.89	6.156
305.25	5.800
305.62	7.022
305.99	7.438
306.35	7.159
306.72	6.726
307.09	6.992
307.45	8.333
307.82	5.804
308.19	6.512
308.55	7.443
308.92	6.552
309.29	6.547
309.65	5.726
310.02	7.188
310.38	5.699
310.75	6.336
311.12	6.960
311.48	7.106
311.85	7.338
312.22	6.972
312.58	7.069
312.95	6.864
313.31	5.340
313.68	6.237
314.05	8.185
314.41	6.533
314.78	6.143
315.14	6.554
315.51	5.664
315.87	5.941
316.24	6.554
316.61	6.530
316.97	5.969
317.34	4.795
317.70	5.927
318.07	5.871
318.43	5.969
318.80	6.842
319.16	5.744
319.53	7.317
319.89	6.952
320.26	7.300
320.62	6.052
320.99	7.677
321.35	6.162
321.72	6.468
322.08	6.614
322.45	7.164
322.81	7.461
323.18	7.514
323.54	7.050
323.91	7.358
324.27	6.501
324.64	5.592
325.00	6.312
325.37	6.278
325.73	6.822
326.10	7.061
326.46	5.645
326.83	6.816
327.19	6.319
327.56	6.185
327.92	5.774
328.29	6.744
328.65	6.630
329.01	6.859
329.38	6.846
329.74	6.371
330.11	5.655
330.47	6.336
330.84	8.180
331.20	6.102
331.56	6.330
331.93	6.481
332.29	6.566
332.66	7.168
333.02	6.124
333.38	6.414
333.75	7.487
334.11	7.295
334.48	6.921
334.84	6.342
335.20	6.364
335.57	6.346
335.93	5.089
336.29	5.678
336.66	5.951
337.02	5.158
337.38	6.481
337.75	5.882
338.11	6.356
338.47	5.064
338.84	5.683
339.20	4.862
339.56	7.117
339.93	6.000
340.29	6.522
340.65	5.704
341.02	7.243
341.38	6.050
341.74	5.000
342.11	6.288
342.47	6.256
342.83	6.678
343.20	5.541
343.56	5.729
343.92	5.351
344.28	5.697
344.65	6.621
345.01	5.640
345.37	5.146
345.73	6.261
346.10	5.797
346.46	6.102
346.82	5.766
347.19	5.597
347.55	5.008
347.91	5.906
348.27	7.149
348.63	5.100
349.00	6.392
349.36	5.665
349.72	4.972
350.08	6.078
350.45	6.265
350.81	5.280
351.17	6.078
351.53	5.405
351.89	4.785
352.26	6.235
352.62	6.897
352.98	6.159
353.34	6.245
353.70	4.910
354.07	6.290
354.43	4.603
354.79	5.953
355.15	4.948
355.51	5.915
355.87	5.796
356.24	6.026
356.60	5.213
356.96	4.827
357.32	5.969
357.68	5.984
358.04	5.622
358.40	6.572
358.77	6.573
359.13	4.736
359.49	5.176
359.85	4.841
360.21	4.864
360.57	5.759
360.93	5.923
361.29	5.064
361.66	5.031
362.02	5.970
362.38	5.856
362.74	5.655
363.10	4.885
363.46	4.842
363.82	5.518
364.18	5.653
364.54	6.538
364.90	5.878
365.26	5.588
365.62	5.698
365.98	4.821
366.35	4.441
366.71	5.351
367.07	5.171
367.43	5.152
367.79	6.638
368.15	6.394
368.51	4.724
368.87	5.924
369.23	6.364
369.59	5.938
369.95	4.779
370.31	6.410
370.67	4.928
371.03	6.142
371.39	5.831
371.75	5.662
372.11	5.477
372.47	5.792
372.83	5.908
373.19	5.202
373.55	5.026
373.91	6.186
374.27	5.017
374.63	4.218
374.99	5.650
375.35	4.885
375.71	4.866
376.07	6.516
376.42	5.227
376.78	5.964
377.14	5.834
377.50	5.894
377.86	4.854
378.22	6.131
378.58	4.449
378.94	5.594
379.30	4.962
379.66	5.964
380.02	6.081
380.38	4.675
380.74	6.122
381.09	6.112
381.45	5.962
381.81	6.450
382.17	5.796
382.53	5.723
382.89	5.494
383.25	5.441
383.61	5.514
383.97	5.066
384.32	5.802
384.68	5.514
385.04	6.208
385.40	5.015
385.76	5.835
386.12	5.505
386.48	6.986
386.83	6.158
387.19	6.741
387.55	5.071
387.91	5.865
388.27	5.089
388.62	6.085
388.98	5.160
389.34	6.383
389.70	6.683
390.06	6.591
390.42	5.966
390.77	6.679
391.13	6.190
391.49	7.487
391.85	6.174
392.20	6.372
392.56	6.187
392.92	5.650
393.28	5.148
393.64	7.014
393.99	6.781
394.35	6.328
394.71	6.023
395.07	6.044
395.42	6.489
395.78	6.552
396.14	6.269
396.50	6.579
396.85	7.057
397.21	6.412
397.57	6.324
397.92	6.310
398.28	5.493
398.64	6.750
399.00	6.100
399.35	6.261
399.71	6.134
400.07	7.096
400.42	7.362
400.78	6.996
401.14	6.280
401.49	6.269
401.85	6.352
402.21	6.108
402.57	5.799
402.92	6.936
403.28	6.871
403.63	6.621
403.99	6.752
404.35	6.545
404.70	5.755
405.06	6.581
405.42	6.862
405.77	5.886
406.13	5.926
406.49	6.564
406.84	6.911
407.20	6.087
407.55	6.190
407.91	6.600
408.27	6.126
408.62	6.321
408.98	6.250
409.34	6.704
409.69	6.452
410.05	6.258
410.40	6.911
410.76	5.974
411.11	6.996
411.47	6.134
411.83	6.903
412.18	6.184
412.54	6.040
412.89	7.048
413.25	6.257
413.60	6.238
413.96	6.132
414.31	6.501
414.67	7.034
415.03	5.430
415.38	7.410
415.74	7.203
416.09	6.009
416.45	7.095
416.80	6.345
417.16	6.971
417.51	6.835
417.87	6.487
418.22	6.562
418.58	7.295
418.93	6.572
419.29	6.365
419.64	7.179
420.00	6.890
420.35	7.188
420.71	7.173
421.06	6.563
421.42	6.491
421.77	6.895
422.12	6.120
422.48	5.505
422.83	6.989
423.19	6.630
423.54	6.326
423.90	6.841
424.25	7.035
424.61	6.726
424.96	6.122
425.31	6.811
425.67	6.798
426.02	6.971
426.38	6.899
426.73	6.144
427.09	6.748
427.44	6.498
427.79	6.958
428.15	7.619
428.50	6.319
428.85	7.032
429.21	5.964
429.56	6.376
429.92	6.895
430.27	5.958
430.62	6.400
430.98	6.383
431.33	6.701
431.68	6.859
432.04	7.401
432.39	6.568
432.74	6.523
433.10	6.961
433.45	7.055
433.80	6.707
434.16	6.410
434.51	6.105
434.86	7.184
435.22	7.282
435.57	6.383
435.92	7.022
436.28	7.117
436.63	7.340
436.98	6.983
437.34	6.798
437.69	7.060
438.04	6.745
438.39	6.687
438.75	6.798
439.10	6.983
439.45	6.198
439.81	6.344
440.16	7.228
440.51	7.323
440.86	6.948
441.22	7.508
441.57	6.635
441.92	6.397
442.27	6.889
442.63	6.846
442.98	7.549
443.33	7.011
443.68	7.124
444.03	6.491
444.39	5.599
444.74	7.197
445.09	7.008
445.44	6.670
445.79	6.828
446.15	7.041
446.50	6.839
446.85	6.629
447.20	6.476
447.55	6.756
447.91	7.281
448.26	6.733
448.61	7.123
448.96	7.087
449.31	7.030
449.66	7.316
450.02	5.571
450.37	7.029
450.72	6.543
451.07	6.216
451.42	7.234
451.77	7.575
452.12	7.275
452.47	6.965
452.83	7.401
453.18	7.274
453.53	6.865
453.88	6.615
454.23	7.292
454.58	7.268
454.93	7.311
455.28	6.858
455.63	6.796
455.98	7.262
456.34	7.161
456.69	7.451
457.04	7.616
457.39	7.013
457.74	6.732
458.09	7.591
458.44	6.842
458.79	6.020
459.14	7.223
459.49	7.414
459.84	6.814
460.19	6.246
460.54	7.060
460.89	6.857
461.24	7.286
461.59	7.263
461.94	7.028
462.29	7.656
462.64	7.658
462.99	7.482
463.34	7.733
463.69	7.129
464.04	7.014
464.39	7.826
464.74	7.071
465.09	7.057
465.44	7.147
465.79	6.432
466.14	7.663
466.49	7.564
466.84	7.764
467.19	7.604
467.54	7.250
467.89	7.443
468.24	7.213
468.59	7.753
468.94	7.086
469.29	7.134
469.64	7.697
469.99	8.187
470.34	7.530
470.68	7.830
471.03	8.095
471.38	7.783
471.73	7.129
472.08	7.829
472.43	6.972
472.78	7.110
473.13	7.895
473.48	8.489
473.83	6.951
474.17	6.721
474.52	7.816
474.87	8.231
475.22	7.081
475.57	6.663
475.92	6.691
476.27	6.595
476.61	6.453
476.96	6.817
477.31	6.907
477.66	6.400
478.01	6.639
478.36	7.509
478.70	6.542
479.05	6.869
479.40	6.909
479.75	6.863
480.10	6.014
480.45	6.663
480.79	6.832
481.14	6.703
481.49	7.072
481.84	6.676
482.19	6.588
482.53	6.881
482.88	6.282
483.23	6.495
483.58	7.097
483.92	6.842
484.27	6.144
484.62	6.250
484.97	5.952
485.31	5.822
485.66	5.261
486.01	4.772
486.36	4.657
486.70	4.685
487.05	4.917
487.40	5.184
487.75	5.531
488.09	6.127
488.44	5.804
488.79	6.148
489.13	6.723
489.48	5.750
489.83	5.870
490.17	6.401
490.52	6.023
490.87	5.834
491.22	6.958
491.56	5.923
491.91	6.282
492.26	6.706
492.60	6.452
492.95	5.893
493.30	6.075
493.64	6.440
493.99	6.082
494.34	6.244
494.68	6.777
495.03	7.096
495.37	6.887
495.72	6.579
496.07	6.636
496.41	6.416
496.76	6.816
497.11	5.898
497.45	6.847
497.80	6.382
498.14	5.700
498.49	6.341
498.84	6.472
499.18	6.429
499.53	6.838
499.87	6.617
500.22	6.265
500.56	7.136
500.91	6.490
501.26	6.638
501.60	6.550
501.95	6.462
502.29	6.607
502.64	7.030
502.98	6.592
503.33	6.216
503.67	7.378
504.02	7.109
504.36	6.972
504.71	6.448
505.06	7.422
505.40	6.806
505.75	6.316
506.09	6.560
506.44	6.463
506.78	6.917
507.13	6.512
507.47	7.222
507.82	6.687
508.16	7.194
508.51	7.357
508.85	7.051
509.19	6.276
509.54	7.041
509.88	6.852
510.23	7.044
510.57	7.740
510.92	7.302
511.26	7.143
511.61	6.691
511.95	7.098
512.30	6.840
512.64	7.308
512.98	7.663
513.33	8.030
513.67	6.724
514.02	6.981
514.36	7.755
514.70	7.250
515.05	6.860
515.39	7.347
515.74	7.320
516.08	7.658
516.42	7.547
516.77	7.860
517.11	6.937
517.46	7.957
517.80	7.491
518.14	7.643
518.49	7.876
518.83	7.955
519.17	7.794
519.52	7.640
519.86	7.644
520.20	8.208
520.55	7.720
520.89	7.786
521.23	8.806
521.58	7.863
521.92	7.961
522.26	7.688
522.61	7.103
522.95	7.796
523.29	8.764
523.64	8.415
523.98	8.133
524.32	8.082
524.66	8.539
525.01	7.904
525.35	7.807
525.69	7.820
526.04	8.100
526.38	7.627
526.72	7.914
527.06	8.161
527.41	7.673
527.75	7.717
528.09	8.671
528.43	8.540
528.78	8.420
529.12	7.455
529.46	8.512
529.80	8.045
530.15	7.913
530.49	7.323
530.83	8.291
531.17	9.008
531.51	9.339
531.86	8.710
532.20	8.735
532.54	9.289
532.88	8.087
533.22	8.495
533.57	7.901
533.91	8.007
534.25	8.566
534.59	8.054
534.93	8.031
535.27	8.268
535.62	8.364
535.96	8.161
536.30	7.756
536.64	8.757
536.98	8.295
537.32	7.637
537.66	8.200
538.01	8.492
538.35	8.662
538.69	8.743
539.03	7.797
539.37	7.668
539.71	7.194
540.05	8.235
540.39	9.037
540.73	7.956
541.07	8.306
541.42	8.871
541.76	9.161
542.10	9.056
542.44	7.947
542.78	9.354
543.12	7.742
543.46	8.590
543.80	8.328
544.14	8.151
544.48	8.381
544.82	8.339
545.16	8.979
545.50	9.062
545.84	7.863
546.18	8.552
546.52	8.878
546.86	8.110
547.20	8.631
547.54	8.216
547.88	9.311
548.22	7.721
548.56	8.553
548.90	8.195
549.24	7.677
549.58	8.390
549.92	8.448
550.26	7.670
550.60	8.437
550.94	7.746
551.28	8.120
551.62	8.843
551.96	7.579
552.30	9.556
552.64	8.654
552.98	8.881
553.32	8.699
553.66	8.725
554.00	8.991
554.34	8.972
554.68	9.585
555.02	9.732
555.36	7.585
555.69	8.593
556.03	8.412
556.37	9.277
556.71	7.981
557.05	8.403
557.39	7.978
557.73	8.963
558.07	8.774
558.41	9.045
558.75	8.891
559.08	9.769
559.42	8.088
559.76	9.412
560.10	7.994
560.44	9.294
560.78	8.383
561.12	9.235
561.45	8.735
561.79	8.438
562.13	7.780
562.47	9.290
562.81	8.368
563.15	8.629
563.48	7.958
563.82	8.284
564.16	8.306
564.50	7.943
564.84	7.901
565.17	7.722
565.51	8.115
565.85	8.947
566.19	7.890
566.52	8.043
566.86	6.872
567.20	8.078
567.54	7.877
567.88	7.170
568.21	8.519
568.55	7.937
568.89	7.296
569.23	7.041
569.56	6.478
569.90	6.302
570.24	6.602
570.57	6.460
570.91	5.979
571.25	6.146
571.59	6.244
571.92	5.991
572.26	6.268
572.60	6.216
572.93	6.177
573.27	6.448
573.61	6.198
573.95	6.021
574.28	5.905
574.62	5.734
574.96	5.496
575.29	5.674
575.63	5.843
575.97	5.493
576.30	6.160
576.64	5.787
576.98	5.834
577.31	5.453
577.65	5.755
577.98	5.287
578.32	5.183
578.66	5.367
578.99	5.547
579.33	5.495
579.67	5.473
580.00	5.466
580.34	5.553
580.67	5.672
581.01	5.757
581.35	5.339
581.68	5.524
582.02	5.003
582.35	5.335
582.69	5.325
583.02	5.482
583.36	5.649
583.70	5.495
584.03	5.747
584.37	6.245
584.70	5.825
585.04	5.871
585.37	5.825
585.71	6.062
586.04	5.968
586.38	5.643
586.72	6.407
587.05	5.651
587.39	5.409
587.72	6.132
588.06	5.683
588.39	6.145
588.73	5.896
589.06	5.890
589.40	6.027
589.73	6.512
590.07	6.655
590.40	6.248
590.73	6.753
591.07	6.593
591.40	7.212
591.74	7.100
592.07	7.373
592.41	7.110
592.74	6.442
593.08	6.596
593.41	6.580
593.75	6.309
594.08	6.101
594.41	6.363
594.75	6.433
595.08	6.514
595.42	6.585
595.75	6.197
596.09	6.722
596.42	6.916
596.75	7.176
597.09	7.792
597.42	6.619
597.75	7.288
598.09	7.348
598.42	6.787
598.76	6.323
599.09	6.537
599.42	6.295
599.76	6.808
600.09	6.630
600.42	6.428
600.76	6.500
601.09	6.521
601.42	6.317
601.76	6.793
602.09	6.285
602.42	7.285
602.76	6.973
603.09	6.491
603.42	6.755
603.76	6.784
604.09	6.979
604.42	6.563
604.76	7.550
605.09	7.296
605.42	6.883
605.75	7.119
606.09	6.059
606.42	6.048
606.75	6.761
607.09	7.242
607.42	6.761
607.75	6.329
608.08	6.687
608.42	7.396
608.75	7.169
609.08	6.938
609.41	7.187
609.75	7.337
610.08	7.446
610.41	6.518
610.74	6.623
611.07	7.312
611.41	7.507
611.74	7.441
612.07	7.660
612.40	7.503
612.73	7.158
613.07	7.166
613.40	7.583
613.73	6.765
614.06	7.258
614.39	7.236
614.72	7.474
615.06	7.773
615.39	6.582
615.72	7.311
616.05	6.645
616.38	7.171
616.71	7.482
617.05	8.127
617.38	7.637
617.71	6.907
618.04	8.233
618.37	7.924
618.70	7.903
619.03	8.355
619.36	8.079
619.69	7.535
620.03	8.242
620.36	8.757
620.69	9.384
621.02	7.891
621.35	8.614
621.68	7.866
622.01	8.282
622.34	8.699
622.67	8.213
623.00	8.511
623.33	8.578
623.66	8.077
623.99	8.984
624.32	8.060
624.65	7.839
624.99	8.428
625.32	7.241
625.65	8.565
625.98	9.147
626.31	9.176
626.64	8.898
626.97	8.894
627.30	7.731
627.63	8.532
627.96	8.242
628.29	8.749
628.62	9.332
628.95	10.755
629.28	10.310
629.61	10.357
629.94	10.190
630.26	9.342
630.59	9.819
630.92	9.291
631.25	8.786
631.58	10.310
631.91	10.041
632.24	9.599
632.57	11.123
632.90	9.539
633.23	10.515
633.56	10.282
633.89	10.646
634.22	9.762
634.55	11.834
634.88	9.701
635.20	11.589
635.53	11.446
635.86	10.396
636.19	10.000
636.52	10.842
636.85	10.997
637.18	10.138
637.51	11.229
637.83	9.248
638.16	12.020
638.49	10.076
638.82	13.274
639.15	9.875
639.48	11.721
639.81	11.394
640.13	12.891
640.46	12.617
640.79	10.700
641.12	10.316
641.45	11.453
641.77	12.518
642.10	13.304
642.43	10.661
642.76	12.074
643.09	13.190
643.41	11.229
643.74	13.735
644.07	11.585
644.40	14.877
644.73	13.701
645.05	14.739
645.38	10.900
645.71	14.493
646.04	13.123
646.36	13.022
646.69	14.548
647.02	12.925
647.35	13.230
647.67	13.628
648.00	14.472
648.33	12.541
648.66	12.727
648.98	13.343
649.31	11.958
649.64	11.809
649.96	12.370
650.29	12.954
650.62	14.078
650.94	14.100
651.27	13.007
651.60	13.145
651.92	14.696
652.25	12.378
652.58	13.396
652.90	14.060
653.23	11.094
653.56	12.598
653.88	12.044
654.21	13.428
654.54	9.241
654.86	11.682
655.19	10.946
655.52	6.097
655.84	4.062
656.17	5.137
656.49	6.695
656.82	6.705
657.15	5.292
657.47	3.955
657.80	3.223
658.13	3.287
658.45	5.376
658.78	5.425
659.10	5.920
659.43	6.059
659.75	7.414
660.08	7.342
660.41	9.404
660.73	11.817
661.06	11.465
661.38	16.364
661.71	12.692
662.03	14.398
662.36	10.537
662.68	13.855
663.01	16.364
663.33	16.348
663.66	15.126
663.98	15.767
664.31	14.286
664.63	13.563
664.96	12.274
665.28	15.574
665.61	14.425
665.93	12.072
666.26	13.793
666.58	15.481
666.91	16.490
667.23	14.607
667.56	15.335
667.88	16.239
668.21	15.139
668.53	13.666
668.86	15.801
669.18	17.910
669.50	14.565
669.83	17.211
670.15	15.333
670.48	13.943
670.80	15.302
671.13	14.437
671.45	14.894
671.77	15.275
672.10	14.787
672.42	13.958
672.75	12.604
673.07	12.148
673.39	12.658
673.72	12.109
674.04	12.549
674.37	14.369
674.69	12.474
675.01	14.226
675.34	16.632
675.66	18.316
675.98	15.682
676.31	17.227
676.63	15.499
676.95	15.723
677.28	14.019
677.60	15.604
677.92	17.511
678.25	13.758
678.57	12.151
678.89	14.429
679.22	12.967
679.54	15.076
679.86	15.046
680.18	13.775
680.51	13.830
680.83	14.413
681.15	12.642
681.48	16.257
681.80	13.733
682.12	13.027
682.44	13.153
682.77	15.682
683.09	17.597
683.41	18.404
683.73	14.790
684.06	18.388
684.38	13.894
684.70	14.535
685.02	12.570
685.34	14.103
685.67	11.014
685.99	12.371
686.31	12.287
686.63	11.837
686.96	11.786
687.28	14.440
687.60	13.406
687.92	14.991
688.24	14.449
688.56	15.261
688.89	17.427
689.21	15.502
689.53	16.493
689.85	13.969
690.17	15.321
690.49	15.924
690.82	15.654
691.14	14.509
691.46	16.034
691.78	14.257
692.10	14.050
692.42	14.172
692.74	13.278
693.06	13.617
693.39	14.784
693.71	13.755
694.03	14.526
694.35	13.636
694.67	16.934
694.99	17.317
695.31	17.892
695.63	15.789
695.95	14.914
696.27	13.198
696.59	14.508
696.91	20.466
697.23	15.493
697.56	15.778
697.88	11.656
698.20	16.875
698.52	15.269
698.84	14.254
699.16	15.668
699.48	14.727
699.80	17.150
700.12	19.740
700.44	17.772
700.76	17.680
701.08	17.241
701.40	18.994
701.72	19.242
702.04	20.455
702.36	18.980
702.68	17.564
703.00	16.066
703.32	14.894
703.64	18.499
703.96	17.270
704.28	17.733
704.60	19.648
704.91	17.507
705.23	22.874
705.55	18.937
705.87	21.595
706.19	20.141
706.51	20.249
706.83	23.636
707.15	17.087
707.47	15.909
707.79	17.690
708.11	16.210
708.43	15.476
708.74	16.327
709.06	17.143
709.38	16.535
709.70	22.965
710.02	19.288
710.34	18.182
710.66	17.015
710.98	20.739
711.29	16.860
711.61	18.289
711.93	18.910
712.25	21.222
712.57	19.853
712.89	21.799
713.20	18.237
713.52	21.053
713.84	18.987
714.16	17.683
714.48	15.805
714.80	21.277
715.11	18.156
715.43	17.507
715.75	20.580
716.07	19.808
716.39	18.809
716.70	19.601
717.02	24.101
717.34	19.081
717.66	23.507
717.97	26.295
718.29	21.111
718.61	21.898
718.93	23.897
719.24	20.069
719.56	17.966
719.88	18.983
720.20	22.297
720.51	21.603
720.83	18.216
721.15	24.254
721.46	25.177
721.78	23.297
722.10	22.642
722.42	22.932
722.73	20.225
723.05	21.721
723.37	17.409
723.68	25.869
724.00	20.732
724.32	27.823
724.63	21.545
724.95	20.502
725.27	21.862
725.58	23.438
725.90	23.723
726.22	18.868
726.53	20.139
726.85	20.819
727.16	24.911
727.48	23.759
727.80	21.970
728.11	23.551
728.43	20.000
728.74	18.996
729.06	24.818
729.38	27.574
729.69	23.843
730.01	17.747
730.32	18.056
730.64	16.722
730.96	16.502
731.27	18.874
731.59	22.324
731.90	20.117
732.22	14.907
732.53	17.337
732.85	22.436
733.16	18.650
733.48	18.272
733.80	18.831
734.11	21.975
734.43	18.935
734.74	16.286
735.06	14.327
735.37	22.254
735.69	14.650
736.00	23.856
736.32	20.872
736.63	19.489
736.95	22.684
737.26	9.864
737.58	20.645
737.89	22.408
738.21	22.184
738.52	21.071
738.83	20.000
739.15	21.538
739.46	26.277
739.78	19.444
740.09	20.615
740.41	23.226
740.72	20.557
741.04	22.593
741.35	23.750
741.66	27.111
741.98	20.283
742.29	25.837
742.61	28.879
742.92	25.339
743.23	21.368
743.55	24.800
743.86	24.123
744.18	29.646
744.49	26.316
744.80	21.127
745.12	27.727
745.43	24.229
745.74	27.477
746.06	26.606
746.37	27.803
746.68	25.339
747.00	29.630
747.31	29.524
747.62	26.106
747.94	25.991
748.25	22.979
748.56	22.026
748.88	25.248
749.19	27.000
749.50	26.977
749.82	19.919
750.13	22.857
750.44	21.168
750.75	22.456
751.07	24.116
751.38	24.390
751.69	19.495
752.01	24.060
752.32	22.022
752.63	22.340
752.94	22.541
753.26	26.400
753.57	19.512
753.88	23.047
754.19	23.571
754.51	22.917
754.82	21.300
755.13	25.660
755.44	23.308
755.75	21.533
756.07	22.340
756.38	17.153
756.69	18.792
757.00	22.156
757.31	17.211
757.63	19.883
757.94	16.354
758.25	14.216
758.56	13.333
758.87	15.591
759.18	16.061
759.50	20.376
759.81	18.069
760.12	19.375
760.43	20.344
760.74	16.304
761.05	18.927
761.36	17.112
761.67	19.034
761.99	19.255
762.30	19.097
762.61	22.901
762.92	27.344
763.23	23.529
763.54	27.600
763.85	24.219
764.16	27.692
764.47	20.532
764.78	18.728
765.10	18.038
765.41	19.469
765.72	20.060
766.03	18.495
766.34	18.667
766.65	27.660
766.96	23.077
767.27	29.442
767.58	32.812
767.89	31.053
768.20	29.310
768.51	26.396
768.82	34.404
769.13	21.138
769.44	24.291
769.75	28.326
770.06	17.431
770.37	25.339
770.68	27.778
770.99	28.889
771.30	18.033
771.61	28.251
771.92	25.410
772.23	25.630
772.54	23.590
772.85	31.414
773.16	30.319
773.47	33.696
773.78	35.025
774.09	35.119
774.39	29.825
774.70	32.716
775.01	32.609
775.32	41.830
775.63	40.789
775.94	31.655
776.25	42.520
776.56	41.791
776.87	38.525
777.18	38.281
777.48	44.275
777.79	43.182
778.10	42.222
778.41	42.857
778.72	34.307
779.03	40.268
779.34	34.228
779.65	31.757
779.95	41.718
780.26	36.601
780.57	41.379
780.88	40.625
781.19	34.586
781.50	43.243
781.80	30.818
782.11	33.898
782.42	36.076
782.73	29.448
783.04	39.189
783.34	35.915
783.65	41.781
783.96	41.045
784.27	29.371
784.57	33.813
784.88	38.889
785.19	50.000
785.50	45.283
785.81	48.507
786.11	45.902
786.42	46.512
786.73	46.018
787.04	47.170
787.34	48.214
787.65	56.000
787.96	47.748
788.26	47.107
788.57	40.678
788.88	46.281
789.19	45.139
789.49	46.970
789.80	41.221
790.11	58.095
790.41	62.376
790.72	50.602
791.03	52.174
791.33	56.977
791.64	51.546
791.95	61.386
792.25	67.778
792.56	67.532
792.87	76.923
793.17	75.949
793.48	56.322
793.79	51.724
794.09	59.091
794.40	47.899
794.70	47.059
795.01	26.667
795.32	40.288
795.62	48.031
795.93	38.793
796.23	50.442
796.54	49.412
796.85	64.865
797.15	80.282
797.46	71.212
797.76	73.494
798.07	58.228
798.37	67.692
798.68	65.152
798.99	60.563
799.29	61.039
799.60	54.545
799.90	65.753
800.21	76.119
800.51	60.345
800.82	91.228
801.12	68.852
801.43	81.818
801.73	68.919
802.04	87.302
802.34	69.136
802.65	85.938
802.95	93.220
803.26	92.188
803.56	71.429
803.87	69.231
804.17	75.000
804.48	92.593
804.78	72.414
805.09	82.353
805.39	78.846
805.70	91.071
806.00	91.803
806.30	66.667
806.61	68.293
806.91	49.367
807.22	73.684
807.52	62.687
807.83	80.282
808.13	71.875
808.43	85.000
808.74	72.368
809.04	79.710
809.35	91.045
809.65	78.947
809.95	106.452
810.26	83.051
810.56	90.476
810.86	125.000
811.17	123.810
811.47	98.333
811.77	90.741
812.08	92.727
812.38	102.000
812.69	130.556
812.99	120.455
813.29	116.327
813.59	83.333
813.90	102.041
814.20	83.636
814.50	63.077
814.81	95.588
815.11	106.122
815.41	98.361
815.72	126.190
816.02	107.273
816.32	109.524
816.62	100.000
816.93	121.951
817.23	126.190
817.53	104.545
817.84	151.515
818.14	126.087
818.44	122.222
818.74	152.941
819.04	115.000
819.35	128.571
819.65	170.588
819.95	171.429
820.25	185.000
820.56	151.282
820.86	113.636
821.16	120.930
821.46	120.513
821.76	122.000
822.07	145.714
822.37	122.500
822.67	139.394
822.97	103.922
823.27	182.143
823.57	124.324
823.88	157.500
824.18	176.667
824.48	135.714
824.78	196.000
825.08	175.000
825.38	137.838
825.69	95.122
825.99	216.667
826.29	155.172
826.59	139.474
826.89	131.579
827.19	144.118
827.49	174.194
827.79	138.636
828.09	122.727
828.39	108.511
828.70	110.204
829.00	159.259
829.30	129.032
829.60	127.500
829.90	213.333
830.20	175.000
830.50	200.000
830.80	178.261
831.10	173.333
831.40	170.000
831.70	191.304
832.00	223.077
832.30	203.704
832.60	343.750
832.90	203.333
833.20	364.286
833.50	167.742
833.80	172.414
834.10	234.375
834.40	196.154
834.70	216.667
835.00	271.429
835.30	140.000
835.60	369.231
835.90	189.655
836.20	242.857
836.50	144.828
836.80	132.000
837.10	161.111
837.40	242.857
837.70	335.294
838.00	162.963
838.30	176.190
838.60	276.190
838.90	215.385
839.19	225.000
839.49	335.714
839.79	285.000
840.09	230.000
840.39	223.810
840.69	221.739
840.99	255.556
841.29	390.000
841.59	308.333
841.88	287.500
842.18	175.862
842.48	276.190
842.78	163.333
843.08	239.130
843.38	178.125
843.68	683.333
843.97	250.000
844.27	179.310
844.57	276.190
844.87	318.750
845.17	166.667
845.47	1566.667
845.76	488.889
846.06	305.882
846.36	387.500
846.66	357.143
846.96	331.250
847.25	309.091
847.55	327.273
847.85	239.130
848.15	460.000
848.44	335.714
848.74	211.111
849.04	270.588
849.34	500.000
849.63	257.895
849.93	390.909
850.23	980.000
850.53	335.714
850.82	2200.000
851.12	-4900.000
851.42	4100.000
851.71	290.000
852.01	-1133.333
852.31	262.500
852.61	1533.333
852.90	228.571
853.20	216.000
853.50	264.706
853.79	238.095
854.09	204.167
854.39	281.250
854.68	159.459
854.98	154.839
855.28	143.333
855.57	196.552
855.87	188.889
856.17	263.158
856.46	186.667
856.76	317.647
857.05	200.000
857.35	220.833
857.65	313.333
857.94	252.174
858.24	219.231
858.53	215.000
858.83	272.727
859.13	333.333
859.42	0.000
859.72	577.778
860.01	427.273
860.31	231.818
860.60	257.895
860.90	230.435
861.20	544.444
861.49	475.000
861.79	-3400.000
862.08	550.000
862.38	261.905
862.67	400.000
862.97	288.235
863.26	500.000
863.56	205.556
863.85	416.667
864.15	525.000
864.44	346.667
864.74	866.667
865.03	775.000
865.33	278.947
865.62	454.545
865.92	369.231
866.21	383.333
866.51	0.000
866.80	409.091
867.10	1140.000
867.39	415.385
867.69	481.818
867.98	273.684
868.27	400.000
868.57	263.158
868.86	-4400.000
869.16	337.500
869.45	2000.000
869.75	-4100.000
870.04	400.000
870.33	657.143
870.63	1100.000
870.92	2700.000
871.22	714.286
871.51	288.235
871.80	233.333
872.10	407.143
>>>>>End Processed Spectral Data<<<<<
