SpectraSuite Data File
++++++++++++++++++++++++++++++++++++
Date: Wed May 13 16:25:10 PDT 2015
User: schluterlab
Dark Spectrum Present: Yes
Reference Spectrum Present: Yes
Number of Sampled Component Spectra: 1
Spectrometers: USB2E3373
Integration Time (usec): 3000 (USB2E3373)
Spectra Averaged: 3 (USB2E3373)
Boxcar Smoothing: 0 (USB2E3373)
Correct for Electrical Dark: No (USB2E3373)
Strobe/Lamp Enabled: No (USB2E3373)
Correct for Detector Non-linearity: No (USB2E3373)
Correct for Stray Light: No (USB2E3373)
Number of Pixels in Processed Spectrum: 2048
>>>>>Begin Processed Spectral Data<<<<<
178.53	0.000
178.91	-1250.000
179.29	-1250.000
179.67	-238.889
180.04	-1150.000
180.42	2450.000
180.80	1000.000
181.18	-1100.000
181.56	671.429
181.94	0.000
182.31	-685.714
182.69	1633.333
183.07	-587.500
183.45	-455.556
183.83	490.909
184.20	-400.000
184.58	2250.000
184.96	4800.000
185.34	-760.000
185.72	-550.000
186.09	-2450.000
186.47	2700.000
186.85	2450.000
187.23	4700.000
187.61	-1566.667
187.98	1250.000
188.36	545.455
188.74	545.455
189.12	-800.000
189.49	560.000
189.87	-4700.000
190.25	-1000.000
190.63	442.857
191.00	415.385
191.38	900.000
191.76	-1000.000
192.14	1425.000
192.51	612.500
192.89	850.000
193.27	575.000
193.65	-1150.000
194.02	480.000
194.40	780.000
194.78	500.000
195.15	450.000
195.53	630.000
195.91	-1950.000
196.29	356.250
196.66	278.947
197.04	-410.000
197.42	0.000
197.79	620.000
198.17	-5000.000
198.55	571.429
198.92	600.000
199.30	960.000
199.68	0.000
200.05	272.222
200.43	814.286
200.81	4300.000
201.18	1866.667
201.56	-1766.667
201.94	588.889
202.31	644.444
202.69	466.667
203.07	510.000
203.44	0.000
203.82	1025.000
204.19	800.000
204.57	421.429
204.95	662.500
205.32	1566.667
205.70	500.000
206.08	385.714
206.45	2200.000
206.83	337.500
207.20	933.333
207.58	740.000
207.96	261.111
208.33	612.500
208.71	-733.333
209.08	785.714
209.46	644.444
209.84	454.545
210.21	-1500.000
210.59	1400.000
210.96	-512.500
211.34	2600.000
211.71	590.000
212.09	800.000
212.46	0.000
212.84	1466.667
213.22	1275.000
213.59	-4500.000
213.97	916.667
214.34	757.143
214.72	554.545
215.09	1060.000
215.47	-2250.000
215.84	-2800.000
216.22	1600.000
216.59	385.714
216.97	1175.000
217.34	518.182
217.72	-633.333
218.09	0.000
218.47	-3200.000
218.84	666.667
219.22	742.857
219.59	1666.667
219.97	-657.143
220.34	880.000
220.72	-1800.000
221.09	414.286
221.47	1600.000
221.84	-866.667
222.22	0.000
222.59	1400.000
222.97	-2550.000
223.34	1180.000
223.72	430.769
224.09	1080.000
224.46	2100.000
224.84	-5900.000
225.21	-960.000
225.59	-4500.000
225.96	600.000
226.34	325.000
226.71	2600.000
227.08	562.500
227.46	500.000
227.83	-900.000
228.21	-2050.000
228.58	622.222
228.95	-2250.000
229.33	-1700.000
229.70	1766.667
230.08	785.714
230.45	-760.000
230.82	400.000
231.20	800.000
231.57	671.429
231.95	425.000
232.32	259.091
232.69	427.273
233.07	700.000
233.44	346.154
233.81	-1566.667
234.19	247.368
234.56	441.667
234.93	383.333
235.31	518.182
235.68	307.692
236.05	335.714
236.43	142.424
236.80	236.842
237.17	4500.000
237.55	247.619
237.92	189.286
238.29	190.476
238.67	151.613
239.04	186.207
239.41	127.778
239.79	102.174
240.16	116.667
240.53	113.636
240.91	90.196
241.28	114.000
241.65	102.000
242.02	78.261
242.40	74.194
242.77	80.000
243.14	60.215
243.51	73.034
243.89	67.059
244.26	57.778
244.63	60.215
245.00	62.766
245.38	57.426
245.75	54.206
246.12	49.541
246.49	60.584
246.87	54.400
247.24	43.846
247.61	40.000
247.98	41.176
248.36	29.054
248.73	40.127
249.10	44.586
249.47	32.203
249.84	36.898
250.22	38.503
250.59	34.911
250.96	33.333
251.33	33.649
251.70	32.673
252.08	29.048
252.45	28.251
252.82	25.652
253.19	31.489
253.56	30.196
253.94	28.631
254.31	26.172
254.68	27.308
255.05	30.258
255.42	25.610
255.79	23.897
256.16	29.242
256.54	21.555
256.91	28.470
257.28	19.784
257.65	23.762
258.02	23.292
258.39	24.290
258.76	22.408
259.14	23.810
259.51	23.708
259.88	22.360
260.25	21.752
260.62	22.832
260.99	22.360
261.36	20.120
261.73	22.636
262.10	18.314
262.47	22.254
262.85	20.613
263.22	19.658
263.59	23.647
263.96	20.604
264.33	21.149
264.70	20.789
265.07	20.460
265.44	18.434
265.81	18.978
266.18	18.844
266.55	17.805
266.92	20.885
267.29	18.981
267.66	17.202
268.03	21.364
268.40	19.860
268.77	18.138
269.14	16.892
269.51	20.316
269.88	18.648
270.25	17.156
270.62	18.652
270.99	19.140
271.36	19.528
271.73	19.626
272.10	17.391
272.47	19.570
272.84	19.481
273.21	22.013
273.58	15.502
273.95	16.143
274.32	15.496
274.69	17.131
275.06	17.126
275.43	18.298
275.80	17.836
276.17	18.534
276.54	18.503
276.91	18.182
277.28	16.406
277.65	16.441
278.02	16.770
278.39	20.312
278.76	16.364
279.13	17.170
279.50	16.387
279.87	15.936
280.23	14.970
280.60	16.441
280.97	15.157
281.34	15.398
281.71	16.545
282.08	18.234
282.45	15.818
282.82	15.631
283.19	13.012
283.56	16.316
283.92	16.074
284.29	15.344
284.66	15.426
285.03	15.371
285.40	15.669
285.77	14.141
286.14	16.408
286.51	15.500
286.87	15.043
287.24	15.472
287.61	14.928
287.98	13.474
288.35	14.739
288.72	13.863
289.08	14.397
289.45	14.333
289.82	13.659
290.19	13.658
290.56	14.395
290.93	12.991
291.29	14.877
291.66	14.012
292.03	14.390
292.40	14.097
292.77	13.018
293.13	12.836
293.50	13.994
293.87	13.333
294.24	13.778
294.60	11.936
294.97	12.791
295.34	12.412
295.71	14.347
296.08	12.678
296.44	12.517
296.81	12.946
297.18	13.550
297.55	10.026
297.91	11.609
298.28	13.655
298.65	12.402
299.02	13.307
299.38	12.085
299.75	10.108
300.12	11.239
300.48	12.500
300.85	11.591
301.22	10.573
301.59	11.869
301.95	13.224
302.32	12.709
302.69	10.275
303.05	12.727
303.42	12.222
303.79	11.552
304.15	9.907
304.52	10.081
304.89	11.034
305.25	10.673
305.62	12.458
305.99	12.515
306.35	9.508
306.72	11.211
307.09	12.320
307.45	12.725
307.82	9.710
308.19	10.817
308.55	12.729
308.92	11.708
309.29	10.665
309.65	10.604
310.02	10.571
310.38	11.398
310.75	10.665
311.12	12.897
311.48	12.226
311.85	12.474
312.22	10.406
312.58	12.058
312.95	11.404
313.31	10.874
313.68	11.850
314.05	14.793
314.41	13.568
314.78	13.192
315.14	12.115
315.51	13.491
315.87	14.356
316.24	12.711
316.61	13.158
316.97	13.405
317.34	12.329
317.70	14.436
318.07	13.763
318.43	14.579
318.80	15.745
319.16	14.878
319.53	14.822
319.89	16.667
320.26	16.000
320.62	15.278
320.99	17.778
321.35	17.172
321.72	18.172
322.08	18.164
322.45	20.199
322.81	19.767
323.18	20.713
323.54	19.944
323.91	21.038
324.27	22.084
324.64	20.876
325.00	22.092
325.37	22.839
325.73	26.122
326.10	25.243
326.46	25.090
326.83	26.143
327.19	27.327
327.56	27.352
327.92	28.171
328.29	29.104
328.65	29.190
329.01	30.505
329.38	31.175
329.74	31.302
330.11	30.914
330.47	31.497
330.84	33.180
331.20	31.512
331.56	32.569
331.93	32.870
332.29	32.564
332.66	33.628
333.02	33.638
333.38	34.056
333.75	33.512
334.11	34.075
334.48	34.960
334.84	34.007
335.20	35.545
335.57	35.993
335.93	33.036
336.29	34.799
336.66	35.437
337.02	34.027
337.38	34.815
337.75	35.116
338.11	34.825
338.47	36.096
338.84	35.655
339.20	35.688
339.56	36.405
339.93	35.455
340.29	35.779
340.65	36.364
341.02	35.777
341.38	36.210
341.74	36.228
342.11	37.205
342.47	36.828
342.83	35.788
343.20	37.403
343.56	35.552
343.92	36.404
344.28	36.820
344.65	36.457
345.01	35.438
345.37	35.506
345.73	35.871
346.10	35.294
346.46	36.441
346.82	35.173
347.19	36.341
347.55	35.222
347.91	36.893
348.27	35.168
348.63	36.204
349.00	36.003
349.36	35.961
349.72	36.247
350.08	35.089
350.45	37.754
350.81	35.743
351.17	36.872
351.53	35.545
351.89	35.396
352.26	36.859
352.62	37.049
352.98	37.520
353.34	36.401
353.70	36.825
354.07	36.371
354.43	34.921
354.79	35.961
355.15	36.472
355.51	37.010
355.87	36.163
356.24	36.482
356.60	34.964
356.96	36.605
357.32	37.122
357.68	36.850
358.04	37.292
358.40	36.580
358.77	36.228
359.13	35.201
359.49	36.627
359.85	35.952
360.21	37.640
360.57	37.821
360.93	37.923
361.29	36.961
361.66	36.068
362.02	37.463
362.38	37.719
362.74	36.235
363.10	36.195
363.46	36.464
363.82	36.206
364.18	37.665
364.54	37.073
364.90	37.110
365.26	37.574
365.62	37.619
365.98	37.400
366.35	36.246
366.71	37.310
367.07	37.363
367.43	37.663
367.79	38.473
368.15	38.506
368.51	37.645
368.87	37.901
369.23	38.771
369.59	39.102
369.95	38.382
370.31	38.248
370.67	37.899
371.03	38.876
371.39	38.630
371.75	38.750
372.11	38.407
372.47	40.029
372.83	40.346
373.19	39.162
373.55	40.059
373.91	40.280
374.27	38.832
374.63	39.273
374.99	40.325
375.35	40.754
375.71	39.685
376.07	39.986
376.42	40.440
376.78	39.828
377.14	40.299
377.50	41.060
377.86	39.960
378.22	40.518
378.58	41.103
378.94	42.175
379.30	41.094
379.66	41.815
380.02	41.953
380.38	40.073
380.74	41.837
381.09	40.831
381.45	42.717
381.81	41.769
382.17	42.166
382.53	41.509
382.89	43.580
383.25	41.776
383.61	42.565
383.97	41.401
384.32	42.358
384.68	41.326
385.04	41.979
385.40	41.672
385.76	42.199
386.12	42.358
386.48	43.801
386.83	44.003
387.19	43.723
387.55	42.486
387.91	42.443
388.27	42.305
388.62	43.208
388.98	42.260
389.34	42.365
389.70	42.367
390.06	43.790
390.42	43.969
390.77	43.448
391.13	43.267
391.49	44.036
391.85	43.094
392.20	42.208
392.56	42.803
392.92	43.025
393.28	43.077
393.64	43.405
393.99	43.494
394.35	43.921
394.71	42.974
395.07	43.302
395.42	44.129
395.78	42.875
396.14	42.520
396.50	43.860
396.85	43.229
397.21	43.711
397.57	43.211
397.92	43.389
398.28	42.713
398.64	42.413
399.00	42.641
399.35	42.696
399.71	43.403
400.07	43.170
400.42	42.577
400.78	42.400
401.14	42.988
401.49	43.821
401.85	43.073
402.21	42.814
402.57	43.800
402.92	42.875
403.28	43.161
403.63	42.946
403.99	43.248
404.35	41.879
404.70	42.866
405.06	42.574
405.42	42.608
405.77	42.057
406.13	41.422
406.49	42.933
406.84	43.414
407.20	41.135
407.55	42.502
407.91	43.133
408.27	43.650
408.62	42.143
408.98	42.279
409.34	42.312
409.69	43.742
410.05	42.379
410.40	42.080
410.76	41.637
411.11	41.435
411.47	42.173
411.83	41.539
412.18	41.744
412.54	42.154
412.89	41.687
413.25	42.267
413.60	41.631
413.96	41.044
414.31	42.831
414.67	42.142
415.03	43.179
415.38	41.108
415.74	41.736
416.09	43.893
416.45	41.566
416.80	43.159
417.16	42.761
417.51	41.274
417.87	41.811
418.22	43.470
418.58	42.608
418.93	42.015
419.29	42.457
419.64	41.562
420.00	42.317
420.35	41.623
420.71	41.423
421.06	42.064
421.42	41.345
421.77	41.928
422.12	41.718
422.48	41.176
422.83	42.458
423.19	41.878
423.54	41.381
423.90	42.435
424.25	42.658
424.61	41.607
424.96	42.682
425.31	42.359
425.67	40.787
426.02	42.057
426.38	42.674
426.73	41.194
427.09	42.857
427.44	43.358
427.79	42.726
428.15	43.571
428.50	42.891
428.85	42.610
429.21	42.960
429.56	42.872
429.92	42.124
430.27	41.857
430.62	42.089
430.98	41.567
431.33	41.753
431.68	42.356
432.04	41.800
432.39	42.604
432.74	44.285
433.10	42.841
433.45	43.149
433.80	43.237
434.16	43.750
434.51	41.684
434.86	42.816
435.22	42.746
435.57	43.161
435.92	42.949
436.28	43.654
436.63	42.439
436.98	42.587
437.34	43.232
437.69	43.932
438.04	43.732
438.39	44.239
438.75	43.463
439.10	43.799
439.45	43.684
439.81	43.988
440.16	42.405
440.51	43.761
440.86	43.544
441.22	43.548
441.57	43.206
441.92	43.859
442.27	43.272
442.63	42.707
442.98	44.113
443.33	42.011
443.68	44.140
444.03	42.899
444.39	43.379
444.74	42.641
445.09	44.313
445.44	42.373
445.79	43.345
446.15	43.145
446.50	42.919
446.85	43.063
447.20	43.702
447.55	44.556
447.91	43.629
448.26	43.294
448.61	44.488
448.96	42.636
449.31	43.926
449.66	42.994
450.02	42.953
450.37	42.404
450.72	43.316
451.07	41.804
451.42	43.222
451.77	43.100
452.12	42.552
452.47	44.030
452.83	43.182
453.18	42.359
453.53	44.156
453.88	43.060
454.23	43.694
454.58	43.852
454.93	45.264
455.28	42.706
455.63	43.386
455.98	44.464
456.34	44.661
456.69	43.770
457.04	44.892
457.39	42.665
457.74	42.716
458.09	43.358
458.44	43.501
458.79	42.354
459.14	44.244
459.49	43.724
459.84	43.767
460.19	42.487
460.54	41.725
460.89	43.061
461.24	43.230
461.59	44.044
461.94	43.218
462.29	43.145
462.64	41.927
462.99	41.705
463.34	42.933
463.69	43.527
464.04	42.957
464.39	43.362
464.74	42.721
465.09	42.220
465.44	42.548
465.79	43.233
466.14	42.419
466.49	42.214
466.84	42.440
467.19	42.909
467.54	42.812
467.89	42.497
468.24	42.467
468.59	43.468
468.94	42.272
469.29	44.602
469.64	44.846
469.99	44.520
470.34	43.395
470.68	44.612
471.03	42.925
471.38	45.240
471.73	44.104
472.08	43.553
472.43	42.839
472.78	42.923
473.13	42.683
473.48	42.385
473.83	43.232
474.17	43.435
474.52	42.494
474.87	42.907
475.22	43.877
475.57	41.805
475.92	42.061
476.27	41.657
476.61	42.416
476.96	42.991
477.31	43.014
477.66	43.326
478.01	40.669
478.36	42.940
478.70	41.485
479.05	41.960
479.40	42.631
479.75	42.857
480.10	42.744
480.45	40.647
480.79	41.089
481.14	41.977
481.49	42.762
481.84	41.381
482.19	41.754
482.53	42.385
482.88	41.554
483.23	41.589
483.58	41.811
483.92	41.893
484.27	40.479
484.62	41.121
484.97	41.230
485.31	41.986
485.66	40.560
486.01	38.817
486.36	37.013
486.70	36.493
487.05	37.077
487.40	38.509
487.75	39.951
488.09	39.854
488.44	40.761
488.79	41.121
489.13	42.055
489.48	40.987
489.83	41.606
490.17	41.605
490.52	41.010
490.87	41.248
491.22	40.655
491.56	39.590
491.91	41.554
492.26	41.112
492.60	41.751
492.95	40.225
493.30	41.168
493.64	40.971
493.99	41.086
494.34	40.472
494.68	40.797
495.03	41.541
495.37	40.437
495.72	41.423
496.07	41.021
496.41	40.177
496.76	40.501
497.11	40.747
497.45	40.801
497.80	40.979
498.14	40.773
498.49	41.317
498.84	41.083
499.18	40.667
499.53	40.646
499.87	40.494
500.22	40.320
500.56	41.262
500.91	39.952
501.26	41.679
501.60	41.196
501.95	40.009
502.29	41.284
502.64	41.108
502.98	40.299
503.33	39.808
503.67	40.046
504.02	40.271
504.36	40.711
504.71	41.866
505.06	41.012
505.40	41.031
505.75	39.778
506.09	39.893
506.44	40.454
506.78	40.477
507.13	41.141
507.47	40.101
507.82	42.553
508.16	40.324
508.51	41.045
508.85	39.325
509.19	41.480
509.54	40.867
509.88	40.392
510.23	40.411
510.57	41.589
510.92	41.895
511.26	41.829
511.61	41.286
511.95	40.605
512.30	40.668
512.64	40.408
512.98	41.586
513.33	41.060
513.67	40.555
514.02	41.613
514.36	41.617
514.70	41.395
515.05	40.881
515.39	41.503
515.74	41.610
516.08	41.420
516.42	41.176
516.77	41.695
517.11	40.788
517.46	41.366
517.80	42.334
518.14	41.054
518.49	41.540
518.83	41.648
519.17	41.397
519.52	41.426
519.86	41.415
520.20	41.965
520.55	42.310
520.89	41.667
521.23	43.366
521.58	41.357
521.92	40.784
522.26	39.719
522.61	43.302
522.95	41.375
523.29	41.631
523.64	42.317
523.98	42.144
524.32	41.074
524.66	41.431
525.01	41.544
525.35	40.582
525.69	41.810
526.04	41.184
526.38	41.245
526.72	40.859
527.06	41.306
527.41	40.037
527.75	41.929
528.09	42.582
528.43	41.428
528.78	41.733
529.12	40.485
529.46	42.315
529.80	41.213
530.15	41.807
530.49	40.431
530.83	41.582
531.17	42.167
531.51	42.412
531.86	42.581
532.20	42.634
532.54	42.281
532.88	41.528
533.22	39.663
533.57	41.296
533.91	40.277
534.25	40.522
534.59	40.390
534.93	40.393
535.27	41.340
535.62	41.270
535.96	41.620
536.30	40.242
536.64	41.082
536.98	40.013
537.32	41.804
537.66	41.400
538.01	41.277
538.35	40.595
538.69	41.098
539.03	39.961
539.37	39.042
539.71	39.857
540.05	41.307
540.39	40.731
540.73	39.133
541.07	40.558
541.42	41.161
541.76	41.032
542.10	40.944
542.44	40.728
542.78	42.424
543.12	39.283
543.46	41.377
543.80	40.599
544.14	40.244
544.48	41.587
544.82	40.282
545.16	40.013
545.50	40.103
545.84	39.516
546.18	40.673
546.52	41.087
546.86	40.893
547.20	40.931
547.54	39.546
547.88	40.753
548.22	40.224
548.56	38.302
548.90	39.373
549.24	40.539
549.58	40.177
549.92	40.728
550.26	40.838
550.60	39.142
550.94	41.127
551.28	39.576
551.62	41.265
551.96	39.789
552.30	40.956
552.64	40.297
552.98	40.610
553.32	40.526
553.66	40.354
554.00	40.494
554.34	39.614
554.68	42.275
555.02	40.480
555.36	39.875
555.69	39.107
556.03	39.637
556.37	40.859
556.71	39.563
557.05	40.126
557.39	40.028
557.73	40.932
558.07	40.609
558.41	40.159
558.75	40.558
559.08	40.865
559.42	41.345
559.76	40.441
560.10	39.615
560.44	38.854
560.78	39.521
561.12	37.995
561.45	39.700
561.79	38.167
562.13	39.705
562.47	41.120
562.81	39.819
563.15	39.064
563.48	39.523
563.82	38.421
564.16	39.765
564.50	38.867
564.84	37.863
565.17	38.803
565.51	39.169
565.85	39.023
566.19	38.572
566.52	39.645
566.86	38.577
567.20	39.033
567.54	39.098
567.88	37.371
568.21	37.937
568.55	38.069
568.89	37.354
569.23	37.389
569.56	36.761
569.90	35.962
570.24	34.876
570.57	35.056
570.91	34.615
571.25	34.280
571.59	34.315
571.92	34.677
572.26	34.315
572.60	34.745
572.93	34.333
573.27	34.783
573.61	34.813
573.95	34.703
574.28	33.769
574.62	33.333
574.96	33.357
575.29	33.414
575.63	33.206
575.97	34.210
576.30	34.121
576.64	33.536
576.98	34.127
577.31	33.688
577.65	34.028
577.98	33.394
578.32	32.585
578.66	33.291
578.99	33.349
579.33	33.430
579.67	33.179
580.00	33.877
580.34	33.792
580.67	33.656
581.01	33.888
581.35	33.340
581.68	33.439
582.02	32.727
582.35	32.839
582.69	32.897
583.02	32.392
583.36	33.502
583.70	33.841
584.03	34.013
584.37	34.677
584.70	34.483
585.04	33.390
585.37	33.434
585.71	33.623
586.04	33.511
586.38	34.065
586.72	34.189
587.05	33.795
587.39	33.536
587.72	33.677
588.06	33.431
588.39	33.635
588.73	34.204
589.06	34.808
589.40	34.646
589.73	34.565
590.07	34.982
590.40	33.942
590.73	35.675
591.07	36.182
591.40	35.639
591.74	35.411
592.07	35.777
592.41	34.890
592.74	34.794
593.08	34.144
593.41	34.483
593.75	32.417
594.08	33.389
594.41	34.252
594.75	34.381
595.08	34.860
595.42	34.816
595.75	34.437
596.09	34.923
596.42	34.499
596.75	35.120
597.09	35.974
597.42	34.739
597.75	34.886
598.09	35.435
598.42	34.794
598.76	34.779
599.09	34.360
599.42	33.515
599.76	33.529
600.09	33.370
600.42	33.893
600.76	34.143
601.09	33.370
601.42	33.409
601.76	34.042
602.09	34.980
602.42	33.957
602.76	35.228
603.09	35.366
603.42	34.440
603.76	33.537
604.09	34.083
604.42	34.203
604.76	34.374
605.09	34.644
605.42	34.716
605.75	34.520
606.09	34.892
606.42	34.409
606.75	34.674
607.09	35.287
607.42	34.574
607.75	33.460
608.08	34.564
608.42	34.827
608.75	33.634
609.08	33.950
609.41	35.269
609.75	34.874
610.08	34.260
610.41	35.009
610.74	34.532
611.07	35.672
611.41	34.446
611.74	35.194
612.07	35.818
612.40	36.149
612.73	35.053
613.07	35.453
613.40	35.334
613.73	34.872
614.06	34.516
614.39	34.504
614.72	34.368
615.06	34.716
615.39	35.722
615.72	35.378
616.05	34.503
616.38	35.686
616.71	35.451
617.05	36.690
617.38	34.937
617.71	35.195
618.04	36.418
618.37	35.068
618.70	35.968
619.03	36.711
619.36	36.253
619.69	37.254
620.03	37.431
620.36	36.631
620.69	36.986
621.02	36.652
621.35	37.040
621.68	36.215
622.01	37.229
622.34	37.216
622.67	37.947
623.00	36.537
623.33	36.383
623.66	37.956
623.99	36.524
624.32	36.662
624.65	37.076
624.99	35.836
625.32	36.061
625.65	36.965
625.98	37.202
626.31	36.003
626.64	37.306
626.97	38.321
627.30	36.658
627.63	37.900
627.96	38.856
628.29	37.533
628.62	38.152
628.95	40.094
629.28	38.230
629.61	38.955
629.94	38.762
630.26	38.132
630.59	37.846
630.92	37.835
631.25	38.796
631.58	38.438
631.91	40.061
632.24	38.186
632.57	39.349
632.90	39.474
633.23	39.933
633.56	41.243
633.89	39.071
634.22	40.522
634.55	42.130
634.88	40.359
635.20	41.099
635.53	40.843
635.86	41.832
636.19	40.353
636.52	40.254
636.85	40.435
637.18	38.364
637.51	40.898
637.83	36.868
638.16	40.921
638.49	39.924
638.82	41.972
639.15	39.625
639.48	41.771
639.81	41.153
640.13	42.839
640.46	40.671
640.79	40.687
641.12	40.303
641.45	40.503
641.77	45.361
642.10	41.959
642.43	40.991
642.76	40.557
643.09	42.791
643.41	42.337
643.74	44.599
644.07	42.530
644.40	45.399
644.73	43.465
645.05	43.423
645.38	42.022
645.71	42.512
646.04	45.349
646.36	45.242
646.69	41.973
647.02	44.388
647.35	43.814
647.67	45.133
648.00	41.789
648.33	43.564
648.66	41.061
648.98	42.279
649.31	41.555
649.64	38.266
649.96	41.431
650.29	41.390
650.62	41.586
650.94	41.491
651.27	44.088
651.60	42.263
651.92	40.895
652.25	40.879
652.58	41.900
652.90	39.652
653.23	39.137
653.56	41.102
653.88	39.937
654.21	42.180
654.54	42.409
654.86	40.810
655.19	37.973
655.52	27.914
655.84	24.720
656.17	31.884
656.49	42.902
656.82	43.796
657.15	33.353
657.47	24.898
657.80	19.484
658.13	20.392
658.45	31.193
658.78	32.067
659.10	33.536
659.43	35.739
659.75	37.159
660.08	39.684
660.41	43.296
660.73	44.981
661.06	42.675
661.38	44.182
661.71	43.269
662.03	44.970
662.36	42.942
662.68	42.169
663.01	45.455
663.33	44.586
663.66	42.227
663.98	41.469
664.31	42.647
664.63	43.117
664.96	42.656
665.28	44.467
665.61	43.080
665.93	42.455
666.26	43.813
666.58	43.724
666.91	43.975
667.23	45.169
667.56	42.981
667.88	44.017
668.21	43.070
668.53	42.516
668.86	43.939
669.18	45.629
669.50	43.261
669.83	46.187
670.15	46.222
670.48	42.266
670.80	43.319
671.13	45.011
671.45	42.128
671.77	41.548
672.10	41.959
672.42	38.339
672.75	39.967
673.07	39.261
673.39	41.230
673.72	41.211
674.04	42.745
674.37	40.971
674.69	43.149
675.01	42.050
675.34	43.943
675.66	44.842
675.98	44.196
676.31	44.748
676.63	43.737
676.95	42.558
677.28	42.757
677.60	40.879
677.92	42.827
678.25	41.273
678.57	42.231
678.89	42.084
679.22	42.240
679.54	38.550
679.86	39.083
680.18	38.462
680.51	40.426
680.83	39.680
681.15	41.887
681.48	41.021
681.80	40.232
682.12	42.337
682.44	38.491
682.77	41.955
683.09	45.708
683.41	42.794
683.73	43.709
684.06	42.149
684.38	38.160
684.70	40.310
685.02	42.214
685.34	38.645
685.67	39.161
685.99	37.629
686.31	39.420
686.63	36.926
686.96	37.321
687.28	39.170
687.60	38.587
687.92	40.219
688.24	37.262
688.56	40.562
688.89	43.361
689.21	41.921
689.53	42.380
689.85	45.011
690.17	37.888
690.49	41.826
690.82	41.822
691.14	40.402
691.46	40.717
691.78	40.964
692.10	40.496
692.42	41.916
692.74	38.797
693.06	41.277
693.39	41.273
693.71	44.105
694.03	40.842
694.35	39.610
694.67	39.588
694.99	44.390
695.31	42.647
695.63	41.866
695.95	43.032
696.27	41.117
696.59	43.782
696.91	42.487
697.23	39.202
697.56	40.938
697.88	38.650
698.20	37.917
698.52	38.710
698.84	42.762
699.16	41.935
699.48	41.568
699.80	41.304
700.12	50.130
700.44	44.032
700.76	44.199
701.08	46.552
701.40	44.693
701.72	45.190
702.04	47.159
702.36	43.909
702.68	44.476
703.00	42.659
703.32	38.830
703.64	44.504
703.96	43.733
704.28	42.151
704.60	47.507
704.91	45.697
705.23	43.695
705.55	49.169
705.87	49.834
706.19	46.643
706.51	48.287
706.83	43.636
707.15	43.417
707.47	39.646
707.79	43.243
708.11	40.183
708.43	40.000
708.74	41.582
709.06	41.299
709.38	44.094
709.70	45.640
710.02	44.214
710.34	44.242
710.66	45.970
710.98	45.170
711.29	41.279
711.61	47.198
711.93	46.474
712.25	48.232
712.57	46.691
712.89	44.291
713.20	45.289
713.52	48.684
713.84	42.405
714.16	43.902
714.48	43.966
714.80	48.632
715.11	42.363
715.43	43.323
715.75	44.058
716.07	44.728
716.39	44.201
716.70	50.166
717.02	49.640
717.34	46.290
717.66	47.015
717.97	52.191
718.29	46.667
718.61	45.985
718.93	45.956
719.24	43.253
719.56	44.068
719.88	48.475
720.20	46.959
720.51	43.902
720.83	50.186
721.15	44.030
721.46	44.326
721.78	49.104
722.10	49.057
722.42	51.880
722.73	47.566
723.05	45.902
723.37	45.749
723.68	45.560
724.00	47.967
724.32	46.371
724.63	46.341
724.95	44.351
725.27	47.368
725.58	48.047
725.90	43.066
726.22	46.038
726.53	45.486
726.85	45.734
727.16	43.060
727.48	45.745
727.80	48.864
728.11	41.304
728.43	48.462
728.74	40.143
729.06	50.000
729.38	47.794
729.69	46.263
730.01	46.416
730.32	43.403
730.64	41.472
730.96	41.254
731.27	45.033
731.59	40.979
731.90	41.691
732.22	43.789
732.53	39.009
732.85	41.667
733.16	42.765
733.48	45.515
733.80	41.558
734.11	42.675
734.43	42.308
734.74	42.571
735.06	38.109
735.37	41.040
735.69	41.720
736.00	46.732
736.32	44.548
736.63	42.173
736.95	44.409
737.26	37.415
737.58	40.968
737.89	43.813
738.21	45.051
738.52	43.929
738.83	45.283
739.15	44.615
739.46	42.701
739.78	39.931
740.09	39.385
740.41	45.806
740.72	42.857
741.04	47.037
741.35	44.583
741.66	51.556
741.98	44.340
742.29	55.024
742.61	51.293
742.92	42.081
743.23	42.735
743.55	44.400
743.86	46.053
744.18	52.212
744.49	50.718
744.80	56.338
745.12	54.091
745.43	51.542
745.74	50.450
746.06	46.789
746.37	48.430
746.68	51.131
747.00	51.389
747.31	50.952
747.62	43.805
747.94	50.661
748.25	41.277
748.56	48.458
748.88	47.525
749.19	56.500
749.50	50.233
749.82	48.780
750.13	47.755
750.44	40.511
750.75	42.456
751.07	44.051
751.38	41.115
751.69	43.682
752.01	44.361
752.32	44.043
752.63	42.553
752.94	50.000
753.26	49.600
753.57	43.902
753.88	42.578
754.19	41.786
754.51	45.833
754.82	35.379
755.13	41.132
755.44	45.489
755.75	39.051
756.07	41.844
756.38	39.416
756.69	42.617
757.00	37.425
757.31	36.202
757.63	37.135
757.94	33.780
758.25	38.480
758.56	34.815
758.87	37.366
759.18	43.030
759.50	40.439
759.81	37.695
760.12	38.750
760.43	38.395
760.74	35.054
761.05	37.853
761.36	37.701
761.67	40.909
761.99	38.820
762.30	40.278
762.61	43.130
762.92	44.141
763.23	42.437
763.54	49.200
763.85	41.797
764.16	46.923
764.47	45.627
764.78	39.576
765.10	37.658
765.41	41.298
765.72	39.222
766.03	37.618
766.34	41.333
766.65	48.511
766.96	45.299
767.27	52.792
767.58	49.479
767.89	51.053
768.20	58.621
768.51	46.193
768.82	51.376
769.13	43.902
769.44	45.344
769.75	47.639
770.06	43.578
770.37	46.154
770.68	43.981
770.99	44.444
771.30	36.475
771.61	45.740
771.92	45.492
772.23	50.000
772.54	54.359
772.85	52.880
773.16	49.468
773.47	51.087
773.78	50.254
774.09	51.190
774.39	53.801
774.70	51.235
775.01	57.246
775.32	62.745
775.63	59.211
775.94	61.871
776.25	66.142
776.56	60.448
776.87	68.033
777.18	58.594
777.48	64.122
777.79	65.152
778.10	56.296
778.41	73.214
778.72	54.015
779.03	55.705
779.34	55.705
779.65	53.378
779.95	57.669
780.26	58.170
780.57	57.931
780.88	64.844
781.19	61.654
781.50	55.405
781.80	50.943
782.11	48.588
782.42	50.000
782.73	52.147
783.04	60.811
783.34	60.563
783.65	62.329
783.96	61.940
784.27	57.343
784.57	51.799
784.88	58.333
785.19	74.603
785.50	66.038
785.81	67.164
786.11	59.016
786.42	61.240
786.73	60.177
787.04	67.925
787.34	62.500
787.65	81.000
787.96	72.973
788.26	64.463
788.57	59.322
788.88	67.769
789.19	60.417
789.49	56.818
789.80	57.252
790.11	79.048
790.41	65.347
790.72	77.108
791.03	82.609
791.33	83.721
791.64	68.041
791.95	76.238
792.25	63.333
792.56	85.714
792.87	91.026
793.17	101.266
793.48	81.609
793.79	79.310
794.09	79.545
794.40	63.866
794.70	61.765
795.01	51.111
795.32	56.835
795.62	59.055
795.93	68.966
796.23	64.602
796.54	68.235
796.85	85.135
797.15	90.141
797.46	92.424
797.76	83.133
798.07	87.342
798.37	90.769
798.68	71.212
798.99	83.099
799.29	84.416
799.60	65.909
799.90	104.110
800.21	94.030
800.51	94.828
800.82	112.281
801.12	98.361
801.43	98.485
801.73	83.784
802.04	98.413
802.34	82.716
802.65	87.500
802.95	110.169
803.26	93.750
803.56	80.000
803.87	121.538
804.17	92.647
804.48	125.926
804.78	98.276
805.09	92.647
805.39	105.769
805.70	107.143
806.00	103.279
806.30	89.394
806.61	85.366
806.91	72.152
807.22	82.895
807.52	89.552
807.83	94.366
808.13	104.688
808.43	108.333
808.74	72.368
809.04	84.058
809.35	94.030
809.65	88.158
809.95	119.355
810.26	98.305
810.56	92.063
810.86	150.000
811.17	126.190
811.47	105.000
811.77	101.852
812.08	109.091
812.38	130.000
812.69	166.667
812.99	154.545
813.29	159.184
813.59	126.190
813.90	122.449
814.20	123.636
814.50	90.769
814.81	94.118
815.11	120.408
815.41	98.361
815.72	123.810
816.02	118.182
816.32	123.810
816.62	112.500
816.93	117.073
817.23	140.476
817.53	138.636
817.84	196.970
818.14	128.261
818.44	124.444
818.74	164.706
819.04	142.500
819.35	174.286
819.65	170.588
819.95	192.857
820.25	190.000
820.56	161.538
820.86	145.455
821.16	139.535
821.46	156.410
821.76	118.000
822.07	145.714
822.37	157.500
822.67	181.818
822.97	111.765
823.27	185.714
823.57	162.162
823.88	172.500
824.18	153.333
824.48	169.048
824.78	204.000
825.08	183.333
825.38	159.459
825.69	146.341
825.99	237.500
826.29	168.966
826.59	165.789
826.89	144.737
827.19	167.647
827.49	203.226
827.79	122.727
828.09	134.091
828.39	134.043
828.70	110.204
829.00	144.444
829.30	180.645
829.60	127.500
829.90	266.667
830.20	182.143
830.50	260.870
830.80	191.304
831.10	186.667
831.40	160.000
831.70	156.522
832.00	200.000
832.30	188.889
832.60	281.250
832.90	210.000
833.20	385.714
833.50	212.903
833.80	162.069
834.10	184.375
834.40	207.692
834.70	322.222
835.00	319.048
835.30	162.857
835.60	346.154
835.90	200.000
836.20	285.714
836.50	203.448
836.80	176.000
837.10	163.889
837.40	252.381
837.70	264.706
838.00	196.296
838.30	176.190
838.60	233.333
838.90	196.154
839.19	255.000
839.49	357.143
839.79	330.000
840.09	245.000
840.39	276.190
840.69	217.391
840.99	300.000
841.29	360.000
841.59	291.667
841.88	318.750
842.18	203.448
842.48	290.476
842.78	196.667
843.08	243.478
843.38	171.875
843.68	900.000
843.97	261.538
844.27	186.207
844.57	300.000
844.87	337.500
845.17	185.185
845.47	1933.333
845.76	555.556
846.06	282.353
846.36	525.000
846.66	342.857
846.96	325.000
847.25	418.182
847.55	318.182
847.85	256.522
848.15	420.000
848.44	392.857
848.74	288.889
849.04	347.059
849.34	530.000
849.63	226.316
849.93	454.545
850.23	900.000
850.53	371.429
850.82	2200.000
851.12	-4500.000
851.42	4200.000
851.71	265.000
852.01	-1200.000
852.31	237.500
852.61	1500.000
852.90	266.667
853.20	208.000
853.50	352.941
853.79	295.238
854.09	241.667
854.39	293.750
854.68	159.459
854.98	196.774
855.28	170.000
855.57	189.655
855.87	200.000
856.17	194.737
856.46	273.333
856.76	276.471
857.05	196.552
857.35	233.333
857.65	326.667
857.94	208.696
858.24	219.231
858.53	295.000
858.83	209.091
859.13	380.000
859.42	0.000
859.72	666.667
860.01	472.727
860.31	250.000
860.60	226.316
860.90	260.870
861.20	555.556
861.49	458.333
861.79	-4100.000
862.08	600.000
862.38	223.810
862.67	376.923
862.97	352.941
863.26	455.556
863.56	244.444
863.85	408.333
864.15	550.000
864.44	366.667
864.74	750.000
865.03	612.500
865.33	278.947
865.62	409.091
865.92	446.154
866.21	316.667
866.51	0.000
866.80	463.636
867.10	1360.000
867.39	415.385
867.69	409.091
867.98	273.684
868.27	527.273
868.57	315.789
868.86	-4700.000
869.16	425.000
869.45	2350.000
869.75	-3900.000
870.04	458.333
870.33	728.571
870.63	1075.000
870.92	2600.000
871.22	557.143
871.51	305.882
871.80	185.714
872.10	400.000
>>>>>End Processed Spectral Data<<<<<
