SpectraSuite Data File
++++++++++++++++++++++++++++++++++++
Date: Wed May 13 16:00:08 PDT 2015
User: schluterlab
Dark Spectrum Present: Yes
Reference Spectrum Present: Yes
Number of Sampled Component Spectra: 1
Spectrometers: USB2E3373
Integration Time (usec): 3000 (USB2E3373)
Spectra Averaged: 3 (USB2E3373)
Boxcar Smoothing: 0 (USB2E3373)
Correct for Electrical Dark: No (USB2E3373)
Strobe/Lamp Enabled: No (USB2E3373)
Correct for Detector Non-linearity: No (USB2E3373)
Correct for Stray Light: No (USB2E3373)
Number of Pixels in Processed Spectrum: 2048
>>>>>Begin Processed Spectral Data<<<<<
178.53	0.000
178.91	-400.000
179.29	-300.000
179.67	55.556
180.04	-350.000
180.42	550.000
180.80	460.000
181.18	-175.000
181.56	85.714
181.94	0.000
182.31	-128.571
182.69	333.333
183.07	-150.000
183.45	-22.222
183.83	254.545
184.20	10.000
184.58	600.000
184.96	2700.000
185.34	-120.000
185.72	-87.500
186.09	-400.000
186.47	700.000
186.85	750.000
187.23	1000.000
187.61	-466.667
187.98	325.000
188.36	172.727
188.74	190.909
189.12	-140.000
189.49	170.000
189.87	-800.000
190.25	-200.000
190.63	142.857
191.00	107.692
191.38	266.667
191.76	-75.000
192.14	525.000
192.51	162.500
192.89	433.333
193.27	62.500
193.65	-175.000
194.02	90.000
194.40	160.000
194.78	220.000
195.15	191.667
195.53	250.000
195.91	-250.000
196.29	118.750
196.66	142.105
197.04	-20.000
197.42	0.000
197.79	210.000
198.17	-600.000
198.55	257.143
198.92	250.000
199.30	480.000
199.68	0.000
200.05	127.778
200.43	314.286
200.81	1000.000
201.18	333.333
201.56	-366.667
201.94	188.889
202.31	133.333
202.69	66.667
203.07	160.000
203.44	0.000
203.82	400.000
204.19	357.143
204.57	150.000
204.95	112.500
205.32	300.000
205.70	227.273
206.08	157.143
206.45	700.000
206.83	106.250
207.20	333.333
207.58	200.000
207.96	138.889
208.33	287.500
208.71	-100.000
209.08	171.429
209.46	155.556
209.84	172.727
210.21	-166.667
210.59	475.000
210.96	-225.000
211.34	450.000
211.71	260.000
212.09	200.000
212.46	0.000
212.84	666.667
213.22	350.000
213.59	-1200.000
213.97	366.667
214.34	300.000
214.72	245.455
215.09	240.000
215.47	-350.000
215.84	-450.000
216.22	666.667
216.59	150.000
216.97	450.000
217.34	163.636
217.72	-283.333
218.09	0.000
218.47	-800.000
218.84	311.111
219.22	228.571
219.59	600.000
219.97	-85.714
220.34	300.000
220.72	-533.333
221.09	157.143
221.47	375.000
221.84	-350.000
222.22	0.000
222.59	425.000
222.97	-600.000
223.34	700.000
223.72	130.769
224.09	280.000
224.46	600.000
224.84	-1500.000
225.21	-260.000
225.59	-1100.000
225.96	220.000
226.34	140.000
226.71	1300.000
227.08	275.000
227.46	180.000
227.83	-375.000
228.21	-600.000
228.58	288.889
228.95	-500.000
229.33	-850.000
229.70	600.000
230.08	357.143
230.45	-100.000
230.82	141.667
231.20	150.000
231.57	200.000
231.95	175.000
232.32	86.364
232.69	81.818
233.07	185.714
233.44	107.692
233.81	-333.333
234.19	131.579
234.56	116.667
234.93	91.667
235.31	90.909
235.68	76.923
236.05	157.143
236.43	100.000
236.80	110.526
237.17	1800.000
237.55	133.333
237.92	121.429
238.29	147.619
238.67	80.645
239.04	141.379
239.41	66.667
239.79	73.913
240.16	83.333
240.53	70.455
240.91	66.667
241.28	82.000
241.65	92.000
242.02	76.812
242.40	77.419
242.77	70.000
243.14	59.140
243.51	57.303
243.89	55.294
244.26	56.667
244.63	58.065
245.00	58.511
245.38	68.317
245.75	62.617
246.12	56.881
246.49	58.394
246.87	64.800
247.24	60.000
247.61	60.000
247.98	58.170
248.36	47.973
248.73	50.955
249.10	53.503
249.47	52.542
249.84	56.684
250.22	47.059
250.59	54.438
250.96	57.071
251.33	53.555
251.70	54.950
252.08	51.905
252.45	48.879
252.82	48.696
253.19	57.872
253.56	54.118
253.94	51.867
254.31	48.047
254.68	52.308
255.05	53.137
255.42	51.220
255.79	50.735
256.16	51.986
256.54	49.117
256.91	51.246
257.28	48.921
257.65	48.515
258.02	51.863
258.39	49.527
258.76	51.171
259.14	47.024
259.51	50.152
259.88	48.758
260.25	54.683
260.62	49.422
260.99	51.242
261.36	51.351
261.73	49.284
262.10	47.674
262.47	49.014
262.85	52.089
263.22	46.724
263.59	49.573
263.96	45.879
264.33	45.431
264.70	51.053
265.07	51.407
265.44	48.990
265.81	43.796
266.18	48.241
266.55	47.561
266.92	50.369
267.29	49.306
267.66	46.789
268.03	48.409
268.40	50.467
268.77	49.403
269.14	45.270
269.51	45.824
269.88	49.650
270.25	47.178
270.62	48.539
270.99	50.968
271.36	45.494
271.73	49.065
272.10	46.304
272.47	45.161
272.84	44.805
273.21	45.912
273.58	45.633
273.95	41.090
274.32	44.008
274.69	48.822
275.06	45.079
275.43	47.021
275.80	45.291
276.17	46.029
276.54	46.985
276.91	46.640
277.28	45.117
277.65	42.940
278.02	46.791
278.39	46.875
278.76	42.545
279.13	43.019
279.50	42.272
279.87	44.223
280.23	46.707
280.60	40.232
280.97	43.623
281.34	44.779
281.71	43.273
282.08	47.601
282.45	43.636
282.82	44.583
283.19	42.424
283.56	44.211
283.92	44.839
284.29	43.386
284.66	43.920
285.03	43.219
285.40	43.662
285.77	43.603
286.14	43.178
286.51	42.667
286.87	40.684
287.24	43.974
287.61	41.734
287.98	42.370
288.35	41.363
288.72	39.252
289.08	41.628
289.45	41.186
289.82	39.187
290.19	37.991
290.56	40.123
290.93	38.520
291.29	39.571
291.66	38.053
292.03	39.099
292.40	40.822
292.77	37.278
293.13	37.761
293.50	38.192
293.87	39.556
294.24	36.889
294.60	37.263
294.97	37.355
295.34	35.543
295.71	38.068
296.08	35.755
296.44	36.589
296.81	34.742
297.18	37.940
297.55	34.697
297.91	34.828
298.28	37.216
298.65	34.334
299.02	35.705
299.38	35.458
299.75	33.558
300.12	35.760
300.48	34.375
300.85	33.909
301.22	34.268
301.59	33.965
301.95	34.257
302.32	33.376
302.69	33.931
303.05	35.515
303.42	35.062
303.79	35.900
304.15	35.315
304.52	34.878
304.89	35.540
305.25	34.339
305.62	33.975
305.99	35.301
306.35	34.676
306.72	35.874
307.09	36.182
307.45	36.599
307.82	34.263
308.19	35.099
308.55	37.325
308.92	35.661
309.29	35.797
309.65	35.631
310.02	35.095
310.38	34.946
310.75	35.269
311.12	36.336
311.48	35.737
311.85	36.792
312.22	35.692
312.58	37.318
312.95	37.698
313.31	36.117
313.68	38.358
314.05	38.659
314.41	37.286
314.78	39.174
315.14	38.630
315.51	40.062
315.87	39.802
316.24	38.530
316.61	39.084
316.97	39.432
317.34	40.215
317.70	40.727
318.07	41.578
318.43	41.585
318.80	41.799
319.16	42.561
319.53	42.495
319.89	42.476
320.26	43.000
320.62	44.940
320.99	44.242
321.35	44.646
321.72	45.072
322.08	46.693
322.45	47.065
322.81	48.837
323.18	48.362
323.54	51.020
323.91	48.208
324.27	50.287
324.64	51.072
325.00	51.668
325.37	51.865
325.73	52.873
326.10	54.016
326.46	55.376
326.83	56.687
327.19	55.764
327.56	58.188
327.92	58.705
328.29	58.563
328.65	58.748
329.01	59.386
329.38	61.240
329.74	61.219
330.11	63.054
330.47	62.902
330.84	63.051
331.20	61.658
331.56	61.560
331.93	63.333
332.29	63.798
332.66	63.894
333.02	63.894
333.38	62.963
333.75	65.241
334.11	63.790
334.48	63.354
334.84	64.246
335.20	64.182
335.57	63.191
335.93	61.875
336.29	64.652
336.66	63.300
337.02	63.801
337.38	65.463
337.75	63.815
338.11	63.653
338.47	66.390
338.84	64.803
339.20	63.853
339.56	64.325
339.93	64.909
340.29	64.130
340.65	65.419
341.02	63.962
341.38	64.591
341.74	64.211
342.11	64.803
342.47	64.141
342.83	63.014
343.20	64.416
343.56	64.027
343.92	64.825
344.28	64.031
344.65	67.068
345.01	63.131
345.37	65.009
345.73	64.467
346.10	63.171
346.46	64.068
346.82	63.262
347.19	63.576
347.55	62.644
347.91	64.401
348.27	64.667
348.63	63.963
349.00	64.401
349.36	63.793
349.72	64.074
350.08	64.182
350.45	64.117
350.81	64.419
351.17	63.452
351.53	64.373
351.89	63.366
352.26	65.036
352.62	65.597
352.98	63.614
353.34	64.585
353.70	63.339
354.07	62.823
354.43	62.698
354.79	63.154
355.15	63.927
355.51	65.947
355.87	64.735
356.24	65.309
356.60	63.192
356.96	64.602
357.32	65.985
357.68	65.276
358.04	63.579
358.40	63.183
358.77	64.163
359.13	65.904
359.49	62.902
359.85	64.603
360.21	63.796
360.57	66.304
360.93	66.308
361.29	63.643
361.66	63.467
362.02	65.075
362.38	65.932
362.74	64.137
363.10	63.583
363.46	65.371
363.82	65.231
364.18	64.758
364.54	66.345
364.90	66.856
365.26	65.147
365.62	65.668
365.98	64.354
366.35	63.682
366.71	66.450
367.07	65.550
367.43	65.820
367.79	66.595
368.15	68.822
368.51	65.407
368.87	66.667
369.23	66.569
369.59	67.632
369.95	66.691
370.31	66.382
370.67	64.710
371.03	66.142
371.39	66.035
371.75	65.956
372.11	65.932
372.47	68.475
372.83	68.660
373.19	66.618
373.55	68.293
373.91	68.262
374.27	65.430
374.63	68.655
374.99	68.644
375.35	67.341
375.71	65.524
376.07	68.381
376.42	67.950
376.78	68.456
377.14	66.554
377.50	69.801
377.86	66.356
378.22	68.584
378.58	66.604
378.94	67.693
379.30	68.766
379.66	68.655
380.02	68.857
380.38	68.124
380.74	69.448
381.09	68.582
381.45	68.838
381.81	68.489
382.17	69.236
382.53	68.994
382.89	69.568
383.25	69.981
383.61	70.384
383.97	69.043
384.32	70.306
384.68	68.154
385.04	69.023
385.40	70.217
385.76	70.393
386.12	69.495
386.48	69.666
386.83	70.686
387.19	71.552
387.55	69.573
387.91	69.407
388.27	69.528
388.62	70.375
388.98	69.533
389.34	72.090
389.70	69.834
390.06	71.736
390.42	70.104
390.77	71.247
391.13	70.836
391.49	70.241
391.85	70.974
392.20	70.095
392.56	70.770
392.92	71.101
393.28	69.586
393.64	70.264
393.99	70.861
394.35	69.913
394.71	69.134
395.07	70.218
395.42	70.766
395.78	69.911
396.14	69.708
396.50	71.429
396.85	71.138
397.21	69.544
397.57	70.180
397.92	70.252
398.28	69.507
398.64	70.012
399.00	71.684
399.35	69.882
399.71	69.850
400.07	68.480
400.42	69.755
400.78	69.180
401.14	70.915
401.49	69.194
401.85	69.328
402.21	68.982
402.57	68.538
402.92	69.231
403.28	69.769
403.63	68.750
403.99	71.529
404.35	68.545
404.70	69.185
405.06	68.725
405.42	69.120
405.77	68.800
406.13	68.002
406.49	68.480
406.84	68.576
407.20	67.258
407.55	68.985
407.91	68.200
408.27	69.049
408.62	67.730
408.98	68.689
409.34	68.881
409.69	68.903
410.05	68.835
410.40	67.890
410.76	68.100
411.11	67.008
411.47	67.732
411.83	66.646
412.18	65.801
412.54	68.369
412.89	67.892
413.25	68.182
413.60	68.128
413.96	66.181
414.31	66.950
414.67	66.667
415.03	66.821
415.38	66.559
415.74	67.653
416.09	68.844
416.45	66.533
416.80	67.614
417.16	67.828
417.51	68.348
417.87	65.768
418.22	67.823
418.58	68.108
418.93	68.182
419.29	68.046
419.64	67.191
420.00	67.195
420.35	67.478
420.71	67.484
421.06	67.005
421.42	66.374
421.77	67.713
422.12	68.220
422.48	66.433
422.83	68.200
423.19	67.127
423.54	68.543
423.90	68.116
424.25	68.118
424.61	67.321
424.96	69.388
425.31	67.165
425.67	66.573
426.02	66.743
426.38	68.620
426.73	68.286
427.09	68.267
427.44	67.395
427.79	67.798
428.15	67.798
428.50	67.700
428.85	67.998
429.21	67.532
429.56	67.963
429.92	67.690
430.27	68.471
430.62	68.408
430.98	68.137
431.33	68.144
431.68	68.901
432.04	67.039
432.39	67.847
432.74	67.624
433.10	68.987
433.45	70.204
433.80	67.350
434.16	67.735
434.51	67.842
434.86	68.073
435.22	69.205
435.57	70.334
435.92	68.754
436.28	68.387
436.63	69.316
436.98	69.147
437.34	68.336
437.69	69.370
438.04	69.646
438.39	69.134
438.75	69.088
439.10	67.877
439.45	68.477
439.81	67.915
440.16	69.622
440.51	68.424
440.86	68.790
441.22	68.131
441.57	69.533
441.92	69.601
442.27	69.483
442.63	68.826
442.98	70.648
443.33	68.370
443.68	69.644
444.03	69.156
444.39	67.624
444.74	69.102
445.09	69.865
445.44	66.648
445.79	68.827
446.15	68.025
446.50	68.659
446.85	69.424
447.20	68.893
447.55	70.408
447.91	68.616
448.26	69.727
448.61	70.266
448.96	68.660
449.31	68.785
449.66	68.880
450.02	68.691
450.37	68.594
450.72	68.641
451.07	69.165
451.42	68.328
451.77	69.231
452.12	68.938
452.47	68.968
452.83	68.531
453.18	66.198
453.53	69.202
453.88	68.104
454.23	68.799
454.58	68.322
454.93	69.421
455.28	67.768
455.63	68.325
455.98	69.940
456.34	67.776
456.69	68.253
457.04	68.916
457.39	66.394
457.74	68.311
458.09	68.430
458.44	68.985
458.79	67.191
459.14	68.623
459.49	68.768
459.84	68.643
460.19	68.709
460.54	66.204
460.89	68.733
461.24	68.792
461.59	69.785
461.94	67.571
462.29	69.555
462.64	65.795
462.99	67.209
463.34	68.533
463.69	67.855
464.04	66.957
464.39	65.855
464.74	66.845
465.09	67.732
465.44	67.922
465.79	67.170
466.14	66.174
466.49	66.463
466.84	66.200
467.19	66.747
467.54	67.375
467.89	65.966
468.24	66.841
468.59	67.094
468.94	65.486
469.29	67.481
469.64	67.135
469.99	67.456
470.34	65.456
470.68	65.805
471.03	65.442
471.38	67.547
471.73	63.691
472.08	65.724
472.43	65.955
472.78	65.964
473.13	65.725
473.48	65.918
473.83	65.671
474.17	65.775
474.52	65.881
474.87	66.725
475.22	65.467
475.57	65.341
475.92	66.330
476.27	65.953
476.61	66.520
476.96	65.146
477.31	65.777
477.66	66.138
478.01	63.826
478.36	66.261
478.70	65.628
479.05	64.750
479.40	65.916
479.75	65.684
480.10	65.905
480.45	65.159
480.79	65.361
481.14	64.922
481.49	65.164
481.84	64.472
482.19	65.788
482.53	64.679
482.88	65.007
483.23	66.168
483.58	64.786
483.92	66.073
484.27	64.052
484.62	64.698
484.97	64.486
485.31	67.534
485.66	67.552
486.01	68.257
486.36	66.387
486.70	66.087
487.05	65.877
487.40	65.271
487.75	65.088
488.09	66.303
488.44	64.043
488.79	65.787
489.13	65.126
489.48	63.581
489.83	63.876
490.17	64.402
490.52	63.906
490.87	63.229
491.22	62.756
491.56	62.551
491.91	63.704
492.26	63.252
492.60	62.811
492.95	62.582
493.30	61.495
493.64	62.902
493.99	62.906
494.34	62.581
494.68	63.782
495.03	63.252
495.37	62.773
495.72	63.499
496.07	63.805
496.41	61.726
496.76	63.456
497.11	61.999
497.45	62.646
497.80	61.900
498.14	62.609
498.49	62.390
498.84	63.279
499.18	61.952
499.53	61.681
499.87	62.255
500.22	62.129
500.56	62.961
500.91	61.346
501.26	61.925
501.60	63.360
501.95	61.595
502.29	63.308
502.64	62.151
502.98	62.272
503.33	62.294
503.67	61.763
504.02	62.208
504.36	61.114
504.71	60.576
505.06	60.723
505.40	61.254
505.75	60.222
506.09	60.982
506.44	61.667
506.78	61.374
507.13	62.393
507.47	61.263
507.82	60.588
508.16	61.196
508.51	61.847
508.85	60.477
509.19	60.969
509.54	60.204
509.88	60.742
510.23	60.977
510.57	62.074
510.92	61.212
511.26	60.226
511.61	60.425
511.95	59.656
512.30	59.173
512.64	60.613
512.98	61.361
513.33	60.867
513.67	58.164
514.02	59.145
514.36	60.786
514.70	58.550
515.05	59.955
515.39	59.731
515.74	59.459
516.08	59.027
516.42	58.824
516.77	60.256
517.11	58.657
517.46	59.989
517.80	60.046
518.14	58.020
518.49	58.401
518.83	58.239
519.17	57.852
519.52	59.479
519.86	58.243
520.20	59.249
520.55	58.887
520.89	59.307
521.23	58.685
521.58	59.304
521.92	59.216
522.26	56.925
522.61	58.754
522.95	58.993
523.29	58.491
523.64	58.171
523.98	58.226
524.32	57.177
524.66	57.186
525.01	57.414
525.35	57.497
525.69	56.589
526.04	57.570
526.38	57.474
526.72	57.055
527.06	57.502
527.41	55.322
527.75	58.264
528.09	57.418
528.43	57.298
528.78	58.574
529.12	57.273
529.46	58.053
529.80	56.745
530.15	58.505
530.49	56.554
530.83	56.646
531.17	59.856
531.51	58.301
531.86	57.677
532.20	57.366
532.54	57.143
532.88	58.344
533.22	55.528
533.57	57.469
533.91	55.810
534.25	56.379
534.59	57.840
534.93	56.038
535.27	57.091
535.62	57.631
535.96	59.510
536.30	57.216
536.64	58.274
536.98	56.337
537.32	57.077
537.66	57.867
538.01	57.735
538.35	56.303
538.69	58.902
539.03	56.335
539.37	56.613
539.71	55.087
540.05	57.124
540.39	56.744
540.73	55.304
541.07	57.430
541.42	56.491
541.76	57.613
542.10	56.533
542.44	57.351
542.78	58.696
543.12	55.406
543.46	57.246
543.80	58.426
544.14	56.611
544.48	56.952
544.82	57.216
545.16	57.059
545.50	55.013
545.84	55.578
546.18	55.960
546.52	56.848
546.86	56.976
547.20	55.900
547.54	56.981
547.88	56.569
548.22	55.479
548.56	56.478
548.90	55.442
549.24	56.229
549.58	55.730
549.92	55.701
550.26	57.386
550.60	54.703
550.94	55.704
551.28	54.865
551.62	56.147
551.96	55.719
552.30	56.109
552.64	56.051
552.98	56.203
553.32	55.563
553.66	55.760
554.00	55.731
554.34	54.451
554.68	55.651
555.02	55.853
555.36	54.280
555.69	53.857
556.03	55.787
556.37	56.753
556.71	54.093
557.05	54.762
557.39	54.164
557.73	54.128
558.07	55.112
558.41	54.269
558.75	54.739
559.08	55.034
559.42	55.556
559.76	54.706
560.10	54.390
560.44	54.647
560.78	55.023
561.12	55.145
561.45	55.346
561.79	54.384
562.13	56.204
562.47	56.421
562.81	55.509
563.15	54.247
563.48	54.111
563.82	55.121
564.16	55.199
564.50	55.339
564.84	54.804
565.17	56.306
565.51	56.422
565.85	55.647
566.19	55.291
566.52	55.985
566.86	56.178
567.20	56.014
567.54	55.936
567.88	55.568
568.21	56.720
568.55	55.915
568.89	57.053
569.23	56.818
569.56	58.178
569.90	57.849
570.24	57.696
570.57	58.688
570.91	57.498
571.25	57.566
571.59	57.938
571.92	57.834
572.26	58.290
572.60	58.108
572.93	57.061
573.27	58.208
573.61	58.040
573.95	58.295
574.28	57.940
574.62	58.649
574.96	57.802
575.29	57.590
575.63	58.181
575.97	57.615
576.30	57.435
576.64	57.948
576.98	58.459
577.31	58.318
577.65	59.110
577.98	58.504
578.32	57.943
578.66	58.092
578.99	58.137
579.33	57.952
579.67	57.115
580.00	58.211
580.34	58.187
580.67	58.190
581.01	57.949
581.35	59.194
581.68	59.345
582.02	58.265
582.35	58.662
582.69	58.935
583.02	58.087
583.36	58.082
583.70	58.392
584.03	57.863
584.37	58.182
584.70	58.751
585.04	57.534
585.37	57.759
585.71	57.754
586.04	57.647
586.38	58.150
586.72	57.746
587.05	57.023
587.39	57.361
587.72	57.459
588.06	58.004
588.39	57.229
588.73	56.762
589.06	57.183
589.40	57.407
589.73	56.776
590.07	57.224
590.40	56.083
590.73	57.143
591.07	56.736
591.40	56.221
591.74	56.537
592.07	55.454
592.41	55.726
592.74	56.067
593.08	57.195
593.41	56.881
593.75	55.840
594.08	56.621
594.41	56.522
594.75	56.488
595.08	56.550
595.42	56.778
595.75	55.983
596.09	56.553
596.42	55.756
596.75	55.382
597.09	55.152
597.42	54.975
597.75	56.016
598.09	55.087
598.42	55.112
598.76	55.209
599.09	55.340
599.42	55.022
599.76	56.406
600.09	55.337
600.42	55.259
600.76	54.500
601.09	55.118
601.42	55.251
601.76	55.142
602.09	55.455
602.42	55.215
602.76	55.018
603.09	56.373
603.42	55.955
603.76	55.221
604.09	55.060
604.42	54.545
604.76	55.462
605.09	55.221
605.42	53.912
605.75	55.257
606.09	55.022
606.42	54.679
606.75	54.376
607.09	54.625
607.42	54.386
607.75	53.882
608.08	54.711
608.42	54.146
608.75	53.111
609.08	53.562
609.41	53.451
609.75	53.883
610.08	54.948
610.41	52.793
610.74	54.163
611.07	55.089
611.41	54.563
611.74	54.952
612.07	54.917
612.40	54.460
612.73	53.579
613.07	53.718
613.40	53.976
613.73	52.805
614.06	53.817
614.39	51.966
614.72	52.000
615.06	52.994
615.39	53.769
615.72	52.198
616.05	51.515
616.38	53.141
616.71	53.979
617.05	53.298
617.38	52.014
617.71	53.874
618.04	53.065
618.37	52.513
618.70	52.458
619.03	53.421
619.36	52.546
619.69	52.606
620.03	51.717
620.36	52.273
620.69	52.123
621.02	52.360
621.35	50.822
621.68	49.533
622.01	51.316
622.34	50.908
622.67	51.331
623.00	50.550
623.33	50.036
623.66	51.394
623.99	52.430
624.32	51.213
624.65	50.918
624.99	50.142
625.32	51.919
625.65	50.188
625.98	52.191
626.31	51.400
626.64	50.286
626.97	51.205
627.30	49.377
627.63	50.943
627.96	49.622
628.29	50.744
628.62	50.137
628.95	48.302
629.28	50.274
629.61	49.771
629.94	50.286
630.26	49.190
630.59	49.380
630.92	47.510
631.25	48.470
631.58	47.347
631.91	47.870
632.24	47.152
632.57	47.324
632.90	46.711
633.23	47.315
633.56	48.927
633.89	47.225
634.22	48.241
634.55	48.757
634.88	47.665
635.20	47.192
635.53	48.675
635.86	49.629
636.19	45.647
636.52	47.174
636.85	47.423
637.18	47.581
637.51	46.454
637.83	44.513
638.16	48.338
638.49	47.481
638.82	48.420
639.15	46.625
639.48	48.628
639.81	47.185
640.13	46.354
640.46	47.248
640.79	45.575
641.12	44.567
641.45	45.391
641.77	48.159
642.10	45.322
642.43	48.198
642.76	46.285
643.09	44.785
643.41	44.158
643.74	46.759
644.07	44.817
644.40	46.166
644.73	43.622
645.05	46.910
645.38	44.550
645.71	43.961
646.04	46.512
646.36	48.414
646.69	43.645
647.02	45.238
647.35	44.330
647.67	44.425
648.00	45.528
648.33	45.380
648.66	45.909
648.98	47.676
649.31	45.291
649.64	47.085
649.96	45.604
650.29	45.024
650.62	43.366
650.94	45.219
651.27	45.777
651.60	46.256
651.92	44.409
652.25	45.114
652.58	46.106
652.90	46.130
653.23	44.530
653.56	44.567
653.88	44.532
654.21	44.550
654.54	45.710
654.86	45.794
655.19	48.514
655.52	47.221
655.84	50.522
656.17	64.032
656.49	84.692
656.82	83.186
657.15	62.415
657.47	46.359
657.80	35.669
658.13	36.236
658.45	53.476
658.78	52.405
659.10	52.484
659.43	52.485
659.75	53.015
660.08	53.165
660.41	52.607
660.73	49.809
661.06	46.338
661.38	47.455
661.71	43.846
662.03	44.773
662.36	40.557
662.68	40.964
663.01	41.818
663.33	42.463
663.66	42.437
663.98	42.333
664.31	40.966
664.63	41.903
664.96	40.443
665.28	44.057
665.61	42.495
665.93	42.052
666.26	42.799
666.58	42.050
666.91	46.089
667.23	42.022
667.56	41.469
667.88	41.453
668.21	42.644
668.53	40.781
668.86	43.506
669.18	44.136
669.50	43.043
669.83	43.573
670.15	44.444
670.48	41.176
670.80	43.319
671.13	42.463
671.45	43.830
671.77	44.399
672.10	41.774
672.42	43.640
672.75	43.449
673.07	46.303
673.39	43.761
673.72	44.141
674.04	42.549
674.37	41.748
674.69	41.104
675.01	43.515
675.34	44.559
675.66	43.789
675.98	43.585
676.31	43.487
676.63	42.675
676.95	43.396
677.28	43.925
677.60	40.659
677.92	45.359
678.25	41.478
678.57	44.622
678.89	42.886
679.22	43.222
679.54	43.702
679.86	42.018
680.18	44.186
680.51	43.794
680.83	41.993
681.15	42.453
681.48	46.692
681.80	42.553
682.12	41.188
682.44	41.006
682.77	44.807
683.09	44.206
683.41	42.350
683.73	44.812
684.06	41.942
684.38	43.249
684.70	42.442
685.02	44.278
685.34	45.055
685.67	42.832
685.99	43.986
686.31	43.686
686.63	42.580
686.96	41.607
687.28	41.516
687.60	43.116
687.92	43.510
688.24	43.726
688.56	44.578
688.89	44.191
689.21	46.070
689.53	43.006
689.85	43.459
690.17	40.166
690.49	43.524
690.82	42.523
691.14	40.179
691.46	40.717
691.78	44.578
692.10	45.661
692.42	45.110
692.74	41.494
693.06	43.617
693.39	41.273
693.71	44.978
694.03	44.421
694.35	41.126
694.67	41.190
694.99	43.171
695.31	42.157
695.63	43.062
695.95	40.831
696.27	39.086
696.59	39.896
696.91	40.155
697.23	36.150
697.56	43.070
697.88	42.740
698.20	41.042
698.52	40.215
698.84	41.425
699.16	39.171
699.48	40.380
699.80	42.271
700.12	48.571
700.44	40.849
700.76	44.475
701.08	41.379
701.40	39.106
701.72	40.233
702.04	44.318
702.36	37.960
702.68	42.776
703.00	43.213
703.32	41.755
703.64	40.483
703.96	43.454
704.28	41.570
704.60	42.229
704.91	42.730
705.23	42.522
705.55	40.199
705.87	42.857
706.19	37.102
706.51	39.252
706.83	39.394
707.15	40.616
707.47	40.404
707.79	43.735
708.11	40.411
708.43	41.905
708.74	41.582
709.06	44.675
709.38	40.157
709.70	41.860
710.02	41.543
710.34	40.606
710.66	41.493
710.98	39.773
711.29	43.314
711.61	39.823
711.93	37.500
712.25	42.122
712.57	39.706
712.89	40.830
713.20	37.690
713.52	39.145
713.84	39.873
714.16	42.073
714.48	41.667
714.80	46.505
715.11	40.922
715.43	40.653
715.75	40.580
716.07	41.853
716.39	41.066
716.70	42.193
717.02	39.568
717.34	41.696
717.66	42.910
717.97	45.418
718.29	34.815
718.61	43.431
718.93	40.074
719.24	40.138
719.56	37.288
719.88	41.017
720.20	39.189
720.51	37.979
720.83	39.777
721.15	37.313
721.46	41.489
721.78	40.860
722.10	39.245
722.42	41.353
722.73	38.577
723.05	37.295
723.37	40.486
723.68	39.768
724.00	39.431
724.32	43.145
724.63	41.870
724.95	42.259
725.27	42.915
725.58	39.453
725.90	45.620
726.22	41.509
726.53	43.056
726.85	42.321
727.16	36.655
727.48	40.780
727.80	41.288
728.11	36.594
728.43	46.538
728.74	41.219
729.06	42.701
729.38	44.485
729.69	45.196
730.01	39.590
730.32	34.722
730.64	39.130
730.96	37.954
731.27	46.689
731.59	40.979
731.90	44.606
732.22	40.994
732.53	41.176
732.85	43.590
733.16	43.408
733.48	44.186
733.80	43.182
734.11	41.720
734.43	42.899
734.74	42.571
735.06	38.682
735.37	44.509
735.69	42.038
736.00	43.464
736.32	42.056
736.63	37.700
736.95	40.256
737.26	37.075
737.58	40.323
737.89	43.478
738.21	43.345
738.52	37.857
738.83	36.981
739.15	36.923
739.46	43.796
739.78	47.222
740.09	41.538
740.41	39.677
740.72	36.934
741.04	41.481
741.35	37.500
741.66	43.556
741.98	43.396
742.29	39.713
742.61	46.552
742.92	39.367
743.23	43.162
743.55	43.600
743.86	41.667
744.18	41.593
744.49	45.933
744.80	36.150
745.12	45.455
745.43	39.648
745.74	42.342
746.06	37.156
746.37	39.013
746.68	38.914
747.00	44.907
747.31	43.333
747.62	35.398
747.94	40.088
748.25	36.170
748.56	43.612
748.88	39.109
749.19	45.500
749.50	40.000
749.82	36.992
750.13	37.143
750.44	41.606
750.75	41.404
751.07	38.585
751.38	40.767
751.69	37.184
752.01	40.602
752.32	38.267
752.63	40.426
752.94	39.754
753.26	44.000
753.57	36.992
753.88	45.312
754.19	41.429
754.51	41.667
754.82	38.267
755.13	39.245
755.44	42.105
755.75	37.956
756.07	38.652
756.38	36.131
756.69	40.940
757.00	38.623
757.31	40.059
757.63	41.813
757.94	41.019
758.25	39.706
758.56	44.198
758.87	41.667
759.18	39.394
759.50	37.931
759.81	41.745
760.12	36.562
760.43	42.980
760.74	39.130
761.05	45.763
761.36	40.374
761.67	42.330
761.99	41.925
762.30	42.361
762.61	38.168
762.92	39.844
763.23	37.395
763.54	39.200
763.85	39.844
764.16	44.615
764.47	41.825
764.78	42.403
765.10	39.557
765.41	40.413
765.72	42.814
766.03	37.931
766.34	38.333
766.65	42.979
766.96	37.179
767.27	39.594
767.58	43.750
767.89	43.158
768.20	45.977
768.51	36.548
768.82	44.495
769.13	41.463
769.44	40.081
769.75	41.631
770.06	38.073
770.37	41.176
770.68	37.500
770.99	39.111
771.30	38.115
771.61	46.188
771.92	42.623
772.23	42.857
772.54	40.000
772.85	44.503
773.16	43.085
773.47	39.130
773.78	42.640
774.09	35.119
774.39	43.275
774.70	40.123
775.01	40.580
775.32	41.176
775.63	34.211
775.94	37.410
776.25	39.370
776.56	48.507
776.87	44.262
777.18	36.719
777.48	47.328
777.79	37.121
778.10	45.185
778.41	41.964
778.72	40.876
779.03	36.242
779.34	44.295
779.65	38.514
779.95	43.558
780.26	48.366
780.57	45.517
780.88	46.094
781.19	38.346
781.50	47.973
781.80	44.654
782.11	40.678
782.42	41.772
782.73	41.718
783.04	53.378
783.34	49.296
783.65	47.945
783.96	47.761
784.27	38.462
784.57	41.727
784.88	33.333
785.19	48.413
785.50	39.623
785.81	40.299
786.11	49.180
786.42	42.636
786.73	38.938
787.04	45.283
787.34	42.857
787.65	57.000
787.96	42.342
788.26	46.281
788.57	50.847
788.88	51.240
789.19	45.139
789.49	57.576
789.80	37.405
790.11	59.048
790.41	41.584
790.72	37.349
791.03	41.304
791.33	44.186
791.64	47.423
791.95	52.475
792.25	48.889
792.56	28.571
792.87	52.564
793.17	63.291
793.48	32.184
793.79	42.529
794.09	46.591
794.40	42.857
794.70	45.588
795.01	40.741
795.32	34.532
795.62	36.220
795.93	52.586
796.23	44.248
796.54	41.176
796.85	48.649
797.15	46.479
797.46	39.394
797.76	59.036
798.07	41.772
798.37	38.462
798.68	46.970
798.99	43.662
799.29	42.857
799.60	40.909
799.90	56.164
800.21	40.299
800.51	50.000
800.82	63.158
801.12	45.902
801.43	65.152
801.73	44.595
802.04	57.143
802.34	40.741
802.65	43.750
802.95	54.237
803.26	57.812
803.56	30.000
803.87	46.154
804.17	50.000
804.48	79.630
804.78	32.759
805.09	42.647
805.39	53.846
805.70	41.071
806.00	49.180
806.30	46.970
806.61	42.683
806.91	55.696
807.22	48.684
807.52	28.358
807.83	60.563
808.13	48.438
808.43	55.000
808.74	42.105
809.04	47.826
809.35	58.209
809.65	47.368
809.95	70.968
810.26	40.678
810.56	38.095
810.86	59.091
811.17	42.857
811.47	78.333
811.77	50.000
812.08	54.545
812.38	56.000
812.69	61.111
812.99	72.727
813.29	69.388
813.59	33.333
813.90	69.388
814.20	43.636
814.50	33.846
814.81	52.941
815.11	57.143
815.41	52.459
815.72	52.381
816.02	74.545
816.32	73.810
816.62	32.500
816.93	68.293
817.23	69.048
817.53	61.364
817.84	72.727
818.14	58.696
818.44	35.556
818.74	67.647
819.04	37.500
819.35	65.714
819.65	108.824
819.95	92.857
820.25	60.000
820.56	58.974
820.86	63.636
821.16	65.116
821.46	48.718
821.76	66.000
822.07	74.286
822.37	60.000
822.67	45.455
822.97	47.059
823.27	96.429
823.57	59.459
823.88	85.000
824.18	63.333
824.48	64.286
824.78	80.000
825.08	25.000
825.38	72.973
825.69	34.146
825.99	75.000
826.29	51.724
826.59	47.368
826.89	81.579
827.19	61.765
827.49	93.548
827.79	72.727
828.09	54.545
828.39	55.319
828.70	53.061
829.00	62.963
829.30	54.839
829.60	57.500
829.90	53.333
830.20	60.714
830.50	47.826
830.80	73.913
831.10	76.667
831.40	86.667
831.70	21.739
832.00	103.846
832.30	48.148
832.60	150.000
832.90	76.667
833.20	114.286
833.50	70.968
833.80	93.103
834.10	81.250
834.40	88.462
834.70	105.556
835.00	133.333
835.30	80.000
835.60	92.308
835.90	62.069
836.20	121.429
836.50	68.966
836.80	48.000
837.10	86.111
837.40	66.667
837.70	88.235
838.00	92.593
838.30	61.905
838.60	109.524
838.90	57.692
839.19	115.000
839.49	128.571
839.79	150.000
840.09	75.000
840.39	61.905
840.69	78.261
840.99	50.000
841.29	100.000
841.59	16.667
841.88	162.500
842.18	48.276
842.48	71.429
842.78	63.333
843.08	47.826
843.38	84.375
843.68	283.333
843.97	92.308
844.27	72.414
844.57	109.524
844.87	87.500
845.17	62.963
845.47	233.333
845.76	0.000
846.06	100.000
846.36	87.500
846.66	150.000
846.96	106.250
847.25	54.545
847.55	72.727
847.85	69.565
848.15	110.000
848.44	78.571
848.74	55.556
849.04	70.588
849.34	160.000
849.63	57.895
849.93	100.000
850.23	320.000
850.53	121.429
850.82	250.000
851.12	-800.000
851.42	700.000
851.71	80.000
852.01	100.000
852.31	83.333
852.61	100.000
852.90	85.714
853.20	80.000
853.50	88.235
853.79	61.905
854.09	79.167
854.39	137.500
854.68	78.378
854.98	87.097
855.28	46.667
855.57	79.310
855.87	118.519
856.17	73.684
856.46	0.000
856.76	88.235
857.05	68.966
857.35	133.333
857.65	100.000
857.94	69.565
858.24	42.308
858.53	130.000
858.83	127.273
859.13	113.333
859.42	0.000
859.72	77.778
860.01	136.364
860.31	86.364
860.60	110.526
860.90	78.261
861.20	177.778
861.49	208.333
861.79	-100.000
862.08	200.000
862.38	95.238
862.67	23.077
862.97	70.588
863.26	111.111
863.56	83.333
863.85	58.333
864.15	125.000
864.44	206.667
864.74	183.333
865.03	112.500
865.33	115.789
865.62	136.364
865.92	192.308
866.21	50.000
866.51	0.000
866.80	100.000
867.10	440.000
867.39	184.615
867.69	109.091
867.98	57.895
868.27	90.909
868.57	73.684
868.86	-1500.000
869.16	131.250
869.45	550.000
869.75	-600.000
870.04	133.333
870.33	171.429
870.63	50.000
870.92	150.000
871.22	214.286
871.51	123.529
871.80	14.286
872.10	100.000
>>>>>End Processed Spectral Data<<<<<
