SpectraSuite Data File
++++++++++++++++++++++++++++++++++++
Date: Wed May 13 16:16:06 PDT 2015
User: schluterlab
Dark Spectrum Present: Yes
Reference Spectrum Present: Yes
Number of Sampled Component Spectra: 1
Spectrometers: USB2E3373
Integration Time (usec): 3000 (USB2E3373)
Spectra Averaged: 3 (USB2E3373)
Boxcar Smoothing: 0 (USB2E3373)
Correct for Electrical Dark: No (USB2E3373)
Strobe/Lamp Enabled: No (USB2E3373)
Correct for Detector Non-linearity: No (USB2E3373)
Correct for Stray Light: No (USB2E3373)
Number of Pixels in Processed Spectrum: 2048
>>>>>Begin Processed Spectral Data<<<<<
178.53	0.000
178.91	-1125.000
179.29	-1050.000
179.67	-155.556
180.04	-925.000
180.42	2150.000
180.80	860.000
181.18	-975.000
181.56	471.429
181.94	0.000
182.31	-528.571
182.69	1666.667
183.07	-412.500
183.45	-400.000
183.83	381.818
184.20	-340.000
184.58	1800.000
184.96	5500.000
185.34	-700.000
185.72	-400.000
186.09	-2200.000
186.47	1650.000
186.85	1700.000
187.23	3700.000
187.61	-1633.333
187.98	1225.000
188.36	481.818
188.74	409.091
189.12	-720.000
189.49	420.000
189.87	-4700.000
190.25	-1175.000
190.63	392.857
191.00	276.923
191.38	616.667
191.76	-800.000
192.14	1325.000
192.51	575.000
192.89	733.333
193.27	500.000
193.65	-850.000
194.02	380.000
194.40	940.000
194.78	430.000
195.15	450.000
195.53	610.000
195.91	-1650.000
196.29	337.500
196.66	278.947
197.04	-280.000
197.42	0.000
197.79	520.000
198.17	-3400.000
198.55	628.571
198.92	575.000
199.30	880.000
199.68	0.000
200.05	288.889
200.43	628.571
200.81	4000.000
201.18	1266.667
201.56	-1733.333
201.94	500.000
202.31	444.444
202.69	383.333
203.07	390.000
203.44	0.000
203.82	1000.000
204.19	771.429
204.57	335.714
204.95	587.500
205.32	1300.000
205.70	427.273
206.08	342.857
206.45	2550.000
206.83	312.500
207.20	650.000
207.58	780.000
207.96	305.556
208.33	650.000
208.71	-716.667
209.08	671.429
209.46	555.556
209.84	509.091
210.21	-1200.000
210.59	1025.000
210.96	-250.000
211.34	2050.000
211.71	420.000
212.09	716.667
212.46	0.000
212.84	1166.667
213.22	975.000
213.59	-3800.000
213.97	566.667
214.34	571.429
214.72	445.455
215.09	740.000
215.47	-1600.000
215.84	-2000.000
216.22	1200.000
216.59	342.857
216.97	950.000
217.34	345.455
217.72	-566.667
218.09	0.000
218.47	-4800.000
218.84	500.000
219.22	500.000
219.59	1400.000
219.97	-542.857
220.34	860.000
220.72	-1433.333
221.09	378.571
221.47	1250.000
221.84	-733.333
222.22	0.000
222.59	975.000
222.97	-1750.000
223.34	880.000
223.72	361.538
224.09	960.000
224.46	1650.000
224.84	-4200.000
225.21	-980.000
225.59	-4100.000
225.96	440.000
226.34	255.000
226.71	2250.000
227.08	462.500
227.46	460.000
227.83	-775.000
228.21	-1900.000
228.58	511.111
228.95	-2300.000
229.33	-1750.000
229.70	1566.667
230.08	557.143
230.45	-640.000
230.82	391.667
231.20	716.667
231.57	528.571
231.95	500.000
232.32	213.636
232.69	381.818
233.07	557.143
233.44	315.385
233.81	-1933.333
234.19	294.737
234.56	408.333
234.93	333.333
235.31	390.909
235.68	292.308
236.05	350.000
236.43	166.667
236.80	252.632
237.17	4100.000
237.55	266.667
237.92	217.857
238.29	252.381
238.67	200.000
239.04	244.828
239.41	180.556
239.79	145.652
240.16	188.095
240.53	159.091
240.91	129.412
241.28	134.000
241.65	154.000
242.02	126.087
242.40	119.355
242.77	155.000
243.14	107.527
243.51	124.719
243.89	115.294
244.26	113.333
244.63	101.075
245.00	93.617
245.38	104.950
245.75	92.523
246.12	104.587
246.49	102.920
246.87	103.200
247.24	96.923
247.61	99.286
247.98	86.928
248.36	83.108
248.73	87.898
249.10	93.631
249.47	87.571
249.84	83.422
250.22	85.027
250.59	91.716
250.96	92.424
251.33	84.360
251.70	93.069
252.08	84.762
252.45	83.408
252.82	82.174
253.19	83.404
253.56	79.216
253.94	80.498
254.31	79.687
254.68	87.692
255.05	81.550
255.42	80.894
255.79	75.735
256.16	79.422
256.54	76.678
256.91	78.292
257.28	72.662
257.65	73.927
258.02	71.739
258.39	73.817
258.76	83.612
259.14	74.702
259.51	75.684
259.88	76.398
260.25	77.039
260.62	73.410
260.99	79.814
261.36	76.577
261.73	80.802
262.10	79.070
262.47	71.831
262.85	73.259
263.22	72.365
263.59	76.068
263.96	72.802
264.33	71.802
264.70	76.316
265.07	75.448
265.44	75.253
265.81	73.723
266.18	79.397
266.55	69.756
266.92	72.236
267.29	73.380
267.66	69.725
268.03	71.364
268.40	74.766
268.77	76.134
269.14	72.523
269.51	72.009
269.88	75.758
270.25	70.429
270.62	70.562
270.99	72.043
271.36	71.030
271.73	72.196
272.10	70.000
272.47	70.323
272.84	72.727
273.21	70.021
273.58	70.306
273.95	69.602
274.32	65.909
274.69	70.664
275.06	68.898
275.43	72.340
275.80	71.142
276.17	69.043
276.54	71.310
276.91	70.356
277.28	67.578
277.65	67.698
278.02	66.874
278.39	67.578
278.76	66.000
279.13	69.623
279.50	65.549
279.87	68.327
280.23	68.663
280.60	66.731
280.97	67.283
281.34	65.487
281.71	66.364
282.08	69.482
282.45	66.909
282.82	67.318
283.19	65.597
283.56	65.789
283.92	66.667
284.29	64.903
284.66	64.428
285.03	64.919
285.40	65.141
285.77	65.320
286.14	65.285
286.51	64.833
286.87	62.222
287.24	63.355
287.61	60.674
287.98	62.338
288.35	63.074
288.72	60.903
289.08	59.937
289.45	63.097
289.82	59.675
290.19	60.126
290.56	58.499
290.93	57.553
291.29	61.350
291.66	57.817
292.03	59.593
292.40	56.975
292.77	56.953
293.13	54.179
293.50	56.268
293.87	58.815
294.24	54.815
294.60	53.421
294.97	55.523
295.34	53.738
295.71	53.977
296.08	54.416
296.44	54.883
296.81	53.501
297.18	53.794
297.55	49.604
297.91	52.639
298.28	51.539
298.65	52.742
299.02	52.569
299.38	51.793
299.75	50.000
300.12	49.681
300.48	49.000
300.85	49.568
301.22	50.701
301.59	49.495
301.95	51.134
302.32	49.294
302.69	47.670
303.05	48.364
303.42	49.630
303.79	46.886
304.15	45.105
304.52	47.856
304.89	47.038
305.25	47.332
305.62	46.546
305.99	47.580
306.35	48.434
306.72	47.309
307.09	46.615
307.45	47.635
307.82	44.978
308.19	47.020
308.55	47.896
308.92	46.617
309.29	45.090
309.65	47.720
310.02	44.715
310.38	45.914
310.75	47.096
311.12	45.241
311.48	46.708
311.85	46.855
312.22	45.161
312.58	45.426
312.95	46.885
313.31	44.466
313.68	46.570
314.05	47.436
314.41	46.834
314.78	47.533
315.14	45.184
315.51	48.198
315.87	47.228
316.24	46.177
316.61	46.784
316.97	45.793
317.34	46.282
317.70	47.706
318.07	47.546
318.43	48.043
318.80	47.329
319.16	46.328
319.53	46.811
319.89	47.810
320.26	48.400
320.62	48.512
320.99	47.677
321.35	47.172
321.72	48.563
322.08	49.161
322.45	50.448
322.81	49.612
323.18	50.193
323.54	48.701
323.91	48.302
324.27	50.191
324.64	49.021
325.00	47.881
325.37	52.593
325.73	51.706
326.10	50.750
326.46	50.358
326.83	51.079
327.19	52.690
327.56	52.352
327.92	53.456
328.29	52.085
328.65	53.683
329.01	51.444
329.38	52.081
329.74	53.278
330.11	52.780
330.47	53.719
330.84	53.125
331.20	52.459
331.56	50.550
331.93	53.889
332.29	53.416
332.66	53.717
333.02	52.834
333.38	53.026
333.75	53.030
334.11	53.292
334.48	53.594
334.84	53.585
335.20	52.364
335.57	54.488
335.93	52.054
336.29	52.564
336.66	54.103
337.02	52.579
337.38	53.981
337.75	52.585
338.11	51.925
338.47	53.959
338.84	52.246
339.20	51.743
339.56	54.927
339.93	53.091
340.29	51.902
340.65	50.891
341.02	53.229
341.38	53.381
341.74	51.404
342.11	54.760
342.47	52.952
342.83	50.771
343.20	52.814
343.56	52.233
343.92	52.807
344.28	52.636
344.65	53.654
345.01	52.273
345.37	52.058
345.73	51.100
346.10	52.941
346.46	51.186
346.82	51.483
347.19	51.963
347.55	51.396
347.91	51.699
348.27	52.917
348.63	52.843
349.00	51.861
349.36	52.135
349.72	51.083
350.08	51.945
350.45	52.807
350.81	51.990
351.17	52.674
351.53	51.925
351.89	51.238
352.26	51.855
352.62	52.927
352.98	52.026
353.34	52.260
353.70	52.537
354.07	51.855
354.43	50.794
354.79	52.132
355.15	52.674
355.51	53.317
355.87	53.551
356.24	52.362
356.60	51.002
356.96	52.373
357.32	53.066
357.68	52.992
358.04	51.781
358.40	53.444
358.77	52.191
359.13	52.092
359.49	50.902
359.85	52.540
360.21	52.392
360.57	53.852
360.93	53.077
361.29	53.137
361.66	51.935
362.02	52.239
362.38	52.700
362.74	52.381
363.10	52.480
363.46	52.971
363.82	52.305
364.18	52.349
364.54	53.640
364.90	52.479
365.26	53.750
365.62	53.616
365.98	53.324
366.35	52.221
366.71	53.507
367.07	52.731
367.43	54.935
367.79	55.318
368.15	55.101
368.51	53.634
368.87	53.890
369.23	54.499
369.59	53.802
369.95	55.515
370.31	54.487
370.67	54.420
371.03	55.281
371.39	55.248
371.75	56.103
372.11	53.556
372.47	57.331
372.83	56.988
373.19	53.902
373.55	56.763
373.91	58.321
374.27	54.777
374.63	57.018
374.99	56.427
375.35	56.036
375.71	56.477
376.07	56.722
376.42	57.497
376.78	57.787
377.14	57.259
377.50	57.550
377.86	57.646
378.22	57.016
378.58	56.579
378.94	56.945
379.30	58.969
379.66	59.518
380.02	59.091
380.38	58.895
380.74	59.424
381.09	59.413
381.45	60.356
381.81	60.381
382.17	59.936
382.53	59.937
382.89	60.556
383.25	59.850
383.61	60.905
383.97	60.038
384.32	61.385
384.68	60.347
385.04	61.586
385.40	61.115
385.76	61.118
386.12	62.306
386.48	61.611
386.83	62.925
387.19	63.451
387.55	63.203
387.91	62.696
388.27	63.519
388.62	61.401
388.98	61.425
389.34	64.706
389.70	63.397
390.06	64.449
390.42	63.748
390.77	63.550
391.13	63.689
391.49	64.277
391.85	63.781
392.20	64.038
392.56	65.404
392.92	65.450
393.28	64.024
393.64	64.568
393.99	64.264
394.35	65.757
394.71	64.868
395.07	64.112
395.42	67.120
395.78	65.840
396.14	64.556
396.50	66.103
396.85	66.942
397.21	65.290
397.57	65.592
397.92	66.286
398.28	66.143
398.64	65.173
399.00	66.144
399.35	65.426
399.71	66.782
400.07	66.765
400.42	66.442
400.78	66.586
401.14	66.768
401.49	67.761
401.85	67.030
402.21	66.347
402.57	67.551
402.92	67.907
403.28	67.895
403.63	67.265
403.99	67.834
404.35	67.091
404.70	66.966
405.06	68.084
405.42	68.871
405.77	67.829
406.13	66.309
406.49	68.125
406.84	67.631
407.20	66.903
407.55	68.092
407.91	70.133
408.27	69.368
408.62	68.633
408.98	67.034
409.34	67.774
409.69	68.516
410.05	67.410
410.40	69.419
410.76	67.742
411.11	66.285
411.47	68.626
411.83	67.685
412.18	68.089
412.54	69.365
412.89	67.169
413.25	68.005
413.60	69.179
413.96	66.727
414.31	67.618
414.67	67.807
415.03	69.007
415.38	67.784
415.74	67.395
416.09	70.477
416.45	69.009
416.80	69.002
417.16	70.442
417.51	70.737
417.87	68.401
418.22	68.770
418.58	69.464
418.93	69.410
419.29	67.919
419.64	69.207
420.00	69.146
420.35	68.348
420.71	69.635
421.06	68.795
421.42	69.708
421.77	68.890
422.12	68.782
422.48	68.645
422.83	69.715
423.19	67.735
423.54	68.717
423.90	69.043
424.25	68.565
424.61	69.524
424.96	69.796
425.31	68.771
425.67	68.090
426.02	68.457
426.38	69.475
426.73	69.397
427.09	68.997
427.44	70.040
427.79	69.235
428.15	70.655
428.50	69.924
428.85	68.951
429.21	69.740
429.56	69.673
429.92	68.495
430.27	68.421
430.62	68.305
430.98	70.161
431.33	68.196
431.68	69.843
432.04	68.051
432.39	71.045
432.74	70.018
433.10	70.232
433.45	71.020
433.80	70.676
434.16	69.071
434.51	68.526
434.86	71.323
435.22	70.206
435.57	70.091
435.92	70.977
436.28	72.005
436.63	70.530
436.98	71.036
437.34	72.630
437.69	71.412
438.04	70.489
438.39	70.866
438.75	71.644
439.10	70.782
439.45	70.779
439.81	70.453
440.16	69.339
440.51	70.709
440.86	71.453
441.22	70.467
441.57	70.223
441.92	70.573
442.27	70.452
442.63	70.037
442.98	72.282
443.33	69.239
443.68	69.334
444.03	70.278
444.39	69.182
444.74	71.266
445.09	70.566
445.44	69.929
445.79	70.757
446.15	70.037
446.50	72.429
446.85	70.863
447.20	70.678
447.55	71.189
447.91	70.822
448.26	70.840
448.61	70.718
448.96	71.595
449.31	70.697
449.66	69.949
450.02	70.641
450.37	69.898
450.72	70.671
451.07	70.140
451.42	70.517
451.77	70.757
452.12	70.612
452.47	69.776
452.83	71.853
453.18	69.988
453.53	71.367
453.88	71.294
454.23	70.652
454.58	71.048
454.93	72.791
455.28	70.885
455.63	72.087
455.98	72.143
456.34	70.666
456.69	72.448
457.04	71.022
457.39	71.186
457.74	70.226
458.09	71.248
458.44	70.981
458.79	69.523
459.14	71.275
459.49	71.745
459.84	69.806
460.19	71.067
460.54	68.692
460.89	70.653
461.24	70.978
461.59	70.482
461.94	70.530
462.29	71.395
462.64	71.921
462.99	70.397
463.34	71.400
463.69	70.732
464.04	69.971
464.39	70.841
464.74	70.945
465.09	70.084
465.44	69.030
465.79	70.414
466.14	68.582
466.49	67.186
466.84	69.235
467.19	68.799
467.54	71.000
467.89	69.568
468.24	69.401
468.59	70.635
468.94	69.456
469.29	71.915
469.64	69.009
469.99	70.433
470.34	71.136
470.68	71.193
471.03	71.361
471.38	71.647
471.73	69.021
472.08	70.987
472.43	70.038
472.78	69.980
473.13	70.796
473.48	71.598
473.83	72.378
474.17	70.255
474.52	71.154
474.87	70.461
475.22	70.110
475.57	69.318
475.92	69.145
476.27	68.546
476.61	70.601
476.96	69.324
477.31	69.335
477.66	70.131
478.01	68.897
478.36	70.280
478.70	69.418
479.05	69.382
479.40	69.140
479.75	70.107
480.10	69.483
480.45	67.587
480.79	68.610
481.14	68.738
481.49	69.293
481.84	68.724
482.19	69.287
482.53	68.394
482.88	68.869
483.23	69.720
483.58	69.654
483.92	69.353
484.27	67.451
484.62	67.802
484.97	68.546
485.31	69.726
485.66	68.781
486.01	65.512
486.36	63.052
486.70	61.439
487.05	63.013
487.40	65.398
487.75	65.033
488.09	65.848
488.44	66.945
488.79	69.222
489.13	68.640
489.48	69.046
489.83	68.364
490.17	69.706
490.52	67.936
490.87	69.064
491.22	67.212
491.56	66.970
491.91	67.752
492.26	68.075
492.60	67.465
492.95	67.119
493.30	66.869
493.64	68.735
493.99	67.502
494.34	69.010
494.68	67.903
495.03	68.045
495.37	66.729
495.72	69.201
496.07	68.306
496.41	66.814
496.76	67.722
497.11	67.762
497.45	68.048
497.80	68.378
498.14	68.792
498.49	69.268
498.84	68.313
499.18	67.667
499.53	68.851
499.87	68.034
500.22	67.216
500.56	68.932
500.91	67.067
501.26	68.184
501.60	68.771
501.95	67.278
502.29	68.369
502.64	67.691
502.98	67.508
503.33	66.819
503.67	68.074
504.02	67.072
504.36	67.384
504.71	68.197
505.06	67.566
505.40	67.914
505.75	66.635
506.09	67.590
506.44	69.216
506.78	68.047
507.13	67.592
507.47	67.778
507.82	68.541
508.16	68.541
508.51	69.102
508.85	67.428
509.19	68.571
509.54	68.010
509.88	67.800
510.23	69.357
510.57	69.143
510.92	68.980
511.26	68.294
511.61	67.946
511.95	67.641
512.30	68.452
512.64	68.512
512.98	68.542
513.33	68.630
513.67	67.769
514.02	68.615
514.36	69.853
514.70	68.677
515.05	69.771
515.39	69.097
515.74	69.032
516.08	70.095
516.42	70.422
516.77	70.401
517.11	68.091
517.46	69.470
517.80	69.744
518.14	69.716
518.49	68.903
518.83	70.284
519.17	70.727
519.52	69.327
519.86	69.823
520.20	70.925
520.55	70.975
520.89	70.803
521.23	70.989
521.58	70.948
521.92	70.851
522.26	69.799
522.61	71.277
522.95	68.877
523.29	70.603
523.64	71.037
523.98	70.610
524.32	69.421
524.66	69.393
525.01	70.037
525.35	69.641
525.69	69.273
526.04	70.592
526.38	69.738
526.72	69.018
527.06	70.747
527.41	67.265
527.75	72.283
528.09	69.942
528.43	71.511
528.78	71.051
529.12	68.970
529.46	70.361
529.80	69.988
530.15	69.969
530.49	67.262
530.83	69.810
531.17	71.149
531.51	70.558
531.86	70.710
532.20	70.795
532.54	69.891
532.88	69.384
533.22	69.019
533.57	69.012
533.91	69.536
534.25	69.016
534.59	69.311
534.93	67.341
535.27	67.894
535.62	69.292
535.96	68.738
536.30	68.595
536.64	69.736
536.98	68.812
537.32	69.322
537.66	70.867
538.01	69.124
538.35	69.037
538.69	68.347
539.03	68.876
539.37	68.243
539.71	67.596
540.05	67.647
540.39	69.435
540.73	68.629
541.07	69.241
541.42	68.428
541.76	69.355
542.10	68.241
542.44	68.411
542.78	68.841
543.12	66.347
543.46	68.721
543.80	69.421
544.14	67.330
544.48	67.683
544.82	67.992
545.16	68.055
545.50	67.609
545.84	68.280
546.18	69.293
546.52	69.374
546.86	68.385
547.20	68.780
547.54	69.205
547.88	67.921
548.22	67.435
548.56	66.289
548.90	66.453
549.24	67.340
549.58	68.486
549.92	68.475
550.26	69.318
550.60	67.012
550.94	68.662
551.28	68.252
551.62	70.022
551.96	68.140
552.30	68.874
552.64	68.019
552.98	67.661
553.32	67.229
553.66	68.575
554.00	69.595
554.34	68.323
554.68	70.887
555.02	69.323
555.36	68.406
555.69	66.576
556.03	68.641
556.37	68.281
556.71	66.849
557.05	67.927
557.39	66.620
557.73	68.243
558.07	69.036
558.41	67.583
558.75	69.802
559.08	69.799
559.42	69.690
559.76	68.235
560.10	68.451
560.44	67.505
560.78	66.999
561.12	66.821
561.45	65.906
561.79	65.392
562.13	67.002
562.47	67.691
562.81	68.201
563.15	67.492
563.48	66.048
563.82	66.471
564.16	65.991
564.50	66.016
564.84	64.159
565.17	67.246
565.51	67.476
565.85	67.005
566.19	64.934
566.52	67.828
566.86	64.557
567.20	66.156
567.54	66.039
567.88	64.367
568.21	64.550
568.55	63.852
568.89	64.154
569.23	62.923
569.56	61.619
569.90	61.094
570.24	60.890
570.57	59.878
570.91	58.436
571.25	59.141
571.59	59.116
571.92	59.044
572.26	58.550
572.60	58.619
572.93	58.921
573.27	60.041
573.61	59.241
573.95	58.915
574.28	58.392
574.62	58.066
574.96	57.037
575.29	57.953
575.63	57.978
575.97	57.277
576.30	58.285
576.64	58.352
576.98	57.997
577.31	58.641
577.65	57.459
577.98	57.439
578.32	56.195
578.66	56.331
578.99	56.950
579.33	56.814
579.67	56.799
580.00	57.396
580.34	58.828
580.67	57.268
581.01	57.454
581.35	57.374
581.68	56.500
582.02	56.061
582.35	55.986
582.69	55.998
583.02	56.037
583.36	57.044
583.70	57.767
584.03	58.412
584.37	58.419
584.70	58.490
585.04	57.950
585.37	57.619
585.71	57.636
586.04	56.584
586.38	57.341
586.72	58.299
587.05	58.028
587.39	57.282
587.72	57.202
588.06	57.657
588.39	57.833
588.73	57.788
589.06	58.741
589.40	58.889
589.73	58.501
590.07	59.288
590.40	58.824
590.73	59.719
591.07	60.399
591.40	58.878
591.74	60.736
592.07	60.428
592.41	60.232
592.74	57.678
593.08	57.861
593.41	57.767
593.75	55.746
594.08	57.191
594.41	57.653
594.75	57.930
595.08	57.946
595.42	57.968
595.75	58.583
596.09	59.144
596.42	59.018
596.75	59.688
597.09	60.216
597.42	58.179
597.75	60.328
598.09	58.478
598.42	58.033
598.76	57.762
599.09	57.697
599.42	56.441
599.76	56.991
600.09	57.377
600.42	57.451
600.76	56.500
601.09	56.721
601.42	57.953
601.76	57.343
602.09	58.221
602.42	57.763
602.76	58.525
603.09	58.222
603.42	58.141
603.76	57.774
604.09	56.844
604.42	57.807
604.76	57.444
605.09	58.322
605.42	57.375
605.75	58.609
606.09	57.422
606.42	58.439
606.75	57.652
607.09	57.681
607.42	58.665
607.75	57.046
608.08	57.230
608.42	57.956
608.75	58.431
609.08	56.892
609.41	58.639
609.75	58.599
610.08	58.200
610.41	57.728
610.74	59.224
611.07	60.474
611.41	58.391
611.74	58.723
612.07	60.248
612.40	59.391
612.73	58.105
613.07	60.129
613.40	58.926
613.73	58.626
614.06	58.763
614.39	58.836
614.72	57.263
615.06	59.979
615.39	59.076
615.72	58.333
616.05	57.629
616.38	59.144
616.71	60.154
617.05	59.835
617.38	58.749
617.71	60.480
618.04	61.478
618.37	59.137
618.70	60.859
619.03	62.105
619.36	60.828
619.69	61.831
620.03	61.058
620.36	60.027
620.69	61.986
621.02	63.127
621.35	62.803
621.68	61.760
622.01	63.622
622.34	63.691
622.67	62.814
623.00	60.895
623.33	61.330
623.66	61.687
623.99	62.003
624.32	61.626
624.65	61.653
624.99	60.836
625.32	61.477
625.65	61.758
625.98	62.952
626.31	61.509
626.64	63.918
626.97	63.425
627.30	62.594
627.63	61.854
627.96	64.087
628.29	63.342
628.62	66.148
628.95	65.755
629.28	65.237
629.61	64.986
629.94	65.810
630.26	66.063
630.59	64.061
630.92	65.230
631.25	62.290
631.58	65.566
631.91	65.314
632.24	65.084
632.57	67.471
632.90	66.776
633.23	67.450
633.56	68.475
633.89	66.818
634.22	66.856
634.55	69.704
634.88	68.862
635.20	69.056
635.53	67.590
635.86	69.554
636.19	65.765
636.52	67.820
636.85	66.438
637.18	66.014
637.51	67.849
637.83	65.968
638.16	69.054
638.49	66.877
638.82	68.774
639.15	70.125
639.48	67.706
639.81	68.901
640.13	67.057
640.46	67.919
640.79	68.824
641.12	66.575
641.45	70.112
641.77	71.870
642.10	70.029
642.43	68.619
642.76	70.279
643.09	71.319
643.41	69.651
643.74	70.988
644.07	70.274
644.40	70.552
644.73	71.969
645.05	70.840
645.38	70.142
645.71	70.370
646.04	73.588
646.36	75.626
646.69	72.742
647.02	73.129
647.35	71.821
647.67	70.796
648.00	70.894
648.33	68.812
648.66	66.061
648.98	67.766
649.31	68.012
649.64	68.460
649.96	67.064
650.29	68.404
650.62	69.579
650.94	67.747
651.27	70.439
651.60	69.052
651.92	66.933
652.25	68.078
652.58	68.069
652.90	68.562
653.23	65.485
653.56	67.244
653.88	68.938
654.21	69.036
654.54	68.977
654.86	66.199
655.19	65.000
655.52	50.568
655.84	45.571
656.17	57.052
656.49	75.647
656.82	76.150
657.15	57.844
657.47	43.075
657.80	33.540
658.13	35.428
658.45	53.704
658.78	54.162
659.10	55.999
659.43	59.803
659.75	61.009
660.08	67.025
660.41	70.205
660.73	71.792
661.06	72.134
661.38	73.091
661.71	73.269
662.03	74.951
662.36	71.372
662.68	70.080
663.01	71.515
663.33	76.221
663.66	74.370
663.98	72.570
664.31	72.479
664.63	69.838
664.96	70.221
665.28	75.000
665.61	67.446
665.93	70.624
666.26	71.805
666.58	73.013
666.91	74.841
667.23	74.607
667.56	73.218
667.88	72.222
668.21	73.348
668.53	72.017
668.86	72.727
669.18	72.281
669.50	70.870
669.83	74.292
670.15	74.222
670.48	71.678
670.80	71.983
671.13	73.036
671.45	69.574
671.77	68.839
672.10	66.543
672.42	67.138
672.75	65.837
673.07	66.725
673.39	69.078
673.72	70.117
674.04	69.608
674.37	69.903
674.69	71.166
675.01	69.874
675.34	71.047
675.66	72.842
675.98	71.894
676.31	70.378
676.63	71.125
676.95	71.279
677.28	73.598
677.60	69.890
677.92	73.207
678.25	73.511
678.57	68.725
678.89	70.741
679.22	68.369
679.54	69.275
679.86	67.523
680.18	67.442
680.51	68.440
680.83	65.836
681.15	68.113
681.48	69.754
681.80	69.246
682.12	66.284
682.44	63.443
682.77	68.432
683.09	73.605
683.41	73.392
683.73	73.068
684.06	69.215
684.38	66.341
684.70	69.380
685.02	66.792
685.34	64.652
685.67	62.762
685.99	64.777
686.31	63.652
686.63	64.841
686.96	63.214
687.28	64.982
687.60	65.942
687.92	65.996
688.24	66.730
688.56	68.072
688.89	70.124
689.21	72.489
689.53	66.806
689.85	72.062
690.17	67.702
690.49	68.790
690.82	68.925
691.14	69.866
691.46	60.970
691.78	66.667
692.10	69.835
692.42	65.868
692.74	65.768
693.06	67.234
693.39	66.940
693.71	68.777
694.03	67.158
694.35	65.584
694.67	68.421
694.99	70.000
695.31	69.363
695.63	67.703
695.95	69.927
696.27	69.289
696.59	70.984
696.91	72.280
697.23	64.319
697.56	67.377
697.88	65.644
698.20	64.583
698.52	68.387
698.84	68.597
699.16	68.894
699.48	71.734
699.80	69.807
700.12	74.026
700.44	68.966
700.76	73.204
701.08	70.115
701.40	71.788
701.72	76.968
702.04	71.875
702.36	67.989
702.68	73.088
703.00	67.313
703.32	68.883
703.64	68.901
703.96	72.423
704.28	72.965
704.60	70.968
704.91	75.371
705.23	68.035
705.55	79.070
705.87	79.070
706.19	78.799
706.51	73.520
706.83	75.455
707.15	70.028
707.47	67.424
707.79	65.848
708.11	65.525
708.43	63.571
708.74	63.265
709.06	69.091
709.38	67.192
709.70	69.477
710.02	69.733
710.34	68.485
710.66	68.060
710.98	68.466
711.29	66.860
711.61	73.156
711.93	74.038
712.25	74.598
712.57	80.147
712.89	69.204
713.20	67.781
713.52	75.000
713.84	70.570
714.16	69.817
714.48	69.828
714.80	79.939
715.11	70.605
715.43	64.392
715.75	66.957
716.07	69.649
716.39	69.906
716.70	71.429
717.02	74.820
717.34	71.025
717.66	74.627
717.97	82.072
718.29	70.000
718.61	69.708
718.93	76.838
719.24	71.280
719.56	68.475
719.88	67.458
720.20	71.622
720.51	70.035
720.83	78.439
721.15	76.493
721.46	76.596
721.78	73.477
722.10	72.453
722.42	77.068
722.73	73.783
723.05	77.459
723.37	72.470
723.68	76.834
724.00	71.545
724.32	75.000
724.63	74.390
724.95	75.314
725.27	76.518
725.58	73.828
725.90	74.818
726.22	73.962
726.53	71.875
726.85	65.188
727.16	68.683
727.48	73.404
727.80	69.318
728.11	64.493
728.43	69.615
728.74	69.892
729.06	73.723
729.38	73.162
729.69	69.751
730.01	68.942
730.32	68.403
730.64	67.559
730.96	60.396
731.27	71.192
731.59	66.972
731.90	62.974
732.22	68.323
732.53	66.563
732.85	68.590
733.16	68.810
733.48	72.093
733.80	65.584
734.11	67.834
734.43	66.272
734.74	61.429
735.06	61.605
735.37	67.341
735.69	69.108
736.00	67.974
736.32	64.486
736.63	62.620
736.95	66.134
737.26	64.286
737.58	62.581
737.89	61.873
738.21	70.307
738.52	67.143
738.83	68.302
739.15	67.692
739.46	69.343
739.78	66.667
740.09	61.538
740.41	66.774
740.72	66.899
741.04	71.852
741.35	70.000
741.66	75.556
741.98	76.415
742.29	76.555
742.61	75.431
742.92	73.756
743.23	75.641
743.55	68.800
743.86	78.070
744.18	79.204
744.49	77.512
744.80	70.423
745.12	74.545
745.43	79.736
745.74	72.072
746.06	74.312
746.37	76.233
746.68	70.588
747.00	74.074
747.31	73.810
747.62	66.814
747.94	76.652
748.25	70.213
748.56	77.093
748.88	75.743
749.19	80.000
749.50	76.279
749.82	69.919
750.13	71.429
750.44	64.599
750.75	71.930
751.07	65.273
751.38	69.338
751.69	66.426
752.01	69.173
752.32	67.148
752.63	66.667
752.94	72.131
753.26	76.400
753.57	65.041
753.88	69.141
754.19	63.214
754.51	67.014
754.82	64.260
755.13	73.585
755.44	65.414
755.75	67.153
756.07	65.957
756.38	64.234
756.69	67.785
757.00	58.683
757.31	59.941
757.63	59.649
757.94	55.764
758.25	55.882
758.56	57.284
758.87	62.903
759.18	60.303
759.50	61.129
759.81	62.305
760.12	63.125
760.43	60.745
760.74	61.957
761.05	62.429
761.36	58.824
761.67	64.773
761.99	62.422
762.30	63.542
762.61	66.412
762.92	66.406
763.23	63.445
763.54	70.400
763.85	61.719
764.16	68.846
764.47	67.681
764.78	59.364
765.10	58.544
765.41	64.602
765.72	61.677
766.03	62.069
766.34	60.667
766.65	67.234
766.96	67.949
767.27	75.127
767.58	71.354
767.89	78.947
768.20	69.540
768.51	72.081
768.82	70.642
769.13	65.041
769.44	62.348
769.75	68.240
770.06	67.890
770.37	67.873
770.68	70.833
770.99	73.333
771.30	61.066
771.61	68.161
771.92	68.852
772.23	66.387
772.54	70.256
772.85	72.251
773.16	73.936
773.47	78.804
773.78	65.990
774.09	78.571
774.39	77.778
774.70	76.543
775.01	86.957
775.32	84.314
775.63	74.342
775.94	79.137
776.25	92.126
776.56	81.343
776.87	87.705
777.18	83.594
777.48	90.840
777.79	81.061
778.10	85.926
778.41	94.643
778.72	76.642
779.03	71.812
779.34	72.483
779.65	81.081
779.95	81.595
780.26	81.046
780.57	83.448
780.88	85.156
781.19	86.466
781.50	84.459
781.80	76.101
782.11	68.927
782.42	74.684
782.73	73.006
783.04	73.649
783.34	83.099
783.65	78.082
783.96	88.060
784.27	75.524
784.57	74.820
784.88	83.333
785.19	81.746
785.50	79.245
785.81	85.821
786.11	86.066
786.42	82.171
786.73	84.956
787.04	100.000
787.34	92.857
787.65	95.000
787.96	85.586
788.26	84.298
788.57	97.458
788.88	98.347
789.19	77.083
789.49	85.606
789.80	80.153
790.11	94.286
790.41	97.030
790.72	101.205
791.03	97.826
791.33	95.349
791.64	91.753
791.95	101.980
792.25	93.333
792.56	120.779
792.87	119.231
793.17	120.253
793.48	95.402
793.79	105.747
794.09	102.273
794.40	71.429
794.70	77.941
795.01	75.556
795.32	66.906
795.62	76.378
795.93	91.379
796.23	90.265
796.54	92.941
796.85	90.541
797.15	121.127
797.46	110.606
797.76	103.614
798.07	100.000
798.37	95.385
798.68	110.606
798.99	104.225
799.29	101.299
799.60	88.636
799.90	106.849
800.21	119.403
800.51	108.621
800.82	140.351
801.12	132.787
801.43	125.758
801.73	91.892
802.04	114.286
802.34	96.296
802.65	112.500
802.95	130.508
803.26	121.875
803.56	91.429
803.87	100.000
804.17	104.412
804.48	137.037
804.78	89.655
805.09	113.235
805.39	138.462
805.70	96.429
806.00	127.869
806.30	104.545
806.61	96.341
806.91	105.063
807.22	102.632
807.52	105.970
807.83	112.676
808.13	120.313
808.43	113.333
808.74	105.263
809.04	117.391
809.35	95.522
809.65	86.842
809.95	141.935
810.26	118.644
810.56	100.000
810.86	163.636
811.17	159.524
811.47	115.000
811.77	114.815
812.08	118.182
812.38	136.000
812.69	155.556
812.99	156.818
813.29	140.816
813.59	128.571
813.90	132.653
814.20	110.909
814.50	96.923
814.81	125.000
815.11	128.571
815.41	127.869
815.72	173.810
816.02	129.091
816.32	152.381
816.62	125.000
816.93	134.146
817.23	154.762
817.53	125.000
817.84	196.970
818.14	132.609
818.44	122.222
818.74	150.000
819.04	122.500
819.35	145.714
819.65	188.235
819.95	185.714
820.25	230.000
820.56	158.974
820.86	152.273
821.16	158.140
821.46	158.974
821.76	148.000
822.07	165.714
822.37	162.500
822.67	187.879
822.97	115.686
823.27	203.571
823.57	162.162
823.88	182.500
824.18	170.000
824.48	154.762
824.78	228.000
825.08	204.167
825.38	145.946
825.69	160.976
825.99	241.667
826.29	179.310
826.59	163.158
826.89	152.632
827.19	188.235
827.49	158.065
827.79	143.182
828.09	125.000
828.39	119.149
828.70	132.653
829.00	203.704
829.30	151.613
829.60	145.000
829.90	260.000
830.20	182.143
830.50	217.391
830.80	204.348
831.10	190.000
831.40	186.667
831.70	191.304
832.00	200.000
832.30	181.481
832.60	250.000
832.90	206.667
833.20	371.429
833.50	174.194
833.80	175.862
834.10	218.750
834.40	219.231
834.70	261.111
835.00	357.143
835.30	162.857
835.60	284.615
835.90	206.897
836.20	278.571
836.50	200.000
836.80	208.000
837.10	166.667
837.40	247.619
837.70	335.294
838.00	222.222
838.30	223.810
838.60	271.429
838.90	184.615
839.19	235.000
839.49	464.286
839.79	290.000
840.09	235.000
840.39	261.905
840.69	269.565
840.99	272.222
841.29	370.000
841.59	316.667
841.88	337.500
842.18	162.069
842.48	219.048
842.78	173.333
843.08	221.739
843.38	146.875
843.68	833.333
843.97	215.385
844.27	186.207
844.57	219.048
844.87	337.500
845.17	207.407
845.47	1333.333
845.76	477.778
846.06	288.235
846.36	425.000
846.66	321.429
846.96	256.250
847.25	354.545
847.55	418.182
847.85	256.522
848.15	480.000
848.44	392.857
848.74	238.889
849.04	252.941
849.34	410.000
849.63	200.000
849.93	409.091
850.23	940.000
850.53	385.714
850.82	1750.000
851.12	-3800.000
851.42	4400.000
851.71	255.000
852.01	-866.667
852.31	187.500
852.61	1533.333
852.90	242.857
853.20	176.000
853.50	247.059
853.79	252.381
854.09	162.500
854.39	312.500
854.68	151.351
854.98	174.194
855.28	190.000
855.57	210.345
855.87	181.481
856.17	168.421
856.46	240.000
856.76	235.294
857.05	172.414
857.35	204.167
857.65	306.667
857.94	252.174
858.24	196.154
858.53	275.000
858.83	209.091
859.13	286.667
859.42	0.000
859.72	555.556
860.01	381.818
860.31	227.273
860.60	257.895
860.90	173.913
861.20	566.667
861.49	458.333
861.79	-3700.000
862.08	512.500
862.38	238.095
862.67	353.846
862.97	270.588
863.26	366.667
863.56	161.111
863.85	275.000
864.15	462.500
864.44	400.000
864.74	783.333
865.03	537.500
865.33	226.316
865.62	463.636
865.92	300.000
866.21	333.333
866.51	0.000
866.80	336.364
867.10	960.000
867.39	400.000
867.69	354.545
867.98	252.632
868.27	336.364
868.57	268.421
868.86	-3300.000
869.16	337.500
869.45	1350.000
869.75	-3900.000
870.04	400.000
870.33	571.429
870.63	850.000
870.92	2050.000
871.22	642.857
871.51	270.588
871.80	171.429
872.10	285.714
>>>>>End Processed Spectral Data<<<<<
