SpectraSuite Data File
++++++++++++++++++++++++++++++++++++
Date: Wed May 13 16:29:21 PDT 2015
User: schluterlab
Dark Spectrum Present: Yes
Reference Spectrum Present: Yes
Number of Sampled Component Spectra: 1
Spectrometers: USB2E3373
Integration Time (usec): 3000 (USB2E3373)
Spectra Averaged: 3 (USB2E3373)
Boxcar Smoothing: 0 (USB2E3373)
Correct for Electrical Dark: No (USB2E3373)
Strobe/Lamp Enabled: No (USB2E3373)
Correct for Detector Non-linearity: No (USB2E3373)
Correct for Stray Light: No (USB2E3373)
Number of Pixels in Processed Spectrum: 2048
>>>>>Begin Processed Spectral Data<<<<<
178.53	0.000
178.91	-1275.000
179.29	-1200.000
179.67	-255.556
180.04	-1175.000
180.42	2300.000
180.80	940.000
181.18	-925.000
181.56	671.429
181.94	0.000
182.31	-600.000
182.69	1466.667
183.07	-575.000
183.45	-522.222
183.83	509.091
184.20	-400.000
184.58	2050.000
184.96	4600.000
185.34	-740.000
185.72	-562.500
186.09	-2100.000
186.47	2600.000
186.85	2200.000
187.23	3800.000
187.61	-1533.333
187.98	1375.000
188.36	500.000
188.74	481.818
189.12	-960.000
189.49	560.000
189.87	-4500.000
190.25	-1150.000
190.63	371.429
191.00	392.308
191.38	933.333
191.76	-1250.000
192.14	1600.000
192.51	600.000
192.89	766.667
193.27	550.000
193.65	-1100.000
194.02	490.000
194.40	1040.000
194.78	500.000
195.15	425.000
195.53	630.000
195.91	-2000.000
196.29	281.250
196.66	300.000
197.04	-390.000
197.42	0.000
197.79	550.000
198.17	-5000.000
198.55	585.714
198.92	562.500
199.30	780.000
199.68	0.000
200.05	316.667
200.43	600.000
200.81	3600.000
201.18	1600.000
201.56	-1566.667
201.94	488.889
202.31	600.000
202.69	516.667
203.07	510.000
203.44	0.000
203.82	1150.000
204.19	685.714
204.57	421.429
204.95	650.000
205.32	1600.000
205.70	490.909
206.08	321.429
206.45	2650.000
206.83	350.000
207.20	783.333
207.58	620.000
207.96	322.222
208.33	562.500
208.71	-966.667
209.08	785.714
209.46	577.778
209.84	409.091
210.21	-1600.000
210.59	1425.000
210.96	-437.500
211.34	2100.000
211.71	590.000
212.09	700.000
212.46	0.000
212.84	1766.667
213.22	1125.000
213.59	-4100.000
213.97	833.333
214.34	842.857
214.72	563.636
215.09	940.000
215.47	-2100.000
215.84	-2500.000
216.22	1633.333
216.59	364.286
216.97	1200.000
217.34	400.000
217.72	-816.667
218.09	0.000
218.47	-4600.000
218.84	666.667
219.22	728.571
219.59	1666.667
219.97	-528.571
220.34	900.000
220.72	-1700.000
221.09	364.286
221.47	1400.000
221.84	-800.000
222.22	0.000
222.59	1300.000
222.97	-2400.000
223.34	880.000
223.72	476.923
224.09	1000.000
224.46	2500.000
224.84	-3800.000
225.21	-920.000
225.59	-5100.000
225.96	550.000
226.34	325.000
226.71	2150.000
227.08	737.500
227.46	540.000
227.83	-1000.000
228.21	-2400.000
228.58	477.778
228.95	-2300.000
229.33	-2100.000
229.70	1666.667
230.08	671.429
230.45	-880.000
230.82	450.000
231.20	800.000
231.57	557.143
231.95	458.333
232.32	218.182
232.69	409.091
233.07	628.571
233.44	376.923
233.81	-1566.667
234.19	252.632
234.56	383.333
234.93	366.667
235.31	454.545
235.68	315.385
236.05	250.000
236.43	166.667
236.80	178.947
237.17	3600.000
237.55	209.524
237.92	182.143
238.29	214.286
238.67	167.742
239.04	196.552
239.41	133.333
239.79	106.522
240.16	104.762
240.53	118.182
240.91	101.961
241.28	88.000
241.65	82.000
242.02	79.710
242.40	82.258
242.77	81.667
243.14	62.366
243.51	68.539
243.89	65.882
244.26	58.889
244.63	50.538
245.00	43.617
245.38	40.594
245.75	42.056
246.12	40.367
246.49	48.175
246.87	53.600
247.24	43.077
247.61	42.143
247.98	37.255
248.36	27.703
248.73	34.395
249.10	36.306
249.47	28.249
249.84	32.620
250.22	32.086
250.59	31.361
250.96	35.859
251.33	33.175
251.70	35.149
252.08	26.667
252.45	27.354
252.82	30.000
253.19	25.532
253.56	26.275
253.94	24.066
254.31	25.391
254.68	28.462
255.05	24.354
255.42	24.390
255.79	26.103
256.16	24.188
256.54	21.908
256.91	25.623
257.28	15.468
257.65	20.132
258.02	22.050
258.39	20.189
258.76	22.742
259.14	19.940
259.51	21.277
259.88	17.391
260.25	20.846
260.62	19.075
260.99	18.944
261.36	22.222
261.73	20.630
262.10	18.605
262.47	18.310
262.85	17.827
263.22	17.949
263.59	21.083
263.96	15.934
264.33	17.232
264.70	19.474
265.07	17.647
265.44	16.162
265.81	15.815
266.18	18.593
266.55	17.073
266.92	17.690
267.29	18.981
267.66	14.908
268.03	18.409
268.40	15.187
268.77	16.706
269.14	16.441
269.51	18.510
269.88	19.114
270.25	15.576
270.62	16.854
270.99	17.634
271.36	14.378
271.73	16.589
272.10	17.391
272.47	18.495
272.84	14.502
273.21	18.449
273.58	15.066
273.95	13.836
274.32	14.669
274.69	14.989
275.06	14.370
275.43	15.957
275.80	16.433
276.17	15.275
276.54	15.177
276.91	15.810
277.28	13.281
277.65	15.861
278.02	15.321
278.39	16.797
278.76	15.455
279.13	16.981
279.50	15.456
279.87	14.542
280.23	13.972
280.60	12.766
280.97	14.787
281.34	16.283
281.71	15.273
282.08	15.163
282.45	11.273
282.82	14.920
283.19	10.873
283.56	15.088
283.92	14.044
284.29	12.875
284.66	12.704
285.03	13.020
285.40	12.500
285.77	13.300
286.14	12.435
286.51	14.167
286.87	13.162
287.24	14.658
287.61	13.002
287.98	13.312
288.35	13.154
288.72	11.838
289.08	12.833
289.45	11.038
289.82	13.171
290.19	11.617
290.56	11.639
290.93	11.934
291.29	11.656
291.66	13.127
292.03	13.372
292.40	12.041
292.77	10.651
293.13	12.388
293.50	11.808
293.87	10.370
294.24	10.074
294.60	10.771
294.97	12.791
295.34	11.989
295.71	12.926
296.08	10.684
296.44	8.941
296.81	10.832
297.18	13.686
297.55	10.026
297.91	9.103
298.28	10.442
298.65	11.227
299.02	11.462
299.38	10.890
299.75	7.817
300.12	9.068
300.48	9.125
300.85	11.467
301.22	10.191
301.59	9.217
301.95	9.320
302.32	11.168
302.69	10.036
303.05	9.697
303.42	9.753
303.79	11.212
304.15	9.441
304.52	9.733
304.89	9.059
305.25	9.629
305.62	9.513
305.99	11.216
306.35	9.508
306.72	10.202
307.09	10.322
307.45	11.261
307.82	9.263
308.19	10.927
308.55	9.385
308.92	11.600
309.29	9.715
309.65	10.923
310.02	9.514
310.38	10.860
310.75	10.032
311.12	9.724
311.48	10.658
311.85	11.321
312.22	11.655
312.58	11.123
312.95	12.988
313.31	11.845
313.68	11.746
314.05	13.708
314.41	12.261
314.78	11.984
315.14	11.917
315.51	12.770
315.87	14.059
316.24	14.499
316.61	13.353
316.97	13.992
317.34	14.188
317.70	14.914
318.07	15.784
318.43	16.438
318.80	15.745
319.16	16.478
319.53	17.636
319.89	19.238
320.26	19.700
320.62	20.238
320.99	21.313
321.35	21.313
321.72	22.177
322.08	22.705
322.45	25.075
322.81	26.550
323.18	26.686
323.54	26.994
323.91	27.547
324.27	30.115
324.64	28.984
325.00	29.666
325.37	34.486
325.73	34.381
326.10	33.892
326.46	35.932
326.83	38.309
327.19	38.087
327.56	38.937
327.92	42.432
328.29	44.454
328.65	43.923
329.01	44.675
329.38	46.809
329.74	46.260
330.11	48.068
330.47	48.577
330.84	49.081
331.20	50.091
331.56	50.367
331.93	52.500
332.29	51.819
332.66	53.451
333.02	54.113
333.38	53.930
333.75	55.258
334.11	55.338
334.48	54.481
334.84	55.423
335.20	56.455
335.57	56.210
335.93	56.429
336.29	55.495
336.66	58.070
337.02	56.109
337.38	58.333
337.75	56.150
338.11	56.759
338.47	58.840
338.84	57.562
339.20	57.798
339.56	60.310
339.93	58.727
340.29	59.149
340.65	58.913
341.02	59.511
341.38	60.053
341.74	58.333
342.11	59.651
342.47	61.850
342.83	60.873
343.20	60.952
343.56	59.646
343.92	59.912
344.28	60.204
344.65	63.457
345.01	60.943
345.37	59.605
345.73	60.829
346.10	61.040
346.46	61.695
346.82	61.120
347.19	61.320
347.55	60.427
347.91	60.680
348.27	61.956
348.63	63.127
349.00	61.327
349.36	61.658
349.72	59.743
350.08	61.750
350.45	61.351
350.81	62.145
351.17	62.804
351.53	61.916
351.89	62.129
352.26	62.668
352.62	62.069
352.98	60.859
353.34	63.435
353.70	63.011
354.07	64.677
354.43	60.952
354.79	62.108
355.15	62.490
355.51	64.269
355.87	63.510
356.24	64.169
356.60	62.871
356.96	64.843
357.32	64.186
357.68	63.071
358.04	62.787
358.40	63.500
358.77	65.415
359.13	63.773
359.49	63.216
359.85	63.016
360.21	64.274
360.57	64.280
360.93	63.385
361.29	62.812
361.66	63.390
362.02	65.896
362.38	65.247
362.74	65.104
363.10	65.063
363.46	65.371
363.82	65.079
364.18	64.758
364.54	66.196
364.90	66.006
365.26	67.574
365.62	67.348
365.98	65.814
366.35	65.544
366.71	65.944
367.07	67.007
367.43	69.376
367.79	67.737
368.15	68.534
368.51	66.788
368.87	67.166
369.23	68.544
369.59	67.994
369.95	68.309
370.31	66.738
370.67	66.449
371.03	70.262
371.39	69.242
371.75	68.382
372.11	67.283
372.47	69.282
372.83	70.461
373.19	69.220
373.55	71.175
373.91	70.839
374.27	67.766
374.63	70.691
374.99	69.562
375.35	68.946
375.71	69.911
376.07	70.370
376.42	71.733
376.78	71.968
377.14	72.049
377.50	72.119
377.86	70.213
378.22	71.176
378.58	70.927
378.94	71.402
379.30	73.028
379.66	74.746
380.02	73.157
380.38	70.978
380.74	73.409
381.09	72.800
381.45	73.448
381.81	73.403
382.17	74.331
382.53	74.214
382.89	73.951
383.25	73.859
383.61	74.721
383.97	72.921
384.32	71.740
384.68	73.792
385.04	74.124
385.40	73.003
385.76	74.324
386.12	74.158
386.48	74.890
386.83	75.241
387.19	75.881
387.55	76.067
387.91	75.635
388.27	75.046
388.62	75.292
388.98	75.000
389.34	75.156
389.70	75.169
390.06	76.046
390.42	74.968
390.77	74.682
391.13	76.452
391.49	75.444
391.85	76.703
392.20	74.700
392.56	77.146
392.92	77.575
393.28	75.799
393.64	75.600
393.99	74.832
394.35	75.620
394.71	76.223
395.07	75.265
395.42	77.627
395.78	75.954
396.14	75.171
396.50	77.444
396.85	75.524
397.21	75.586
397.57	76.193
397.92	75.601
398.28	74.888
398.64	75.866
399.00	74.818
399.35	76.481
399.71	75.231
400.07	75.044
400.42	74.908
400.78	77.986
401.14	76.463
401.49	76.657
401.85	75.318
402.21	74.731
402.57	76.990
402.92	77.238
403.28	77.639
403.63	75.062
403.99	77.389
404.35	76.545
404.70	76.679
405.06	76.296
405.42	76.294
405.77	76.057
406.13	73.871
406.49	74.867
406.84	74.897
407.20	74.704
407.55	76.899
407.91	77.800
408.27	76.707
408.62	74.413
408.98	77.022
409.34	75.523
409.69	75.548
410.05	75.465
410.40	75.963
410.76	75.149
411.11	74.970
411.47	73.227
411.83	75.137
412.18	74.335
412.54	76.214
412.89	74.819
413.25	75.089
413.60	76.343
413.96	74.074
414.31	75.030
414.67	74.525
415.03	74.967
415.38	75.838
415.74	73.698
416.09	77.596
416.45	74.967
416.80	75.876
417.16	76.408
417.51	75.912
417.87	74.888
418.22	76.088
418.58	76.888
418.93	75.676
419.29	73.838
419.64	74.748
420.00	74.451
420.35	74.841
420.71	76.808
421.06	76.372
421.42	75.731
421.77	74.383
422.12	74.621
422.48	74.582
422.83	76.063
423.19	75.193
423.54	74.695
423.90	75.594
424.25	74.707
424.61	75.417
424.96	74.519
425.31	75.471
425.67	73.427
426.02	74.400
426.38	77.289
426.73	75.132
427.09	75.076
427.44	74.986
427.79	75.273
428.15	76.190
428.50	74.547
428.85	76.222
429.21	74.765
429.56	75.428
429.92	74.987
430.27	75.323
430.62	74.962
430.98	74.987
431.33	73.505
431.68	75.550
432.04	73.429
432.39	75.500
432.74	76.002
433.10	75.891
433.45	75.918
433.80	76.497
434.16	74.626
434.51	74.579
434.86	75.770
435.22	76.598
435.57	75.866
435.92	75.132
436.28	77.284
436.63	75.497
436.98	75.558
437.34	76.208
437.69	76.721
438.04	77.572
438.39	77.254
438.75	76.700
439.10	77.933
439.45	76.210
439.81	76.677
440.16	75.494
440.51	76.626
440.86	77.302
441.22	78.309
441.57	77.335
441.92	77.021
442.27	77.449
442.63	76.619
442.98	76.789
443.33	74.239
443.68	76.304
444.03	76.330
444.39	75.316
444.74	76.515
445.09	75.741
445.44	76.599
445.79	76.051
446.15	74.643
446.50	76.414
446.85	75.540
447.20	76.390
447.55	77.945
447.91	77.441
448.26	76.739
448.61	76.653
448.96	77.076
449.31	77.109
449.66	76.140
450.02	78.106
450.37	75.794
450.72	76.706
451.07	76.356
451.42	74.650
451.77	77.217
452.12	75.173
452.47	75.622
452.83	78.730
453.18	76.711
453.53	77.737
453.88	76.551
454.23	76.689
454.58	77.468
454.93	77.686
455.28	76.870
455.63	77.549
455.98	77.440
456.34	76.884
456.69	78.147
457.04	79.257
457.39	77.499
457.74	77.365
458.09	75.618
458.44	77.594
458.79	74.837
459.14	77.257
459.49	76.591
459.84	76.676
460.19	76.134
460.54	76.100
460.89	75.699
461.24	77.292
461.59	76.119
461.94	75.832
462.29	77.092
462.64	75.558
462.99	75.992
463.34	75.800
463.69	77.361
464.04	76.696
464.39	76.232
464.74	76.233
465.09	76.236
465.44	75.291
465.79	74.944
466.14	74.713
466.49	75.528
466.84	75.949
467.19	76.403
467.54	76.312
467.89	73.890
468.24	74.811
468.59	76.984
468.94	75.443
469.29	77.635
469.64	77.041
469.99	77.131
470.34	78.071
470.68	76.580
471.03	76.939
471.38	77.345
471.73	76.815
472.08	77.829
472.43	75.565
472.78	76.827
473.13	75.417
473.48	76.404
473.83	75.732
474.17	76.665
474.52	77.047
474.87	77.116
475.22	76.378
475.57	75.175
475.92	75.677
476.27	75.536
476.61	74.573
476.96	74.876
477.31	74.830
477.66	76.149
478.01	74.595
478.36	75.621
478.70	75.286
479.05	76.411
479.40	76.100
479.75	77.428
480.10	74.851
480.45	74.346
480.79	73.196
481.14	75.147
481.49	75.036
481.84	74.348
482.19	74.284
482.53	75.000
482.88	74.779
483.23	75.140
483.58	74.704
483.92	75.117
484.27	72.636
484.62	74.784
484.97	73.512
485.31	76.233
485.66	74.189
486.01	71.518
486.36	68.692
486.70	67.570
487.05	68.493
487.40	70.735
487.75	71.030
488.09	72.581
488.44	72.448
488.79	74.575
489.13	74.064
489.48	74.878
489.83	73.716
490.17	74.616
490.52	73.251
490.87	74.808
491.22	73.806
491.56	73.804
491.91	73.616
492.26	73.036
492.60	74.378
492.95	73.714
493.30	73.318
493.64	73.962
493.99	73.445
494.34	74.052
494.68	74.313
495.03	74.671
495.37	72.545
495.72	75.244
496.07	75.128
496.41	72.743
496.76	74.758
497.11	72.985
497.45	73.544
497.80	74.664
498.14	73.285
498.49	74.049
498.84	74.065
499.18	73.905
499.53	73.457
499.87	73.625
500.22	73.575
500.56	75.097
500.91	73.077
501.26	74.443
501.60	74.371
501.95	71.952
502.29	75.351
502.64	74.534
502.98	73.025
503.33	73.172
503.67	73.875
504.02	72.872
504.36	72.064
504.71	73.034
505.06	73.012
505.40	73.019
505.75	72.372
506.09	72.983
506.44	73.853
506.78	74.330
507.13	74.912
507.47	73.939
507.82	73.708
508.16	74.012
508.51	73.617
508.85	74.330
509.19	74.133
509.54	73.163
509.88	72.849
510.23	74.242
510.57	73.787
510.92	74.469
511.26	73.587
511.61	72.873
511.95	72.495
512.30	73.330
512.64	74.100
512.98	74.544
513.33	73.876
513.67	73.799
514.02	72.835
514.36	74.877
514.70	74.433
515.05	74.345
515.39	74.033
515.74	72.917
516.08	74.008
516.42	74.473
516.77	74.582
517.11	73.862
517.46	74.323
517.80	75.552
518.14	74.928
518.49	75.263
518.83	74.943
519.17	74.885
519.52	75.212
519.86	74.102
520.20	73.699
520.55	74.446
520.89	75.608
521.23	75.694
521.58	73.950
521.92	75.505
522.26	73.459
522.61	75.389
522.95	75.384
523.29	73.767
523.64	75.061
523.98	74.122
524.32	73.341
524.66	74.624
525.01	74.265
525.35	75.155
525.69	72.845
526.04	73.769
526.38	73.459
526.72	73.497
527.06	74.388
527.41	72.215
527.75	74.598
528.09	75.530
528.43	74.634
528.78	73.510
529.12	72.909
529.46	74.219
529.80	75.433
530.15	74.393
530.49	72.554
530.83	73.987
531.17	76.632
531.51	76.524
531.86	74.323
532.20	74.772
532.54	73.991
532.88	74.583
533.22	73.517
533.57	73.025
533.91	72.607
534.25	73.026
534.59	73.276
534.93	72.219
535.27	73.325
535.62	72.222
535.96	73.384
536.30	74.126
536.64	72.891
536.98	73.922
537.32	73.535
537.66	74.667
538.01	73.404
538.35	73.820
538.69	73.197
539.03	72.840
539.37	72.077
539.71	71.355
540.05	73.399
540.39	73.488
540.73	72.898
541.07	74.043
541.42	73.125
541.76	72.968
542.10	73.739
542.44	73.642
542.78	74.242
543.12	71.081
543.46	72.459
543.80	73.715
544.14	70.924
544.48	73.460
544.82	73.445
545.16	73.455
545.50	72.558
545.84	73.185
546.18	73.535
546.52	74.742
546.86	73.952
547.20	74.241
547.54	74.148
547.88	72.513
548.22	72.291
548.56	73.396
548.90	71.255
549.24	72.929
549.58	73.874
549.92	72.527
550.26	75.000
550.60	72.614
550.94	74.718
551.28	73.080
551.62	73.904
551.96	74.035
552.30	73.242
552.64	74.577
552.98	74.034
553.32	72.623
553.66	73.347
554.00	73.850
554.34	73.706
554.68	74.678
555.02	72.779
555.36	73.278
555.69	71.922
556.03	71.803
556.37	73.397
556.71	72.988
557.05	72.969
557.39	71.798
557.73	72.124
558.07	76.360
558.41	73.589
558.75	73.769
559.08	75.317
559.42	75.964
559.76	73.676
560.10	73.019
560.44	72.746
560.78	73.187
561.12	73.021
561.45	73.598
561.79	73.303
562.13	72.837
562.47	74.112
562.81	74.268
563.15	70.635
563.48	73.077
563.82	73.581
564.16	72.073
564.50	72.005
564.84	69.722
565.17	72.265
565.51	73.099
565.85	71.383
566.19	71.196
566.52	73.148
566.86	70.826
567.20	71.639
567.54	72.374
567.88	69.745
568.21	71.005
568.55	69.919
568.89	69.358
569.23	68.672
569.56	68.785
569.90	68.075
570.24	67.420
570.57	66.780
570.91	65.740
571.25	65.689
571.59	65.744
571.92	66.417
572.26	66.089
572.60	66.186
572.93	65.217
573.27	65.986
573.61	66.108
573.95	65.530
574.28	65.050
574.62	64.747
574.96	64.421
575.29	63.991
575.63	65.142
575.97	65.035
576.30	65.003
576.64	65.529
576.98	65.241
577.31	64.857
577.65	64.647
577.98	65.480
578.32	63.562
578.66	64.130
578.99	63.707
579.33	64.270
579.67	64.145
580.00	65.116
580.34	64.452
580.67	65.658
581.01	65.617
581.35	64.614
581.68	64.125
582.02	63.267
582.35	63.363
582.69	63.123
583.02	64.009
583.36	64.699
583.70	65.360
584.03	65.569
584.37	65.665
584.70	66.432
585.04	64.702
585.37	65.075
585.71	65.014
586.04	64.098
586.38	65.831
586.72	65.783
587.05	65.336
587.39	64.881
587.72	65.653
588.06	65.048
588.39	65.240
588.73	65.738
589.06	66.345
589.40	66.734
589.73	67.441
590.07	67.224
590.40	66.423
590.73	67.252
591.07	68.620
591.40	67.356
591.74	68.831
592.07	67.714
592.41	67.259
592.74	66.367
593.08	66.322
593.41	66.245
593.75	64.772
594.08	65.639
594.41	65.818
594.75	66.728
595.08	65.820
595.42	66.480
595.75	66.880
596.09	66.804
596.42	66.798
596.75	66.695
597.09	68.442
597.42	66.105
597.75	67.141
598.09	66.391
598.42	67.440
598.76	66.315
599.09	66.439
599.42	65.029
599.76	66.032
600.09	65.683
600.42	65.376
600.76	64.643
601.09	65.610
601.42	65.487
601.76	65.731
602.09	65.573
602.42	67.118
602.76	67.150
603.09	67.073
603.42	65.756
603.76	66.120
604.09	65.529
604.42	66.735
604.76	66.976
605.09	66.186
605.42	65.626
605.75	66.598
606.09	65.230
606.42	66.530
606.75	66.114
607.09	66.304
607.42	66.453
607.75	65.190
608.08	65.523
608.42	67.055
608.75	66.141
609.08	66.281
609.41	67.872
609.75	66.651
610.08	67.295
610.41	66.760
610.74	69.347
611.07	68.182
611.41	67.076
611.74	67.672
612.07	68.116
612.40	68.730
612.73	67.789
613.07	69.828
613.40	67.773
613.73	67.069
614.06	67.849
614.39	66.492
614.72	67.895
615.06	67.752
615.39	68.259
615.72	66.667
616.05	67.464
616.38	69.205
616.71	70.012
617.05	68.433
617.38	69.333
617.71	69.850
618.04	69.591
618.37	68.598
618.70	69.571
619.03	70.592
619.36	71.758
619.69	71.549
620.03	70.536
620.36	70.120
620.69	70.959
621.02	70.796
621.35	71.887
621.68	70.717
622.01	71.207
622.34	71.710
622.67	70.798
623.00	69.846
623.33	69.478
623.66	70.908
623.99	70.545
624.32	69.116
624.65	69.986
624.99	68.909
625.32	71.035
625.65	70.999
625.98	71.637
626.31	71.695
626.64	72.816
626.97	72.153
627.30	72.153
627.63	72.847
627.96	73.591
628.29	72.353
628.62	72.736
628.95	74.340
629.28	72.628
629.61	73.236
629.94	76.000
630.26	73.403
630.59	73.213
630.92	72.414
631.25	73.445
631.58	72.873
631.91	72.617
632.24	75.949
632.57	74.921
632.90	77.193
633.23	75.615
633.56	74.124
633.89	75.991
634.22	76.163
634.55	78.698
634.88	76.766
635.20	77.897
635.53	75.783
635.86	80.446
636.19	76.000
636.52	76.355
636.85	78.236
637.18	74.770
637.51	76.714
637.83	75.216
638.16	77.494
638.49	76.448
638.82	78.382
639.15	76.250
639.48	75.935
639.81	78.686
640.13	79.036
640.46	76.644
640.79	76.750
641.12	79.230
641.45	79.050
641.77	81.738
642.10	80.409
642.43	78.529
642.76	79.876
643.09	80.061
643.41	78.756
643.74	80.864
644.07	80.945
644.40	80.215
644.73	81.417
645.05	80.507
645.38	78.831
645.71	80.515
646.04	80.565
646.36	82.304
646.69	81.438
647.02	79.592
647.35	80.069
647.67	82.124
648.00	77.236
648.33	79.703
648.66	77.879
648.98	78.711
649.31	76.383
649.64	77.728
649.96	76.155
650.29	78.515
650.62	79.288
650.94	79.092
651.27	80.236
651.60	78.536
651.92	74.760
652.25	77.524
652.58	80.997
652.90	81.833
653.23	76.271
653.56	77.008
653.88	76.070
654.21	78.041
654.54	77.888
654.86	76.168
655.19	73.514
655.52	58.398
655.84	54.184
656.17	68.201
656.49	90.853
656.82	91.496
657.15	69.182
657.47	51.943
657.80	40.690
658.13	42.488
658.45	62.538
658.78	63.321
659.10	65.830
659.43	68.312
659.75	71.550
660.08	76.076
660.41	82.030
660.73	80.305
661.06	82.006
661.38	84.545
661.71	82.308
662.03	84.221
662.36	77.535
662.68	82.329
663.01	83.232
663.33	82.166
663.66	82.773
663.98	84.017
664.31	81.513
664.63	81.377
664.96	80.885
665.28	82.172
665.61	81.092
665.93	79.678
666.26	81.542
666.58	83.682
666.91	82.030
667.23	82.921
667.56	80.562
667.88	81.624
668.21	79.104
668.53	84.382
668.86	80.952
669.18	82.516
669.50	79.783
669.83	85.839
670.15	82.444
670.48	79.085
670.80	82.974
671.13	83.439
671.45	81.064
671.77	83.096
672.10	80.591
672.42	79.505
672.75	74.129
673.07	77.993
673.39	77.577
673.72	78.320
674.04	80.000
674.37	79.029
674.69	82.004
675.01	79.707
675.34	79.055
675.66	79.789
675.98	77.800
676.31	80.042
676.63	78.132
676.95	79.036
677.28	81.075
677.60	83.956
677.92	82.278
678.25	78.645
678.57	77.689
678.89	81.563
679.22	79.371
679.54	79.198
679.86	73.945
680.18	75.313
680.51	77.128
680.83	75.445
681.15	77.547
681.48	75.992
681.80	78.723
682.12	77.011
682.44	75.822
682.77	78.615
683.09	82.833
683.41	82.705
683.73	83.444
684.06	81.612
684.38	73.973
684.70	79.845
685.02	77.111
685.34	76.007
685.67	72.203
685.99	73.883
686.31	74.573
686.63	71.555
686.96	74.107
687.28	77.256
687.60	74.638
687.92	77.514
688.24	77.947
688.56	77.912
688.89	77.386
689.21	80.349
689.53	78.497
689.85	81.818
690.17	76.398
690.49	79.193
690.82	81.542
691.14	78.125
691.46	74.684
691.78	77.912
692.10	79.132
692.42	76.647
692.74	74.896
693.06	77.234
693.39	75.975
693.71	76.856
694.03	76.211
694.35	76.840
694.67	79.405
694.99	80.976
695.31	79.412
695.63	77.751
695.95	81.907
696.27	80.711
696.59	82.902
696.91	80.311
697.23	73.944
697.56	74.414
697.88	71.779
698.20	75.208
698.52	74.194
698.84	75.947
699.16	76.498
699.48	77.435
699.80	78.502
700.12	82.338
700.44	83.289
700.76	82.873
701.08	83.333
701.40	79.330
701.72	87.755
702.04	84.091
702.36	77.337
702.68	79.320
703.00	79.501
703.32	76.862
703.64	76.676
703.96	77.994
704.28	83.721
704.60	82.405
704.91	84.570
705.23	81.818
705.55	89.369
705.87	90.698
706.19	87.633
706.51	80.062
706.83	84.242
707.15	82.073
707.47	73.990
707.79	79.361
708.11	73.973
708.43	79.048
708.74	75.255
709.06	81.818
709.38	75.591
709.70	82.558
710.02	79.525
710.34	77.273
710.66	76.716
710.98	76.705
711.29	77.035
711.61	79.646
711.93	83.013
712.25	83.923
712.57	89.706
712.89	85.467
713.20	73.252
713.52	87.500
713.84	78.165
714.16	78.963
714.48	78.736
714.80	86.018
715.11	77.233
715.43	78.932
715.75	72.174
716.07	82.428
716.39	78.683
716.70	88.704
717.02	86.331
717.34	78.445
717.66	88.060
717.97	85.657
718.29	78.148
718.61	80.292
718.93	86.397
719.24	82.353
719.56	81.695
719.88	81.017
720.20	80.743
720.51	82.230
720.83	82.528
721.15	83.582
721.46	82.624
721.78	89.247
722.10	84.528
722.42	84.211
722.73	83.146
723.05	86.885
723.37	80.162
723.68	83.012
724.00	80.081
724.32	80.645
724.63	86.992
724.95	78.243
725.27	82.186
725.58	87.109
725.90	79.927
726.22	81.509
726.53	77.083
726.85	78.840
727.16	79.715
727.48	75.177
727.80	79.167
728.11	76.449
728.43	79.615
728.74	77.061
729.06	81.752
729.38	83.456
729.69	80.783
730.01	68.942
730.32	79.514
730.64	76.923
730.96	75.248
731.27	82.781
731.59	77.064
731.90	73.469
732.22	76.398
732.53	72.136
732.85	75.962
733.16	72.669
733.48	77.076
733.80	74.675
734.11	75.478
734.43	75.740
734.74	71.429
735.06	70.774
735.37	75.434
735.69	74.204
736.00	80.392
736.32	74.143
736.63	71.565
736.95	76.038
737.26	71.429
737.58	73.871
737.89	71.906
738.21	73.379
738.52	76.071
738.83	76.981
739.15	72.692
739.46	77.372
739.78	77.778
740.09	73.846
740.41	78.387
740.72	72.125
741.04	80.000
741.35	77.917
741.66	84.444
741.98	81.604
742.29	83.732
742.61	83.190
742.92	78.281
743.23	79.060
743.55	78.000
743.86	84.211
744.18	77.434
744.49	87.081
744.80	77.465
745.12	84.545
745.43	82.379
745.74	81.982
746.06	83.945
746.37	82.511
746.68	81.448
747.00	81.481
747.31	88.095
747.62	76.991
747.94	81.938
748.25	73.617
748.56	78.855
748.88	85.644
749.19	90.000
749.50	86.512
749.82	78.049
750.13	77.143
750.44	75.182
750.75	82.105
751.07	75.241
751.38	75.610
751.69	77.256
752.01	80.075
752.32	79.061
752.63	69.504
752.94	76.230
753.26	79.600
753.57	69.106
753.88	76.953
754.19	75.000
754.51	72.917
754.82	69.675
755.13	75.849
755.44	78.195
755.75	72.628
756.07	67.376
756.38	69.708
756.69	69.128
757.00	64.072
757.31	68.546
757.63	67.836
757.94	65.147
758.25	61.275
758.56	65.185
758.87	66.667
759.18	71.818
759.50	66.144
759.81	66.978
760.12	70.312
760.43	67.908
760.74	66.033
761.05	65.819
761.36	61.230
761.67	67.898
761.99	69.565
762.30	72.569
762.61	72.137
762.92	74.609
763.23	69.748
763.54	77.200
763.85	74.219
764.16	75.000
764.47	77.567
764.78	71.731
765.10	62.975
765.41	67.257
765.72	70.359
766.03	68.025
766.34	72.000
766.65	81.702
766.96	74.786
767.27	78.173
767.58	84.896
767.89	85.789
768.20	85.057
768.51	78.173
768.82	72.477
769.13	69.106
769.44	70.040
769.75	78.112
770.06	75.688
770.37	75.566
770.68	75.463
770.99	74.222
771.30	69.262
771.61	81.166
771.92	68.852
772.23	77.731
772.54	80.513
772.85	82.199
773.16	78.191
773.47	86.957
773.78	75.635
774.09	86.310
774.39	83.626
774.70	83.951
775.01	93.478
775.32	91.503
775.63	90.132
775.94	84.892
776.25	103.937
776.56	97.761
776.87	87.705
777.18	95.312
777.48	98.473
777.79	94.697
778.10	90.370
778.41	96.429
778.72	82.482
779.03	86.577
779.34	87.248
779.65	81.757
779.95	80.982
780.26	88.235
780.57	88.966
780.88	103.125
781.19	91.729
781.50	91.892
781.80	83.648
782.11	77.401
782.42	77.848
782.73	73.006
783.04	94.595
783.34	93.662
783.65	91.096
783.96	88.806
784.27	80.420
784.57	82.014
784.88	95.370
785.19	84.127
785.50	97.170
785.81	86.567
786.11	100.820
786.42	88.372
786.73	91.150
787.04	89.623
787.34	91.964
787.65	100.000
787.96	97.297
788.26	80.165
788.57	101.695
788.88	80.992
789.19	87.500
789.49	89.394
789.80	85.496
790.11	110.476
790.41	104.950
790.72	114.458
791.03	105.435
791.33	95.349
791.64	96.907
791.95	95.050
792.25	102.222
792.56	116.883
792.87	125.641
793.17	122.785
793.48	109.195
793.79	102.299
794.09	113.636
794.40	84.874
794.70	88.235
795.01	80.741
795.32	74.101
795.62	91.339
795.93	89.655
796.23	91.150
796.54	101.176
796.85	120.270
797.15	126.761
797.46	115.152
797.76	110.843
798.07	107.595
798.37	135.385
798.68	124.242
798.99	100.000
799.29	115.584
799.60	100.000
799.90	119.178
800.21	126.866
800.51	125.862
800.82	136.842
801.12	136.066
801.43	130.303
801.73	118.919
802.04	133.333
802.34	103.704
802.65	123.438
802.95	150.847
803.26	118.750
803.56	108.571
803.87	112.308
804.17	110.294
804.48	144.444
804.78	124.138
805.09	107.353
805.39	128.846
805.70	119.643
806.00	137.705
806.30	118.182
806.61	112.195
806.91	113.924
807.22	109.211
807.52	102.985
807.83	119.718
808.13	129.688
808.43	148.333
808.74	101.316
809.04	117.391
809.35	134.328
809.65	93.421
809.95	140.323
810.26	106.780
810.56	128.571
810.86	161.364
811.17	197.619
811.47	131.667
811.77	122.222
812.08	130.909
812.38	156.000
812.69	172.222
812.99	179.545
813.29	146.939
813.59	130.952
813.90	159.184
814.20	129.091
814.50	118.462
814.81	125.000
815.11	144.898
815.41	111.475
815.72	164.286
816.02	129.091
816.32	157.143
816.62	157.500
816.93	139.024
817.23	173.810
817.53	150.000
817.84	196.970
818.14	158.696
818.44	162.222
818.74	208.824
819.04	155.000
819.35	171.429
819.65	202.941
819.95	221.429
820.25	290.000
820.56	182.051
820.86	152.273
821.16	181.395
821.46	153.846
821.76	162.000
822.07	211.429
822.37	172.500
822.67	196.970
822.97	135.294
823.27	235.714
823.57	178.378
823.88	177.500
824.18	240.000
824.48	171.429
824.78	244.000
825.08	220.833
825.38	191.892
825.69	148.780
825.99	279.167
826.29	186.207
826.59	194.737
826.89	165.789
827.19	188.235
827.49	212.903
827.79	140.909
828.09	140.909
828.39	140.426
828.70	159.184
829.00	203.704
829.30	180.645
829.60	155.000
829.90	433.333
830.20	207.143
830.50	243.478
830.80	208.696
831.10	223.333
831.40	193.333
831.70	234.783
832.00	253.846
832.30	170.370
832.60	306.250
832.90	210.000
833.20	414.286
833.50	216.129
833.80	231.034
834.10	190.625
834.40	273.077
834.70	333.333
835.00	328.571
835.30	185.714
835.60	338.462
835.90	234.483
836.20	328.571
836.50	189.655
836.80	204.000
837.10	183.333
837.40	257.143
837.70	352.941
838.00	237.037
838.30	280.952
838.60	314.286
838.90	184.615
839.19	260.000
839.49	364.286
839.79	350.000
840.09	280.000
840.39	261.905
840.69	295.652
840.99	327.778
841.29	470.000
841.59	266.667
841.88	375.000
842.18	179.310
842.48	295.238
842.78	216.667
843.08	182.609
843.38	168.750
843.68	833.333
843.97	261.538
844.27	189.655
844.57	338.095
844.87	312.500
845.17	211.111
845.47	1533.333
845.76	477.778
846.06	305.882
846.36	550.000
846.66	328.571
846.96	350.000
847.25	527.273
847.55	409.091
847.85	260.870
848.15	510.000
848.44	342.857
848.74	222.222
849.04	282.353
849.34	540.000
849.63	210.526
849.93	472.727
850.23	1080.000
850.53	421.429
850.82	2150.000
851.12	-4300.000
851.42	5400.000
851.71	285.000
852.01	-1600.000
852.31	275.000
852.61	1833.333
852.90	309.524
853.20	220.000
853.50	270.588
853.79	276.190
854.09	225.000
854.39	306.250
854.68	205.405
854.98	161.290
855.28	186.667
855.57	220.690
855.87	218.519
856.17	221.053
856.46	226.667
856.76	294.118
857.05	196.552
857.35	233.333
857.65	386.667
857.94	217.391
858.24	242.308
858.53	290.000
858.83	263.636
859.13	333.333
859.42	0.000
859.72	544.444
860.01	463.636
860.31	245.455
860.60	300.000
860.90	217.391
861.20	455.556
861.49	475.000
861.79	-5000.000
862.08	612.500
862.38	295.238
862.67	346.154
862.97	305.882
863.26	555.556
863.56	266.667
863.85	383.333
864.15	537.500
864.44	413.333
864.74	816.667
865.03	737.500
865.33	294.737
865.62	381.818
865.92	400.000
866.21	375.000
866.51	0.000
866.80	454.545
867.10	900.000
867.39	400.000
867.69	381.818
867.98	231.579
868.27	409.091
868.57	284.211
868.86	-4200.000
869.16	350.000
869.45	2250.000
869.75	-4000.000
870.04	450.000
870.33	685.714
870.63	1150.000
870.92	2500.000
871.22	771.429
871.51	388.235
871.80	219.048
872.10	378.571
>>>>>End Processed Spectral Data<<<<<
