SpectraSuite Data File
++++++++++++++++++++++++++++++++++++
Date: Wed May 13 16:34:11 PDT 2015
User: schluterlab
Dark Spectrum Present: Yes
Reference Spectrum Present: Yes
Number of Sampled Component Spectra: 1
Spectrometers: USB2E3373
Integration Time (usec): 3000 (USB2E3373)
Spectra Averaged: 3 (USB2E3373)
Boxcar Smoothing: 0 (USB2E3373)
Correct for Electrical Dark: No (USB2E3373)
Strobe/Lamp Enabled: No (USB2E3373)
Correct for Detector Non-linearity: No (USB2E3373)
Correct for Stray Light: No (USB2E3373)
Number of Pixels in Processed Spectrum: 2048
>>>>>Begin Processed Spectral Data<<<<<
178.53	0.000
178.91	-1075.000
179.29	-1350.000
179.67	-200.000
180.04	-1225.000
180.42	2700.000
180.80	920.000
181.18	-1175.000
181.56	557.143
181.94	0.000
182.31	-600.000
182.69	1466.667
183.07	-537.500
183.45	-455.556
183.83	481.818
184.20	-370.000
184.58	2550.000
184.96	5700.000
185.34	-680.000
185.72	-512.500
186.09	-1800.000
186.47	2650.000
186.85	1950.000
187.23	4400.000
187.61	-1833.333
187.98	1175.000
188.36	518.182
188.74	436.364
189.12	-760.000
189.49	540.000
189.87	-4000.000
190.25	-1150.000
190.63	314.286
191.00	423.077
191.38	700.000
191.76	-1150.000
192.14	1350.000
192.51	700.000
192.89	966.667
193.27	462.500
193.65	-1225.000
194.02	500.000
194.40	940.000
194.78	500.000
195.15	533.333
195.53	630.000
195.91	-1850.000
196.29	306.250
196.66	305.263
197.04	-310.000
197.42	0.000
197.79	650.000
198.17	-4600.000
198.55	585.714
198.92	512.500
199.30	880.000
199.68	0.000
200.05	283.333
200.43	614.286
200.81	4600.000
201.18	1633.333
201.56	-1233.333
201.94	366.667
202.31	500.000
202.69	366.667
203.07	520.000
203.44	0.000
203.82	1050.000
204.19	771.429
204.57	435.714
204.95	675.000
205.32	1533.333
205.70	454.545
206.08	378.571
206.45	2600.000
206.83	331.250
207.20	933.333
207.58	660.000
207.96	272.222
208.33	675.000
208.71	-816.667
209.08	742.857
209.46	533.333
209.84	563.636
210.21	-1133.333
210.59	1075.000
210.96	-362.500
211.34	2550.000
211.71	650.000
212.09	700.000
212.46	0.000
212.84	1866.667
213.22	1300.000
213.59	-4200.000
213.97	816.667
214.34	671.429
214.72	500.000
215.09	940.000
215.47	-2250.000
215.84	-2250.000
216.22	1500.000
216.59	357.143
216.97	1100.000
217.34	509.091
217.72	-766.667
218.09	0.000
218.47	-3400.000
218.84	611.111
219.22	600.000
219.59	1333.333
219.97	-514.286
220.34	1040.000
220.72	-1466.667
221.09	371.429
221.47	1250.000
221.84	-783.333
222.22	0.000
222.59	1275.000
222.97	-2250.000
223.34	1020.000
223.72	461.538
224.09	1020.000
224.46	1900.000
224.84	-5000.000
225.21	-840.000
225.59	-3800.000
225.96	590.000
226.34	295.000
226.71	2300.000
227.08	537.500
227.46	520.000
227.83	-1000.000
228.21	-1850.000
228.58	555.556
228.95	-2450.000
229.33	-2300.000
229.70	1933.333
230.08	728.571
230.45	-920.000
230.82	466.667
231.20	650.000
231.57	542.857
231.95	408.333
232.32	245.455
232.69	363.636
233.07	600.000
233.44	346.154
233.81	-1466.667
234.19	284.211
234.56	341.667
234.93	391.667
235.31	409.091
235.68	330.769
236.05	264.286
236.43	169.697
236.80	242.105
237.17	4100.000
237.55	185.714
237.92	167.857
238.29	228.571
238.67	174.194
239.04	165.517
239.41	127.778
239.79	100.000
240.16	116.667
240.53	118.182
240.91	68.627
241.28	90.000
241.65	116.000
242.02	76.812
242.40	83.871
242.77	83.333
243.14	75.269
243.51	66.292
243.89	69.412
244.26	52.222
244.63	59.140
245.00	55.319
245.38	48.515
245.75	44.860
246.12	39.450
246.49	55.474
246.87	49.600
247.24	50.769
247.61	42.857
247.98	37.908
248.36	33.784
248.73	40.764
249.10	42.675
249.47	36.158
249.84	38.503
250.22	32.086
250.59	31.361
250.96	34.343
251.33	34.597
251.70	35.644
252.08	27.619
252.45	29.596
252.82	21.739
253.19	28.936
253.56	29.804
253.94	31.950
254.31	28.906
254.68	28.077
255.05	29.889
255.42	27.642
255.79	27.941
256.16	25.993
256.54	21.908
256.91	24.199
257.28	23.381
257.65	25.743
258.02	25.466
258.39	21.767
258.76	21.739
259.14	24.107
259.51	24.316
259.88	19.876
260.25	22.659
260.62	23.410
260.99	22.360
261.36	25.225
261.73	21.203
262.10	21.802
262.47	24.225
262.85	21.448
263.22	19.658
263.59	24.786
263.96	23.352
264.33	21.932
264.70	19.737
265.07	19.693
265.44	21.212
265.81	19.708
266.18	21.357
266.55	20.000
266.92	19.656
267.29	21.296
267.66	18.349
268.03	19.091
268.40	19.393
268.77	19.332
269.14	18.018
269.51	22.122
269.88	19.814
270.25	18.962
270.62	15.955
270.99	21.935
271.36	19.313
271.73	20.327
272.10	18.696
272.47	17.849
272.84	20.563
273.21	19.497
273.58	17.904
273.95	17.191
274.32	15.702
274.69	18.630
275.06	16.732
275.43	18.511
275.80	15.431
276.17	16.293
276.54	19.127
276.91	17.984
277.28	16.016
277.65	17.602
278.02	15.735
278.39	19.922
278.76	17.818
279.13	17.925
279.50	18.808
279.87	15.339
280.23	16.966
280.60	16.054
280.97	15.342
281.34	16.991
281.71	18.364
282.08	19.578
282.45	16.000
282.82	16.163
283.19	13.725
283.56	17.719
283.92	16.413
284.29	17.108
284.66	17.604
285.03	15.009
285.40	14.965
285.77	14.815
286.14	15.199
286.51	17.500
286.87	14.872
287.24	18.404
287.61	16.051
287.98	16.558
288.35	16.165
288.72	15.265
289.08	15.493
289.45	14.662
289.82	16.585
290.19	13.501
290.56	14.548
290.93	13.444
291.29	14.417
291.66	14.897
292.03	16.860
292.40	15.272
292.77	12.426
293.13	14.478
293.50	16.472
293.87	13.333
294.24	14.370
294.60	13.683
294.97	14.390
295.34	15.374
295.71	14.205
296.08	14.530
296.44	13.893
296.81	13.871
297.18	13.550
297.55	12.533
297.91	12.665
298.28	13.521
298.65	14.360
299.02	13.175
299.38	12.218
299.75	10.377
300.12	13.282
300.48	12.625
300.85	14.057
301.22	12.739
301.59	11.616
301.95	13.476
302.32	13.094
302.69	14.098
303.05	11.879
303.42	12.099
303.79	13.250
304.15	12.238
304.52	12.399
304.89	11.731
305.25	11.717
305.62	12.797
305.99	13.577
306.35	12.975
306.72	12.108
307.09	12.653
307.45	13.401
307.82	13.393
308.19	12.472
308.55	12.837
308.92	13.534
309.29	12.777
309.65	12.725
310.02	12.896
310.38	12.366
310.75	12.883
311.12	13.408
311.48	13.898
311.85	14.570
312.22	11.759
312.58	12.474
312.95	13.833
313.31	13.398
313.68	13.617
314.05	14.990
314.41	12.663
314.78	12.790
315.14	13.406
315.51	13.594
315.87	13.564
316.24	13.307
316.61	13.060
316.97	12.916
317.34	13.601
317.70	13.671
318.07	13.667
318.43	13.699
318.80	14.058
319.16	13.465
319.53	13.039
319.89	13.905
320.26	13.700
320.62	14.187
320.99	13.535
321.35	14.040
321.72	15.400
322.08	15.005
322.45	16.219
322.81	14.826
323.18	16.185
323.54	15.492
323.91	14.906
324.27	15.201
324.64	13.607
325.00	14.157
325.37	16.197
325.73	15.889
326.10	16.240
326.46	15.323
326.83	16.307
327.19	15.286
327.56	15.418
327.92	15.398
328.29	16.415
328.65	16.759
329.01	16.426
329.38	16.466
329.74	16.713
330.11	16.965
330.47	17.906
330.84	17.831
331.20	16.302
331.56	17.339
331.93	16.667
332.29	16.681
332.66	16.372
333.02	16.362
333.38	16.893
333.75	17.023
334.11	16.548
334.48	16.415
334.84	16.544
335.20	16.818
335.57	15.322
335.93	16.071
336.29	16.392
336.66	15.960
337.02	16.018
337.38	16.481
337.75	16.221
338.11	15.667
338.47	17.127
338.84	16.315
339.20	15.505
339.56	17.974
339.93	17.273
340.29	16.304
340.65	15.954
341.02	16.841
341.38	17.438
341.74	16.930
342.11	16.681
342.47	16.828
342.83	16.695
343.20	16.450
343.56	16.007
343.92	15.789
344.28	17.092
344.65	16.509
345.01	16.498
345.37	15.437
345.73	15.651
346.10	17.391
346.46	16.780
346.82	15.568
347.19	16.040
347.55	16.092
347.91	16.424
348.27	17.256
348.63	16.639
349.00	16.262
349.36	16.420
349.72	16.359
350.08	16.045
350.45	16.111
350.81	16.816
351.17	16.288
351.53	16.462
351.89	15.677
352.26	17.364
352.62	17.161
352.98	16.451
353.34	16.434
353.70	15.139
354.07	16.532
354.43	16.032
354.79	16.090
355.15	15.323
355.51	17.106
355.87	17.796
356.24	16.042
356.60	15.958
356.96	16.090
357.32	16.435
357.68	16.850
358.04	17.023
358.40	16.706
358.77	17.058
359.13	16.338
359.49	16.784
359.85	15.397
360.21	16.348
360.57	17.198
360.93	16.462
361.29	16.251
361.66	16.022
362.02	16.716
362.38	17.643
362.74	16.964
363.10	16.728
363.46	16.654
363.82	16.100
364.18	16.226
364.54	17.088
364.90	16.997
365.26	16.544
365.62	16.581
365.98	15.632
366.35	15.759
366.71	16.341
367.07	16.970
367.43	17.852
367.79	17.059
368.15	17.170
368.51	16.134
368.87	17.488
369.23	17.337
369.59	17.813
369.95	16.985
370.31	17.379
370.67	16.522
371.03	17.678
371.39	17.274
371.75	16.912
372.11	16.856
372.47	18.035
372.83	18.516
373.19	17.269
373.55	17.738
373.91	18.336
374.27	17.801
374.63	17.018
374.99	18.079
375.35	17.306
375.71	17.204
376.07	18.313
376.42	17.882
376.78	18.754
377.14	18.250
377.50	18.874
377.86	17.420
378.22	17.826
378.58	16.855
378.94	17.662
379.30	18.066
379.66	17.322
380.02	18.366
380.38	17.426
380.74	18.307
381.09	18.949
381.45	18.746
381.81	18.735
382.17	18.535
382.53	18.553
382.89	18.395
383.25	18.386
383.61	18.959
383.97	18.386
384.32	18.216
384.68	17.906
385.04	18.254
385.40	18.452
385.76	18.857
386.12	17.746
386.48	19.132
386.83	19.692
387.19	18.677
387.55	18.800
387.91	18.622
388.27	19.191
388.62	19.914
388.98	17.690
389.34	19.274
389.70	18.884
390.06	19.708
390.42	19.909
390.77	19.784
391.13	18.762
391.49	18.909
391.85	19.032
392.20	18.423
392.56	19.003
392.92	19.776
393.28	19.231
393.64	19.365
393.99	19.120
394.35	20.099
394.71	19.009
395.07	19.938
395.42	19.901
395.78	20.293
396.14	19.988
396.50	19.925
396.85	20.089
397.21	19.482
397.57	19.653
397.92	20.373
398.28	18.498
398.64	19.952
399.00	19.810
399.35	19.853
399.71	18.981
400.07	20.047
400.42	19.939
400.78	20.326
401.14	19.451
401.49	20.299
401.85	19.177
402.21	19.880
402.57	19.926
402.92	21.564
403.28	19.863
403.63	19.678
403.99	20.318
404.35	19.515
404.70	19.365
405.06	19.336
405.42	19.963
405.77	19.714
406.13	19.413
406.49	20.343
406.84	19.965
407.20	19.799
407.55	19.911
407.91	20.467
408.27	20.102
408.62	19.988
408.98	19.118
409.34	19.803
409.69	20.581
410.05	19.145
410.40	19.755
410.76	19.176
411.11	20.326
411.47	20.128
411.83	20.586
412.18	19.604
412.54	20.423
412.89	21.024
413.25	19.717
413.60	19.642
413.96	19.672
414.31	20.778
414.67	20.025
415.03	20.397
415.38	20.168
415.74	19.871
416.09	21.097
416.45	20.482
416.80	21.150
417.16	20.710
417.51	20.637
417.87	20.039
418.22	20.505
418.58	20.594
418.93	20.946
419.29	20.496
419.64	20.277
420.00	19.756
420.35	20.812
420.71	19.785
421.06	19.630
421.42	20.468
421.77	20.460
422.12	18.978
422.48	18.672
422.83	20.151
423.19	20.387
423.54	20.023
423.90	20.580
424.25	20.436
424.61	19.821
424.96	20.058
425.31	20.155
425.67	19.326
426.02	20.229
426.38	20.269
426.73	20.129
427.09	20.122
427.44	20.127
427.79	19.609
428.15	19.762
428.50	19.193
428.85	19.964
429.21	19.382
429.56	19.025
429.92	20.332
430.27	19.215
430.62	19.150
430.98	19.616
431.33	19.433
431.68	19.895
432.04	19.382
432.39	19.874
432.74	20.227
433.10	20.147
433.45	20.000
433.80	19.290
434.16	19.872
434.51	19.789
434.86	19.669
435.22	19.288
435.57	20.061
435.92	19.953
436.28	20.641
436.63	20.475
436.98	19.805
437.34	20.274
437.69	20.187
438.04	19.899
438.39	20.179
438.75	19.930
439.10	20.335
439.45	20.071
439.81	20.181
440.16	19.706
440.51	20.562
440.86	20.266
441.22	19.744
441.57	20.435
441.92	19.857
442.27	19.806
442.63	19.168
442.98	19.718
443.33	19.946
443.68	19.308
444.03	19.912
444.39	19.669
444.74	19.048
445.09	19.838
445.44	19.902
445.79	19.941
446.15	20.593
446.50	19.332
446.85	19.733
447.20	20.041
447.55	19.821
447.91	19.912
448.26	19.588
448.61	19.955
448.96	19.989
449.31	19.685
449.66	19.921
450.02	19.109
450.37	18.934
450.72	19.628
451.07	19.561
451.42	19.210
451.77	20.258
452.12	19.688
452.47	19.279
452.83	19.872
453.18	20.293
453.53	20.779
453.88	20.260
454.23	19.426
454.58	19.624
454.93	20.407
455.28	20.012
455.63	20.995
455.98	20.536
456.34	20.226
456.69	19.349
457.04	20.248
457.39	20.397
457.74	19.675
458.09	19.666
458.44	19.384
458.79	19.197
459.14	20.147
459.49	19.965
459.84	20.388
460.19	19.387
460.54	19.444
460.89	19.473
461.24	20.219
461.59	20.744
461.94	19.852
462.29	20.475
462.64	20.038
462.99	19.974
463.34	20.733
463.69	20.075
464.04	19.942
464.39	19.652
464.74	19.430
465.09	19.723
465.44	19.557
465.79	19.295
466.14	19.595
466.49	18.576
466.84	19.907
467.19	20.640
467.54	20.500
467.89	20.108
468.24	20.070
468.59	20.269
468.94	19.609
469.29	19.859
469.64	21.285
469.99	20.704
470.34	20.343
470.68	20.474
471.03	20.000
471.38	21.126
471.73	20.720
472.08	20.724
472.43	20.289
472.78	19.750
473.13	19.961
473.48	20.100
473.83	20.549
474.17	19.415
474.52	20.285
474.87	19.673
475.22	19.733
475.57	19.721
475.92	19.862
476.27	19.729
476.61	19.470
476.96	19.626
477.31	19.571
477.66	20.350
478.01	19.237
478.36	20.201
478.70	19.782
479.05	19.329
479.40	19.703
479.75	19.115
480.10	19.185
480.45	19.181
480.79	18.538
481.14	19.814
481.49	19.459
481.84	19.479
482.19	19.945
482.53	19.725
482.88	18.660
483.23	18.832
483.58	19.199
483.92	18.697
484.27	18.257
484.62	18.276
484.97	18.368
485.31	18.322
485.66	17.085
486.01	16.323
486.36	15.646
486.70	15.648
487.05	16.419
487.40	17.288
487.75	17.360
488.09	18.047
488.44	17.979
488.79	18.770
489.13	19.328
489.48	18.964
489.83	19.422
490.17	19.421
490.52	18.468
490.87	18.996
491.22	19.645
491.56	17.995
491.91	19.823
492.26	18.833
492.60	19.171
492.95	18.335
493.30	19.112
493.64	18.945
493.99	18.570
494.34	19.334
494.68	19.277
495.03	19.502
495.37	19.311
495.72	19.006
496.07	19.443
496.41	17.965
496.76	18.118
497.11	19.316
497.45	19.190
497.80	19.434
498.14	18.841
498.49	19.610
498.84	19.319
499.18	19.143
499.53	19.183
499.87	19.851
500.22	19.218
500.56	19.515
500.91	18.990
501.26	19.393
501.60	20.028
501.95	19.386
502.29	19.447
502.64	18.715
502.98	18.467
503.33	18.510
503.67	19.072
504.02	18.803
504.36	19.279
504.71	19.492
505.06	19.566
505.40	19.251
505.75	18.852
506.09	18.950
506.44	18.994
506.78	20.166
507.13	19.687
507.47	20.152
507.82	19.554
508.16	19.807
508.51	20.345
508.85	19.712
509.19	19.592
509.54	19.898
509.88	19.629
510.23	19.640
510.57	20.588
510.92	19.679
511.26	19.168
511.61	20.436
511.95	19.259
512.30	20.414
512.64	20.742
512.98	19.721
513.33	20.557
513.67	20.011
514.02	19.751
514.36	20.481
514.70	20.642
515.05	19.911
515.39	20.415
515.74	20.608
516.08	20.291
516.42	21.143
516.77	21.628
517.11	20.477
517.46	20.993
517.80	20.557
518.14	19.803
518.49	21.120
518.83	20.398
519.17	20.612
519.52	20.600
519.86	20.821
520.20	21.329
520.55	22.023
520.89	21.837
521.23	22.014
521.58	21.489
521.92	21.494
522.26	21.293
522.61	21.994
522.95	21.731
523.29	21.668
523.64	21.585
523.98	21.442
524.32	21.532
524.66	21.828
525.01	21.936
525.35	20.260
525.69	21.429
526.04	21.931
526.38	21.599
526.72	20.798
527.06	21.908
527.41	20.668
527.75	22.058
528.09	21.259
528.43	22.371
528.78	22.004
529.12	21.091
529.46	21.678
529.80	21.906
530.15	21.620
530.49	21.477
530.83	22.405
531.17	22.585
531.51	23.281
531.86	21.419
532.20	22.816
532.54	21.781
532.88	22.721
533.22	20.862
533.57	21.914
533.91	21.674
534.25	21.324
534.59	21.293
534.93	20.405
535.27	21.786
535.62	21.429
535.96	22.599
536.30	21.297
536.64	22.279
536.98	21.632
537.32	21.396
537.66	22.067
538.01	21.988
538.35	22.107
538.69	22.591
539.03	20.728
539.37	21.086
539.71	20.804
540.05	21.503
540.39	22.658
540.73	21.410
541.07	22.064
541.42	22.048
541.76	22.194
542.10	21.410
542.44	21.523
542.78	22.596
543.12	20.729
543.46	22.230
543.80	22.186
544.14	21.053
544.48	21.905
544.82	20.911
545.16	21.601
545.50	21.594
545.84	22.110
546.18	21.077
546.52	21.748
546.86	22.199
547.20	22.724
547.54	20.908
547.88	22.066
548.22	21.420
548.56	21.195
548.90	21.447
549.24	21.347
549.58	21.965
549.92	22.321
550.26	21.804
550.60	21.024
550.94	22.465
551.28	21.726
551.62	22.717
551.96	22.035
552.30	22.730
552.64	21.569
552.98	22.576
553.32	22.117
553.66	21.745
554.00	21.139
554.34	21.325
554.68	22.389
555.02	22.003
555.36	21.434
555.69	21.448
556.03	20.861
556.37	21.896
556.71	21.692
557.05	21.218
557.39	22.113
557.73	22.442
558.07	22.190
558.41	22.431
558.75	22.337
559.08	22.148
559.42	22.676
559.76	21.765
560.10	21.699
560.44	22.292
560.78	20.692
561.12	21.174
561.45	21.643
561.79	20.831
562.13	21.127
562.47	22.336
562.81	21.269
563.15	21.405
563.48	21.154
563.82	21.200
564.16	20.340
564.50	21.159
564.84	20.796
565.17	20.399
565.51	21.725
565.85	20.114
566.19	19.975
566.52	21.153
566.86	20.555
567.20	21.108
567.54	20.833
567.88	19.826
568.21	21.164
568.55	19.262
568.89	19.698
569.23	18.984
569.56	18.381
569.90	18.528
570.24	18.048
570.57	17.273
570.91	17.292
571.25	17.387
571.59	17.084
571.92	16.820
572.26	17.100
572.60	17.628
572.93	17.601
573.27	17.657
573.61	17.951
573.95	17.209
574.28	17.035
574.62	17.153
574.96	16.679
575.29	16.562
575.63	17.099
575.97	16.897
576.30	17.233
576.64	16.502
576.98	16.966
577.31	16.821
577.65	16.591
577.98	16.345
578.32	15.945
578.66	16.667
578.99	16.115
579.33	16.945
579.67	16.882
580.00	17.310
580.34	16.730
580.67	16.615
581.01	16.933
581.35	16.281
581.68	16.347
582.02	15.638
582.35	15.931
582.69	16.392
583.02	16.468
583.36	16.763
583.70	17.058
584.03	17.450
584.37	17.576
584.70	16.980
585.04	16.830
585.37	16.962
585.71	16.847
586.04	16.502
586.38	17.163
586.72	17.316
587.05	16.436
587.39	16.570
587.72	16.594
588.06	16.756
588.39	17.586
588.73	17.072
589.06	17.763
589.40	18.283
589.73	17.951
590.07	17.829
590.40	18.085
590.73	18.306
591.07	18.356
591.40	18.895
591.74	18.571
592.07	18.630
592.41	18.355
592.74	17.940
593.08	17.288
593.41	17.305
593.75	16.490
594.08	17.432
594.41	18.134
594.75	17.560
595.08	18.039
595.42	17.513
595.75	17.450
596.09	18.438
596.42	18.978
596.75	18.489
597.09	19.351
597.42	18.086
597.75	18.672
598.09	18.565
598.42	17.912
598.76	18.079
599.09	17.408
599.42	17.613
599.76	17.387
600.09	16.976
600.42	17.385
600.76	17.500
601.09	17.377
601.42	17.314
601.76	17.571
602.09	17.431
602.42	18.193
602.76	18.662
603.09	18.057
603.42	18.391
603.76	16.921
604.09	17.526
604.42	17.489
604.76	17.883
605.09	18.654
605.42	17.828
605.75	18.212
606.09	17.690
606.42	17.818
606.75	17.752
607.09	18.418
607.42	18.143
607.75	17.131
608.08	18.063
608.42	18.736
608.75	18.124
609.08	17.391
609.41	18.896
609.75	18.485
610.08	18.520
610.41	18.017
610.74	18.307
611.07	18.775
611.41	19.038
611.74	18.803
612.07	19.255
612.40	19.098
612.73	18.263
613.07	19.073
613.40	19.431
613.73	18.091
614.06	18.495
614.39	19.088
614.72	19.105
615.06	18.803
615.39	17.887
615.72	18.149
616.05	18.607
616.38	18.399
616.71	19.240
617.05	19.376
617.38	19.784
617.71	20.120
618.04	20.252
618.37	19.515
618.70	19.540
619.03	20.592
619.36	20.502
619.69	20.423
620.03	20.261
620.36	19.452
620.69	20.479
621.02	21.165
621.35	21.300
621.68	20.249
622.01	19.659
622.34	21.483
622.67	20.837
623.00	20.176
623.33	20.086
623.66	20.443
623.99	20.839
624.32	20.328
624.65	20.268
624.99	18.980
625.32	20.130
625.65	20.887
625.98	20.830
626.31	21.851
626.64	22.776
626.97	21.613
627.30	21.446
627.63	21.493
627.96	21.951
628.29	21.697
628.62	22.964
628.95	21.792
629.28	23.358
629.61	23.190
629.94	22.857
630.26	21.735
630.59	21.735
630.92	22.126
631.25	22.211
631.58	23.824
631.91	21.602
632.24	22.152
632.57	24.239
632.90	23.575
633.23	24.385
633.56	23.729
633.89	24.236
634.22	23.383
634.55	24.615
634.88	24.072
635.20	24.373
635.53	25.181
635.86	22.896
636.19	24.118
636.52	22.722
636.85	23.826
637.18	22.581
637.51	24.350
637.83	21.578
638.16	23.657
638.49	25.063
638.82	24.273
639.15	23.250
639.48	24.813
639.81	25.603
640.13	23.568
640.46	24.295
640.79	25.363
641.12	25.172
641.45	25.279
641.77	24.742
642.10	25.292
642.43	26.727
642.76	26.780
643.09	25.307
643.41	26.555
643.74	26.389
644.07	26.220
644.40	27.147
644.73	27.087
645.05	28.051
645.38	24.961
645.71	25.282
646.04	27.741
646.36	28.381
646.69	25.753
647.02	26.701
647.35	27.320
647.67	27.611
648.00	28.455
648.33	26.073
648.66	25.152
648.98	25.187
649.31	25.112
649.64	25.859
649.96	25.931
650.29	24.803
650.62	25.081
650.94	25.770
651.27	28.378
651.60	28.619
651.92	26.677
652.25	25.081
652.58	26.168
652.90	25.118
653.23	25.270
653.56	26.142
653.88	24.723
654.21	26.540
654.54	28.218
654.86	25.701
655.19	24.189
655.52	15.362
655.84	11.734
656.17	14.180
656.49	19.618
656.82	20.888
657.15	16.426
657.47	12.525
657.80	9.992
658.13	10.530
658.45	16.565
658.78	17.351
659.10	18.948
659.43	20.320
659.75	21.081
660.08	24.177
660.41	25.698
660.73	29.098
661.06	27.548
661.38	29.273
661.71	30.577
662.03	27.613
662.36	24.254
662.68	29.920
663.01	28.283
663.33	27.601
663.66	29.202
663.98	28.942
664.31	30.042
664.63	28.543
664.96	25.755
665.28	28.074
665.61	28.070
665.93	27.163
666.26	25.963
666.58	27.615
666.91	27.061
667.23	33.483
667.56	26.566
667.88	30.769
668.21	29.851
668.53	28.416
668.86	29.654
669.18	29.851
669.50	28.478
669.83	30.719
670.15	28.667
670.48	28.758
670.80	29.957
671.13	30.149
671.45	30.426
671.77	27.699
672.10	26.248
672.42	25.618
672.75	26.202
673.07	25.352
673.39	25.316
673.72	25.195
674.04	27.059
674.37	26.408
674.69	29.243
675.01	27.615
675.34	30.185
675.66	31.158
675.98	26.680
676.31	26.891
676.63	29.512
676.95	27.883
677.28	28.037
677.60	27.473
677.92	29.536
678.25	26.694
678.57	25.697
678.89	26.253
679.22	27.112
679.54	25.191
679.86	27.523
680.18	27.013
680.51	26.596
680.83	25.089
681.15	28.302
681.48	27.599
681.80	27.273
682.12	25.287
682.44	24.178
682.77	27.088
683.09	29.185
683.41	30.377
683.73	28.256
684.06	29.959
684.38	26.223
684.70	26.163
685.02	28.330
685.34	25.275
685.67	24.650
685.99	23.196
686.31	25.768
686.63	23.322
686.96	23.214
687.28	23.646
687.60	25.543
687.92	25.960
688.24	24.905
688.56	30.120
688.89	25.311
689.21	29.039
689.53	29.645
689.85	29.712
690.17	24.017
690.49	28.450
690.82	27.804
691.14	25.670
691.46	24.262
691.78	24.699
692.10	27.479
692.42	29.142
692.74	25.519
693.06	25.745
693.39	28.542
693.71	27.729
694.03	26.105
694.35	25.541
694.67	29.291
694.99	30.244
695.31	27.696
695.63	30.144
695.95	26.895
696.27	26.142
696.59	28.756
696.91	28.497
697.23	26.291
697.56	24.733
697.88	21.677
698.20	26.042
698.52	26.237
698.84	26.726
699.16	27.419
699.48	27.553
699.80	28.261
700.12	33.247
700.44	29.178
700.76	29.558
701.08	29.310
701.40	30.447
701.72	31.195
702.04	31.250
702.36	28.895
702.68	28.895
703.00	32.133
703.32	29.255
703.64	28.686
703.96	30.084
704.28	28.488
704.60	31.378
704.91	32.344
705.23	34.018
705.55	33.555
705.87	32.558
706.19	31.802
706.51	32.399
706.83	31.515
707.15	30.252
707.47	26.768
707.79	28.501
708.11	26.256
708.43	27.381
708.74	24.745
709.06	29.091
709.38	30.709
709.70	29.360
710.02	31.157
710.34	32.424
710.66	30.149
710.98	32.386
711.29	31.105
711.61	31.858
711.93	34.295
712.25	34.727
712.57	30.147
712.89	32.526
713.20	29.787
713.52	31.579
713.84	31.013
714.16	29.573
714.48	27.586
714.80	35.562
715.11	32.853
715.43	32.047
715.75	29.275
716.07	35.144
716.39	30.094
716.70	29.568
717.02	33.094
717.34	33.922
717.66	38.806
717.97	38.645
718.29	35.556
718.61	33.577
718.93	33.456
719.24	29.066
719.56	33.220
719.88	33.898
720.20	34.459
720.51	31.359
720.83	33.829
721.15	32.836
721.46	28.723
721.78	33.692
722.10	34.717
722.42	32.331
722.73	31.461
723.05	29.098
723.37	35.223
723.68	33.977
724.00	32.114
724.32	33.871
724.63	32.520
724.95	31.381
725.27	37.247
725.58	33.594
725.90	35.401
726.22	31.321
726.53	29.514
726.85	33.106
727.16	31.317
727.48	34.397
727.80	34.091
728.11	35.507
728.43	32.308
728.74	33.692
729.06	35.401
729.38	39.706
729.69	34.875
730.01	33.447
730.32	29.167
730.64	31.438
730.96	27.723
731.27	32.119
731.59	27.217
731.90	30.612
732.22	29.814
732.53	26.935
732.85	31.410
733.16	31.833
733.48	28.571
733.80	29.221
734.11	31.847
734.43	30.178
734.74	27.714
735.06	22.923
735.37	30.636
735.69	28.025
736.00	29.739
736.32	30.218
736.63	26.198
736.95	27.476
737.26	23.810
737.58	27.419
737.89	30.435
738.21	32.082
738.52	32.500
738.83	30.943
739.15	28.462
739.46	35.766
739.78	31.250
740.09	28.000
740.41	31.290
740.72	30.314
741.04	29.630
741.35	31.250
741.66	37.778
741.98	37.736
742.29	34.450
742.61	36.638
742.92	32.127
743.23	32.906
743.55	36.400
743.86	33.333
744.18	38.938
744.49	35.407
744.80	37.089
745.12	45.000
745.43	37.004
745.74	40.090
746.06	35.780
746.37	36.323
746.68	36.652
747.00	39.352
747.31	38.095
747.62	33.628
747.94	34.802
748.25	37.021
748.56	37.885
748.88	33.168
749.19	41.500
749.50	33.488
749.82	33.740
750.13	28.980
750.44	31.752
750.75	28.421
751.07	34.405
751.38	31.359
751.69	32.130
752.01	34.962
752.32	31.769
752.63	31.915
752.94	32.787
753.26	41.200
753.57	32.520
753.88	33.594
754.19	30.714
754.51	30.556
754.82	25.632
755.13	28.679
755.44	28.195
755.75	32.117
756.07	25.887
756.38	27.007
756.69	29.195
757.00	25.449
757.31	28.190
757.63	26.608
757.94	26.810
758.25	25.735
758.56	24.198
758.87	27.688
759.18	26.667
759.50	26.959
759.81	28.349
760.12	23.750
760.43	26.934
760.74	23.370
761.05	27.119
761.36	24.599
761.67	29.545
761.99	25.155
762.30	27.083
762.61	33.969
762.92	35.547
763.23	34.874
763.54	32.800
763.85	29.297
764.16	34.615
764.47	33.840
764.78	28.622
765.10	25.316
765.41	31.268
765.72	27.844
766.03	26.646
766.34	28.667
766.65	35.319
766.96	35.897
767.27	41.117
767.58	40.625
767.89	39.474
768.20	43.103
768.51	35.025
768.82	33.028
769.13	28.455
769.44	29.960
769.75	33.047
770.06	29.358
770.37	35.747
770.68	36.111
770.99	32.000
771.30	31.148
771.61	31.839
771.92	34.016
772.23	39.496
772.54	34.359
772.85	38.743
773.16	40.426
773.47	41.848
773.78	42.132
774.09	35.714
774.39	41.520
774.70	38.889
775.01	48.551
775.32	49.020
775.63	45.395
775.94	51.799
776.25	50.394
776.56	45.522
776.87	51.639
777.18	45.313
777.48	56.489
777.79	52.273
778.10	44.444
778.41	47.321
778.72	48.905
779.03	46.309
779.34	40.268
779.65	39.189
779.95	41.718
780.26	47.712
780.57	49.655
780.88	50.781
781.19	51.880
781.50	42.568
781.80	38.994
782.11	41.243
782.42	37.342
782.73	39.877
783.04	45.270
783.34	50.704
783.65	49.315
783.96	45.522
784.27	42.657
784.57	46.763
784.88	48.148
785.19	51.587
785.50	53.774
785.81	62.687
786.11	55.738
786.42	55.039
786.73	55.752
787.04	53.774
787.34	55.357
787.65	60.000
787.96	42.342
788.26	48.760
788.57	47.458
788.88	55.372
789.19	51.389
789.49	54.545
789.80	46.565
790.11	63.810
790.41	62.376
790.72	66.265
791.03	69.565
791.33	67.442
791.64	65.979
791.95	57.426
792.25	58.889
792.56	83.117
792.87	74.359
793.17	81.013
793.48	78.161
793.79	72.414
794.09	73.864
794.40	60.504
794.70	52.941
795.01	51.852
795.32	45.324
795.62	53.543
795.93	56.034
796.23	60.177
796.54	69.412
796.85	52.703
797.15	90.141
797.46	74.242
797.76	87.952
798.07	81.013
798.37	78.462
798.68	78.788
798.99	69.014
799.29	72.727
799.60	71.591
799.90	89.041
800.21	91.045
800.51	81.034
800.82	100.000
801.12	88.525
801.43	80.303
801.73	71.622
802.04	101.587
802.34	76.543
802.65	93.750
802.95	110.169
803.26	93.750
803.56	74.286
803.87	84.615
804.17	91.176
804.48	107.407
804.78	84.483
805.09	85.294
805.39	82.692
805.70	94.643
806.00	90.164
806.30	86.364
806.61	84.146
806.91	64.557
807.22	57.895
807.52	65.672
807.83	85.915
808.13	75.000
808.43	88.333
808.74	76.316
809.04	92.754
809.35	92.537
809.65	75.000
809.95	104.839
810.26	96.610
810.56	93.651
810.86	118.182
811.17	159.524
811.47	98.333
811.77	111.111
812.08	109.091
812.38	118.000
812.69	125.000
812.99	138.636
813.29	110.204
813.59	97.619
813.90	122.449
814.20	80.000
814.50	78.462
814.81	89.706
815.11	116.327
815.41	86.885
815.72	128.571
816.02	109.091
816.32	116.667
816.62	117.500
816.93	129.268
817.23	140.476
817.53	115.909
817.84	175.758
818.14	115.217
818.44	126.667
818.74	170.588
819.04	145.000
819.35	131.429
819.65	170.588
819.95	167.857
820.25	215.000
820.56	138.462
820.86	113.636
821.16	116.279
821.46	115.385
821.76	124.000
822.07	148.571
822.37	132.500
822.67	130.303
822.97	88.235
823.27	207.143
823.57	116.216
823.88	175.000
824.18	160.000
824.48	138.095
824.78	180.000
825.08	191.667
825.38	170.270
825.69	124.390
825.99	187.500
826.29	127.586
826.59	157.895
826.89	131.579
827.19	170.588
827.49	222.581
827.79	127.273
828.09	111.364
828.39	110.638
828.70	140.816
829.00	159.259
829.30	135.484
829.60	132.500
829.90	300.000
830.20	175.000
830.50	182.609
830.80	173.913
831.10	176.667
831.40	176.667
831.70	178.261
832.00	238.462
832.30	211.111
832.60	237.500
832.90	153.333
833.20	357.143
833.50	187.097
833.80	179.310
834.10	193.750
834.40	207.692
834.70	255.556
835.00	280.952
835.30	154.286
835.60	253.846
835.90	220.690
836.20	371.429
836.50	200.000
836.80	208.000
837.10	147.222
837.40	238.095
837.70	217.647
838.00	181.481
838.30	185.714
838.60	271.429
838.90	219.231
839.19	310.000
839.49	371.429
839.79	285.000
840.09	215.000
840.39	228.571
840.69	226.087
840.99	288.889
841.29	500.000
841.59	283.333
841.88	293.750
842.18	162.069
842.48	242.857
842.78	186.667
843.08	230.435
843.38	153.125
843.68	733.333
843.97	234.615
844.27	179.310
844.57	323.810
844.87	306.250
845.17	170.370
845.47	1433.333
845.76	533.333
846.06	294.118
846.36	475.000
846.66	321.429
846.96	250.000
847.25	354.545
847.55	236.364
847.85	239.130
848.15	520.000
848.44	307.143
848.74	216.667
849.04	211.765
849.34	490.000
849.63	242.105
849.93	390.909
850.23	840.000
850.53	364.286
850.82	2000.000
851.12	-3800.000
851.42	3900.000
851.71	230.000
852.01	-1300.000
852.31	212.500
852.61	1533.333
852.90	257.143
853.20	196.000
853.50	282.353
853.79	238.095
854.09	204.167
854.39	300.000
854.68	167.568
854.98	193.548
855.28	170.000
855.57	189.655
855.87	207.407
856.17	210.526
856.46	273.333
856.76	282.353
857.05	186.207
857.35	245.833
857.65	346.667
857.94	239.130
858.24	226.923
858.53	290.000
858.83	240.909
859.13	260.000
859.42	0.000
859.72	588.889
860.01	463.636
860.31	222.727
860.60	310.526
860.90	204.348
861.20	433.333
861.49	500.000
861.79	-3900.000
862.08	562.500
862.38	266.667
862.67	315.385
862.97	252.941
863.26	544.444
863.56	294.444
863.85	341.667
864.15	537.500
864.44	320.000
864.74	916.667
865.03	575.000
865.33	263.158
865.62	390.909
865.92	446.154
866.21	391.667
866.51	0.000
866.80	400.000
867.10	1000.000
867.39	384.615
867.69	445.455
867.98	268.421
868.27	500.000
868.57	252.632
868.86	-4800.000
869.16	325.000
869.45	2200.000
869.75	-3600.000
870.04	350.000
870.33	571.429
870.63	750.000
870.92	2450.000
871.22	771.429
871.51	352.941
871.80	219.048
872.10	435.714
>>>>>End Processed Spectral Data<<<<<
