SpectraSuite Data File
++++++++++++++++++++++++++++++++++++
Date: Wed May 13 16:38:03 PDT 2015
User: schluterlab
Dark Spectrum Present: Yes
Reference Spectrum Present: Yes
Number of Sampled Component Spectra: 1
Spectrometers: USB2E3373
Integration Time (usec): 3000 (USB2E3373)
Spectra Averaged: 3 (USB2E3373)
Boxcar Smoothing: 0 (USB2E3373)
Correct for Electrical Dark: No (USB2E3373)
Strobe/Lamp Enabled: No (USB2E3373)
Correct for Detector Non-linearity: No (USB2E3373)
Correct for Stray Light: No (USB2E3373)
Number of Pixels in Processed Spectrum: 2048
>>>>>Begin Processed Spectral Data<<<<<
178.53	0.000
178.91	-1400.000
179.29	-1150.000
179.67	-266.667
180.04	-1325.000
180.42	2250.000
180.80	1060.000
181.18	-975.000
181.56	685.714
181.94	0.000
182.31	-628.571
182.69	1666.667
183.07	-612.500
183.45	-511.111
183.83	563.636
184.20	-420.000
184.58	2250.000
184.96	5700.000
185.34	-760.000
185.72	-512.500
186.09	-1900.000
186.47	2750.000
186.85	1950.000
187.23	5300.000
187.61	-1733.333
187.98	1325.000
188.36	590.909
188.74	509.091
189.12	-1040.000
189.49	520.000
189.87	-4500.000
190.25	-1000.000
190.63	428.571
191.00	407.692
191.38	766.667
191.76	-1100.000
192.14	1500.000
192.51	650.000
192.89	966.667
193.27	637.500
193.65	-1075.000
194.02	500.000
194.40	860.000
194.78	460.000
195.15	483.333
195.53	620.000
195.91	-2450.000
196.29	350.000
196.66	315.789
197.04	-330.000
197.42	0.000
197.79	620.000
198.17	-4700.000
198.55	714.286
198.92	700.000
199.30	980.000
199.68	0.000
200.05	338.889
200.43	685.714
200.81	4800.000
201.18	1700.000
201.56	-1600.000
201.94	577.778
202.31	566.667
202.69	408.333
203.07	530.000
203.44	0.000
203.82	1025.000
204.19	757.143
204.57	442.857
204.95	650.000
205.32	1533.333
205.70	390.909
206.08	350.000
206.45	2350.000
206.83	381.250
207.20	950.000
207.58	920.000
207.96	316.667
208.33	775.000
208.71	-883.333
209.08	728.571
209.46	466.667
209.84	500.000
210.21	-1400.000
210.59	1375.000
210.96	-600.000
211.34	2800.000
211.71	590.000
212.09	833.333
212.46	0.000
212.84	1733.333
213.22	1250.000
213.59	-4800.000
213.97	966.667
214.34	742.857
214.72	518.182
215.09	1160.000
215.47	-1850.000
215.84	-2350.000
216.22	1933.333
216.59	378.571
216.97	1200.000
217.34	554.545
217.72	-783.333
218.09	0.000
218.47	-5000.000
218.84	577.778
219.22	800.000
219.59	1433.333
219.97	-642.857
220.34	880.000
220.72	-1733.333
221.09	471.429
221.47	1600.000
221.84	-900.000
222.22	0.000
222.59	1350.000
222.97	-2250.000
223.34	1040.000
223.72	461.538
224.09	1000.000
224.46	1950.000
224.84	-4800.000
225.21	-980.000
225.59	-4700.000
225.96	670.000
226.34	260.000
226.71	2450.000
227.08	675.000
227.46	540.000
227.83	-925.000
228.21	-1850.000
228.58	655.556
228.95	-3200.000
229.33	-2050.000
229.70	1700.000
230.08	685.714
230.45	-880.000
230.82	416.667
231.20	666.667
231.57	628.571
231.95	516.667
232.32	250.000
232.69	372.727
233.07	628.571
233.44	407.692
233.81	-1900.000
234.19	300.000
234.56	475.000
234.93	391.667
235.31	436.364
235.68	369.231
236.05	321.429
236.43	193.939
236.80	236.842
237.17	4000.000
237.55	223.810
237.92	200.000
238.29	247.619
238.67	200.000
239.04	203.448
239.41	169.444
239.79	139.130
240.16	126.190
240.53	136.364
240.91	92.157
241.28	96.000
241.65	110.000
242.02	84.058
242.40	82.258
242.77	80.000
243.14	79.570
243.51	79.775
243.89	68.235
244.26	65.556
244.63	72.043
245.00	56.383
245.38	76.238
245.75	57.944
246.12	58.716
246.49	64.964
246.87	66.400
247.24	60.000
247.61	53.571
247.98	52.288
248.36	45.946
248.73	51.592
249.10	54.140
249.47	41.808
249.84	52.406
250.22	45.989
250.59	52.071
250.96	42.929
251.33	41.706
251.70	43.069
252.08	41.429
252.45	37.668
252.82	37.391
253.19	41.277
253.56	36.863
253.94	43.154
254.31	38.281
254.68	36.923
255.05	38.745
255.42	36.992
255.79	38.603
256.16	39.350
256.54	31.095
256.91	37.367
257.28	29.856
257.65	33.663
258.02	33.540
258.39	32.492
258.76	32.107
259.14	29.464
259.51	32.827
259.88	32.609
260.25	32.931
260.62	32.659
260.99	31.056
261.36	32.733
261.73	29.799
262.10	31.105
262.47	29.296
262.85	31.755
263.22	28.775
263.59	34.758
263.96	26.648
264.33	30.809
264.70	31.316
265.07	32.481
265.44	28.788
265.81	29.684
266.18	30.151
266.55	28.293
266.92	28.501
267.29	29.861
267.66	29.587
268.03	27.727
268.40	28.271
268.77	26.014
269.14	27.703
269.51	30.248
269.88	27.506
270.25	29.120
270.62	26.292
270.99	27.957
271.36	29.399
271.73	26.636
272.10	29.130
272.47	28.172
272.84	28.571
273.21	26.625
273.58	25.764
273.95	23.690
274.32	27.066
274.69	27.623
275.06	25.591
275.43	28.936
275.80	23.246
276.17	25.458
276.54	26.819
276.91	27.668
277.28	25.195
277.65	25.338
278.02	23.188
278.39	26.758
278.76	25.091
279.13	27.170
279.50	25.326
279.87	27.689
280.23	24.551
280.60	28.046
280.97	22.921
281.34	28.319
281.71	27.273
282.08	27.255
282.45	24.182
282.82	25.755
283.19	23.351
283.56	25.965
283.92	26.396
284.29	25.044
284.66	26.316
285.03	23.146
285.40	22.183
285.77	24.074
286.14	22.107
286.51	24.000
286.87	23.590
287.24	23.453
287.61	21.990
287.98	22.890
288.35	23.296
288.72	23.209
289.08	23.631
289.45	22.900
289.82	23.252
290.19	20.408
290.56	23.124
290.93	21.299
291.29	21.626
291.66	21.091
292.03	21.802
292.40	22.907
292.77	21.746
293.13	22.239
293.50	20.262
293.87	21.926
294.24	21.778
294.60	19.505
294.97	21.366
295.34	21.580
295.71	21.165
296.08	20.228
296.44	20.083
296.81	20.476
297.18	20.596
297.55	19.657
297.91	19.393
298.28	21.954
298.65	19.843
299.02	19.631
299.38	19.256
299.75	18.733
300.12	19.413
300.48	17.750
300.85	18.126
301.22	16.178
301.59	17.929
301.95	20.151
302.32	18.228
302.69	18.280
303.05	18.667
303.42	17.901
303.79	18.120
304.15	16.783
304.52	16.918
304.89	17.189
305.25	17.749
305.62	18.120
305.99	17.591
306.35	17.114
306.72	17.713
307.09	19.423
307.45	17.680
307.82	16.295
308.19	18.322
308.55	18.554
308.92	18.475
309.29	17.318
309.65	17.391
310.02	17.230
310.38	17.204
310.75	16.156
311.12	17.605
311.48	18.600
311.85	17.610
312.22	18.210
312.58	17.152
312.95	18.163
313.31	16.602
313.68	16.632
314.05	18.343
314.41	17.990
314.78	16.717
315.14	17.577
315.51	17.920
315.87	19.109
316.24	17.279
316.61	16.179
316.97	17.319
317.34	16.438
317.70	18.738
318.07	17.324
318.43	16.830
318.80	18.182
319.16	17.514
319.53	16.417
319.89	18.095
320.26	19.300
320.62	17.460
320.99	17.677
321.35	17.980
321.72	17.659
322.08	17.177
322.45	18.010
322.81	17.926
323.18	18.304
323.54	17.996
323.91	19.434
324.27	18.164
324.64	17.428
325.00	16.772
325.37	17.561
325.73	17.953
326.10	17.211
326.46	16.129
326.83	17.429
327.19	18.702
327.56	16.725
327.92	17.760
328.29	18.367
328.65	17.772
329.01	17.960
329.38	16.744
329.74	17.359
330.11	18.190
330.47	18.549
330.84	18.199
331.20	18.488
331.56	16.514
331.93	17.037
332.29	17.036
332.66	17.965
333.02	16.819
333.38	17.615
333.75	17.291
334.11	18.060
334.48	17.214
334.84	15.901
335.20	17.182
335.57	17.407
335.93	15.089
336.29	16.209
336.66	15.780
337.02	16.109
337.38	16.481
337.75	15.419
338.11	16.294
338.47	16.022
338.84	16.682
339.20	16.606
339.56	17.427
339.93	16.182
340.29	16.576
340.65	16.667
341.02	16.667
341.38	17.082
341.74	15.877
342.11	17.293
342.47	15.947
342.83	15.925
343.20	16.883
343.56	15.249
343.92	16.053
344.28	16.667
344.65	16.079
345.01	15.993
345.37	15.180
345.73	15.482
346.10	16.368
346.46	15.847
346.82	16.145
347.19	15.205
347.55	16.585
347.91	15.777
348.27	15.941
348.63	15.970
349.00	15.615
349.36	15.353
349.72	15.397
350.08	14.992
350.45	15.948
350.81	15.272
351.17	15.397
351.53	15.971
351.89	16.172
352.26	15.864
352.62	16.199
352.98	15.154
353.34	16.352
353.70	14.730
354.07	15.161
354.43	14.683
354.79	15.447
355.15	14.844
355.51	14.948
355.87	15.755
356.24	16.042
356.60	14.916
356.96	14.964
357.32	16.517
357.68	16.142
358.04	15.360
358.40	15.835
358.77	15.023
359.13	14.601
359.49	15.216
359.85	14.683
360.21	15.550
360.57	14.942
360.93	15.000
361.29	14.286
361.66	14.706
362.02	15.000
362.38	15.133
362.74	15.327
363.10	15.100
363.46	14.453
363.82	14.588
364.18	14.537
364.54	14.785
364.90	14.589
365.26	14.265
365.62	14.901
365.98	14.317
366.35	12.966
366.71	14.678
367.07	15.076
367.43	15.675
367.79	15.132
368.15	15.374
368.51	14.317
368.87	14.418
369.23	15.216
369.59	15.858
369.95	14.412
370.31	15.028
370.67	14.058
371.03	15.431
371.39	14.869
371.75	13.971
372.11	14.580
372.47	14.883
372.83	14.265
373.19	14.523
373.55	15.004
373.91	15.538
374.27	15.120
374.63	13.745
374.99	14.336
375.35	14.724
375.71	14.462
376.07	15.501
376.42	14.305
376.78	15.242
377.14	15.129
377.50	14.834
377.86	14.029
378.22	15.107
378.58	14.035
378.94	14.268
379.30	13.868
379.66	14.848
380.02	14.926
380.38	14.572
380.74	14.886
381.09	14.914
381.45	14.690
381.81	15.602
382.17	14.968
382.53	15.786
382.89	15.370
383.25	14.321
383.61	15.675
383.97	14.196
384.32	14.473
384.68	14.684
385.04	15.243
385.40	14.056
385.76	14.803
386.12	14.573
386.48	14.978
386.83	15.010
387.19	15.584
387.55	15.337
387.91	14.268
388.27	14.163
388.62	15.304
388.98	14.681
389.34	15.019
389.70	14.408
390.06	15.082
390.42	14.721
390.77	15.267
391.13	14.869
391.49	15.482
391.85	14.513
392.20	14.385
392.56	14.836
392.92	15.597
393.28	14.497
393.64	14.808
393.99	14.661
394.35	14.702
394.71	14.492
395.07	14.268
395.42	14.586
395.78	14.758
396.14	15.518
396.50	15.226
396.85	15.321
397.21	15.043
397.57	14.755
397.92	14.423
398.28	14.294
398.64	15.233
399.00	14.494
399.35	14.044
399.71	14.294
400.07	15.080
400.42	14.540
400.78	14.897
401.14	14.512
401.49	14.866
401.85	14.338
402.21	13.772
402.57	14.189
402.92	14.754
403.28	15.116
403.63	13.738
403.99	13.758
404.35	15.152
404.70	13.909
405.06	14.036
405.42	14.161
405.77	14.286
406.13	13.600
406.49	14.725
406.84	14.058
407.20	13.593
407.55	15.316
407.91	14.533
408.27	13.401
408.62	14.389
408.98	14.583
409.34	14.145
409.69	14.968
410.05	13.631
410.40	14.557
410.76	14.456
411.11	14.234
411.47	14.633
411.83	14.539
412.18	14.657
412.54	15.255
412.89	14.819
413.25	14.581
413.60	14.577
413.96	13.600
414.31	13.852
414.67	14.512
415.03	14.172
415.38	14.626
415.74	14.727
416.09	14.696
416.45	14.726
416.80	14.871
417.16	14.477
417.51	14.798
417.87	13.873
418.22	15.142
418.58	15.236
418.93	14.926
419.29	14.577
419.64	14.484
420.00	14.268
420.35	15.594
420.71	15.123
421.06	14.499
421.42	13.977
421.77	14.462
422.12	14.206
422.48	13.222
422.83	14.502
423.19	14.530
423.54	14.742
423.90	14.319
424.25	14.405
424.61	14.881
424.96	14.810
425.31	14.618
425.67	13.989
426.02	14.286
426.38	15.201
426.73	14.277
427.09	15.076
427.44	14.031
427.79	13.744
428.15	14.345
428.50	14.102
428.85	14.601
429.21	13.473
429.56	13.997
429.92	14.243
430.27	14.151
430.62	14.337
430.98	13.960
431.33	14.742
431.68	14.607
432.04	14.217
432.39	14.620
432.74	14.423
433.10	14.205
433.45	14.636
433.80	14.191
434.16	14.476
434.51	15.053
434.86	14.367
435.22	14.842
435.57	14.468
435.92	14.043
436.28	14.887
436.63	16.060
436.98	15.341
437.34	14.908
437.69	14.586
438.04	15.346
438.39	15.164
438.75	15.107
439.10	14.860
439.45	15.998
439.81	14.320
440.16	14.737
440.51	15.114
440.86	14.881
441.22	14.905
441.57	14.490
441.92	14.381
442.27	15.070
442.63	14.850
442.98	15.944
443.33	14.891
443.68	14.404
444.03	14.934
444.39	13.924
444.74	14.394
445.09	14.987
445.44	15.145
445.79	14.993
446.15	14.929
446.50	14.970
446.85	14.543
447.20	13.921
447.55	15.634
447.91	14.562
448.26	14.802
448.61	15.093
448.96	15.449
449.31	15.354
449.66	15.363
450.02	14.206
450.37	14.626
450.72	15.228
451.07	14.077
451.42	14.894
451.77	15.032
452.12	14.781
452.47	14.925
452.83	15.210
453.18	14.487
453.53	14.842
453.88	15.180
454.23	15.660
454.58	15.324
454.93	15.893
455.28	15.337
455.63	14.927
455.98	15.774
456.34	15.704
456.69	15.717
457.04	14.303
457.39	15.371
457.74	15.206
458.09	15.066
458.44	15.393
458.79	14.154
459.14	15.858
459.49	15.120
459.84	14.903
460.19	14.496
460.54	15.162
460.89	14.866
461.24	15.665
461.59	15.863
461.94	15.845
462.29	15.252
462.64	15.699
462.99	15.550
463.34	15.800
463.69	15.385
464.04	15.420
464.39	15.710
464.74	15.686
465.09	15.139
465.44	15.180
465.79	14.374
466.14	14.943
466.49	15.184
466.84	15.762
467.19	16.295
467.54	15.813
467.89	15.426
468.24	16.289
468.59	15.812
468.94	15.027
469.29	15.810
469.64	17.202
469.99	15.968
470.34	16.116
470.68	16.092
471.03	15.646
471.38	15.914
471.73	16.522
472.08	16.184
472.43	15.955
472.78	15.734
473.13	15.340
473.48	16.355
473.83	16.159
474.17	15.121
474.52	16.315
474.87	15.353
475.22	15.670
475.57	14.938
475.92	15.401
476.27	15.163
476.61	15.554
476.96	14.678
477.31	15.123
477.66	15.481
478.01	15.473
478.36	15.600
478.70	15.057
479.05	15.921
479.40	14.944
479.75	15.099
480.10	14.662
480.45	14.850
480.79	14.668
481.14	15.460
481.49	15.330
481.84	14.678
482.19	14.948
482.53	15.275
482.88	16.054
483.23	14.860
483.58	16.015
483.92	15.230
484.27	14.858
484.62	15.086
484.97	14.939
485.31	14.658
485.66	14.233
486.01	13.357
486.36	12.552
486.70	12.262
487.05	13.013
487.40	13.279
487.75	13.609
488.09	14.134
488.44	13.943
488.79	14.647
489.13	14.935
489.48	15.498
489.83	14.458
490.17	15.125
490.52	14.925
490.87	14.790
491.22	14.734
491.56	14.715
491.91	15.030
492.26	15.434
492.60	15.576
492.95	14.546
493.30	15.327
493.64	14.886
493.99	15.413
494.34	15.356
494.68	15.705
495.03	15.367
495.37	15.216
495.72	14.230
496.07	15.452
496.41	14.867
496.76	14.996
497.11	14.993
497.45	15.184
497.80	15.499
498.14	14.010
498.49	15.317
498.84	15.820
499.18	15.619
499.53	15.575
499.87	15.377
500.22	16.015
500.56	16.068
500.91	14.760
501.26	14.983
501.60	15.710
501.95	14.895
502.29	16.026
502.64	15.410
502.98	15.755
503.33	15.265
503.67	15.684
504.02	15.716
504.36	15.629
504.71	15.388
505.06	15.422
505.40	15.411
505.75	14.658
506.09	15.258
506.44	15.984
506.78	16.123
507.13	15.851
507.47	15.808
507.82	16.160
508.16	15.957
508.51	16.083
508.85	15.541
509.19	15.918
509.54	16.378
509.88	15.971
510.23	15.733
510.57	16.512
510.92	15.950
511.26	16.650
511.61	16.494
511.95	15.710
512.30	16.013
512.64	16.711
512.98	17.042
513.33	16.649
513.67	16.382
514.02	15.963
514.36	17.258
514.70	16.436
515.05	16.341
515.39	17.162
515.74	16.892
516.08	16.490
516.42	16.926
516.77	17.503
517.11	16.537
517.46	17.438
517.80	17.247
518.14	16.850
518.49	16.744
518.83	16.932
519.17	16.570
519.52	17.035
519.86	16.999
520.20	17.399
520.55	16.816
520.89	17.822
521.23	17.793
521.58	17.587
521.92	17.391
522.26	16.412
522.61	16.511
522.95	16.268
523.29	17.103
523.64	18.110
523.98	17.622
524.32	17.310
524.66	17.198
525.01	17.892
525.35	17.286
525.69	16.626
526.04	17.134
526.38	16.901
526.72	17.485
527.06	17.326
527.41	15.780
527.75	16.785
528.09	16.570
528.43	17.463
528.78	17.517
529.12	17.636
529.46	18.249
529.80	18.626
530.15	18.380
530.49	16.677
530.83	18.418
531.17	18.799
531.51	18.158
531.86	17.290
532.20	18.579
532.54	18.322
532.88	17.972
533.22	17.801
533.57	17.778
533.91	16.918
534.25	17.740
534.59	17.511
534.93	17.133
535.27	16.777
535.62	17.521
535.96	17.200
536.30	16.847
536.64	16.677
536.98	17.850
537.32	17.643
537.66	17.733
538.01	17.972
538.35	18.035
538.69	19.081
539.03	17.219
539.37	17.508
539.71	16.591
540.05	17.647
540.39	18.073
540.73	17.012
541.07	18.105
541.42	17.156
541.76	18.194
542.10	17.658
542.44	18.609
542.78	18.511
543.12	15.867
543.46	17.246
543.80	17.697
544.14	17.202
544.48	17.778
544.82	17.383
545.16	17.241
545.50	17.866
545.84	17.473
546.18	18.249
546.52	17.825
546.86	18.488
547.20	18.341
547.54	17.902
547.88	18.367
548.22	17.372
548.56	17.673
548.90	18.310
549.24	17.037
549.58	18.213
549.92	17.788
550.26	18.466
550.60	18.050
550.94	17.887
551.28	17.703
551.62	17.757
551.96	18.667
552.30	18.430
552.64	18.729
552.98	18.034
553.32	18.678
553.66	19.087
554.00	19.080
554.34	17.874
554.68	18.956
555.02	18.265
555.36	18.650
555.69	17.794
556.03	18.035
556.37	18.008
556.71	18.008
557.05	17.647
557.39	18.824
557.73	18.560
558.07	18.419
558.41	17.800
558.75	18.663
559.08	18.121
559.42	18.670
559.76	18.529
560.10	18.986
560.44	18.379
560.78	17.831
561.12	17.876
561.45	18.644
561.79	18.194
562.13	18.310
562.47	17.008
562.81	18.480
563.15	18.261
563.48	17.639
563.82	18.656
564.16	17.266
564.50	17.122
564.84	16.941
565.17	18.082
565.51	18.147
565.85	17.893
566.19	17.721
566.52	17.733
566.86	17.058
567.20	17.158
567.54	17.180
567.88	16.295
568.21	17.831
568.55	16.684
568.89	16.051
569.23	16.176
569.56	15.668
569.90	15.547
570.24	15.285
570.57	15.267
570.91	15.061
571.25	14.917
571.59	15.199
571.92	15.092
572.26	14.500
572.60	15.015
572.93	14.873
573.27	15.173
573.61	14.852
573.95	14.780
574.28	14.397
574.62	14.383
574.96	14.528
575.29	14.064
575.63	14.405
575.97	14.527
576.30	14.843
576.64	14.329
576.98	14.682
577.31	14.441
577.65	14.202
577.98	13.912
578.32	13.642
578.66	14.319
578.99	14.198
579.33	14.040
579.67	14.157
580.00	14.289
580.34	14.215
580.67	14.323
581.01	14.459
581.35	14.297
581.68	13.855
582.02	13.871
582.35	13.834
582.69	13.739
583.02	14.082
583.36	14.319
583.70	14.535
584.03	14.368
584.37	14.993
584.70	14.263
585.04	14.384
585.37	14.632
585.71	14.709
586.04	14.859
586.38	14.498
586.72	15.106
587.05	14.996
587.39	14.169
587.72	14.558
588.06	14.354
588.39	14.678
588.73	14.814
589.06	14.771
589.40	15.286
589.73	15.382
590.07	14.769
590.40	14.834
590.73	15.183
591.07	16.199
591.40	15.394
591.74	16.494
592.07	15.838
592.41	15.998
592.74	15.019
593.08	14.790
593.41	14.869
593.75	13.898
594.08	15.018
594.41	14.528
594.75	15.157
595.08	15.068
595.42	15.482
595.75	14.957
596.09	15.359
596.42	15.599
596.75	15.703
597.09	16.104
597.42	15.725
597.75	15.912
598.09	16.000
598.42	16.065
598.76	15.647
599.09	15.431
599.42	15.029
599.76	14.788
600.09	14.900
600.42	14.427
600.76	14.786
601.09	14.645
601.42	15.221
601.76	15.750
602.09	15.059
602.42	15.645
602.76	15.639
603.09	15.382
603.42	15.189
603.76	15.053
604.09	14.657
604.42	15.777
604.76	15.858
605.09	15.596
605.42	15.434
605.75	15.604
606.09	14.803
606.42	15.652
606.75	15.595
607.09	15.613
607.42	15.105
607.75	15.148
608.08	15.415
608.42	15.867
608.75	15.149
609.08	14.940
609.41	15.802
609.75	16.008
610.08	16.070
610.41	15.549
610.74	15.658
611.07	15.810
611.41	15.996
611.74	16.692
612.07	16.253
612.40	16.212
612.73	16.105
613.07	16.595
613.40	16.114
613.73	16.099
614.06	16.452
614.39	16.256
614.72	16.684
615.06	15.809
615.39	15.924
615.72	15.849
616.05	15.098
616.38	16.732
616.71	16.449
617.05	16.372
617.38	16.536
617.71	15.135
618.04	17.248
618.37	16.736
618.70	16.864
619.03	16.842
619.36	16.972
619.69	17.254
620.03	18.063
620.36	18.182
620.69	16.986
621.02	18.732
621.35	18.089
621.68	17.368
622.01	17.337
622.34	18.306
622.67	17.338
623.00	17.241
623.33	16.512
623.66	16.869
623.99	17.158
624.32	17.404
624.65	16.314
624.99	15.935
625.32	16.944
625.65	17.355
625.98	18.294
626.31	18.585
626.64	18.612
626.97	18.038
627.30	17.955
627.63	18.130
627.96	18.587
628.29	18.373
628.62	19.122
628.95	19.057
629.28	18.978
629.61	19.707
629.94	19.429
630.26	19.542
630.59	18.780
630.92	18.966
631.25	18.460
631.58	19.820
631.91	18.154
632.24	18.882
632.57	19.622
632.90	20.285
633.23	20.470
633.56	21.582
633.89	20.045
634.22	20.772
634.55	21.183
634.88	20.240
635.20	21.027
635.53	20.361
635.86	20.545
636.19	19.412
636.52	19.723
636.85	19.129
637.18	20.161
637.51	21.277
637.83	18.372
638.16	20.077
638.49	21.159
638.82	21.997
639.15	21.375
639.48	21.322
639.81	20.912
640.13	21.745
640.46	20.940
640.79	21.136
641.12	20.083
641.45	21.229
641.77	21.797
642.10	22.222
642.43	22.222
642.76	22.601
643.09	22.853
643.41	21.548
643.74	22.222
644.07	21.341
644.40	23.006
644.73	22.205
645.05	22.662
645.38	22.117
645.71	22.705
646.04	21.595
646.36	25.042
646.69	26.254
647.02	22.619
647.35	24.914
647.67	23.363
648.00	25.366
648.33	22.607
648.66	22.121
648.98	21.589
649.31	18.834
649.64	22.571
649.96	20.715
650.29	21.485
650.62	22.977
650.94	23.663
651.27	23.311
651.60	24.459
651.92	22.843
652.25	21.336
652.58	22.118
652.90	21.327
653.23	21.263
653.56	22.205
653.88	23.613
654.21	24.645
654.54	23.597
654.86	23.520
655.19	19.865
655.52	13.389
655.84	11.309
656.17	13.841
656.49	18.710
656.82	19.190
657.15	14.501
657.47	10.862
657.80	8.355
658.13	8.924
658.45	13.621
658.78	13.727
659.10	14.720
659.43	15.555
659.75	16.213
660.08	17.975
660.41	19.926
660.73	21.855
661.06	23.567
661.38	24.000
661.71	25.385
662.03	25.838
662.36	21.869
662.68	24.900
663.01	24.444
663.33	25.053
663.66	24.790
663.98	25.486
664.31	23.739
664.63	22.874
664.96	24.950
665.28	27.049
665.61	22.027
665.93	24.145
666.26	24.746
666.58	23.431
666.91	25.370
667.23	23.820
667.56	26.134
667.88	25.855
668.21	27.932
668.53	26.464
668.86	23.810
669.18	26.439
669.50	24.130
669.83	27.233
670.15	27.333
670.48	23.747
670.80	24.784
671.13	25.478
671.45	22.979
671.77	25.051
672.10	21.811
672.42	24.382
672.75	23.715
673.07	22.535
673.39	22.423
673.72	21.289
674.04	23.922
674.37	22.524
674.69	20.859
675.01	22.594
675.34	25.051
675.66	26.947
675.98	27.902
676.31	27.101
676.63	25.265
676.95	25.996
677.28	24.065
677.60	25.275
677.92	24.684
678.25	24.025
678.57	24.104
678.89	25.451
679.22	22.004
679.54	22.328
679.86	24.954
680.18	23.435
680.51	22.163
680.83	22.598
681.15	22.453
681.48	23.819
681.80	22.631
682.12	22.605
682.44	21.277
682.77	25.255
683.09	26.824
683.41	25.055
683.73	26.269
684.06	24.380
684.38	23.483
684.70	23.643
685.02	24.953
685.34	22.344
685.67	20.280
685.99	21.993
686.31	21.843
686.63	21.025
686.96	18.750
687.28	21.119
687.60	20.109
687.92	22.121
688.24	23.194
688.56	24.297
688.89	25.519
689.21	27.729
689.53	23.591
689.85	26.608
690.17	23.188
690.49	24.416
690.82	24.766
691.14	21.429
691.46	24.262
691.78	22.088
692.10	24.587
692.42	22.555
692.74	24.481
693.06	21.489
693.39	22.177
693.71	24.672
694.03	25.263
694.35	23.160
694.67	23.341
694.99	27.317
695.31	27.696
695.63	26.316
695.95	23.472
696.27	22.589
696.59	25.389
696.91	26.166
697.23	22.535
697.56	25.800
697.88	20.654
698.20	23.750
698.52	26.237
698.84	23.608
699.16	23.041
699.48	23.990
699.80	25.121
700.12	30.390
700.44	27.851
700.76	25.414
701.08	27.299
701.40	27.374
701.72	28.863
702.04	34.943
702.36	27.195
702.68	30.028
703.00	28.532
703.32	25.266
703.64	24.933
703.96	27.298
704.28	27.907
704.60	30.792
704.91	30.564
705.23	27.273
705.55	31.561
705.87	33.223
706.19	29.682
706.51	26.480
706.83	30.909
707.15	27.451
707.47	22.980
707.79	26.044
708.11	25.342
708.43	25.714
708.74	22.959
709.06	26.494
709.38	26.247
709.70	29.070
710.02	30.564
710.34	25.455
710.66	27.164
710.98	29.545
711.29	28.779
711.61	29.794
711.93	26.282
712.25	32.797
712.57	31.618
712.89	30.796
713.20	29.483
713.52	33.224
713.84	27.848
714.16	25.915
714.48	28.161
714.80	31.003
715.11	25.648
715.43	27.893
715.75	26.377
716.07	28.754
716.39	29.154
716.70	30.897
717.02	30.935
717.34	25.795
717.66	36.567
717.97	33.068
718.29	28.148
718.61	30.657
718.93	29.779
719.24	30.104
719.56	28.814
719.88	33.220
720.20	31.757
720.51	32.404
720.83	33.457
721.15	30.597
721.46	31.915
721.78	32.258
722.10	29.811
722.42	31.579
722.73	32.959
723.05	31.148
723.37	32.794
723.68	30.502
724.00	35.366
724.32	31.855
724.63	36.179
724.95	32.218
725.27	36.032
725.58	35.156
725.90	30.292
726.22	33.208
726.53	32.292
726.85	31.741
727.16	30.249
727.48	28.723
727.80	31.061
728.11	28.986
728.43	29.615
728.74	29.032
729.06	33.577
729.38	30.515
729.69	27.046
730.01	28.669
730.32	27.431
730.64	31.438
730.96	27.723
731.27	30.464
731.59	30.581
731.90	27.405
732.22	28.571
732.53	27.554
732.85	29.808
733.16	25.723
733.48	26.910
733.80	30.195
734.11	28.662
734.43	27.515
734.74	22.000
735.06	21.777
735.37	32.081
735.69	21.975
736.00	32.353
736.32	28.972
736.63	25.879
736.95	29.712
737.26	26.871
737.58	29.032
737.89	31.104
738.21	32.082
738.52	29.643
738.83	27.925
739.15	27.692
739.46	31.752
739.78	28.472
740.09	28.308
740.41	30.323
740.72	27.526
741.04	30.741
741.35	28.750
741.66	36.889
741.98	28.774
742.29	35.885
742.61	38.793
742.92	32.127
743.23	32.906
743.55	33.600
743.86	35.965
744.18	42.035
744.49	36.842
744.80	36.150
745.12	42.273
745.43	36.123
745.74	37.838
746.06	33.028
746.37	32.735
746.68	35.747
747.00	33.796
747.31	40.000
747.62	29.204
747.94	30.837
748.25	32.340
748.56	35.683
748.88	37.624
749.19	43.000
749.50	32.558
749.82	28.862
750.13	29.796
750.44	32.482
750.75	30.526
751.07	34.727
751.38	33.798
751.69	31.408
752.01	28.571
752.32	34.657
752.63	30.496
752.94	30.738
753.26	37.200
753.57	28.455
753.88	32.812
754.19	28.929
754.51	31.250
754.82	28.159
755.13	35.094
755.44	30.451
755.75	33.942
756.07	30.851
756.38	28.467
756.69	26.510
757.00	27.545
757.31	26.409
757.63	25.146
757.94	26.273
758.25	27.206
758.56	21.235
758.87	25.269
759.18	26.364
759.50	28.213
759.81	26.791
760.12	25.625
760.43	26.934
760.74	25.543
761.05	27.966
761.36	23.797
761.67	26.989
761.99	26.087
762.30	30.903
762.61	28.244
762.92	31.250
763.23	32.773
763.54	35.200
763.85	30.078
764.16	33.462
764.47	31.179
764.78	28.622
765.10	22.468
765.41	30.973
765.72	28.743
766.03	32.915
766.34	29.000
766.65	35.319
766.96	32.906
767.27	39.086
767.58	40.625
767.89	40.526
768.20	36.782
768.51	34.010
768.82	39.908
769.13	32.520
769.44	30.364
769.75	33.906
770.06	29.358
770.37	36.199
770.68	38.426
770.99	33.333
771.30	31.967
771.61	30.493
771.92	33.197
772.23	37.395
772.54	35.897
772.85	42.932
773.16	38.298
773.47	34.783
773.78	43.147
774.09	39.286
774.39	44.444
774.70	44.444
775.01	47.101
775.32	45.752
775.63	46.053
775.94	41.007
776.25	48.819
776.56	49.254
776.87	50.820
777.18	57.031
777.48	54.962
777.79	52.273
778.10	52.593
778.41	52.679
778.72	44.526
779.03	40.940
779.34	44.966
779.65	44.595
779.95	46.626
780.26	47.059
780.57	51.034
780.88	57.813
781.19	49.624
781.50	52.027
781.80	41.509
782.11	35.593
782.42	39.873
782.73	38.037
783.04	51.351
783.34	49.296
783.65	51.370
783.96	47.761
784.27	51.049
784.57	41.727
784.88	49.074
785.19	58.730
785.50	55.660
785.81	57.463
786.11	59.016
786.42	51.163
786.73	49.558
787.04	57.547
787.34	75.000
787.65	52.000
787.96	54.054
788.26	51.240
788.57	63.559
788.88	57.851
789.19	54.167
789.49	55.303
789.80	50.382
790.11	68.571
790.41	67.327
790.72	74.699
791.03	55.435
791.33	72.093
791.64	65.979
791.95	59.406
792.25	73.333
792.56	74.026
792.87	82.051
793.17	84.810
793.48	75.862
793.79	68.966
794.09	64.773
794.40	61.345
794.70	52.941
795.01	51.111
795.32	48.201
795.62	48.819
795.93	60.345
796.23	53.097
796.54	69.412
796.85	72.973
797.15	95.775
797.46	72.727
797.76	77.108
798.07	72.152
798.37	80.000
798.68	83.333
798.99	66.197
799.29	83.117
799.60	73.864
799.90	87.671
800.21	85.075
800.51	86.207
800.82	71.930
801.12	80.328
801.43	83.333
801.73	70.270
802.04	79.365
802.34	83.951
802.65	92.188
802.95	89.831
803.26	104.688
803.56	94.286
803.87	86.154
804.17	77.941
804.48	105.556
804.78	89.655
805.09	83.824
805.39	101.923
805.70	98.214
806.00	101.639
806.30	72.727
806.61	80.488
806.91	77.215
807.22	76.316
807.52	74.627
807.83	98.592
808.13	87.500
808.43	93.333
808.74	80.263
809.04	107.246
809.35	92.537
809.65	78.947
809.95	117.742
810.26	96.610
810.56	95.238
810.86	140.909
811.17	130.952
811.47	118.333
811.77	105.556
812.08	94.545
812.38	118.000
812.69	169.444
812.99	156.818
813.29	124.490
813.59	95.238
813.90	132.653
814.20	109.091
814.50	89.231
814.81	85.294
815.11	124.490
815.41	103.279
815.72	128.571
816.02	121.818
816.32	104.762
816.62	127.500
816.93	117.073
817.23	126.190
817.53	102.273
817.84	175.758
818.14	130.435
818.44	106.667
818.74	182.353
819.04	140.000
819.35	188.571
819.65	164.706
819.95	192.857
820.25	230.000
820.56	138.462
820.86	136.364
821.16	151.163
821.46	110.256
821.76	132.000
822.07	154.286
822.37	157.500
822.67	175.758
822.97	121.569
823.27	210.714
823.57	151.351
823.88	142.500
824.18	233.333
824.48	161.905
824.78	200.000
825.08	162.500
825.38	154.054
825.69	158.537
825.99	233.333
826.29	134.483
826.59	126.316
826.89	136.842
827.19	176.471
827.49	148.387
827.79	152.273
828.09	147.727
828.39	119.149
828.70	132.653
829.00	177.778
829.30	148.387
829.60	142.500
829.90	266.667
830.20	164.286
830.50	195.652
830.80	230.435
831.10	203.333
831.40	200.000
831.70	234.783
832.00	238.462
832.30	188.889
832.60	306.250
832.90	203.333
833.20	314.286
833.50	190.323
833.80	168.966
834.10	200.000
834.40	246.154
834.70	294.444
835.00	261.905
835.30	171.429
835.60	346.154
835.90	217.241
836.20	371.429
836.50	172.414
836.80	192.000
837.10	194.444
837.40	228.571
837.70	276.471
838.00	214.815
838.30	195.238
838.60	304.762
838.90	226.923
839.19	285.000
839.49	407.143
839.79	285.000
840.09	345.000
840.39	261.905
840.69	226.087
840.99	266.667
841.29	530.000
841.59	366.667
841.88	331.250
842.18	172.414
842.48	233.333
842.78	200.000
843.08	169.565
843.38	178.125
843.68	900.000
843.97	226.923
844.27	200.000
844.57	276.190
844.87	318.750
845.17	211.111
845.47	1500.000
845.76	422.222
846.06	270.588
846.36	587.500
846.66	385.714
846.96	293.750
847.25	427.273
847.55	336.364
847.85	230.435
848.15	530.000
848.44	314.286
848.74	288.889
849.04	317.647
849.34	480.000
849.63	247.368
849.93	445.455
850.23	1000.000
850.53	450.000
850.82	2350.000
851.12	-5000.000
851.42	5300.000
851.71	290.000
852.01	-1433.333
852.31	245.833
852.61	2033.333
852.90	271.429
853.20	196.000
853.50	300.000
853.79	314.286
854.09	245.833
854.39	268.750
854.68	167.568
854.98	183.871
855.28	160.000
855.57	189.655
855.87	237.037
856.17	252.632
856.46	233.333
856.76	270.588
857.05	213.793
857.35	195.833
857.65	373.333
857.94	243.478
858.24	253.846
858.53	245.000
858.83	272.727
859.13	346.667
859.42	0.000
859.72	488.889
860.01	354.545
860.31	227.273
860.60	236.842
860.90	230.435
861.20	488.889
861.49	500.000
861.79	-5200.000
862.08	612.500
862.38	276.190
862.67	338.462
862.97	323.529
863.26	455.556
863.56	255.556
863.85	466.667
864.15	500.000
864.44	420.000
864.74	850.000
865.03	600.000
865.33	321.053
865.62	518.182
865.92	438.462
866.21	383.333
866.51	0.000
866.80	500.000
867.10	980.000
867.39	461.538
867.69	427.273
867.98	300.000
868.27	436.364
868.57	294.737
868.86	-5600.000
869.16	375.000
869.45	2350.000
869.75	-3600.000
870.04	475.000
870.33	728.571
870.63	1050.000
870.92	2450.000
871.22	785.714
871.51	347.059
871.80	242.857
872.10	328.571
>>>>>End Processed Spectral Data<<<<<
