SpectraSuite Data File
++++++++++++++++++++++++++++++++++++
Date: Wed May 13 16:48:07 PDT 2015
User: schluterlab
Dark Spectrum Present: Yes
Reference Spectrum Present: Yes
Number of Sampled Component Spectra: 1
Spectrometers: USB2E3373
Integration Time (usec): 3000 (USB2E3373)
Spectra Averaged: 3 (USB2E3373)
Boxcar Smoothing: 0 (USB2E3373)
Correct for Electrical Dark: No (USB2E3373)
Strobe/Lamp Enabled: No (USB2E3373)
Correct for Detector Non-linearity: No (USB2E3373)
Correct for Stray Light: No (USB2E3373)
Number of Pixels in Processed Spectrum: 2048
>>>>>Begin Processed Spectral Data<<<<<
178.53	0.000
178.91	-1325.000
179.29	-1325.000
179.67	-194.444
180.04	-1300.000
180.42	2650.000
180.80	980.000
181.18	-1150.000
181.56	742.857
181.94	0.000
182.31	-671.429
182.69	1433.333
183.07	-487.500
183.45	-533.333
183.83	545.455
184.20	-390.000
184.58	2450.000
184.96	5200.000
185.34	-840.000
185.72	-537.500
186.09	-2700.000
186.47	2450.000
186.85	2500.000
187.23	4000.000
187.61	-1666.667
187.98	1175.000
188.36	572.727
188.74	509.091
189.12	-720.000
189.49	540.000
189.87	-3800.000
190.25	-1200.000
190.63	378.571
191.00	392.308
191.38	750.000
191.76	-1025.000
192.14	1350.000
192.51	625.000
192.89	966.667
193.27	600.000
193.65	-1075.000
194.02	580.000
194.40	920.000
194.78	530.000
195.15	475.000
195.53	570.000
195.91	-2150.000
196.29	337.500
196.66	310.526
197.04	-310.000
197.42	0.000
197.79	520.000
198.17	-3400.000
198.55	757.143
198.92	737.500
199.30	780.000
199.68	0.000
200.05	311.111
200.43	657.143
200.81	4700.000
201.18	1333.333
201.56	-1600.000
201.94	555.556
202.31	511.111
202.69	441.667
203.07	480.000
203.44	0.000
203.82	1200.000
204.19	757.143
204.57	385.714
204.95	637.500
205.32	1600.000
205.70	481.818
206.08	357.143
206.45	2750.000
206.83	462.500
207.20	850.000
207.58	780.000
207.96	272.222
208.33	775.000
208.71	-833.333
209.08	757.143
209.46	533.333
209.84	536.364
210.21	-1433.333
210.59	1575.000
210.96	-400.000
211.34	2900.000
211.71	600.000
212.09	733.333
212.46	0.000
212.84	1733.333
213.22	1325.000
213.59	-3000.000
213.97	950.000
214.34	585.714
214.72	581.818
215.09	1040.000
215.47	-2550.000
215.84	-2350.000
216.22	1433.333
216.59	450.000
216.97	850.000
217.34	472.727
217.72	-833.333
218.09	0.000
218.47	-5200.000
218.84	755.556
219.22	785.714
219.59	1700.000
219.97	-600.000
220.34	1040.000
220.72	-1766.667
221.09	392.857
221.47	1525.000
221.84	-733.333
222.22	0.000
222.59	1475.000
222.97	-2100.000
223.34	1180.000
223.72	476.923
224.09	1240.000
224.46	2100.000
224.84	-4700.000
225.21	-980.000
225.59	-5100.000
225.96	490.000
226.34	265.000
226.71	2850.000
227.08	675.000
227.46	450.000
227.83	-1175.000
228.21	-2050.000
228.58	544.444
228.95	-2250.000
229.33	-2250.000
229.70	1733.333
230.08	800.000
230.45	-1000.000
230.82	383.333
231.20	800.000
231.57	671.429
231.95	500.000
232.32	227.273
232.69	354.545
233.07	614.286
233.44	353.846
233.81	-1900.000
234.19	284.211
234.56	391.667
234.93	408.333
235.31	500.000
235.68	353.846
236.05	400.000
236.43	178.788
236.80	231.579
237.17	4200.000
237.55	238.095
237.92	203.571
238.29	233.333
238.67	177.419
239.04	224.138
239.41	147.222
239.79	108.696
240.16	133.333
240.53	154.545
240.91	107.843
241.28	106.000
241.65	106.000
242.02	91.304
242.40	91.935
242.77	86.667
243.14	89.247
243.51	88.764
243.89	91.765
244.26	62.222
244.63	84.946
245.00	65.957
245.38	66.337
245.75	53.271
246.12	63.303
246.49	62.044
246.87	67.200
247.24	59.231
247.61	56.429
247.98	50.327
248.36	47.297
248.73	56.051
249.10	57.962
249.47	45.198
249.84	47.594
250.22	52.406
250.59	50.296
250.96	46.970
251.33	48.341
251.70	47.030
252.08	48.095
252.45	38.565
252.82	40.000
253.19	42.128
253.56	41.569
253.94	43.568
254.31	37.891
254.68	43.846
255.05	39.483
255.42	36.992
255.79	37.868
256.16	38.989
256.54	33.922
256.91	40.925
257.28	32.374
257.65	34.653
258.02	34.783
258.39	34.700
258.76	32.776
259.14	38.690
259.51	34.043
259.88	37.267
260.25	36.858
260.62	33.815
260.99	36.957
261.36	38.739
261.73	32.951
262.10	30.814
262.47	35.493
262.85	32.591
263.22	34.188
263.59	35.613
263.96	31.319
264.33	33.943
264.70	34.211
265.07	34.783
265.44	31.818
265.81	29.927
266.18	34.422
266.55	31.220
266.92	35.872
267.29	32.639
267.66	30.046
268.03	30.227
268.40	29.206
268.77	25.776
269.14	31.306
269.51	32.280
269.88	33.100
270.25	31.828
270.62	30.337
270.99	32.688
271.36	31.545
271.73	31.075
272.10	31.522
272.47	32.903
272.84	31.169
273.21	32.285
273.58	31.004
273.95	28.302
274.32	29.959
274.69	31.049
275.06	27.165
275.43	31.489
275.80	29.860
276.17	27.291
276.54	29.938
276.91	29.842
277.28	29.492
277.65	29.207
278.02	30.228
278.39	30.078
278.76	27.818
279.13	28.113
279.50	26.816
279.87	26.494
280.23	28.343
280.60	28.240
280.97	29.205
281.34	29.204
281.71	30.727
282.08	28.407
282.45	28.364
282.82	28.242
283.19	27.986
283.56	28.596
283.92	30.795
284.29	28.042
284.66	27.768
285.03	28.029
285.40	28.521
285.77	29.293
286.14	26.770
286.51	29.333
286.87	28.889
287.24	26.547
287.61	26.806
287.98	28.084
288.35	26.307
288.72	25.857
289.08	26.448
289.45	26.030
289.82	26.179
290.19	25.432
290.56	24.502
290.93	24.320
291.29	26.534
291.66	26.106
292.03	27.471
292.40	26.579
292.77	25.888
293.13	24.478
293.50	24.927
293.87	24.296
294.24	25.778
294.60	25.036
294.97	25.872
295.34	24.824
295.71	25.568
296.08	26.353
296.44	25.034
296.81	24.439
297.18	26.287
297.55	21.768
297.91	25.330
298.28	25.033
298.65	24.935
299.02	26.219
299.38	25.631
299.75	23.854
300.12	23.372
300.48	22.375
300.85	24.168
301.22	23.949
301.59	23.232
301.95	26.574
302.32	23.877
302.69	24.373
303.05	25.455
303.42	24.321
303.79	24.236
304.15	24.242
304.52	23.870
304.89	25.087
305.25	25.638
305.62	24.236
305.99	24.557
306.35	25.615
306.72	24.888
307.09	26.415
307.45	26.351
307.82	24.442
308.19	27.152
308.55	26.429
308.92	26.101
309.29	26.082
309.65	25.769
310.02	26.956
310.38	27.097
310.75	27.244
311.12	27.533
311.48	28.527
311.85	28.197
312.22	28.720
312.58	29.938
312.95	30.095
313.31	28.932
313.68	30.042
314.05	30.671
314.41	31.357
314.78	31.118
315.14	30.785
315.51	32.132
315.87	31.881
316.24	31.281
316.61	33.236
316.97	33.072
317.34	32.681
317.70	34.417
318.07	35.226
318.43	35.225
318.80	35.333
319.16	36.629
319.53	34.897
319.89	37.619
320.26	38.600
320.62	39.980
320.99	40.303
321.35	40.101
321.72	42.505
322.08	44.028
322.45	45.970
322.81	45.736
323.18	45.857
323.54	47.403
323.91	48.113
324.27	49.618
324.64	50.606
325.00	50.947
325.37	53.503
325.73	54.578
326.10	55.958
326.46	56.093
326.83	57.463
327.19	58.241
327.56	62.021
327.92	62.205
328.29	62.822
328.65	63.168
329.01	65.704
329.38	64.292
329.74	64.174
330.11	68.238
330.47	66.391
330.84	68.015
331.20	67.942
331.56	66.789
331.93	70.741
332.29	69.388
332.66	70.619
333.02	69.104
333.38	70.732
333.75	69.875
334.11	70.196
334.48	70.364
334.84	72.151
335.20	72.909
335.57	73.345
335.93	67.679
336.29	72.253
336.66	71.957
337.02	70.769
337.38	73.704
337.75	73.619
338.11	74.306
338.47	72.099
338.84	74.152
339.20	74.128
339.56	76.460
339.93	73.455
340.29	74.547
340.65	74.599
341.02	75.916
341.38	75.979
341.74	75.175
342.11	77.293
342.47	78.238
342.83	76.113
343.20	76.104
343.56	74.810
343.92	76.053
344.28	76.531
344.65	77.386
345.01	75.421
345.37	75.214
345.73	77.665
346.10	78.005
346.46	77.373
346.82	75.618
347.19	77.360
347.55	77.422
347.91	77.184
348.27	76.335
348.63	77.508
349.00	77.104
349.36	77.586
349.72	77.225
350.08	77.634
350.45	77.217
350.81	77.823
351.17	77.310
351.53	78.952
351.89	80.281
352.26	79.242
352.62	78.188
352.98	79.011
353.34	78.061
353.70	78.560
354.07	78.548
354.43	78.730
354.79	78.520
355.15	79.968
355.51	80.975
355.87	79.592
356.24	79.479
356.60	78.027
356.96	81.738
357.32	81.684
357.68	81.496
358.04	79.731
358.40	79.572
358.77	80.203
359.13	79.795
359.49	81.490
359.85	81.667
360.21	82.376
360.57	82.101
360.93	81.462
361.29	82.237
361.66	82.430
362.02	81.642
362.38	82.205
362.74	80.432
363.10	81.347
363.46	80.631
363.82	82.993
364.18	80.984
364.54	82.318
364.90	82.365
365.26	83.456
365.62	83.272
365.98	82.250
366.35	82.235
366.71	82.863
367.07	84.195
367.43	85.196
367.79	85.153
368.15	84.986
368.51	82.631
368.87	83.298
369.23	84.638
369.59	84.721
369.95	85.221
370.31	83.974
370.67	83.551
371.03	86.442
371.39	85.933
371.75	84.485
372.11	82.859
372.47	85.630
372.83	86.816
373.19	84.827
373.55	87.288
373.91	88.144
374.27	82.818
374.63	86.473
374.99	88.701
375.35	87.090
375.71	87.183
376.07	85.871
376.42	88.583
376.78	86.150
377.14	86.296
377.50	87.748
377.86	86.037
378.22	87.990
378.58	85.902
378.94	87.115
379.30	87.405
379.66	87.754
380.02	87.592
380.38	87.250
380.74	88.535
381.09	88.020
381.45	90.412
381.81	88.882
382.17	87.580
382.53	90.126
382.89	88.519
383.25	89.368
383.61	92.627
383.97	89.994
384.32	88.896
384.68	90.025
385.04	88.875
385.40	88.483
385.76	88.698
386.12	90.415
386.48	91.001
386.83	90.507
387.19	91.033
387.55	90.414
387.91	90.810
388.27	89.884
388.62	91.211
388.98	89.251
389.34	90.551
389.70	88.044
390.06	90.114
390.42	92.023
390.77	90.267
391.13	92.661
391.49	90.609
391.85	88.797
392.20	90.410
392.56	90.720
392.92	89.582
393.28	90.473
393.64	88.909
393.99	88.210
394.35	90.571
394.71	90.402
395.07	89.470
395.42	92.274
395.78	90.076
396.14	89.013
396.50	92.669
396.85	90.973
397.21	90.074
397.57	91.383
397.92	91.346
398.28	88.789
398.64	88.351
399.00	89.032
399.35	87.817
399.71	90.451
400.07	90.656
400.42	87.055
400.78	90.531
401.14	90.549
401.49	89.612
401.85	88.566
402.21	87.605
402.57	88.834
402.92	91.236
403.28	89.881
403.63	89.233
403.99	90.892
404.35	88.727
404.70	89.149
405.06	89.400
405.42	89.145
405.77	89.143
406.13	87.246
406.49	89.355
406.84	89.132
407.20	88.475
407.55	89.279
407.91	90.600
408.27	89.981
408.62	87.598
408.98	88.419
409.34	88.315
409.69	89.484
410.05	88.910
410.40	88.440
410.76	87.455
411.11	87.093
411.47	87.348
411.83	88.638
412.18	87.508
412.54	88.481
412.89	87.410
413.25	86.954
413.60	87.708
413.96	85.853
414.31	87.363
414.67	85.741
415.03	88.411
415.38	86.856
415.74	85.916
416.09	87.524
416.45	87.483
416.80	88.103
417.16	87.869
417.51	86.928
417.87	86.962
418.22	87.571
418.58	87.734
418.93	87.469
419.29	85.487
419.64	87.469
420.00	86.220
420.35	85.333
420.71	86.850
421.06	85.263
421.42	85.673
421.77	85.370
422.12	85.682
422.48	83.756
422.83	86.139
423.19	85.470
423.54	86.477
423.90	86.899
424.25	85.539
424.61	84.762
424.96	86.997
425.31	85.493
425.67	83.989
426.02	84.457
426.38	86.752
426.73	84.845
427.09	84.012
427.44	85.509
427.79	84.244
428.15	83.988
428.50	84.552
428.85	84.565
429.21	84.705
429.56	85.329
429.92	84.348
430.27	84.310
430.62	84.076
430.98	83.134
431.33	82.526
431.68	84.031
432.04	81.842
432.39	84.352
432.74	85.218
433.10	84.946
433.45	85.539
433.80	83.869
434.16	82.051
434.51	82.211
434.86	83.751
435.22	85.047
435.57	83.647
435.92	84.026
436.28	85.231
436.63	84.106
436.98	83.286
437.34	83.363
437.69	84.947
438.04	84.261
438.39	84.836
438.75	82.510
439.10	82.737
439.45	82.231
439.81	84.230
440.16	81.988
440.51	83.656
440.86	83.729
441.22	83.871
441.57	82.962
441.92	84.084
442.27	82.616
442.63	81.991
442.98	83.380
443.33	82.283
443.68	82.602
444.03	82.967
444.39	80.672
444.74	82.468
445.09	81.617
445.44	80.864
445.79	81.989
446.15	80.783
446.50	80.506
446.85	82.169
447.20	80.469
447.55	81.295
447.91	80.805
448.26	81.803
448.61	80.384
448.96	81.063
449.31	82.002
449.66	80.248
450.02	80.223
450.37	80.499
450.72	80.993
451.07	81.292
451.42	79.514
451.77	80.388
452.12	80.600
452.47	79.726
452.83	80.711
453.18	79.951
453.53	80.891
453.88	80.213
454.23	80.753
454.58	81.163
454.93	80.483
455.28	78.928
455.63	80.279
455.98	80.774
456.34	80.214
456.69	79.837
457.04	80.433
457.39	79.310
457.74	79.048
458.09	79.528
458.44	79.304
458.79	77.386
459.14	78.499
459.49	78.984
459.84	77.950
460.19	77.549
460.54	75.289
460.89	77.948
461.24	78.264
461.59	78.675
461.94	77.744
462.29	78.932
462.64	77.281
462.99	77.424
463.34	79.533
463.69	79.174
464.04	77.391
464.39	75.014
464.74	76.649
465.09	77.201
465.44	76.011
465.79	76.230
466.14	75.315
466.49	75.417
466.84	76.649
467.19	75.739
467.54	76.938
467.89	74.730
468.24	75.858
468.59	77.167
468.94	74.710
469.29	76.992
469.64	77.912
469.99	77.808
470.34	76.486
470.68	78.305
471.03	76.531
471.38	78.388
471.73	76.149
472.08	76.776
472.43	75.251
472.78	75.444
473.13	75.225
473.48	74.782
473.83	76.037
474.17	76.167
474.52	74.814
474.87	75.598
475.22	75.218
475.57	72.864
475.92	74.137
476.27	73.337
476.61	74.407
476.96	73.227
477.31	73.679
477.66	75.109
478.01	72.190
478.36	73.982
478.70	71.651
479.05	73.536
479.40	73.695
479.75	74.123
480.10	73.161
480.45	72.965
480.79	72.145
481.14	73.337
481.49	72.710
481.84	72.885
482.19	72.194
482.53	72.385
482.88	73.197
483.23	72.290
483.58	72.202
483.92	72.212
484.27	70.675
484.62	72.371
484.97	71.265
485.31	72.740
485.66	70.747
486.01	68.755
486.36	64.760
486.70	63.232
487.05	64.682
487.40	66.905
487.75	67.087
488.09	68.790
488.44	68.612
488.79	70.018
489.13	70.703
489.48	70.310
489.83	68.796
490.17	71.548
490.52	70.771
490.87	69.833
491.22	67.713
491.56	70.114
491.91	69.242
492.26	68.489
492.60	68.479
492.95	69.317
493.30	70.000
493.64	68.735
493.99	68.756
494.34	69.473
494.68	69.597
495.03	68.750
495.37	67.892
495.72	69.737
496.07	69.745
496.41	68.628
496.76	67.678
497.11	68.258
497.45	68.374
497.80	69.002
498.14	67.633
498.49	69.220
498.84	69.559
499.18	67.095
499.53	68.091
499.87	68.127
500.22	67.263
500.56	69.175
500.91	66.875
501.26	67.188
501.60	68.011
501.95	66.865
502.29	67.526
502.64	67.737
502.98	67.789
503.33	65.585
503.67	66.450
504.02	66.090
504.36	65.232
504.71	67.220
505.06	65.976
505.40	66.894
505.75	65.188
506.09	66.327
506.44	66.848
506.78	66.001
507.13	67.087
507.47	66.869
507.82	66.768
508.16	66.869
508.51	68.899
508.85	66.783
509.19	65.408
509.54	65.306
509.88	65.379
510.23	66.170
510.57	67.441
510.92	65.769
511.26	64.234
511.61	66.390
511.95	65.397
512.30	65.536
512.64	65.879
512.98	66.077
513.33	66.274
513.67	64.194
514.02	64.448
514.36	66.739
514.70	65.468
515.05	66.202
515.39	65.339
515.74	65.203
516.08	65.623
516.42	66.149
516.77	65.552
517.11	65.538
517.46	65.406
517.80	66.551
518.14	65.663
518.49	66.278
518.83	64.205
519.17	65.704
519.52	65.988
519.86	64.461
520.20	65.202
520.55	66.128
520.89	66.423
521.23	66.043
521.58	64.826
521.92	65.646
522.26	64.674
522.61	66.542
522.95	66.176
523.29	66.220
523.64	66.159
523.98	66.790
524.32	64.174
524.66	64.522
525.01	63.909
525.35	64.622
525.69	64.594
526.04	64.860
526.38	64.918
526.72	63.190
527.06	65.662
527.41	63.366
527.75	66.109
528.09	64.740
528.43	65.519
528.78	64.720
529.12	63.212
529.46	64.176
529.80	65.099
530.15	64.050
530.49	62.523
530.83	63.418
531.17	64.948
531.51	64.527
531.86	65.484
532.20	65.450
532.54	63.549
532.88	64.442
533.22	62.898
533.57	63.333
533.91	62.071
534.25	62.029
534.59	61.989
534.93	61.749
535.27	61.376
535.62	62.698
535.96	63.591
536.30	63.128
536.64	62.975
536.98	62.243
537.32	61.751
537.66	62.733
538.01	63.199
538.35	63.348
538.69	62.157
539.03	61.468
539.37	59.936
539.71	61.957
540.05	62.941
540.39	63.056
540.73	61.643
541.07	62.492
541.42	62.231
541.76	62.774
542.10	63.389
542.44	60.728
542.78	62.451
543.12	59.949
543.46	59.148
543.80	62.329
544.14	59.820
544.48	60.698
544.82	60.295
545.16	60.312
545.50	61.247
545.84	59.812
546.18	62.088
546.52	62.010
546.86	60.275
547.20	61.767
547.54	61.456
547.88	60.204
548.22	59.714
548.56	59.371
548.90	59.731
549.24	60.741
549.58	60.505
549.92	61.745
550.26	61.861
550.60	60.788
550.94	59.789
551.28	60.497
551.62	61.251
551.96	61.754
552.30	61.160
552.64	59.905
552.98	61.017
553.32	58.867
553.66	60.191
554.00	59.712
554.34	58.454
554.68	61.445
555.02	59.309
555.36	58.733
555.69	58.525
556.03	59.152
556.37	59.959
556.71	58.322
557.05	60.154
557.39	58.502
557.73	58.292
558.07	60.406
558.41	57.742
558.75	58.560
559.08	59.135
559.42	60.922
559.76	60.000
560.10	60.243
560.44	59.119
560.78	58.350
561.12	58.311
561.45	58.344
561.79	57.680
562.13	59.155
562.47	58.811
562.81	59.763
563.15	57.926
563.48	58.820
563.82	58.382
564.16	58.077
564.50	57.747
564.84	56.700
565.17	57.722
565.51	59.169
565.85	56.662
566.19	56.168
566.52	57.188
566.86	56.600
567.20	58.432
567.54	56.107
567.88	54.210
568.21	55.979
568.55	54.954
568.89	56.177
569.23	54.278
569.56	53.441
569.90	53.132
570.24	53.247
570.57	52.023
570.91	50.711
571.25	51.050
571.59	50.663
571.92	50.086
572.26	50.578
572.60	50.571
572.93	50.405
573.27	51.316
573.61	50.670
573.95	50.258
574.28	50.226
574.62	50.364
574.96	49.510
575.29	49.370
575.63	49.441
575.97	49.414
576.30	49.310
576.64	49.760
576.98	49.927
577.31	49.422
577.65	49.381
577.98	49.095
578.32	48.987
578.66	47.757
578.99	48.665
579.33	48.802
579.67	48.869
580.00	49.173
580.34	49.075
580.67	48.357
581.01	49.269
581.35	49.049
581.68	48.354
582.02	47.472
582.35	47.649
582.69	47.944
583.02	48.650
583.36	48.766
583.70	49.376
584.03	48.929
584.37	49.960
584.70	49.608
585.04	48.263
585.37	48.369
585.71	48.308
586.04	48.273
586.38	49.007
586.72	49.461
587.05	48.574
587.39	48.470
587.72	48.879
588.06	48.746
588.39	48.944
588.73	48.783
589.06	49.174
589.40	50.067
589.73	50.334
590.07	50.463
590.40	49.543
590.73	50.507
591.07	51.567
591.40	50.443
591.74	52.251
592.07	51.832
592.41	49.773
592.74	49.588
593.08	49.567
593.41	48.877
593.75	47.970
594.08	49.313
594.41	49.063
594.75	49.908
595.08	49.069
595.42	49.982
595.75	49.323
596.09	49.793
596.42	50.766
596.75	50.696
597.09	50.866
597.42	48.904
597.75	50.712
598.09	49.870
598.42	49.527
598.76	49.372
599.09	48.271
599.42	47.489
599.76	49.414
600.09	47.322
600.42	47.516
600.76	47.821
601.09	48.670
601.42	49.239
601.76	48.083
602.09	48.419
602.42	48.527
602.76	49.416
603.09	48.938
603.42	48.887
603.76	48.552
604.09	49.670
604.42	48.634
604.76	48.925
605.09	49.847
605.42	49.295
605.75	48.841
606.09	49.288
606.42	49.081
606.75	48.735
607.09	48.974
607.42	49.166
607.75	47.932
608.08	49.414
608.42	49.529
608.75	47.971
609.08	48.104
609.41	49.119
609.75	47.975
610.08	50.000
610.41	49.860
610.74	49.149
611.07	49.555
611.41	48.234
611.74	49.472
612.07	49.431
612.40	49.685
612.73	49.474
613.07	50.808
613.40	50.395
613.73	48.663
614.06	49.462
614.39	49.502
614.72	47.895
615.06	49.527
615.39	48.726
615.72	49.489
616.05	48.751
616.38	49.917
616.71	50.950
617.05	49.941
617.38	49.910
617.71	50.390
618.04	50.541
618.37	49.852
618.70	50.218
619.03	51.382
619.36	51.052
619.69	50.845
620.03	51.374
620.36	50.468
620.69	51.781
621.02	53.097
621.35	51.449
621.68	50.312
622.01	52.245
622.34	52.648
622.67	51.787
623.00	51.871
623.33	50.465
623.66	50.536
623.99	52.798
624.32	51.427
624.65	51.483
624.99	51.346
625.32	49.891
625.65	50.789
625.98	52.498
626.31	52.022
626.64	53.551
626.97	54.115
627.30	53.533
627.63	53.733
627.96	53.911
628.29	52.318
628.62	55.078
628.95	55.094
629.28	52.920
629.61	53.804
629.94	55.238
630.26	53.765
630.59	53.575
630.92	53.544
631.25	52.616
631.58	54.054
631.91	53.347
632.24	55.063
632.57	54.879
632.90	55.044
633.23	56.600
633.56	57.288
633.89	55.719
634.22	55.392
634.55	58.698
634.88	56.407
635.20	55.795
635.53	55.422
635.86	57.178
636.19	54.706
636.52	55.017
636.85	55.556
637.18	53.341
637.51	57.092
637.83	54.131
638.16	56.394
638.49	55.919
638.82	57.901
639.15	56.625
639.48	56.858
639.81	57.239
640.13	56.771
640.46	57.315
640.79	56.935
641.12	55.158
641.45	58.799
641.77	59.057
642.10	57.749
642.43	59.309
642.76	61.455
643.09	59.202
643.41	59.788
643.74	61.111
644.07	56.860
644.40	58.436
644.73	60.157
645.05	60.539
645.38	58.294
645.71	59.742
646.04	59.967
646.36	62.437
646.69	60.033
647.02	57.993
647.35	60.137
647.67	61.062
648.00	60.976
648.33	59.571
648.66	56.515
648.98	58.171
649.31	58.894
649.64	59.193
649.96	54.844
650.29	59.400
650.62	57.120
650.94	57.861
651.27	59.291
651.60	56.739
651.92	57.668
652.25	58.143
652.58	57.009
652.90	57.504
653.23	56.086
653.56	57.165
653.88	57.845
654.21	57.978
654.54	57.096
654.86	55.140
655.19	51.757
655.52	39.151
655.84	36.041
656.17	46.913
656.49	62.647
656.82	63.258
657.15	47.626
657.47	35.582
657.80	27.517
658.13	29.090
658.45	43.275
658.78	43.510
659.10	44.926
659.43	46.222
659.75	48.861
660.08	52.342
660.41	57.914
660.73	60.102
661.06	59.236
661.38	60.182
661.71	60.962
662.03	58.580
662.36	57.654
662.68	59.438
663.01	61.212
663.33	59.660
663.66	59.454
663.98	62.851
664.31	60.924
664.63	59.312
664.96	58.753
665.28	60.861
665.61	57.505
665.93	58.551
666.26	58.621
666.58	59.833
666.91	60.254
667.23	62.472
667.56	58.963
667.88	58.333
668.21	60.768
668.53	59.870
668.86	62.554
669.18	60.981
669.50	62.174
669.83	61.438
670.15	59.556
670.48	58.606
670.80	61.422
671.13	57.537
671.45	59.362
671.77	57.434
672.10	56.377
672.42	54.770
672.75	55.556
673.07	56.866
673.39	57.866
673.72	57.422
674.04	58.824
674.37	57.670
674.69	57.669
675.01	59.833
675.34	56.879
675.66	62.105
675.98	58.859
676.31	59.664
676.63	56.688
676.95	58.071
677.28	63.084
677.60	59.560
677.92	59.705
678.25	58.932
678.57	58.167
678.89	57.315
679.22	57.564
679.54	57.061
679.86	55.780
680.18	54.383
680.51	56.028
680.83	52.313
681.15	58.113
681.48	55.766
681.80	54.932
682.12	55.364
682.44	53.578
682.77	55.804
683.09	56.867
683.41	59.202
683.73	57.616
684.06	57.438
684.38	55.577
684.70	57.946
685.02	56.098
685.34	53.663
685.67	51.224
685.99	52.577
686.31	53.413
686.63	53.887
686.96	50.893
687.28	52.708
687.60	53.804
687.92	54.296
688.24	55.323
688.56	57.028
688.89	58.299
689.21	58.952
689.53	56.576
689.85	59.202
690.17	55.280
690.49	58.386
690.82	57.477
691.14	56.250
691.46	56.118
691.78	55.622
692.10	58.884
692.42	54.691
692.74	54.149
693.06	54.043
693.39	57.700
693.71	55.677
694.03	58.737
694.35	54.545
694.67	55.149
694.99	57.805
695.31	57.598
695.63	57.895
695.95	61.369
696.27	58.122
696.59	57.254
696.91	58.808
697.23	50.939
697.56	52.878
697.88	51.329
698.20	56.667
698.52	55.484
698.84	54.120
699.16	53.917
699.48	56.532
699.80	53.865
700.12	60.260
700.44	59.151
700.76	61.050
701.08	60.057
701.40	59.218
701.72	62.682
702.04	63.068
702.36	57.224
702.68	55.524
703.00	59.280
703.32	58.777
703.64	58.445
703.96	60.167
704.28	59.302
704.60	61.290
704.91	62.018
705.23	59.531
705.55	65.449
705.87	67.442
706.19	63.604
706.51	61.059
706.83	60.909
707.15	59.384
707.47	56.061
707.79	55.037
708.11	53.881
708.43	54.286
708.74	54.082
709.06	58.701
709.38	56.955
709.70	59.884
710.02	58.160
710.34	53.636
710.66	60.896
710.98	59.091
711.29	58.140
711.61	57.227
711.93	60.577
712.25	67.203
712.57	69.853
712.89	65.398
713.20	60.182
713.52	60.855
713.84	57.911
714.16	54.878
714.48	58.046
714.80	65.350
715.11	59.078
715.43	56.973
715.75	57.391
716.07	60.383
716.39	61.129
716.70	60.465
717.02	66.187
717.34	63.604
717.66	64.552
717.97	66.534
718.29	62.593
718.61	61.314
718.93	65.441
719.24	63.668
719.56	61.356
719.88	58.305
720.20	60.473
720.51	59.930
720.83	68.030
721.15	61.940
721.46	62.411
721.78	63.799
722.10	63.019
722.42	62.406
722.73	59.176
723.05	69.262
723.37	60.729
723.68	60.232
724.00	65.447
724.32	65.323
724.63	62.602
724.95	61.925
725.27	63.563
725.58	62.500
725.90	62.044
726.22	63.019
726.53	59.722
726.85	59.044
727.16	60.854
727.48	59.929
727.80	60.227
728.11	60.507
728.43	60.769
728.74	57.706
729.06	64.599
729.38	62.868
729.69	60.142
730.01	58.020
730.32	52.778
730.64	56.522
730.96	57.426
731.27	62.252
731.59	55.657
731.90	54.519
732.22	53.416
732.53	55.108
732.85	57.051
733.16	57.556
733.48	57.475
733.80	55.195
734.11	58.917
734.43	55.621
734.74	52.571
735.06	50.430
735.37	58.382
735.69	57.006
736.00	56.209
736.32	58.255
736.63	54.633
736.95	56.869
737.26	53.401
737.58	50.323
737.89	58.194
738.21	59.386
738.52	58.214
738.83	51.698
739.15	60.000
739.46	60.949
739.78	57.986
740.09	54.462
740.41	54.516
740.72	56.446
741.04	60.741
741.35	59.583
741.66	68.444
741.98	66.981
742.29	65.550
742.61	68.103
742.92	61.538
743.23	59.402
743.55	53.600
743.86	64.035
744.18	65.044
744.49	65.072
744.80	69.953
745.12	67.273
745.43	62.555
745.74	66.667
746.06	68.349
746.37	63.677
746.68	64.706
747.00	63.426
747.31	67.619
747.62	61.504
747.94	62.555
748.25	60.426
748.56	69.604
748.88	64.356
749.19	68.500
749.50	59.535
749.82	57.724
750.13	55.918
750.44	58.029
750.75	59.298
751.07	57.235
751.38	57.840
751.69	62.094
752.01	60.150
752.32	57.762
752.63	59.220
752.94	59.426
753.26	66.000
753.57	51.626
753.88	60.547
754.19	53.929
754.51	58.681
754.82	57.040
755.13	59.245
755.44	56.391
755.75	57.664
756.07	53.546
756.38	57.664
756.69	57.047
757.00	52.695
757.31	54.006
757.63	53.801
757.94	51.206
758.25	47.794
758.56	45.679
758.87	48.387
759.18	53.939
759.50	52.351
759.81	50.467
760.12	50.938
760.43	52.149
760.74	49.185
761.05	53.672
761.36	47.861
761.67	53.977
761.99	54.658
762.30	57.986
762.61	57.634
762.92	58.594
763.23	55.462
763.54	60.000
763.85	58.984
764.16	65.385
764.47	57.034
764.78	57.597
765.10	50.316
765.41	51.917
765.72	53.593
766.03	56.113
766.34	55.000
766.65	62.553
766.96	56.838
767.27	73.096
767.58	65.104
767.89	70.526
768.20	65.517
768.51	66.497
768.82	62.385
769.13	56.911
769.44	57.895
769.75	59.657
770.06	51.835
770.37	60.181
770.68	60.185
770.99	60.000
771.30	50.410
771.61	60.538
771.92	55.328
772.23	61.345
772.54	62.564
772.85	64.921
773.16	60.638
773.47	71.196
773.78	63.452
774.09	68.452
774.39	70.175
774.70	70.370
775.01	81.159
775.32	73.203
775.63	65.789
775.94	75.540
776.25	88.189
776.56	82.090
776.87	77.869
777.18	71.875
777.48	72.519
777.79	76.515
778.10	82.222
778.41	83.036
778.72	68.613
779.03	73.154
779.34	71.141
779.65	70.270
779.95	69.325
780.26	67.320
780.57	72.414
780.88	82.031
781.19	72.180
781.50	69.595
781.80	72.956
782.11	61.582
782.42	62.658
782.73	63.190
783.04	81.081
783.34	69.718
783.65	79.452
783.96	76.866
784.27	67.832
784.57	63.309
784.88	85.185
785.19	73.016
785.50	78.302
785.81	76.119
786.11	81.148
786.42	78.295
786.73	71.681
787.04	81.132
787.34	80.357
787.65	92.000
787.96	90.090
788.26	73.554
788.57	79.661
788.88	82.645
789.19	68.056
789.49	70.455
789.80	78.626
790.11	89.524
790.41	92.079
790.72	80.723
791.03	97.826
791.33	95.349
791.64	90.722
791.95	84.158
792.25	88.889
792.56	105.195
792.87	107.692
793.17	107.595
793.48	88.506
793.79	91.954
794.09	96.591
794.40	89.916
794.70	72.794
795.01	76.296
795.32	66.187
795.62	72.441
795.93	80.172
796.23	72.566
796.54	98.824
796.85	94.595
797.15	121.127
797.46	109.091
797.76	98.795
798.07	97.468
798.37	92.308
798.68	109.091
798.99	111.268
799.29	97.403
799.60	89.773
799.90	109.589
800.21	111.940
800.51	103.448
800.82	124.561
801.12	116.393
801.43	119.697
801.73	82.432
802.04	126.984
802.34	103.704
802.65	109.375
802.95	127.119
803.26	129.688
803.56	97.143
803.87	113.846
804.17	108.824
804.48	153.704
804.78	105.172
805.09	107.353
805.39	128.846
805.70	117.857
806.00	134.426
806.30	98.485
806.61	107.317
806.91	91.139
807.22	106.579
807.52	97.015
807.83	114.085
808.13	90.625
808.43	113.333
808.74	86.842
809.04	108.696
809.35	111.940
809.65	96.053
809.95	135.484
810.26	105.085
810.56	114.286
810.86	150.000
811.17	183.333
811.47	135.000
811.77	112.963
812.08	150.909
812.38	130.000
812.69	163.889
812.99	147.727
813.29	138.776
813.59	130.952
813.90	144.898
814.20	118.182
814.50	116.923
814.81	100.000
815.11	126.531
815.41	100.000
815.72	159.524
816.02	123.636
816.32	147.619
816.62	117.500
816.93	158.537
817.23	161.905
817.53	140.909
817.84	200.000
818.14	150.000
818.44	135.556
818.74	197.059
819.04	145.000
819.35	174.286
819.65	185.294
819.95	232.143
820.25	200.000
820.56	205.128
820.86	131.818
821.16	148.837
821.46	148.718
821.76	130.000
822.07	208.571
822.37	165.000
822.67	209.091
822.97	137.255
823.27	239.286
823.57	162.162
823.88	162.500
824.18	196.667
824.48	161.905
824.78	272.000
825.08	208.333
825.38	162.162
825.69	136.585
825.99	229.167
826.29	151.724
826.59	165.789
826.89	152.632
827.19	194.118
827.49	212.903
827.79	161.364
828.09	138.636
828.39	138.298
828.70	126.531
829.00	207.407
829.30	200.000
829.60	145.000
829.90	333.333
830.20	225.000
830.50	208.696
830.80	256.522
831.10	200.000
831.40	166.667
831.70	186.957
832.00	219.231
832.30	222.222
832.60	331.250
832.90	220.000
833.20	450.000
833.50	209.677
833.80	237.931
834.10	193.750
834.40	246.154
834.70	333.333
835.00	352.381
835.30	162.857
835.60	323.077
835.90	217.241
836.20	350.000
836.50	203.448
836.80	188.000
837.10	197.222
837.40	285.714
837.70	335.294
838.00	203.704
838.30	261.905
838.60	290.476
838.90	219.231
839.19	260.000
839.49	464.286
839.79	325.000
840.09	280.000
840.39	261.905
840.69	260.870
840.99	283.333
841.29	500.000
841.59	341.667
841.88	418.750
842.18	189.655
842.48	214.286
842.78	203.333
843.08	247.826
843.38	184.375
843.68	916.667
843.97	223.077
844.27	193.103
844.57	300.000
844.87	356.250
845.17	225.926
845.47	1666.667
845.76	522.222
846.06	258.824
846.36	612.500
846.66	414.286
846.96	337.500
847.25	481.818
847.55	390.909
847.85	265.217
848.15	540.000
848.44	371.429
848.74	277.778
849.04	329.412
849.34	550.000
849.63	257.895
849.93	481.818
850.23	1020.000
850.53	414.286
850.82	2250.000
851.12	-4500.000
851.42	4600.000
851.71	285.000
852.01	-1300.000
852.31	250.000
852.61	1833.333
852.90	276.190
853.20	244.000
853.50	323.529
853.79	261.905
854.09	212.500
854.39	356.250
854.68	156.757
854.98	238.710
855.28	170.000
855.57	224.138
855.87	225.926
856.17	257.895
856.46	333.333
856.76	294.118
857.05	162.069
857.35	216.667
857.65	286.667
857.94	213.043
858.24	211.538
858.53	245.000
858.83	259.091
859.13	340.000
859.42	0.000
859.72	566.667
860.01	436.364
860.31	218.182
860.60	252.632
860.90	234.783
861.20	500.000
861.49	491.667
861.79	-4100.000
862.08	737.500
862.38	242.857
862.67	384.615
862.97	341.176
863.26	533.333
863.56	300.000
863.85	325.000
864.15	425.000
864.44	340.000
864.74	700.000
865.03	600.000
865.33	300.000
865.62	454.545
865.92	415.385
866.21	366.667
866.51	0.000
866.80	345.455
867.10	1080.000
867.39	346.154
867.69	500.000
867.98	289.474
868.27	481.818
868.57	273.684
868.86	-4600.000
869.16	306.250
869.45	1800.000
869.75	-3300.000
870.04	491.667
870.33	700.000
870.63	950.000
870.92	2250.000
871.22	685.714
871.51	329.412
871.80	214.286
872.10	321.429
>>>>>End Processed Spectral Data<<<<<
