SpectraSuite Data File
++++++++++++++++++++++++++++++++++++
Date: Wed May 13 16:23:12 PDT 2015
User: schluterlab
Dark Spectrum Present: Yes
Reference Spectrum Present: Yes
Number of Sampled Component Spectra: 1
Spectrometers: USB2E3373
Integration Time (usec): 3000 (USB2E3373)
Spectra Averaged: 3 (USB2E3373)
Boxcar Smoothing: 0 (USB2E3373)
Correct for Electrical Dark: No (USB2E3373)
Strobe/Lamp Enabled: No (USB2E3373)
Correct for Detector Non-linearity: No (USB2E3373)
Correct for Stray Light: No (USB2E3373)
Number of Pixels in Processed Spectrum: 2048
>>>>>Begin Processed Spectral Data<<<<<
178.53	0.000
178.91	-1125.000
179.29	-1325.000
179.67	-188.889
180.04	-1200.000
180.42	2000.000
180.80	1020.000
181.18	-1100.000
181.56	600.000
181.94	0.000
182.31	-585.714
182.69	1633.333
183.07	-475.000
183.45	-588.889
183.83	427.273
184.20	-350.000
184.58	2400.000
184.96	5100.000
185.34	-720.000
185.72	-587.500
186.09	-2550.000
186.47	2500.000
186.85	2500.000
187.23	4300.000
187.61	-1333.333
187.98	1400.000
188.36	472.727
188.74	472.727
189.12	-1140.000
189.49	530.000
189.87	-4400.000
190.25	-1200.000
190.63	414.286
191.00	461.538
191.38	800.000
191.76	-1250.000
192.14	1400.000
192.51	625.000
192.89	800.000
193.27	712.500
193.65	-950.000
194.02	490.000
194.40	1000.000
194.78	460.000
195.15	466.667
195.53	570.000
195.91	-2150.000
196.29	350.000
196.66	289.474
197.04	-290.000
197.42	0.000
197.79	510.000
198.17	-4400.000
198.55	642.857
198.92	650.000
199.30	840.000
199.68	0.000
200.05	272.222
200.43	571.429
200.81	3800.000
201.18	1533.333
201.56	-1566.667
201.94	600.000
202.31	500.000
202.69	408.333
203.07	540.000
203.44	0.000
203.82	1100.000
204.19	700.000
204.57	407.143
204.95	562.500
205.32	1566.667
205.70	472.727
206.08	328.571
206.45	2500.000
206.83	343.750
207.20	783.333
207.58	840.000
207.96	300.000
208.33	625.000
208.71	-633.333
209.08	871.429
209.46	566.667
209.84	409.091
210.21	-1433.333
210.59	1375.000
210.96	-550.000
211.34	2600.000
211.71	620.000
212.09	850.000
212.46	0.000
212.84	1566.667
213.22	1325.000
213.59	-3900.000
213.97	800.000
214.34	714.286
214.72	481.818
215.09	940.000
215.47	-2150.000
215.84	-2750.000
216.22	1800.000
216.59	357.143
216.97	1250.000
217.34	436.364
217.72	-800.000
218.09	0.000
218.47	-4500.000
218.84	566.667
219.22	871.429
219.59	1433.333
219.97	-585.714
220.34	1060.000
220.72	-1500.000
221.09	335.714
221.47	1150.000
221.84	-933.333
222.22	0.000
222.59	1425.000
222.97	-2800.000
223.34	880.000
223.72	407.692
224.09	1080.000
224.46	1850.000
224.84	-5100.000
225.21	-940.000
225.59	-5100.000
225.96	590.000
226.34	265.000
226.71	3000.000
227.08	575.000
227.46	430.000
227.83	-1200.000
228.21	-2150.000
228.58	588.889
228.95	-2450.000
229.33	-1950.000
229.70	1533.333
230.08	757.143
230.45	-820.000
230.82	491.667
231.20	883.333
231.57	542.857
231.95	500.000
232.32	259.091
232.69	336.364
233.07	814.286
233.44	323.077
233.81	-1633.333
234.19	284.211
234.56	450.000
234.93	400.000
235.31	354.545
235.68	246.154
236.05	292.857
236.43	163.636
236.80	268.421
237.17	4600.000
237.55	223.810
237.92	196.429
238.29	204.762
238.67	174.194
239.04	220.690
239.41	147.222
239.79	134.783
240.16	140.476
240.53	131.818
240.91	92.157
241.28	98.000
241.65	118.000
242.02	91.304
242.40	83.871
242.77	88.333
243.14	75.269
243.51	89.888
243.89	76.471
244.26	62.222
244.63	67.742
245.00	57.447
245.38	72.277
245.75	61.682
246.12	60.550
246.49	62.044
246.87	60.800
247.24	61.538
247.61	57.143
247.98	47.712
248.36	50.000
248.73	54.140
249.10	50.318
249.47	47.458
249.84	47.059
250.22	45.455
250.59	43.195
250.96	47.475
251.33	46.445
251.70	52.970
252.08	36.190
252.45	42.601
252.82	36.522
253.19	42.979
253.56	35.294
253.94	36.515
254.31	37.500
254.68	38.077
255.05	39.483
255.42	36.585
255.79	32.721
256.16	36.101
256.54	30.035
256.91	39.502
257.28	29.856
257.65	34.323
258.02	32.298
258.39	35.016
258.76	33.779
259.14	30.952
259.51	31.915
259.88	32.609
260.25	30.211
260.62	33.526
260.99	33.540
261.36	32.733
261.73	32.378
262.10	29.651
262.47	33.239
262.85	30.362
263.22	27.066
263.59	35.613
263.96	31.044
264.33	30.026
264.70	31.579
265.07	32.225
265.44	31.566
265.81	29.927
266.18	30.653
266.55	29.512
266.92	30.221
267.29	29.861
267.66	31.193
268.03	28.409
268.40	28.037
268.77	27.446
269.14	28.378
269.51	30.926
269.88	31.469
270.25	28.894
270.62	27.865
270.99	30.108
271.36	29.614
271.73	29.439
272.10	27.826
272.47	29.892
272.84	27.706
273.21	29.140
273.58	25.983
273.95	28.931
274.32	27.273
274.69	29.764
275.06	27.165
275.43	27.872
275.80	29.860
276.17	25.866
276.54	28.898
276.91	29.447
277.28	24.219
277.65	26.692
278.02	25.259
278.39	28.516
278.76	28.727
279.13	25.472
279.50	27.374
279.87	25.100
280.23	25.948
280.60	24.952
280.97	24.954
281.34	27.788
281.71	28.182
282.08	26.104
282.45	24.545
282.82	26.821
283.19	26.381
283.56	24.912
283.92	28.934
284.29	26.631
284.66	28.131
285.03	22.785
285.40	25.176
285.77	24.916
286.14	25.734
286.51	26.333
286.87	24.957
287.24	26.547
287.61	24.077
287.98	25.162
288.35	26.307
288.72	24.922
289.08	24.100
289.45	24.712
289.82	25.366
290.19	22.449
290.56	23.277
290.93	22.810
291.29	22.086
291.66	23.599
292.03	24.273
292.40	23.935
292.77	22.485
293.13	23.582
293.50	21.574
293.87	23.111
294.24	20.889
294.60	21.397
294.97	22.674
295.34	24.260
295.71	23.153
296.08	22.792
296.44	22.834
296.81	19.815
297.18	22.222
297.55	19.129
297.91	21.504
298.28	22.758
298.65	22.063
299.02	21.739
299.38	19.256
299.75	20.485
300.12	21.073
300.48	22.000
300.85	20.838
301.22	22.420
301.59	20.202
301.95	21.285
302.32	20.411
302.69	20.908
303.05	21.455
303.42	21.481
303.79	20.725
304.15	20.163
304.52	19.699
304.89	21.370
305.25	20.418
305.62	20.612
305.99	19.835
306.35	20.694
306.72	20.179
307.09	19.756
307.45	21.284
307.82	19.866
308.19	22.185
308.55	22.869
308.92	19.656
309.29	20.486
309.65	20.785
310.02	20.719
310.38	22.473
310.75	21.014
311.12	20.983
311.48	22.466
311.85	20.755
312.22	22.685
312.58	20.894
312.95	21.647
313.31	22.136
313.68	22.245
314.05	22.880
314.41	22.915
314.78	23.061
315.14	21.549
315.51	23.481
315.87	22.871
316.24	22.542
316.61	22.417
316.97	21.722
317.34	21.135
317.70	23.805
318.07	23.580
318.43	22.896
318.80	23.711
319.16	23.917
319.53	23.077
319.89	23.905
320.26	25.700
320.62	24.306
320.99	25.556
321.35	24.646
321.72	24.743
322.08	25.271
322.45	26.468
322.81	25.581
323.18	25.048
323.54	25.603
323.91	25.094
324.27	26.291
324.64	26.654
325.00	25.699
325.37	27.207
325.73	27.738
326.10	26.478
326.46	27.330
326.83	28.732
327.19	27.669
327.56	28.223
327.92	28.259
328.29	28.039
328.65	28.821
329.01	29.152
329.38	29.140
329.74	28.532
330.11	29.312
330.47	28.650
330.84	29.688
331.20	29.326
331.56	30.183
331.93	29.907
332.29	29.902
332.66	29.469
333.02	30.987
333.38	29.991
333.75	30.838
334.11	29.181
334.48	29.636
334.84	29.136
335.20	30.455
335.57	29.012
335.93	28.214
336.29	28.663
336.66	30.117
337.02	29.502
337.38	30.278
337.75	29.679
338.11	29.275
338.47	29.558
338.84	30.339
339.20	28.899
339.56	32.755
339.93	30.000
340.29	29.982
340.65	28.966
341.02	30.366
341.38	30.872
341.74	30.175
342.11	30.568
342.47	31.189
342.83	30.223
343.20	31.082
343.56	29.570
343.92	30.351
344.28	30.782
344.65	31.126
345.01	30.219
345.37	29.588
345.73	29.780
346.10	30.861
346.46	31.102
346.82	29.901
347.19	29.657
347.55	30.049
347.91	30.744
348.27	30.813
348.63	30.435
349.00	30.421
349.36	31.117
349.72	30.152
350.08	29.498
350.45	31.570
350.81	30.219
351.17	29.903
351.53	31.368
351.89	29.950
352.26	31.097
352.62	30.152
352.98	30.956
353.34	32.375
353.70	30.933
354.07	30.484
354.43	29.603
354.79	29.928
355.15	30.327
355.51	31.335
355.87	32.245
356.24	31.678
356.60	31.115
356.96	30.571
357.32	30.989
357.68	31.969
358.04	30.879
358.40	32.225
358.77	30.360
359.13	32.912
359.49	31.608
359.85	30.873
360.21	32.137
360.57	32.607
360.93	32.154
361.29	31.066
361.66	30.805
362.02	32.388
362.38	32.928
362.74	32.292
363.10	31.606
363.46	31.108
363.82	31.368
364.18	31.865
364.54	32.987
364.90	32.365
365.26	32.353
365.62	32.579
365.98	32.286
366.35	32.235
366.71	33.406
367.07	33.358
367.43	33.454
367.79	33.262
368.15	34.124
368.51	32.703
368.87	32.620
369.23	33.431
369.59	33.888
369.95	33.750
370.31	33.903
370.67	32.826
371.03	34.607
371.39	35.058
371.75	34.559
372.11	34.282
372.47	35.337
372.83	35.879
373.19	35.549
373.55	34.959
373.91	34.536
374.27	34.364
374.63	35.127
374.99	35.381
375.35	35.729
375.71	35.846
376.07	36.694
376.42	35.626
376.78	36.581
377.14	36.906
377.50	36.093
377.86	35.239
378.22	35.714
378.58	35.464
378.94	36.329
379.30	37.150
379.66	36.739
380.02	36.978
380.38	36.005
380.74	37.935
381.09	38.447
381.45	38.476
381.81	38.882
382.17	38.408
382.53	37.421
382.89	38.148
383.25	39.400
383.61	39.715
383.97	39.149
384.32	37.991
384.68	38.228
385.04	38.844
385.40	39.752
385.76	38.943
386.12	40.415
386.48	40.403
386.83	40.475
387.19	40.940
387.55	40.074
387.91	38.996
388.27	40.773
388.62	41.303
388.98	40.725
389.34	41.427
389.70	41.570
390.06	42.332
390.42	43.126
390.77	41.794
391.13	42.310
391.49	42.766
391.85	42.139
392.20	41.830
392.56	42.298
392.92	42.378
393.28	43.018
393.64	41.966
393.99	43.128
394.35	43.238
394.71	42.284
395.07	42.991
395.42	43.016
395.78	43.639
396.14	44.134
396.50	44.298
396.85	44.056
397.21	42.848
397.57	43.645
397.92	43.570
398.28	43.105
398.64	43.130
399.00	44.040
399.35	42.696
399.71	43.403
400.07	43.998
400.42	43.497
400.78	44.934
401.14	44.512
401.49	45.433
401.85	45.251
402.21	44.132
402.57	45.219
402.92	45.145
403.28	45.222
403.63	45.545
403.99	46.369
404.35	45.394
404.70	45.624
405.06	45.137
405.42	44.604
405.77	44.914
406.13	44.921
406.49	45.358
406.84	45.245
407.20	44.385
407.55	46.713
407.91	48.133
408.27	47.607
408.62	44.852
408.98	47.059
409.34	46.187
409.69	46.258
410.05	46.468
410.40	46.055
410.76	45.699
411.11	45.959
411.47	46.262
411.83	47.465
412.18	46.135
412.54	46.887
412.89	45.964
413.25	47.166
413.60	46.263
413.96	46.266
414.31	46.051
414.67	47.022
415.03	47.219
415.38	46.907
415.74	47.074
416.09	48.922
416.45	46.988
416.80	48.381
417.16	49.129
417.51	49.038
417.87	47.335
418.22	49.274
418.58	48.806
418.93	48.096
419.29	47.740
419.64	47.733
420.00	47.988
420.35	48.638
420.71	48.117
421.06	48.091
421.42	48.363
421.77	47.814
422.12	47.782
422.48	47.922
422.83	48.165
423.19	46.740
423.54	48.172
423.90	48.348
424.25	48.241
424.61	47.976
424.96	49.446
425.31	48.616
425.67	48.371
426.02	48.457
426.38	49.512
426.73	49.035
427.09	49.605
427.44	49.339
427.79	48.879
428.15	48.929
428.50	50.146
428.85	50.179
429.21	49.531
429.56	49.352
429.92	48.666
430.27	48.262
430.62	48.694
430.98	48.832
431.33	48.557
431.68	49.634
432.04	49.414
432.39	50.257
432.74	49.312
433.10	50.594
433.45	50.845
433.80	50.222
434.16	48.504
434.51	49.105
434.86	49.601
435.22	49.805
435.57	49.970
435.92	50.380
436.28	51.068
436.63	50.828
436.98	49.456
437.34	51.282
437.69	50.233
438.04	49.859
438.39	50.687
438.75	50.552
439.10	51.006
439.45	51.653
439.81	51.178
440.16	49.238
440.51	50.732
440.86	51.245
441.22	51.613
441.57	49.522
441.92	49.284
442.27	49.569
442.63	49.500
442.98	51.944
443.33	50.652
443.68	48.735
444.03	50.659
444.39	48.539
444.74	50.920
445.09	50.620
445.44	50.301
445.79	50.470
446.15	50.132
446.50	50.404
446.85	50.874
447.20	50.382
447.55	51.200
447.91	51.076
448.26	50.584
448.61	51.328
448.96	50.886
449.31	51.012
449.66	50.929
450.02	50.306
450.37	50.907
450.72	52.059
451.07	51.310
451.42	49.970
451.77	50.675
452.12	51.443
452.47	51.741
452.83	51.981
453.18	51.100
453.53	51.515
453.88	51.979
454.23	51.405
454.58	51.423
454.93	53.655
455.28	51.247
455.63	51.699
455.98	53.214
456.34	52.638
456.69	52.912
457.04	51.889
457.39	51.140
457.74	51.306
458.09	51.754
458.44	51.254
458.79	50.108
459.14	52.652
459.49	52.131
459.84	51.745
460.19	51.031
460.54	49.942
460.89	51.728
461.24	51.063
461.59	51.830
461.94	51.171
462.29	53.175
462.64	51.053
462.99	51.594
463.34	52.200
463.69	52.658
464.04	50.957
464.39	52.290
464.74	52.704
465.09	52.654
465.44	50.582
465.79	50.391
466.14	49.808
466.49	51.224
466.84	50.613
467.19	51.720
467.54	52.562
467.89	51.261
468.24	52.065
468.59	52.381
468.94	52.108
469.29	52.185
469.64	53.882
469.99	52.706
470.34	53.303
470.68	54.095
471.03	52.993
471.38	54.274
471.73	53.098
472.08	54.013
472.43	52.198
472.78	54.049
473.13	52.567
473.48	52.372
473.83	52.988
474.17	52.769
474.52	52.916
474.87	52.831
475.22	52.757
475.57	51.155
475.92	52.469
476.27	51.747
476.61	51.793
476.96	52.611
477.31	52.224
477.66	53.063
478.01	51.072
478.36	52.565
478.70	51.921
479.05	51.651
479.40	53.582
479.75	53.177
480.10	52.584
480.45	50.881
480.79	51.792
481.14	52.446
481.49	52.871
481.84	51.440
482.19	52.385
482.53	51.514
482.88	51.466
483.23	52.944
483.58	50.955
483.92	52.905
484.27	50.632
484.62	51.422
484.97	50.887
485.31	52.671
485.66	50.197
486.01	46.813
486.36	44.119
486.70	43.558
487.05	45.196
487.40	46.885
487.75	47.426
488.09	49.105
488.44	49.366
488.79	50.705
489.13	51.451
489.48	51.591
489.83	52.438
490.17	52.433
490.52	50.797
490.87	52.329
491.22	52.979
491.56	51.207
491.91	52.862
492.26	51.631
492.60	52.120
492.95	51.731
493.30	51.776
493.64	52.730
493.99	50.650
494.34	52.451
494.68	52.793
495.03	51.786
495.37	52.396
495.72	53.509
496.07	53.364
496.41	51.726
496.76	51.583
497.11	51.508
497.45	52.678
497.80	52.687
498.14	51.594
498.49	53.268
498.84	53.260
499.18	53.000
499.53	52.802
499.87	51.864
500.22	52.143
500.56	53.932
500.91	53.510
501.26	53.248
501.60	54.200
501.95	52.108
502.29	52.999
502.64	53.352
502.98	52.267
503.33	52.422
503.67	51.833
504.02	52.245
504.36	51.521
504.71	53.102
505.06	54.169
505.40	54.351
505.75	51.688
506.09	52.770
506.44	54.514
506.78	53.726
507.13	52.751
507.47	53.687
507.82	53.495
508.16	54.509
508.51	55.251
508.85	53.178
509.19	54.286
509.54	53.776
509.88	54.044
510.23	54.396
510.57	55.315
510.92	54.013
511.26	54.162
511.61	54.564
511.95	53.288
512.30	54.295
512.64	55.132
512.98	55.466
513.33	55.567
513.67	54.909
514.02	54.545
514.36	56.636
514.70	55.783
515.05	55.382
515.39	55.020
515.74	54.561
516.08	56.009
516.42	56.160
516.77	56.020
517.11	55.549
517.46	56.772
517.80	57.607
518.14	55.472
518.49	57.643
518.83	56.534
519.17	56.409
519.52	55.178
519.86	56.874
520.20	57.110
520.55	57.810
520.89	57.847
521.23	57.720
521.58	58.223
521.92	58.420
522.26	56.376
522.61	59.564
522.95	57.090
523.29	59.343
523.64	57.561
523.98	58.226
524.32	57.841
524.66	58.509
525.01	58.762
525.35	59.108
525.69	58.005
526.04	58.692
526.38	57.718
526.72	56.687
527.06	59.322
527.41	57.302
527.75	60.129
528.09	59.345
528.43	58.955
528.78	57.652
529.12	58.121
529.46	57.869
529.80	58.663
530.15	58.318
530.49	56.923
530.83	58.481
531.17	59.138
531.51	61.219
531.86	59.290
532.20	58.866
532.54	59.129
532.88	59.114
533.22	57.964
533.57	58.025
533.91	57.435
534.25	57.837
534.59	58.023
534.93	55.800
535.27	56.850
535.62	57.509
535.96	58.255
536.30	58.805
536.64	57.952
536.98	59.124
537.32	58.130
537.66	58.400
538.01	58.920
538.35	58.306
538.69	59.285
539.03	58.350
539.37	56.741
539.71	57.680
540.05	57.908
540.39	58.605
540.73	58.150
541.07	59.701
541.42	58.513
541.76	58.710
542.10	59.638
542.44	57.815
542.78	58.630
543.12	57.390
543.46	58.098
543.80	58.230
544.14	58.023
544.48	58.794
544.82	56.703
545.16	59.662
545.50	57.005
545.84	57.258
546.18	58.653
546.52	59.188
546.86	58.969
547.20	57.856
547.54	58.717
547.88	58.865
548.22	57.285
548.56	56.164
548.90	57.554
549.24	57.845
549.58	58.731
549.92	59.821
550.26	59.588
550.60	58.506
550.94	57.958
551.28	60.644
551.62	59.382
551.96	59.018
552.30	58.771
552.64	58.418
552.98	59.186
553.32	57.721
553.66	58.350
554.00	58.545
554.34	58.868
554.68	61.159
555.02	58.674
555.36	59.569
555.69	57.713
556.03	59.287
556.37	58.458
556.71	57.776
557.05	58.263
557.39	58.013
557.73	58.080
558.07	59.681
558.41	60.781
558.75	59.001
559.08	60.030
559.42	60.015
559.76	60.294
560.10	59.886
560.44	58.980
560.78	57.818
561.12	56.201
561.45	58.018
561.79	58.009
562.13	58.417
562.47	59.699
562.81	58.787
563.15	57.659
563.48	58.156
563.82	59.361
564.16	58.797
564.50	58.659
564.84	57.206
565.17	57.851
565.51	58.147
565.85	56.536
566.19	56.794
566.52	58.961
566.86	56.359
567.20	57.311
567.54	56.050
567.88	55.350
568.21	54.921
568.55	54.499
568.89	55.350
569.23	53.387
569.56	51.417
569.90	50.151
570.24	50.269
570.57	49.847
570.91	48.836
571.25	47.746
571.59	48.277
571.92	47.840
572.26	48.440
572.60	48.408
572.93	47.706
573.27	49.364
573.61	47.878
573.95	47.804
574.28	47.462
574.62	47.012
574.96	46.714
575.29	46.169
575.63	46.621
575.97	47.045
576.30	47.345
576.64	47.410
576.98	47.132
577.31	46.534
577.65	46.602
577.98	45.517
578.32	45.056
578.66	45.597
578.99	46.177
579.33	46.889
579.67	46.485
580.00	46.799
580.34	46.796
580.67	46.207
581.01	46.841
581.35	45.960
581.68	45.564
582.02	44.849
582.35	44.919
582.69	45.177
583.02	45.846
583.36	46.830
583.70	47.203
584.03	47.492
584.37	48.195
584.70	48.067
585.04	47.065
585.37	46.528
585.71	46.546
586.04	46.340
586.38	47.858
586.72	47.694
587.05	47.243
587.39	46.860
587.72	46.431
588.06	47.252
588.39	46.831
588.73	47.551
589.06	48.146
589.40	49.562
589.73	49.666
590.07	49.466
590.40	48.666
590.73	51.093
591.07	51.363
591.40	51.202
591.74	51.948
592.07	51.483
592.41	50.186
592.74	49.363
593.08	48.035
593.41	48.497
593.75	47.252
594.08	48.039
594.41	48.887
594.75	49.168
595.08	48.926
595.42	48.932
595.75	49.145
596.09	50.169
596.42	49.941
596.75	49.894
597.09	51.299
597.42	49.199
597.75	51.143
598.09	50.696
598.42	50.816
598.76	49.696
599.09	48.879
599.42	48.362
599.76	48.609
600.09	48.670
600.42	48.904
600.76	47.679
601.09	48.707
601.42	48.706
601.76	47.856
602.09	49.130
602.42	49.403
602.76	50.262
603.09	49.095
603.42	49.317
603.76	49.276
604.09	49.670
604.42	49.939
604.76	51.202
605.09	51.201
605.42	50.449
605.75	50.952
606.09	49.410
606.42	50.266
606.75	49.606
607.09	50.440
607.42	49.979
607.75	48.861
608.08	50.195
608.42	50.157
608.75	49.684
609.08	50.740
609.41	51.119
609.75	50.262
610.08	51.885
610.41	50.512
610.74	50.189
611.07	52.372
611.41	51.816
611.74	52.489
612.07	52.122
612.40	52.991
612.73	52.263
613.07	53.233
613.40	52.501
613.73	51.966
614.06	52.097
614.39	52.124
614.72	51.105
615.06	51.838
615.39	51.168
615.72	51.738
616.05	51.675
616.38	51.862
616.71	54.632
617.05	54.358
617.38	54.179
617.71	54.474
618.04	54.387
618.37	53.046
618.70	54.325
619.03	54.868
619.36	55.126
619.69	56.620
620.03	56.181
620.36	55.281
620.69	56.575
621.02	57.743
621.35	57.713
621.68	57.165
622.01	57.972
622.34	58.245
622.67	57.490
623.00	56.860
623.33	55.611
623.66	56.612
623.99	55.376
624.32	55.278
624.65	55.226
624.99	55.099
625.32	55.829
625.65	58.227
625.98	58.724
626.31	57.621
626.64	59.673
626.97	59.019
627.30	59.601
627.63	59.475
627.96	60.555
628.29	60.630
628.62	62.672
628.95	62.453
629.28	61.314
629.61	61.687
629.94	63.905
630.26	63.775
630.59	61.296
630.92	61.207
631.25	61.007
631.58	61.562
631.91	62.982
632.24	62.658
632.57	62.329
632.90	64.254
633.23	66.331
633.56	66.102
633.89	65.459
634.22	64.245
634.55	66.272
634.88	66.587
635.20	67.145
635.53	66.506
635.86	66.832
636.19	64.824
636.52	64.245
636.85	64.490
637.18	62.327
637.51	66.312
637.83	64.242
638.16	68.414
638.49	66.247
638.82	68.142
639.15	66.250
639.48	65.835
639.81	68.767
640.13	67.057
640.46	65.638
640.79	65.786
641.12	66.850
641.45	65.922
641.77	69.367
642.10	69.006
642.43	68.769
642.76	71.672
643.09	72.239
643.41	69.347
643.74	72.222
644.07	69.665
644.40	70.706
644.73	70.551
645.05	72.425
645.38	69.510
645.71	70.531
646.04	71.595
646.36	73.790
646.69	73.913
647.02	70.068
647.35	74.914
647.67	76.814
648.00	70.569
648.33	70.462
648.66	66.515
648.98	68.066
649.31	65.919
649.64	68.610
649.96	68.107
650.29	69.668
650.62	69.094
650.94	69.530
651.27	72.466
651.60	71.381
651.92	67.732
652.25	68.730
652.58	68.380
652.90	68.878
653.23	67.488
653.56	68.031
653.88	67.670
654.21	67.457
654.54	70.462
654.86	67.601
655.19	61.892
655.52	44.053
655.84	37.614
656.17	46.888
656.49	62.376
656.82	62.485
657.15	47.218
657.47	35.319
657.80	27.678
658.13	29.220
658.45	43.750
658.78	44.762
659.10	46.697
659.43	49.932
659.75	52.479
660.08	57.722
660.41	64.525
660.73	68.488
661.06	70.223
661.38	74.727
661.71	73.654
662.03	73.964
662.36	70.775
662.68	72.691
663.01	73.939
663.33	74.735
663.66	74.580
663.98	74.514
664.31	76.681
664.63	72.672
664.96	72.636
665.28	73.156
665.61	71.735
665.93	70.825
666.26	72.211
666.58	74.686
666.91	74.841
667.23	77.753
667.56	69.978
667.88	74.359
668.21	71.429
668.53	75.705
668.86	74.675
669.18	75.906
669.50	74.348
669.83	74.946
670.15	75.111
670.48	71.678
670.80	74.569
671.13	71.975
671.45	71.489
671.77	74.949
672.10	68.946
672.42	66.608
672.75	63.682
673.07	66.549
673.39	66.004
673.72	68.555
674.04	72.745
674.37	67.961
674.69	71.779
675.01	71.130
675.34	71.458
675.66	75.579
675.98	71.283
676.31	72.479
676.63	71.550
676.95	68.344
677.28	74.766
677.60	73.626
677.92	75.105
678.25	72.074
678.57	69.522
678.89	70.341
679.22	67.976
679.54	68.321
679.86	68.073
680.18	66.369
680.51	65.248
680.83	63.879
681.15	69.245
681.48	68.242
681.80	64.990
682.12	66.092
682.44	65.571
682.77	68.024
683.09	72.961
683.41	73.392
683.73	72.185
684.06	72.314
684.38	67.710
684.70	67.054
685.02	65.854
685.34	63.736
685.67	61.014
685.99	60.997
686.31	61.775
686.63	59.717
686.96	63.929
687.28	64.079
687.60	63.225
687.92	65.082
688.24	64.639
688.56	67.269
688.89	70.747
689.21	69.869
689.53	67.641
689.85	68.071
690.17	65.217
690.49	69.214
690.82	70.093
691.14	69.420
691.46	64.135
691.78	66.466
692.10	68.388
692.42	65.269
692.74	67.012
693.06	67.021
693.39	65.708
693.71	66.376
694.03	66.316
694.35	66.883
694.67	65.217
694.99	71.707
695.31	69.118
695.63	67.225
695.95	71.394
696.27	69.289
696.59	69.171
696.91	67.358
697.23	61.972
697.56	62.900
697.88	62.372
698.20	63.542
698.52	64.516
698.84	65.702
699.16	67.742
699.48	69.359
699.80	67.150
700.12	75.065
700.44	71.088
700.76	74.586
701.08	76.437
701.40	67.877
701.72	72.886
702.04	76.136
702.36	68.555
702.68	68.555
703.00	70.637
703.32	68.883
703.64	66.756
703.96	76.045
704.28	70.930
704.60	73.021
704.91	75.074
705.23	69.795
705.55	80.731
705.87	83.721
706.19	79.505
706.51	71.651
706.83	73.333
707.15	68.627
707.47	65.404
707.79	69.287
708.11	65.753
708.43	65.238
708.74	62.500
709.06	65.974
709.38	67.717
709.70	73.256
710.02	73.887
710.34	67.879
710.66	70.448
710.98	70.739
711.29	71.221
711.61	69.027
711.93	73.397
712.25	74.598
712.57	77.941
712.89	75.087
713.20	66.869
713.52	72.697
713.84	68.987
714.16	65.549
714.48	67.241
714.80	72.948
715.11	63.977
715.43	68.249
715.75	68.406
716.07	69.329
716.39	71.787
716.70	72.757
717.02	75.180
717.34	71.025
717.66	76.493
717.97	79.283
718.29	71.481
718.61	74.088
718.93	79.044
719.24	75.087
719.56	66.102
719.88	70.169
720.20	76.351
720.51	73.171
720.83	78.810
721.15	72.388
721.46	66.667
721.78	68.459
722.10	75.094
722.42	73.684
722.73	75.281
723.05	75.820
723.37	80.162
723.68	71.429
724.00	75.203
724.32	72.581
724.63	76.016
724.95	74.477
725.27	78.543
725.58	78.125
725.90	72.993
726.22	73.585
726.53	71.181
726.85	68.942
727.16	70.107
727.48	65.957
727.80	70.455
728.11	72.464
728.43	75.385
728.74	68.100
729.06	71.168
729.38	72.059
729.69	71.886
730.01	65.188
730.32	69.792
730.64	65.886
730.96	60.726
731.27	68.543
731.59	64.832
731.90	60.933
732.22	64.596
732.53	62.229
732.85	67.308
733.16	66.238
733.48	61.794
733.80	62.662
734.11	64.013
734.43	65.089
734.74	62.000
735.06	59.599
735.37	65.318
735.69	64.331
736.00	65.686
736.32	63.863
736.63	64.537
736.95	65.495
737.26	61.224
737.58	58.710
737.89	62.207
738.21	70.648
738.52	64.643
738.83	65.660
739.15	65.385
739.46	68.248
739.78	64.931
740.09	59.692
740.41	64.839
740.72	67.596
741.04	70.000
741.35	70.417
741.66	76.444
741.98	74.057
742.29	80.383
742.61	75.862
742.92	76.923
743.23	67.094
743.55	72.000
743.86	70.175
744.18	78.319
744.49	80.861
744.80	79.812
745.12	82.727
745.43	70.925
745.74	80.631
746.06	77.982
746.37	75.785
746.68	75.566
747.00	77.778
747.31	79.048
747.62	70.796
747.94	75.330
748.25	72.340
748.56	74.890
748.88	75.248
749.19	81.500
749.50	75.814
749.82	65.447
750.13	66.122
750.44	66.423
750.75	67.719
751.07	60.129
751.38	66.202
751.69	64.982
752.01	63.910
752.32	59.567
752.63	68.085
752.94	69.262
753.26	70.800
753.57	60.976
753.88	69.531
754.19	63.571
754.51	67.708
754.82	63.899
755.13	64.528
755.44	59.398
755.75	64.234
756.07	62.411
756.38	61.679
756.69	56.376
757.00	54.491
757.31	57.270
757.63	61.696
757.94	53.351
758.25	51.961
758.56	50.123
758.87	52.688
759.18	62.727
759.50	57.367
759.81	59.502
760.12	54.375
760.43	55.874
760.74	57.337
761.05	54.520
761.36	55.348
761.67	55.114
761.99	56.211
762.30	61.458
762.61	64.504
762.92	61.328
763.23	63.445
763.54	72.000
763.85	63.281
764.16	67.308
764.47	68.441
764.78	58.657
765.10	53.165
765.41	59.587
765.72	60.479
766.03	57.994
766.34	59.667
766.65	69.787
766.96	65.812
767.27	75.127
767.58	75.521
767.89	77.368
768.20	81.034
768.51	65.482
768.82	66.514
769.13	59.756
769.44	60.324
769.75	63.519
770.06	63.761
770.37	69.683
770.68	68.519
770.99	62.667
771.30	60.656
771.61	64.126
771.92	60.246
772.23	65.126
772.54	67.179
772.85	71.728
773.16	72.872
773.47	74.457
773.78	70.051
774.09	73.810
774.39	82.456
774.70	74.074
775.01	79.710
775.32	92.157
775.63	81.579
775.94	79.856
776.25	94.488
776.56	86.567
776.87	79.508
777.18	88.281
777.48	80.916
777.79	86.364
778.10	77.037
778.41	93.750
778.72	72.993
779.03	79.866
779.34	77.181
779.65	83.108
779.95	66.871
780.26	76.471
780.57	86.207
780.88	81.250
781.19	75.940
781.50	80.405
781.80	71.698
782.11	73.446
782.42	72.152
782.73	69.939
783.04	75.000
783.34	85.915
783.65	86.301
783.96	85.075
784.27	69.231
784.57	74.101
784.88	93.519
785.19	83.333
785.50	94.340
785.81	85.075
786.11	83.607
786.42	82.946
786.73	84.956
787.04	87.736
787.34	83.929
787.65	87.000
787.96	81.081
788.26	79.339
788.57	94.915
788.88	95.041
789.19	75.694
789.49	89.394
789.80	70.992
790.11	100.952
790.41	97.030
790.72	110.843
791.03	95.652
791.33	103.488
791.64	97.938
791.95	96.040
792.25	110.000
792.56	102.597
792.87	121.795
793.17	113.924
793.48	106.897
793.79	104.598
794.09	100.000
794.40	85.714
794.70	77.941
795.01	66.667
795.32	72.662
795.62	74.803
795.93	80.172
796.23	78.761
796.54	89.412
796.85	110.811
797.15	136.620
797.46	119.697
797.76	124.096
798.07	106.329
798.37	118.462
798.68	121.212
798.99	107.042
799.29	98.701
799.60	98.864
799.90	126.027
800.21	116.418
800.51	108.621
800.82	128.070
801.12	121.311
801.43	116.667
801.73	94.595
802.04	119.048
802.34	116.049
802.65	114.062
802.95	147.458
803.26	118.750
803.56	90.000
803.87	107.692
804.17	117.647
804.48	129.630
804.78	120.690
805.09	108.824
805.39	136.538
805.70	126.786
806.00	137.705
806.30	127.273
806.61	106.098
806.91	97.468
807.22	86.842
807.52	105.970
807.83	94.366
808.13	110.938
808.43	121.667
808.74	92.105
809.04	113.043
809.35	105.970
809.65	98.684
809.95	140.323
810.26	115.254
810.56	115.873
810.86	161.364
811.17	173.810
811.47	120.000
811.77	142.593
812.08	116.364
812.38	148.000
812.69	200.000
812.99	186.364
813.29	134.694
813.59	161.905
813.90	132.653
814.20	107.273
814.50	113.846
814.81	122.059
815.11	151.020
815.41	106.557
815.72	173.810
816.02	136.364
816.32	135.714
816.62	160.000
816.93	165.854
817.23	142.857
817.53	150.000
817.84	196.970
818.14	126.087
818.44	153.333
818.74	185.294
819.04	140.000
819.35	174.286
819.65	191.176
819.95	221.429
820.25	310.000
820.56	176.923
820.86	152.273
821.16	169.767
821.46	156.410
821.76	130.000
822.07	180.000
822.37	177.500
822.67	175.758
822.97	141.176
823.27	250.000
823.57	200.000
823.88	202.500
824.18	210.000
824.48	180.952
824.78	220.000
825.08	225.000
825.38	175.676
825.69	143.902
825.99	208.333
826.29	203.448
826.59	150.000
826.89	184.211
827.19	214.706
827.49	219.355
827.79	156.818
828.09	156.818
828.39	155.319
828.70	132.653
829.00	214.815
829.30	174.194
829.60	150.000
829.90	360.000
830.20	178.571
830.50	226.087
830.80	282.609
831.10	186.667
831.40	170.000
831.70	243.478
832.00	215.385
832.30	166.667
832.60	368.750
832.90	210.000
833.20	471.429
833.50	216.129
833.80	217.241
834.10	215.625
834.40	253.846
834.70	250.000
835.00	342.857
835.30	194.286
835.60	346.154
835.90	200.000
836.20	364.286
836.50	206.897
836.80	216.000
837.10	197.222
837.40	266.667
837.70	341.176
838.00	225.926
838.30	295.238
838.60	319.048
838.90	234.615
839.19	250.000
839.49	457.143
839.79	335.000
840.09	295.000
840.39	280.952
840.69	247.826
840.99	322.222
841.29	480.000
841.59	283.333
841.88	343.750
842.18	193.103
842.48	261.905
842.78	220.000
843.08	217.391
843.38	193.750
843.68	866.667
843.97	269.231
844.27	175.862
844.57	328.571
844.87	356.250
845.17	196.296
845.47	1500.000
845.76	477.778
846.06	370.588
846.36	525.000
846.66	407.143
846.96	293.750
847.25	490.909
847.55	454.545
847.85	278.261
848.15	480.000
848.44	407.143
848.74	261.111
849.04	311.765
849.34	520.000
849.63	310.526
849.93	463.636
850.23	1040.000
850.53	428.571
850.82	1900.000
851.12	-4800.000
851.42	4100.000
851.71	330.000
852.01	-1433.333
852.31	245.833
852.61	2033.333
852.90	300.000
853.20	216.000
853.50	311.765
853.79	238.095
854.09	191.667
854.39	362.500
854.68	186.486
854.98	193.548
855.28	183.333
855.57	234.483
855.87	244.444
856.17	247.368
856.46	280.000
856.76	264.706
857.05	217.241
857.35	225.000
857.65	333.333
857.94	200.000
858.24	211.538
858.53	290.000
858.83	259.091
859.13	360.000
859.42	0.000
859.72	555.556
860.01	445.455
860.31	227.273
860.60	278.947
860.90	234.783
861.20	566.667
861.49	566.667
861.79	-4300.000
862.08	687.500
862.38	266.667
862.67	315.385
862.97	323.529
863.26	622.222
863.56	250.000
863.85	391.667
864.15	487.500
864.44	406.667
864.74	1050.000
865.03	675.000
865.33	305.263
865.62	390.909
865.92	446.154
866.21	383.333
866.51	0.000
866.80	518.182
867.10	1020.000
867.39	292.308
867.69	463.636
867.98	305.263
868.27	445.455
868.57	336.842
868.86	-4600.000
869.16	350.000
869.45	1650.000
869.75	-3400.000
870.04	441.667
870.33	657.143
870.63	1375.000
870.92	2450.000
871.22	628.571
871.51	364.706
871.80	242.857
872.10	271.429
>>>>>End Processed Spectral Data<<<<<
