SpectraSuite Data File
++++++++++++++++++++++++++++++++++++
Date: Wed May 13 16:44:53 PDT 2015
User: schluterlab
Dark Spectrum Present: Yes
Reference Spectrum Present: Yes
Number of Sampled Component Spectra: 1
Spectrometers: USB2E3373
Integration Time (usec): 3000 (USB2E3373)
Spectra Averaged: 3 (USB2E3373)
Boxcar Smoothing: 0 (USB2E3373)
Correct for Electrical Dark: No (USB2E3373)
Strobe/Lamp Enabled: No (USB2E3373)
Correct for Detector Non-linearity: No (USB2E3373)
Correct for Stray Light: No (USB2E3373)
Number of Pixels in Processed Spectrum: 2048
>>>>>Begin Processed Spectral Data<<<<<
178.53	0.000
178.91	-1200.000
179.29	-1500.000
179.67	-222.222
180.04	-1525.000
180.42	2350.000
180.80	1080.000
181.18	-1000.000
181.56	685.714
181.94	0.000
182.31	-571.429
182.69	1633.333
183.07	-587.500
183.45	-533.333
183.83	545.455
184.20	-350.000
184.58	2450.000
184.96	5000.000
185.34	-720.000
185.72	-625.000
186.09	-2200.000
186.47	2850.000
186.85	2400.000
187.23	4700.000
187.61	-1800.000
187.98	1325.000
188.36	536.364
188.74	518.182
189.12	-840.000
189.49	580.000
189.87	-3600.000
190.25	-1175.000
190.63	421.429
191.00	438.462
191.38	900.000
191.76	-1150.000
192.14	1375.000
192.51	700.000
192.89	883.333
193.27	537.500
193.65	-1375.000
194.02	460.000
194.40	1000.000
194.78	600.000
195.15	516.667
195.53	620.000
195.91	-1950.000
196.29	343.750
196.66	305.263
197.04	-430.000
197.42	0.000
197.79	540.000
198.17	-5400.000
198.55	785.714
198.92	850.000
199.30	920.000
199.68	0.000
200.05	383.333
200.43	685.714
200.81	4800.000
201.18	1700.000
201.56	-1600.000
201.94	555.556
202.31	555.556
202.69	425.000
203.07	520.000
203.44	0.000
203.82	1325.000
204.19	757.143
204.57	421.429
204.95	650.000
205.32	1866.667
205.70	509.091
206.08	364.286
206.45	2500.000
206.83	368.750
207.20	833.333
207.58	720.000
207.96	272.222
208.33	637.500
208.71	-833.333
209.08	842.857
209.46	644.444
209.84	563.636
210.21	-1566.667
210.59	1350.000
210.96	-350.000
211.34	2500.000
211.71	570.000
212.09	750.000
212.46	0.000
212.84	1566.667
213.22	1500.000
213.59	-3800.000
213.97	1000.000
214.34	714.286
214.72	572.727
215.09	940.000
215.47	-2550.000
215.84	-2550.000
216.22	1566.667
216.59	321.429
216.97	1350.000
217.34	481.818
217.72	-700.000
218.09	0.000
218.47	-5400.000
218.84	700.000
219.22	742.857
219.59	1933.333
219.97	-657.143
220.34	940.000
220.72	-1733.333
221.09	421.429
221.47	1425.000
221.84	-666.667
222.22	0.000
222.59	1350.000
222.97	-2550.000
223.34	1240.000
223.72	469.231
224.09	1020.000
224.46	2150.000
224.84	-5000.000
225.21	-1000.000
225.59	-5000.000
225.96	600.000
226.34	310.000
226.71	2500.000
227.08	725.000
227.46	510.000
227.83	-1075.000
228.21	-1600.000
228.58	600.000
228.95	-2700.000
229.33	-2100.000
229.70	1566.667
230.08	685.714
230.45	-640.000
230.82	341.667
231.20	716.667
231.57	671.429
231.95	508.333
232.32	259.091
232.69	354.545
233.07	742.857
233.44	353.846
233.81	-1333.333
234.19	242.105
234.56	400.000
234.93	383.333
235.31	409.091
235.68	276.923
236.05	300.000
236.43	169.697
236.80	305.263
237.17	3500.000
237.55	233.333
237.92	150.000
238.29	209.524
238.67	164.516
239.04	193.103
239.41	133.333
239.79	106.522
240.16	130.952
240.53	113.636
240.91	98.039
241.28	102.000
241.65	92.000
242.02	86.957
242.40	75.806
242.77	98.333
243.14	63.441
243.51	66.292
243.89	64.706
244.26	48.889
244.63	51.613
245.00	47.872
245.38	48.515
245.75	42.991
246.12	34.862
246.49	47.445
246.87	58.400
247.24	44.615
247.61	32.143
247.98	41.176
248.36	36.486
248.73	35.032
249.10	39.490
249.47	34.463
249.84	36.898
250.22	29.947
250.59	33.136
250.96	25.758
251.33	36.019
251.70	30.693
252.08	27.619
252.45	27.803
252.82	25.217
253.19	29.787
253.56	27.059
253.94	30.705
254.31	25.781
254.68	26.923
255.05	24.354
255.42	22.358
255.79	23.897
256.16	31.047
256.54	21.555
256.91	22.776
257.28	17.986
257.65	22.772
258.02	21.118
258.39	22.713
258.76	22.742
259.14	21.726
259.51	23.404
259.88	18.944
260.25	22.356
260.62	19.653
260.99	22.671
261.36	20.721
261.73	20.057
262.10	19.767
262.47	21.127
262.85	19.220
263.22	20.798
263.59	21.083
263.96	19.231
264.33	19.582
264.70	22.368
265.07	21.739
265.44	17.677
265.81	16.545
266.18	19.598
266.55	16.341
266.92	17.690
267.29	18.519
267.66	17.431
268.03	17.955
268.40	17.056
268.77	16.468
269.14	17.117
269.51	19.187
269.88	17.483
270.25	16.930
270.62	17.753
270.99	18.280
271.36	17.811
271.73	15.654
272.10	17.609
272.47	19.140
272.84	16.017
273.21	17.820
273.58	15.066
273.95	13.627
274.32	17.149
274.69	17.345
275.06	17.126
275.43	17.660
275.80	15.832
276.17	15.682
276.54	17.048
276.91	17.391
277.28	14.062
277.65	16.054
278.02	14.700
278.39	16.602
278.76	15.455
279.13	15.094
279.50	16.946
279.87	16.733
280.23	13.972
280.60	16.054
280.97	15.342
281.34	16.460
281.71	16.182
282.08	15.355
282.45	14.364
282.82	14.742
283.19	12.478
283.56	14.561
283.92	14.044
284.29	12.522
284.66	14.156
285.03	13.743
285.40	13.028
285.77	13.131
286.14	13.472
286.51	14.167
286.87	15.385
287.24	15.635
287.61	13.965
287.98	13.474
288.35	15.214
288.72	13.863
289.08	14.554
289.45	14.662
289.82	14.146
290.19	11.774
290.56	11.792
290.93	11.329
291.29	13.037
291.66	11.652
292.03	15.407
292.40	14.978
292.77	11.982
293.13	14.627
293.50	12.974
293.87	11.556
294.24	10.963
294.60	10.626
294.97	12.500
295.34	13.117
295.71	12.784
296.08	11.538
296.44	11.417
296.81	11.757
297.18	12.466
297.55	10.422
297.91	10.158
298.28	13.119
298.65	12.794
299.02	11.858
299.38	10.624
299.75	10.782
300.12	10.983
300.48	10.875
300.85	10.604
301.22	10.573
301.59	11.237
301.95	11.335
302.32	10.911
302.69	10.633
303.05	11.515
303.42	10.617
303.79	12.684
304.15	9.091
304.52	11.240
304.89	10.453
305.25	10.325
305.62	11.665
305.99	12.043
306.35	11.074
306.72	10.426
307.09	10.433
307.45	11.824
307.82	10.826
308.19	10.927
308.55	11.111
308.92	10.956
309.29	11.404
309.65	11.029
310.02	11.522
310.38	10.323
310.75	11.827
311.12	12.078
311.48	11.494
311.85	11.950
312.22	10.614
312.58	11.123
312.95	11.510
313.31	10.971
313.68	12.162
314.05	13.807
314.41	12.563
314.78	11.480
315.14	11.122
315.51	12.358
315.87	13.069
316.24	12.512
316.61	12.476
316.97	11.937
317.34	10.568
317.70	13.193
318.07	13.090
318.43	13.112
318.80	13.215
319.16	14.030
319.53	12.852
319.89	14.095
320.26	15.800
320.62	14.980
320.99	15.253
321.35	14.242
321.72	16.016
322.08	16.979
322.45	16.418
322.81	16.085
323.18	16.378
323.54	17.347
323.91	15.943
324.27	17.017
324.64	16.869
325.00	17.133
325.37	18.744
325.73	18.223
326.10	18.447
326.46	18.100
326.83	19.154
327.19	18.617
327.56	18.554
327.92	19.073
328.29	21.029
328.65	19.521
329.01	20.217
329.38	21.647
329.74	21.699
330.11	21.678
330.47	21.671
330.84	23.713
331.20	20.765
331.56	22.018
331.93	22.222
332.29	23.070
332.66	22.301
333.02	23.035
333.38	23.848
333.75	23.708
334.11	24.199
334.48	22.272
334.84	23.437
335.20	23.182
335.57	22.031
335.93	23.125
336.29	24.084
336.66	23.354
337.02	23.710
337.38	23.611
337.75	22.816
338.11	23.098
338.47	23.112
338.84	24.840
339.20	22.569
339.56	24.179
339.93	23.000
340.29	23.370
340.65	22.816
341.02	23.909
341.38	23.665
341.74	23.070
342.11	23.406
342.47	22.115
342.83	23.716
343.20	23.983
343.56	22.241
343.92	22.456
344.28	22.449
344.65	23.990
345.01	22.306
345.37	22.384
345.73	23.689
346.10	23.615
346.46	21.949
346.82	22.982
347.19	22.891
347.55	22.332
347.91	23.058
348.27	23.254
348.63	22.659
349.00	22.977
349.36	22.660
349.72	21.572
350.08	21.718
350.45	22.783
350.81	21.933
351.17	23.420
351.53	22.932
351.89	22.195
352.26	23.599
352.62	22.855
352.98	23.177
353.34	23.336
353.70	21.768
354.07	23.710
354.43	22.222
354.79	22.928
355.15	22.825
355.51	25.020
355.87	22.694
356.24	23.046
356.60	21.171
356.96	22.928
357.32	22.322
357.68	23.386
358.04	23.515
358.40	23.120
358.77	22.926
359.13	22.099
359.49	22.824
359.85	21.905
360.21	22.488
360.57	23.268
360.93	24.000
361.29	21.391
361.66	21.594
362.02	22.687
362.38	23.726
362.74	22.917
363.10	22.058
363.46	22.671
363.82	21.920
364.18	22.981
364.54	23.923
364.90	22.663
365.26	21.912
365.62	23.009
365.98	22.060
366.35	21.777
366.71	22.560
367.07	22.724
367.43	22.496
367.79	23.126
368.15	23.348
368.51	22.892
368.87	23.697
369.23	22.751
369.59	23.751
369.95	23.235
370.31	22.792
370.67	23.406
371.03	24.120
371.39	22.813
371.75	23.456
372.11	22.760
372.47	23.754
372.83	24.135
373.19	22.616
373.55	23.503
373.91	24.890
374.27	23.780
374.63	23.200
374.99	23.799
375.35	22.959
375.71	22.892
376.07	24.623
376.42	24.553
376.78	23.923
377.14	23.541
377.50	23.510
377.86	23.205
378.22	23.578
378.58	23.559
378.94	23.947
379.30	23.282
379.66	24.683
380.02	24.509
380.38	23.983
380.74	24.310
381.09	25.000
381.45	24.831
381.81	24.079
382.17	23.885
382.53	24.151
382.89	24.938
383.25	24.703
383.61	25.155
383.97	24.515
384.32	24.766
384.68	24.040
385.04	24.032
385.40	24.830
385.76	23.956
386.12	24.352
386.48	24.481
386.83	25.465
387.19	26.098
387.55	24.861
387.91	25.272
388.27	25.077
388.62	25.323
388.98	24.140
389.34	24.781
389.70	25.261
390.06	25.032
390.42	24.449
390.77	24.873
391.13	25.271
391.49	24.746
391.85	25.525
392.20	23.912
392.56	24.432
392.92	24.544
393.28	24.260
393.64	25.120
393.99	24.985
394.35	24.876
394.71	24.529
395.07	24.361
395.42	24.722
395.78	24.173
396.14	24.953
396.50	24.812
396.85	25.556
397.21	24.168
397.57	25.232
397.92	24.700
398.28	23.430
398.64	24.313
399.00	25.126
399.35	25.155
399.71	24.190
400.07	23.891
400.42	24.724
400.78	25.271
401.14	24.451
401.49	25.612
401.85	24.501
402.21	23.892
402.57	23.566
402.92	24.527
403.28	24.547
403.63	24.196
403.99	24.140
404.35	24.727
404.70	24.041
405.06	23.413
405.42	24.142
405.77	23.543
406.13	23.533
406.49	23.714
406.84	24.690
407.20	23.582
407.55	24.505
407.91	24.000
408.27	23.867
408.62	23.600
408.98	23.713
409.34	23.186
409.69	24.839
410.05	23.792
410.40	23.303
410.76	23.775
411.11	24.246
411.47	23.834
411.83	24.374
412.18	23.500
412.54	24.408
412.89	24.337
413.25	23.554
413.60	23.471
413.96	23.740
414.31	23.937
414.67	24.018
415.03	23.709
415.38	24.420
415.74	23.023
416.09	23.057
416.45	23.427
416.80	24.190
417.16	24.330
417.51	23.955
417.87	24.085
418.22	23.533
418.58	24.145
418.93	23.710
419.29	24.825
419.64	23.741
420.00	24.390
420.35	23.594
420.71	24.925
421.06	23.031
421.42	24.678
421.77	23.318
422.12	22.684
422.48	23.152
422.83	24.578
423.19	23.315
423.54	23.041
423.90	23.652
424.25	23.283
424.61	23.988
424.96	23.149
425.31	22.924
425.67	22.921
426.02	23.486
426.38	24.542
426.73	23.523
427.09	24.073
427.44	23.864
427.79	24.152
428.15	23.631
428.50	23.640
428.85	24.195
429.21	23.854
429.56	23.536
429.92	23.050
430.27	22.642
430.62	22.376
430.98	22.782
431.33	22.577
431.68	24.136
432.04	23.855
432.39	24.557
432.74	24.117
433.10	24.618
433.45	24.431
433.80	23.780
434.16	24.412
434.51	23.421
434.86	24.686
435.22	24.680
435.57	25.106
435.92	23.932
436.28	24.614
436.63	24.338
436.98	24.156
437.34	25.104
437.69	24.387
438.04	24.058
438.39	24.179
438.75	25.160
439.10	24.972
439.45	24.144
439.81	24.290
440.16	24.337
440.51	25.542
440.86	25.304
441.22	25.306
441.57	25.053
441.92	25.691
442.27	25.188
442.63	24.961
442.98	26.592
443.33	25.435
443.68	25.194
444.03	25.671
444.39	24.732
444.74	25.703
445.09	26.199
445.44	25.369
445.79	25.334
446.15	26.469
446.50	25.794
446.85	26.002
447.20	25.548
447.55	26.298
447.91	26.089
448.26	27.156
448.61	26.908
448.96	26.966
449.31	26.828
449.66	25.774
450.02	26.240
450.37	26.361
450.72	27.580
451.07	26.935
451.42	25.897
451.77	27.187
452.12	27.194
452.47	28.234
452.83	26.340
453.18	27.323
453.53	28.077
453.88	26.639
454.23	26.599
454.58	27.498
454.93	28.862
455.28	27.805
455.63	27.549
455.98	28.512
456.34	28.078
456.69	27.176
457.04	27.492
457.39	27.937
457.74	26.872
458.09	28.062
458.44	26.511
458.79	26.247
459.14	28.047
459.49	27.671
459.84	28.144
460.19	27.637
460.54	27.025
460.89	27.208
461.24	28.112
461.59	28.588
461.94	27.682
462.29	28.309
462.64	27.505
462.99	27.261
463.34	27.600
463.69	27.892
464.04	28.754
464.39	28.232
464.74	28.223
465.09	28.166
465.44	27.978
465.79	28.188
466.14	27.258
466.49	28.532
466.84	29.597
467.19	28.727
467.54	28.688
467.89	27.971
468.24	28.098
468.59	28.632
468.94	28.894
469.29	28.599
469.64	30.388
469.99	29.973
470.34	28.534
470.68	29.741
471.03	28.571
471.38	29.812
471.73	28.714
472.08	28.882
472.43	28.832
472.78	29.098
473.13	28.883
473.48	29.401
473.83	29.695
474.17	29.247
474.52	29.529
474.87	29.714
475.22	28.497
475.57	27.620
475.92	28.890
476.27	28.467
476.61	28.682
476.96	28.642
477.31	28.362
477.66	29.759
478.01	29.482
478.36	29.244
478.70	27.674
479.05	29.446
479.40	29.222
479.75	28.012
480.10	28.280
480.45	29.462
480.79	28.046
481.14	29.354
481.49	28.619
481.84	29.035
482.19	29.350
482.53	28.853
482.88	28.758
483.23	29.019
483.58	29.117
483.92	29.335
484.27	28.410
484.62	28.707
484.97	28.301
485.31	28.733
485.66	27.925
486.01	26.769
486.36	25.572
486.70	25.439
487.05	26.161
487.40	26.864
487.75	26.807
488.09	28.238
488.44	27.752
488.79	28.788
489.13	29.030
489.48	28.630
489.83	29.132
490.17	29.417
490.52	28.167
490.87	29.625
491.22	29.013
491.56	28.428
491.91	29.316
492.26	29.306
492.60	29.401
492.95	29.093
493.30	29.673
493.64	29.211
493.99	29.294
494.34	29.695
494.68	29.853
495.03	29.699
495.37	29.362
495.72	29.825
496.07	30.394
496.41	29.248
496.76	29.112
497.11	29.176
497.45	29.297
497.80	29.750
498.14	29.469
498.49	30.098
498.84	30.489
499.18	29.905
499.53	29.677
499.87	29.916
500.22	29.392
500.56	30.777
500.91	30.144
501.26	29.919
501.60	29.948
501.95	30.247
502.29	30.037
502.64	31.238
502.98	30.482
503.33	30.027
503.67	30.394
504.02	30.168
504.36	29.808
504.71	30.630
505.06	29.590
505.40	29.947
505.75	29.990
506.09	30.126
506.44	30.587
506.78	30.346
507.13	31.095
507.47	31.010
507.82	31.408
508.16	31.256
508.51	31.659
508.85	31.380
509.19	30.867
509.54	31.327
509.88	31.376
510.23	30.643
510.57	31.321
510.92	30.968
511.26	31.757
511.61	32.054
511.95	31.054
512.30	31.071
512.64	31.596
512.98	32.101
513.33	32.173
513.67	31.857
514.02	31.602
514.36	32.277
514.70	31.710
515.05	31.009
515.39	32.417
515.74	31.644
516.08	32.644
516.42	32.741
516.77	33.166
517.11	32.852
517.46	32.449
517.80	32.869
518.14	31.500
518.49	33.664
518.83	32.500
519.17	32.621
519.52	32.711
519.86	32.059
520.20	33.353
520.55	33.513
520.89	33.333
521.23	33.293
521.58	33.073
521.92	34.415
522.26	32.886
522.61	33.458
522.95	34.316
523.29	33.597
523.64	33.354
523.98	34.011
524.32	33.776
524.66	33.554
525.01	33.211
525.35	33.829
525.69	33.313
526.04	33.209
526.38	33.801
526.72	33.681
527.06	34.275
527.41	32.426
527.75	33.955
528.09	34.361
528.43	33.461
528.78	33.620
529.12	33.576
529.46	35.640
529.80	33.911
530.15	34.455
530.49	32.985
530.83	34.810
531.17	34.856
531.51	34.436
531.86	34.516
532.20	34.941
532.54	34.337
532.88	34.788
533.22	33.167
533.57	34.136
533.91	33.353
534.25	33.597
534.59	34.045
534.93	33.551
535.27	34.037
535.62	33.761
535.96	33.333
536.30	34.329
536.64	34.707
536.98	33.776
537.32	33.772
537.66	34.467
538.01	34.760
538.35	35.100
538.69	34.078
539.03	34.113
539.37	34.313
539.71	33.441
540.05	34.444
540.39	34.751
540.73	34.670
541.07	34.458
541.42	34.768
541.76	35.355
542.10	34.605
542.44	35.033
542.78	35.375
543.12	34.165
543.46	34.754
543.80	35.133
544.14	34.082
544.48	34.857
544.82	34.894
545.16	35.329
545.50	35.604
545.84	35.954
546.18	34.343
546.52	35.719
546.86	35.464
547.20	36.345
547.54	34.603
547.88	35.842
548.22	34.807
548.56	34.340
548.90	34.187
549.24	34.478
549.58	34.447
549.92	34.409
550.26	35.866
550.60	35.408
550.94	35.563
551.28	35.406
551.62	35.155
551.96	34.947
552.30	34.949
552.64	35.362
552.98	36.000
553.32	36.480
553.66	35.242
554.00	35.827
554.34	35.128
554.68	34.835
555.02	34.979
555.36	35.212
555.69	34.303
556.03	34.993
556.37	35.130
556.71	34.993
557.05	34.944
557.39	35.829
557.73	36.274
558.07	36.693
558.41	36.686
558.75	35.709
559.08	36.614
559.42	35.979
559.76	36.250
560.10	35.974
560.44	35.500
560.78	34.331
561.12	34.631
561.45	36.506
561.79	34.015
562.13	35.345
562.47	35.246
562.81	35.007
563.15	34.783
563.48	34.350
563.82	34.964
564.16	35.448
564.50	35.286
564.84	34.829
565.17	35.071
565.51	36.486
565.85	35.533
566.19	34.690
566.52	35.529
566.86	35.564
567.20	35.436
567.54	35.388
567.88	33.732
568.21	34.709
568.55	34.277
568.89	34.728
569.23	33.913
569.56	33.603
569.90	33.585
570.24	33.190
570.57	32.064
570.91	31.965
571.25	32.211
571.59	31.576
571.92	32.344
572.26	31.716
572.60	32.342
572.93	31.874
573.27	32.623
573.61	32.133
573.95	31.912
574.28	31.859
574.62	31.584
574.96	31.685
575.29	30.965
575.63	31.682
575.97	31.346
576.30	32.050
576.64	32.044
576.98	31.478
577.31	31.816
577.65	31.422
577.98	31.464
578.32	31.037
578.66	31.237
578.99	31.431
579.33	31.397
579.67	31.404
580.00	31.503
580.34	32.202
580.67	31.789
581.01	32.291
581.35	32.133
581.68	31.691
582.02	31.433
582.35	31.736
582.69	31.798
583.02	31.408
583.36	32.326
583.70	32.617
584.03	32.550
584.37	33.123
584.70	32.471
585.04	32.387
585.37	32.479
585.71	32.143
586.04	32.834
586.38	32.315
586.72	32.974
587.05	32.301
587.39	32.454
587.72	32.801
588.06	32.978
588.39	32.483
588.73	32.825
589.06	33.842
589.40	33.906
589.73	33.861
590.07	34.413
590.40	33.102
590.73	33.841
591.07	34.107
591.40	34.416
591.74	35.325
592.07	33.901
592.41	34.188
592.74	34.307
593.08	33.111
593.41	33.249
593.75	33.354
594.08	33.490
594.41	34.146
594.75	33.789
595.08	33.500
595.42	33.905
595.75	33.476
596.09	34.585
596.42	34.499
596.75	33.643
597.09	35.844
597.42	34.570
597.75	34.929
598.09	34.957
598.42	34.751
598.76	34.860
599.09	34.284
599.42	34.061
599.76	34.517
600.09	34.863
600.42	33.966
600.76	33.714
601.09	33.880
601.42	34.855
601.76	33.738
602.09	34.545
602.42	34.594
602.76	35.429
603.09	35.405
603.42	35.025
603.76	34.604
604.09	34.354
604.42	35.141
604.76	35.091
605.09	35.256
605.42	34.929
605.75	34.685
606.09	34.770
606.42	34.287
606.75	34.799
607.09	34.826
607.42	34.745
607.75	34.599
608.08	34.260
608.42	35.365
608.75	33.859
609.08	34.089
609.41	35.650
609.75	35.112
610.08	35.438
610.41	35.708
610.74	35.809
611.07	36.512
611.41	34.838
611.74	36.400
612.07	36.801
612.40	36.516
612.73	36.579
613.07	37.069
613.40	36.177
613.73	36.707
614.06	36.237
614.39	36.235
614.72	36.158
615.06	35.819
615.39	35.403
615.72	35.174
616.05	35.779
616.38	35.909
616.71	37.114
617.05	37.691
617.38	37.102
617.71	36.757
618.04	38.582
618.37	36.487
618.70	37.461
619.03	37.303
619.36	37.610
619.69	38.169
620.03	37.500
620.36	37.968
620.69	37.740
621.02	39.159
621.35	37.745
621.68	38.240
622.01	39.009
622.34	38.351
622.67	39.620
623.00	36.757
623.33	38.813
623.66	36.526
623.99	37.555
624.32	37.589
624.65	38.630
624.99	37.040
625.32	38.595
625.65	39.068
625.98	38.816
626.31	38.802
626.64	38.204
626.97	39.152
627.30	38.404
627.63	39.541
627.96	39.613
628.29	40.070
628.62	40.165
628.95	41.509
629.28	40.420
629.61	41.705
629.94	40.857
630.26	39.561
630.59	40.801
630.92	39.272
631.25	39.980
631.58	40.841
631.91	41.075
632.24	41.561
632.57	40.084
632.90	40.351
633.23	41.163
633.56	42.486
633.89	41.223
634.22	42.225
634.55	43.195
634.88	42.754
635.20	43.489
635.53	43.735
635.86	44.431
636.19	42.588
636.52	42.330
636.85	42.153
637.18	41.475
637.51	43.853
637.83	39.211
638.16	42.199
638.49	41.436
638.82	43.995
639.15	42.375
639.48	43.142
639.81	45.174
640.13	44.010
640.46	43.356
640.79	42.801
641.12	40.990
641.45	44.134
641.77	45.803
642.10	44.883
642.43	42.492
642.76	43.653
643.09	45.245
643.41	45.068
643.74	47.377
644.07	44.512
644.40	47.699
644.73	46.929
645.05	44.374
645.38	45.024
645.71	44.928
646.04	45.349
646.36	46.912
646.69	46.488
647.02	45.578
647.35	48.110
647.67	45.133
648.00	43.740
648.33	46.040
648.66	43.788
648.98	44.528
649.31	45.590
649.64	45.889
649.96	43.815
650.29	44.392
650.62	46.117
650.94	46.191
651.27	44.595
651.60	45.591
651.92	42.971
652.25	43.974
652.58	43.458
652.90	45.972
653.23	43.143
653.56	43.622
653.88	45.642
654.21	44.708
654.54	42.739
654.86	45.950
655.19	41.081
655.52	30.723
655.84	29.297
656.17	37.115
656.49	49.521
656.82	50.034
657.15	37.229
657.47	27.868
657.80	21.300
658.13	22.052
658.45	32.808
658.78	33.385
659.10	34.038
659.43	35.671
659.75	36.981
660.08	40.570
660.41	43.203
660.73	45.997
661.06	43.153
661.38	45.818
661.71	47.500
662.03	48.718
662.36	44.930
662.68	45.181
663.01	47.071
663.33	47.558
663.66	45.378
663.98	50.756
664.31	47.689
664.63	46.964
664.96	46.479
665.28	48.770
665.61	44.639
665.93	45.070
666.26	44.016
666.58	48.326
666.91	51.163
667.23	47.416
667.56	44.924
667.88	48.291
668.21	44.989
668.53	47.072
668.86	49.351
669.18	47.122
669.50	48.043
669.83	50.109
670.15	45.556
670.48	49.673
670.80	47.845
671.13	49.469
671.45	48.511
671.77	49.491
672.10	43.438
672.42	43.463
672.75	41.294
673.07	46.303
673.39	45.027
673.72	47.070
674.04	45.686
674.37	46.019
674.69	46.012
675.01	47.908
675.34	48.255
675.66	50.105
675.98	43.585
676.31	45.588
676.63	47.558
676.95	47.170
677.28	49.065
677.60	45.275
677.92	48.734
678.25	47.639
678.57	45.817
678.89	45.291
679.22	45.580
679.54	43.511
679.86	41.651
680.18	43.292
680.51	42.908
680.83	43.060
681.15	44.717
681.48	43.478
681.80	44.487
682.12	45.402
682.44	42.940
682.77	43.992
683.09	48.712
683.41	48.115
683.73	47.461
684.06	45.248
684.38	45.205
684.70	45.543
685.02	46.341
685.34	43.223
685.67	44.056
685.99	40.893
686.31	42.150
686.63	40.813
686.96	40.714
687.28	41.516
687.60	41.123
687.92	42.413
688.24	44.677
688.56	45.181
688.89	47.718
689.21	47.598
689.53	45.303
689.85	45.233
690.17	44.720
690.49	43.949
690.82	46.028
691.14	46.429
691.46	42.405
691.78	44.980
692.10	46.488
692.42	43.912
692.74	42.116
693.06	42.979
693.39	45.380
693.71	45.852
694.03	48.211
694.35	44.589
694.67	45.995
694.99	47.073
695.31	48.039
695.63	44.737
695.95	46.944
696.27	46.701
696.59	46.891
696.91	46.114
697.23	43.662
697.56	47.335
697.88	41.309
698.20	44.792
698.52	43.656
698.84	45.434
699.16	45.392
699.48	47.031
699.80	46.618
700.12	53.766
700.44	49.867
700.76	51.381
701.08	48.851
701.40	49.721
701.72	54.227
702.04	50.284
702.36	47.875
702.68	50.992
703.00	49.307
703.32	45.745
703.64	48.794
703.96	46.797
704.28	51.453
704.60	53.959
704.91	45.697
705.23	45.748
705.55	52.492
705.87	57.143
706.19	56.184
706.51	53.271
706.83	52.727
707.15	46.779
707.47	43.939
707.79	43.980
708.11	44.521
708.43	45.238
708.74	41.071
709.06	46.753
709.38	47.769
709.70	48.837
710.02	47.181
710.34	45.758
710.66	49.851
710.98	51.705
711.29	48.547
711.61	51.032
711.93	50.000
712.25	51.768
712.57	55.515
712.89	51.903
713.20	46.809
713.52	49.342
713.84	49.684
714.16	47.256
714.48	43.103
714.80	55.015
715.11	46.398
715.43	46.291
715.75	48.116
716.07	48.562
716.39	50.157
716.70	53.156
717.02	53.597
717.34	48.763
717.66	54.478
717.97	57.371
718.29	52.222
718.61	55.839
718.93	50.735
719.24	50.173
719.56	51.864
719.88	49.153
720.20	49.662
720.51	51.568
720.83	59.480
721.15	50.746
721.46	51.064
721.78	52.688
722.10	47.170
722.42	52.632
722.73	50.187
723.05	57.787
723.37	49.393
723.68	54.826
724.00	51.626
724.32	55.645
724.63	53.252
724.95	53.556
725.27	54.656
725.58	53.125
725.90	52.555
726.22	50.189
726.53	48.264
726.85	50.171
727.16	49.110
727.48	45.745
727.80	48.485
728.11	46.014
728.43	50.000
728.74	46.237
729.06	52.920
729.38	51.471
729.69	49.466
730.01	41.638
730.32	46.528
730.64	49.833
730.96	42.574
731.27	49.338
731.59	45.872
731.90	42.857
732.22	45.963
732.53	45.511
732.85	48.397
733.16	50.161
733.48	50.166
733.80	49.026
734.11	51.592
734.43	47.633
734.74	46.000
735.06	47.851
735.37	47.399
735.69	46.178
736.00	50.327
736.32	45.794
736.63	44.089
736.95	44.728
737.26	45.578
737.58	45.484
737.89	48.161
738.21	48.123
738.52	47.500
738.83	45.660
739.15	49.615
739.46	49.635
739.78	48.958
740.09	44.923
740.41	44.194
740.72	47.038
741.04	47.407
741.35	52.083
741.66	56.444
741.98	53.302
742.29	55.981
742.61	53.448
742.92	53.394
743.23	47.436
743.55	50.800
743.86	57.018
744.18	57.522
744.49	57.895
744.80	55.869
745.12	52.273
745.43	52.863
745.74	51.802
746.06	55.505
746.37	58.296
746.68	55.656
747.00	57.870
747.31	60.476
747.62	54.425
747.94	53.304
748.25	50.638
748.56	56.828
748.88	50.990
749.19	60.000
749.50	53.488
749.82	46.748
750.13	48.980
750.44	51.095
750.75	49.825
751.07	49.839
751.38	48.432
751.69	50.903
752.01	47.368
752.32	46.570
752.63	49.645
752.94	54.508
753.26	54.400
753.57	49.593
753.88	48.438
754.19	47.143
754.51	48.264
754.82	45.126
755.13	49.811
755.44	46.992
755.75	45.255
756.07	46.809
756.38	42.336
756.69	41.611
757.00	41.617
757.31	41.246
757.63	40.643
757.94	41.823
758.25	41.176
758.56	40.494
758.87	40.054
759.18	46.364
759.50	43.574
759.81	44.548
760.12	44.687
760.43	44.413
760.74	42.391
761.05	46.328
761.36	41.176
761.67	44.034
761.99	45.963
762.30	48.264
762.61	46.565
762.92	49.219
763.23	47.059
763.54	52.000
763.85	45.312
764.16	51.923
764.47	46.008
764.78	41.343
765.10	42.722
765.41	41.888
765.72	45.210
766.03	42.947
766.34	43.000
766.65	50.213
766.96	51.709
767.27	54.822
767.58	58.333
767.89	62.632
768.20	59.195
768.51	53.299
768.82	54.128
769.13	47.561
769.44	45.749
769.75	49.356
770.06	45.413
770.37	55.656
770.68	52.778
770.99	51.556
771.30	42.213
771.61	52.915
771.92	45.902
772.23	54.622
772.54	56.410
772.85	52.880
773.16	55.851
773.47	65.217
773.78	59.391
774.09	54.762
774.39	59.649
774.70	58.642
775.01	58.696
775.32	67.320
775.63	61.184
775.94	60.432
776.25	77.165
776.56	67.164
776.87	72.951
777.18	69.531
777.48	69.466
777.79	59.848
778.10	67.407
778.41	76.786
778.72	65.693
779.03	60.403
779.34	55.705
779.65	62.162
779.95	57.055
780.26	62.092
780.57	76.552
780.88	80.469
781.19	63.910
781.50	70.946
781.80	59.119
782.11	52.542
782.42	50.633
782.73	60.123
783.04	68.243
783.34	64.789
783.65	71.918
783.96	67.910
784.27	60.140
784.57	58.273
784.88	62.963
785.19	66.667
785.50	69.811
785.81	68.657
786.11	69.672
786.42	75.194
786.73	81.416
787.04	81.132
787.34	68.750
787.65	75.000
787.96	75.676
788.26	61.983
788.57	72.881
788.88	80.165
789.19	68.750
789.49	65.152
789.80	72.519
790.11	80.000
790.41	87.129
790.72	83.133
791.03	79.348
791.33	76.744
791.64	88.660
791.95	88.119
792.25	88.889
792.56	106.494
792.87	100.000
793.17	93.671
793.48	83.908
793.79	83.908
794.09	84.091
794.40	70.588
794.70	78.676
795.01	59.259
795.32	60.432
795.62	65.354
795.93	75.862
796.23	74.336
796.54	81.176
796.85	93.243
797.15	112.676
797.46	92.424
797.76	87.952
798.07	86.076
798.37	81.538
798.68	93.939
798.99	76.056
799.29	75.325
799.60	85.227
799.90	102.740
800.21	105.970
800.51	94.828
800.82	115.789
801.12	108.197
801.43	106.061
801.73	78.378
802.04	96.825
802.34	93.827
802.65	110.938
802.95	122.034
803.26	110.938
803.56	91.429
803.87	95.385
804.17	91.176
804.48	118.519
804.78	127.586
805.09	82.353
805.39	101.923
805.70	107.143
806.00	124.590
806.30	75.758
806.61	86.585
806.91	70.886
807.22	89.474
807.52	95.522
807.83	100.000
808.13	104.688
808.43	106.667
808.74	88.158
809.04	94.203
809.35	97.015
809.65	77.632
809.95	106.452
810.26	110.169
810.56	109.524
810.86	134.091
811.17	145.238
811.47	113.333
811.77	112.963
812.08	120.000
812.38	124.000
812.69	172.222
812.99	172.727
813.29	120.408
813.59	116.667
813.90	134.694
814.20	112.727
814.50	95.385
814.81	105.882
815.11	140.816
815.41	101.639
815.72	140.476
816.02	114.545
816.32	152.381
816.62	142.500
816.93	153.659
817.23	140.476
817.53	134.091
817.84	178.788
818.14	121.739
818.44	137.778
818.74	167.647
819.04	147.500
819.35	148.571
819.65	161.765
819.95	182.143
820.25	220.000
820.56	171.795
820.86	134.091
821.16	139.535
821.46	146.154
821.76	142.000
822.07	160.000
822.37	165.000
822.67	166.667
822.97	119.608
823.27	189.286
823.57	164.865
823.88	147.500
824.18	200.000
824.48	157.143
824.78	224.000
825.08	216.667
825.38	143.243
825.69	134.146
825.99	216.667
826.29	162.069
826.59	147.368
826.89	134.211
827.19	197.059
827.49	200.000
827.79	140.909
828.09	134.091
828.39	121.277
828.70	142.857
829.00	177.778
829.30	151.613
829.60	137.500
829.90	340.000
830.20	214.286
830.50	217.391
830.80	204.348
831.10	226.667
831.40	200.000
831.70	173.913
832.00	196.154
832.30	214.815
832.60	318.750
832.90	203.333
833.20	385.714
833.50	200.000
833.80	182.759
834.10	221.875
834.40	215.385
834.70	300.000
835.00	342.857
835.30	168.571
835.60	276.923
835.90	220.690
836.20	371.429
836.50	196.552
836.80	176.000
837.10	186.111
837.40	266.667
837.70	294.118
838.00	203.704
838.30	223.810
838.60	257.143
838.90	234.615
839.19	270.000
839.49	464.286
839.79	375.000
840.09	280.000
840.39	266.667
840.69	269.565
840.99	305.556
841.29	430.000
841.59	341.667
841.88	331.250
842.18	175.862
842.48	238.095
842.78	183.333
843.08	265.217
843.38	171.875
843.68	833.333
843.97	273.077
844.27	186.207
844.57	285.714
844.87	375.000
845.17	255.556
845.47	1533.333
845.76	566.667
846.06	294.118
846.36	687.500
846.66	364.286
846.96	275.000
847.25	409.091
847.55	445.455
847.85	234.783
848.15	500.000
848.44	342.857
848.74	283.333
849.04	305.882
849.34	590.000
849.63	189.474
849.93	472.727
850.23	920.000
850.53	400.000
850.82	2550.000
851.12	-5100.000
851.42	3900.000
851.71	290.000
852.01	-966.667
852.31	225.000
852.61	1566.667
852.90	242.857
853.20	284.000
853.50	305.882
853.79	242.857
854.09	183.333
854.39	362.500
854.68	178.378
854.98	196.774
855.28	166.667
855.57	203.448
855.87	244.444
856.17	215.789
856.46	273.333
856.76	294.118
857.05	182.759
857.35	208.333
857.65	360.000
857.94	247.826
858.24	219.231
858.53	255.000
858.83	213.636
859.13	293.333
859.42	0.000
859.72	433.333
860.01	527.273
860.31	277.273
860.60	273.684
860.90	221.739
861.20	588.889
861.49	533.333
861.79	-5200.000
862.08	587.500
862.38	266.667
862.67	400.000
862.97	370.588
863.26	500.000
863.56	300.000
863.85	416.667
864.15	650.000
864.44	373.333
864.74	700.000
865.03	625.000
865.33	315.789
865.62	390.909
865.92	430.769
866.21	391.667
866.51	0.000
866.80	445.455
867.10	1060.000
867.39	423.077
867.69	418.182
867.98	294.737
868.27	490.909
868.57	315.789
868.86	-4200.000
869.16	331.250
869.45	2150.000
869.75	-3100.000
870.04	433.333
870.33	528.571
870.63	1000.000
870.92	2800.000
871.22	628.571
871.51	329.412
871.80	242.857
872.10	350.000
>>>>>End Processed Spectral Data<<<<<
