SpectraSuite Data File
++++++++++++++++++++++++++++++++++++
Date: Wed May 13 16:12:05 PDT 2015
User: schluterlab
Dark Spectrum Present: Yes
Reference Spectrum Present: Yes
Number of Sampled Component Spectra: 1
Spectrometers: USB2E3373
Integration Time (usec): 3000 (USB2E3373)
Spectra Averaged: 3 (USB2E3373)
Boxcar Smoothing: 0 (USB2E3373)
Correct for Electrical Dark: No (USB2E3373)
Strobe/Lamp Enabled: No (USB2E3373)
Correct for Detector Non-linearity: No (USB2E3373)
Correct for Stray Light: No (USB2E3373)
Number of Pixels in Processed Spectrum: 2048
>>>>>Begin Processed Spectral Data<<<<<
178.53	0.000
178.91	-1075.000
179.29	-1050.000
179.67	-183.333
180.04	-1075.000
180.42	1800.000
180.80	960.000
181.18	-800.000
181.56	614.286
181.94	0.000
182.31	-557.143
182.69	1666.667
183.07	-400.000
183.45	-333.333
183.83	418.182
184.20	-330.000
184.58	1900.000
184.96	4000.000
185.34	-720.000
185.72	-425.000
186.09	-1100.000
186.47	1700.000
186.85	2100.000
187.23	3200.000
187.61	-1533.333
187.98	1275.000
188.36	445.455
188.74	427.273
189.12	-700.000
189.49	460.000
189.87	-3900.000
190.25	-800.000
190.63	271.429
191.00	307.692
191.38	566.667
191.76	-800.000
192.14	1200.000
192.51	537.500
192.89	600.000
193.27	462.500
193.65	-775.000
194.02	350.000
194.40	740.000
194.78	440.000
195.15	391.667
195.53	570.000
195.91	-1450.000
196.29	275.000
196.66	231.579
197.04	-320.000
197.42	0.000
197.79	530.000
198.17	-3400.000
198.55	471.429
198.92	512.500
199.30	620.000
199.68	0.000
200.05	277.778
200.43	742.857
200.81	3900.000
201.18	1500.000
201.56	-1066.667
201.94	433.333
202.31	400.000
202.69	341.667
203.07	450.000
203.44	0.000
203.82	1175.000
204.19	614.286
204.57	285.714
204.95	462.500
205.32	1233.333
205.70	372.727
206.08	328.571
206.45	2250.000
206.83	268.750
207.20	700.000
207.58	560.000
207.96	255.556
208.33	550.000
208.71	-516.667
209.08	585.714
209.46	477.778
209.84	372.727
210.21	-1133.333
210.59	975.000
210.96	-362.500
211.34	2050.000
211.71	390.000
212.09	666.667
212.46	0.000
212.84	1200.000
213.22	1150.000
213.59	-3100.000
213.97	600.000
214.34	571.429
214.72	400.000
215.09	700.000
215.47	-1450.000
215.84	-2400.000
216.22	1266.667
216.59	307.143
216.97	1000.000
217.34	363.636
217.72	-316.667
218.09	0.000
218.47	-4200.000
218.84	644.444
219.22	614.286
219.59	1200.000
219.97	-400.000
220.34	880.000
220.72	-1300.000
221.09	364.286
221.47	1125.000
221.84	-733.333
222.22	0.000
222.59	1025.000
222.97	-1900.000
223.34	820.000
223.72	284.615
224.09	1080.000
224.46	1500.000
224.84	-3300.000
225.21	-680.000
225.59	-4000.000
225.96	480.000
226.34	285.000
226.71	2400.000
227.08	462.500
227.46	450.000
227.83	-775.000
228.21	-1600.000
228.58	466.667
228.95	-1850.000
229.33	-1850.000
229.70	1200.000
230.08	628.571
230.45	-800.000
230.82	366.667
231.20	850.000
231.57	485.714
231.95	333.333
232.32	213.636
232.69	363.636
233.07	400.000
233.44	269.231
233.81	-933.333
234.19	205.263
234.56	333.333
234.93	275.000
235.31	400.000
235.68	230.769
236.05	264.286
236.43	112.121
236.80	189.474
237.17	3600.000
237.55	190.476
237.92	175.000
238.29	228.571
238.67	148.387
239.04	179.310
239.41	133.333
239.79	82.609
240.16	111.905
240.53	120.455
240.91	101.961
241.28	100.000
241.65	98.000
242.02	85.507
242.40	82.258
242.77	81.667
243.14	66.667
243.51	75.281
243.89	64.706
244.26	65.556
244.63	66.667
245.00	59.574
245.38	58.416
245.75	50.467
246.12	54.128
246.49	54.745
246.87	61.600
247.24	56.923
247.61	50.000
247.98	50.980
248.36	53.378
248.73	46.497
249.10	59.873
249.47	46.328
249.84	49.198
250.22	42.781
250.59	40.828
250.96	47.980
251.33	48.341
251.70	45.545
252.08	44.286
252.45	40.359
252.82	41.739
253.19	39.149
253.56	44.314
253.94	44.813
254.31	47.266
254.68	41.154
255.05	43.542
255.42	39.837
255.79	38.603
256.16	39.350
256.54	39.223
256.91	35.587
257.28	36.331
257.65	33.993
258.02	37.267
258.39	38.170
258.76	38.127
259.14	37.202
259.51	35.562
259.88	34.472
260.25	35.650
260.62	37.861
260.99	39.441
261.36	36.336
261.73	35.530
262.10	31.686
262.47	38.310
262.85	35.097
263.22	31.054
263.59	37.892
263.96	35.714
264.33	33.420
264.70	35.789
265.07	35.550
265.44	32.828
265.81	29.684
266.18	36.181
266.55	34.634
266.92	32.678
267.29	31.713
267.66	33.028
268.03	32.273
268.40	33.178
268.77	33.890
269.14	31.757
269.51	35.440
269.88	32.401
270.25	30.700
270.62	32.809
270.99	32.688
271.36	32.403
271.73	34.112
272.10	31.522
272.47	34.409
272.84	31.818
273.21	32.914
273.58	28.821
273.95	33.124
274.32	30.579
274.69	32.548
275.06	32.087
275.43	31.915
275.80	31.663
276.17	31.161
276.54	32.017
276.91	32.609
277.28	28.516
277.65	30.561
278.02	31.056
278.39	32.422
278.76	29.818
279.13	32.830
279.50	31.099
279.87	32.869
280.23	31.138
280.60	30.368
280.97	31.054
281.34	30.088
281.71	30.364
282.08	29.750
282.45	27.818
282.82	30.728
283.19	27.094
283.56	29.123
283.92	29.611
284.29	28.924
284.66	29.401
285.03	26.582
285.40	29.225
285.77	28.114
286.14	29.361
286.51	29.333
286.87	29.231
287.24	29.316
287.61	27.448
287.98	27.435
288.35	28.685
288.72	26.636
289.08	27.856
289.45	27.842
289.82	27.154
290.19	27.159
290.56	24.502
290.93	24.773
291.29	25.460
291.66	26.254
292.03	25.727
292.40	27.166
292.77	25.592
293.13	25.970
293.50	27.405
293.87	25.926
294.24	25.333
294.60	24.163
294.97	24.709
295.34	25.952
295.71	25.426
296.08	26.781
296.44	24.759
296.81	23.910
297.18	25.745
297.55	20.712
297.91	24.406
298.28	24.230
298.65	24.413
299.02	24.374
299.38	23.240
299.75	21.429
300.12	22.861
300.48	22.125
300.85	23.921
301.22	23.057
301.59	22.096
301.95	22.796
302.32	23.492
302.69	24.014
303.05	23.152
303.42	22.963
303.79	22.537
304.15	22.145
304.52	22.132
304.89	22.067
305.25	21.926
305.62	22.197
305.99	23.377
306.35	22.707
306.72	24.103
307.09	23.196
307.45	23.874
307.82	21.763
308.19	23.400
308.55	24.811
308.92	23.093
309.29	21.753
309.65	20.997
310.02	22.304
310.38	23.226
310.75	24.076
311.12	22.006
311.48	23.824
311.85	22.746
312.22	22.060
312.58	22.245
312.95	23.865
313.31	22.816
313.68	23.181
314.05	24.556
314.41	23.417
314.78	21.551
315.14	22.840
315.51	22.863
315.87	23.564
316.24	22.046
316.61	22.125
316.97	22.896
317.34	21.918
317.70	22.180
318.07	22.329
318.43	23.875
318.80	23.055
319.16	23.540
319.53	22.326
319.89	23.238
320.26	24.700
320.62	22.817
320.99	22.727
321.35	22.525
321.72	22.485
322.08	22.902
322.45	23.682
322.81	24.031
323.18	23.603
323.54	21.707
323.91	22.925
324.27	23.805
324.64	23.299
325.00	22.182
325.37	22.475
325.73	24.057
326.10	23.477
326.46	22.939
326.83	22.778
327.19	22.716
327.56	22.735
327.92	23.185
328.29	23.336
328.65	24.217
329.01	23.014
329.38	22.572
329.74	21.791
330.11	22.243
330.47	23.232
330.84	23.621
331.20	21.311
331.56	23.394
331.93	22.130
332.29	22.094
332.66	23.097
333.02	22.578
333.38	21.409
333.75	22.014
334.11	22.420
334.48	21.650
334.84	21.967
335.20	21.636
335.57	20.671
335.93	20.714
336.29	22.253
336.66	22.813
337.02	21.267
337.38	22.222
337.75	21.658
338.11	22.202
338.47	22.652
338.84	20.440
339.20	20.275
339.56	23.449
339.93	20.909
340.29	21.105
340.65	20.232
341.02	23.037
341.38	21.708
341.74	20.614
342.11	20.699
342.47	22.731
342.83	21.490
343.20	21.472
343.56	21.904
343.92	20.439
344.28	21.003
344.65	20.980
345.01	19.949
345.37	21.012
345.73	20.305
346.10	20.716
346.46	19.576
346.82	21.005
347.19	20.384
347.55	20.854
347.91	21.117
348.27	21.611
348.63	20.569
349.00	20.469
349.36	20.279
349.72	20.770
350.08	19.611
350.45	20.098
350.81	20.146
351.17	20.583
351.53	19.328
351.89	20.792
352.26	20.600
352.62	20.850
352.98	18.963
353.34	20.707
353.70	19.722
354.07	20.484
354.43	20.238
354.79	19.871
355.15	19.553
355.51	21.103
355.87	21.061
356.24	21.091
356.60	19.647
356.96	20.032
357.32	19.379
357.68	20.079
358.04	19.319
358.40	20.428
358.77	20.110
359.13	18.942
359.49	18.824
359.85	18.810
360.21	19.139
360.57	20.856
360.93	19.462
361.29	19.803
361.66	18.498
362.02	18.955
362.38	19.468
362.74	19.940
363.10	20.059
363.46	20.543
363.82	19.350
364.18	19.824
364.54	20.208
364.90	18.980
365.26	20.147
365.62	20.234
365.98	18.408
366.35	18.625
366.71	20.029
367.07	19.009
367.43	19.376
367.79	19.772
368.15	21.121
368.51	18.605
368.87	19.272
369.23	20.117
369.59	20.999
369.95	18.971
370.31	19.587
370.67	19.275
371.03	20.075
371.39	19.242
371.75	20.441
372.11	19.986
372.47	20.381
372.83	20.101
373.19	19.292
373.55	19.438
373.91	20.471
374.27	19.175
374.63	19.345
374.99	19.068
375.35	19.121
375.71	19.534
376.07	21.125
376.42	20.289
376.78	19.549
377.14	19.946
377.50	20.000
377.86	19.282
378.22	20.038
378.58	18.860
378.94	19.107
379.30	19.275
379.66	20.114
380.02	20.270
380.38	19.672
380.74	20.588
381.09	19.804
381.45	20.590
381.81	20.885
382.17	19.427
382.53	20.503
382.89	20.370
383.25	20.638
383.61	21.128
383.97	20.013
384.32	19.963
384.68	19.827
385.04	20.774
385.40	19.938
385.76	20.209
386.12	21.049
386.48	21.271
386.83	20.975
387.19	21.521
387.55	20.841
387.91	21.100
388.27	20.110
388.62	21.512
388.98	20.577
389.34	21.589
389.70	20.907
390.06	21.673
390.42	20.687
390.77	21.692
391.13	21.378
391.49	21.383
391.85	21.388
392.20	20.252
392.56	21.780
392.92	20.659
393.28	20.414
393.64	21.763
393.99	21.442
394.35	20.906
394.71	20.013
395.07	20.374
395.42	21.632
395.78	21.183
396.14	21.229
396.50	22.118
396.85	21.933
397.21	20.838
397.57	21.699
397.92	20.673
398.28	20.348
398.64	21.446
399.00	20.425
399.35	20.361
399.71	20.775
400.07	21.585
400.42	20.920
400.78	21.411
401.14	21.280
401.49	21.373
401.85	20.629
402.21	20.359
402.57	21.221
402.92	20.555
403.28	21.424
403.63	20.483
403.99	21.210
404.35	20.182
404.70	21.043
405.06	20.734
405.42	21.085
405.77	20.000
406.13	20.034
406.49	20.698
406.84	20.555
407.20	19.858
407.55	21.761
407.91	21.133
408.27	20.549
408.62	21.132
408.98	20.098
409.34	20.480
409.69	20.968
410.05	20.632
410.40	19.327
410.76	20.550
411.11	19.903
411.47	20.895
411.83	20.220
412.18	20.037
412.54	20.548
412.89	20.602
413.25	20.012
413.60	20.198
413.96	20.826
414.31	20.292
414.67	20.469
415.03	19.801
415.38	21.005
415.74	20.193
416.09	21.359
416.45	20.281
416.80	20.687
417.16	21.046
417.51	19.907
417.87	19.653
418.22	20.946
418.58	21.821
418.93	20.516
419.29	19.796
419.64	21.033
420.00	20.793
420.35	20.406
420.71	20.143
421.06	19.809
421.42	21.111
421.77	20.348
422.12	20.045
422.48	19.428
422.83	19.802
423.19	20.331
423.54	19.733
423.90	20.754
424.25	20.101
424.61	19.048
424.96	19.825
425.31	20.321
425.67	19.270
426.02	19.429
426.38	20.452
426.73	19.310
427.09	19.635
427.44	18.689
427.79	20.242
428.15	20.298
428.50	20.714
428.85	20.262
429.21	20.541
429.56	20.010
429.92	19.779
430.27	19.464
430.62	18.945
430.98	20.031
431.33	19.175
431.68	19.372
432.04	19.702
432.39	20.046
432.74	20.048
433.10	20.091
433.45	20.233
433.80	19.235
434.16	20.246
434.51	19.316
434.86	19.726
435.22	19.566
435.57	20.000
435.92	19.544
436.28	20.107
436.63	19.978
436.98	19.347
437.34	19.141
437.69	20.303
438.04	19.674
438.39	20.060
438.75	19.407
439.10	19.385
439.45	19.481
439.81	19.698
440.16	18.464
440.51	19.918
440.86	20.324
441.22	19.689
441.57	20.276
441.92	19.498
442.27	19.645
442.63	18.694
442.98	19.831
443.33	20.217
443.68	19.205
444.03	19.278
444.39	18.793
444.74	20.725
445.09	19.784
445.44	19.355
445.79	19.446
446.15	19.905
446.50	20.086
446.85	19.836
447.20	20.398
447.55	19.375
447.91	19.746
448.26	20.200
448.61	20.407
448.96	20.155
449.31	19.516
449.66	20.540
450.02	19.276
450.37	19.388
450.72	19.797
451.07	20.536
451.42	20.304
451.77	20.552
452.12	20.439
452.47	19.590
452.83	19.580
453.18	20.660
453.53	20.532
453.88	19.315
454.23	19.725
454.58	20.715
454.93	19.453
455.28	20.262
455.63	20.267
455.98	20.774
456.34	19.410
456.69	20.476
457.04	20.433
457.39	20.456
457.74	19.849
458.09	20.472
458.44	19.669
458.79	18.709
459.14	20.316
459.49	19.848
459.84	19.003
460.19	19.800
460.54	19.734
460.89	19.473
461.24	20.583
461.59	20.337
461.94	20.530
462.29	20.653
462.64	20.294
462.99	19.909
463.34	20.533
463.69	19.637
464.04	20.000
464.39	20.754
464.74	20.143
465.09	19.903
465.44	19.723
465.79	20.022
466.14	18.938
466.49	19.244
466.84	19.965
467.19	20.640
467.54	20.625
467.89	19.808
468.24	19.372
468.59	20.330
468.94	18.815
469.29	20.308
469.64	21.084
469.99	20.027
470.34	19.815
470.68	20.474
471.03	20.340
471.38	20.639
471.73	20.187
472.08	20.658
472.43	19.724
472.78	19.947
473.13	20.411
473.48	20.849
473.83	19.756
474.17	19.291
474.52	20.285
474.87	20.432
475.22	19.385
475.57	20.043
475.92	18.959
476.27	19.560
476.61	19.967
476.96	19.846
477.31	20.147
477.66	20.186
478.01	19.028
478.36	20.201
478.70	19.938
479.05	20.341
479.40	20.368
479.75	19.878
480.10	19.781
480.45	18.991
480.79	19.589
481.14	19.325
481.49	19.696
481.84	19.662
482.19	19.673
482.53	19.541
482.88	19.451
483.23	19.533
483.58	20.064
483.92	20.291
484.27	18.475
484.62	19.138
484.97	19.275
485.31	18.973
485.66	18.535
486.01	17.576
486.36	17.129
486.70	16.453
487.05	16.779
487.40	17.671
487.75	17.771
488.09	18.653
488.44	18.612
488.79	19.421
489.13	18.793
489.48	19.127
489.83	19.206
490.17	19.509
490.52	18.468
490.87	19.177
491.22	19.236
491.56	19.499
491.91	19.218
492.26	19.247
492.60	19.677
492.95	19.878
493.30	18.879
493.64	20.159
493.99	18.431
494.34	19.750
494.68	19.505
495.03	19.502
495.37	19.265
495.72	19.542
496.07	19.490
496.41	18.540
496.76	19.745
497.11	19.406
497.45	18.770
497.80	19.770
498.14	18.937
498.49	20.049
498.84	19.703
499.18	19.714
499.53	19.326
499.87	19.711
500.22	19.359
500.56	20.340
500.91	19.375
501.26	19.725
501.60	19.744
501.95	19.569
502.29	19.634
502.64	20.065
502.98	19.355
503.33	19.516
503.67	19.907
504.02	19.551
504.36	19.747
504.71	19.150
505.06	19.759
505.40	19.300
505.75	19.479
506.09	19.145
506.44	19.438
506.78	19.581
507.13	19.334
507.47	19.747
507.82	20.618
508.16	20.567
508.51	19.229
508.85	19.911
509.19	20.306
509.54	19.643
509.88	20.402
510.23	20.206
510.57	20.898
510.92	20.300
511.26	19.990
511.61	20.695
511.95	19.572
512.30	20.308
512.64	20.634
512.98	20.257
513.33	20.771
513.67	20.171
514.02	20.346
514.36	20.863
514.70	20.808
515.05	20.915
515.39	20.808
515.74	20.721
516.08	20.794
516.42	21.532
516.77	21.628
517.11	21.088
517.46	21.050
517.80	20.964
518.14	20.961
518.49	21.645
518.83	20.739
519.17	20.785
519.52	20.826
519.86	20.936
520.20	20.578
520.55	21.424
520.89	21.898
521.23	21.411
521.58	21.549
521.92	21.739
522.26	21.110
522.61	21.059
522.95	20.994
523.29	21.485
523.64	21.707
523.98	20.887
524.32	20.507
524.66	21.828
525.01	22.181
525.35	21.561
525.69	20.259
526.04	21.931
526.38	21.538
526.72	20.920
527.06	21.406
527.41	19.616
527.75	20.450
528.09	21.452
528.43	22.180
528.78	21.451
529.12	20.970
529.46	21.739
529.80	21.101
530.15	21.994
530.49	20.923
530.83	21.709
531.17	21.475
531.51	21.530
531.86	20.968
532.20	22.360
532.54	22.165
532.88	21.181
533.22	21.237
533.57	20.309
533.91	20.771
534.25	20.960
534.59	20.866
534.93	21.297
535.27	20.640
535.62	21.245
535.96	20.653
536.30	20.661
536.64	21.185
536.98	21.898
537.32	21.198
537.66	21.000
538.01	22.054
538.35	21.267
538.69	20.996
539.03	20.273
539.37	20.639
539.71	19.831
540.05	20.654
540.39	20.465
540.73	20.310
541.07	22.128
541.42	20.613
541.76	22.065
542.10	21.281
542.44	21.325
542.78	21.673
543.12	20.601
543.46	21.180
543.80	21.666
544.14	20.603
544.48	21.333
544.82	20.526
545.16	21.340
545.50	20.951
545.84	20.699
546.18	22.155
546.52	20.716
546.86	21.100
547.20	21.713
547.54	21.710
547.88	20.472
548.22	20.672
548.56	20.943
548.90	20.615
549.24	20.202
549.58	21.010
549.92	20.398
550.26	21.449
550.60	21.162
550.94	21.056
551.28	19.824
551.62	21.639
551.96	20.702
552.30	21.160
552.64	22.110
552.98	21.017
553.32	21.780
553.66	21.132
554.00	21.551
554.34	20.980
554.68	22.246
555.02	21.086
555.36	21.503
555.69	20.501
556.03	20.794
556.37	21.078
556.71	21.146
557.05	21.779
557.39	20.994
557.73	20.677
558.07	20.377
558.41	20.767
558.75	21.528
559.08	22.297
559.42	21.013
559.76	22.426
560.10	21.056
560.44	20.615
560.78	20.559
561.12	21.042
561.45	21.512
561.79	20.567
562.13	21.462
562.47	21.858
562.81	20.293
563.15	20.870
563.48	21.485
563.82	20.744
564.16	20.798
564.50	20.573
564.84	20.480
565.17	20.206
565.51	20.128
565.85	20.685
566.19	19.599
566.52	19.759
566.86	19.349
567.20	20.696
567.54	20.377
567.88	19.174
568.21	20.106
568.55	19.312
568.89	18.482
569.23	18.583
569.56	18.988
569.90	18.302
570.24	18.192
570.57	17.953
570.91	17.453
571.25	17.295
571.59	17.732
571.92	17.425
572.26	17.331
572.60	17.297
572.93	17.541
573.27	17.155
573.61	17.700
573.95	17.339
574.28	17.085
574.62	16.958
574.96	16.726
575.29	16.828
575.63	16.743
575.97	17.183
576.30	17.499
576.64	16.654
576.98	16.699
577.31	16.543
577.65	16.439
577.98	16.828
578.32	16.243
578.66	16.289
578.99	16.457
579.33	16.582
579.67	16.930
580.00	16.423
580.34	16.588
580.67	17.041
581.01	17.203
581.35	16.834
581.68	16.533
582.02	16.145
582.35	16.474
582.69	16.070
583.02	16.154
583.36	16.694
583.70	17.233
584.03	16.954
584.37	17.365
584.70	16.850
585.04	17.099
585.37	16.705
585.71	17.246
586.04	16.695
586.38	16.876
586.72	17.122
587.05	16.925
587.39	16.570
587.72	17.083
588.06	16.756
588.39	17.311
588.73	16.838
589.06	17.607
589.40	17.205
589.73	17.177
590.07	17.687
590.40	17.355
590.73	17.877
591.07	18.681
591.40	18.389
591.74	18.831
592.07	18.368
592.41	18.975
592.74	18.015
593.08	17.855
593.41	17.273
593.75	16.833
594.08	17.365
594.41	17.709
594.75	17.671
595.08	17.609
595.42	18.214
595.75	18.162
596.09	18.325
596.42	18.389
596.75	18.193
597.09	19.177
597.42	17.833
597.75	18.111
598.09	18.087
598.42	17.655
598.76	18.079
599.09	17.864
599.42	17.467
599.76	18.082
600.09	17.705
600.42	17.568
600.76	17.607
601.09	17.341
601.42	17.694
601.76	17.533
602.09	18.024
602.42	17.994
602.76	18.460
603.09	17.978
603.42	18.157
603.76	17.721
604.09	18.069
604.42	18.304
604.76	18.431
605.09	18.087
605.42	18.170
605.75	18.129
606.09	17.731
606.42	18.186
606.75	18.001
607.09	17.915
607.42	18.228
607.75	18.228
608.08	17.499
608.42	18.288
608.75	18.124
609.08	18.594
609.41	18.801
609.75	18.676
610.08	18.567
610.41	18.203
610.74	17.881
611.07	19.269
611.41	18.891
611.74	19.055
612.07	18.737
612.40	18.993
612.73	18.842
613.07	19.450
613.40	18.905
613.73	18.301
614.06	19.516
614.39	18.668
614.72	18.632
615.06	19.118
615.39	17.675
615.72	18.609
616.05	18.979
616.38	19.344
616.71	19.656
617.05	19.670
617.38	19.122
617.71	19.219
618.04	19.111
618.37	18.865
618.70	19.104
619.03	20.066
619.36	19.891
619.69	19.789
620.03	19.643
620.36	19.920
620.69	21.370
621.02	19.985
621.35	19.107
621.68	20.093
622.01	20.588
622.34	20.348
622.67	19.620
623.00	19.809
623.33	19.371
623.66	20.086
623.99	20.619
624.32	19.686
624.65	19.986
624.99	19.476
625.32	20.348
625.65	19.985
625.98	20.676
626.31	21.462
626.64	21.061
626.97	21.446
627.30	20.200
627.63	20.755
627.96	21.026
628.29	20.997
628.62	21.043
628.95	22.642
629.28	22.445
629.61	22.181
629.94	22.095
630.26	21.163
630.59	21.449
630.92	21.648
631.25	21.323
631.58	21.822
631.91	21.602
632.24	22.152
632.57	22.665
632.90	21.711
633.23	22.483
633.56	23.503
633.89	22.990
634.22	23.156
634.55	24.734
634.88	22.275
635.20	23.536
635.53	23.133
635.86	22.525
636.19	21.765
636.52	24.567
636.85	23.024
637.18	22.465
637.51	23.286
637.83	21.825
638.16	23.402
638.49	24.181
638.82	23.388
639.15	24.000
639.48	24.190
639.81	22.520
640.13	25.000
640.46	23.087
640.79	21.664
641.12	22.558
641.45	24.441
641.77	25.773
642.10	24.854
642.43	23.423
642.76	24.613
643.09	26.840
643.41	23.065
643.74	26.389
644.07	24.543
644.40	27.147
644.73	27.402
645.05	26.783
645.38	25.276
645.71	22.866
646.04	26.412
646.36	26.711
646.69	24.749
647.02	24.660
647.35	25.773
647.67	26.018
648.00	26.179
648.33	24.587
648.66	23.030
648.98	25.787
649.31	23.019
649.64	24.365
649.96	24.739
650.29	22.275
650.62	23.463
650.94	26.256
651.27	26.689
651.60	24.792
651.92	25.719
652.25	22.801
652.58	26.168
652.90	24.645
653.23	22.804
653.56	25.197
653.88	23.772
654.21	25.276
654.54	24.752
654.86	25.545
655.19	21.757
655.52	16.975
655.84	14.636
656.17	17.933
656.49	23.818
656.82	23.867
657.15	17.783
657.47	13.162
657.80	10.255
658.13	10.994
658.45	16.033
658.78	16.451
659.10	17.098
659.43	17.733
659.75	19.071
660.08	20.949
660.41	22.905
660.73	24.015
661.06	26.592
661.38	25.818
661.71	27.115
662.03	29.980
662.36	22.266
662.68	28.112
663.01	27.475
663.33	25.478
663.66	27.941
663.98	28.294
664.31	26.471
664.63	25.304
664.96	26.358
665.28	29.508
665.61	26.706
665.93	23.944
666.26	28.803
666.58	27.615
666.91	27.061
667.23	29.213
667.56	25.486
667.88	28.205
668.21	25.800
668.53	26.247
668.86	27.922
669.18	27.932
669.50	27.609
669.83	29.194
670.15	27.111
670.48	26.797
670.80	27.802
671.13	28.662
671.45	25.106
671.77	28.717
672.10	26.617
672.42	25.265
672.75	23.051
673.07	24.296
673.39	25.678
673.72	22.070
674.04	25.686
674.37	25.243
674.69	25.153
675.01	24.268
675.34	27.310
675.66	29.263
675.98	26.477
676.31	27.731
676.63	26.539
676.95	25.996
677.28	28.505
677.60	23.956
677.92	27.637
678.25	25.873
678.57	27.689
678.89	27.054
679.22	25.147
679.54	25.382
679.86	26.789
680.18	24.508
680.51	26.773
680.83	26.157
681.15	26.038
681.48	26.843
681.80	25.338
682.12	24.330
682.44	23.404
682.77	26.477
683.09	28.541
683.41	26.829
683.73	28.256
684.06	27.273
684.38	25.245
684.70	26.357
685.02	26.454
685.34	22.527
685.67	22.552
685.99	25.086
686.31	25.256
686.63	22.438
686.96	24.643
687.28	23.466
687.60	24.094
687.92	26.508
688.24	24.335
688.56	27.711
688.89	26.763
689.21	28.384
689.53	26.514
689.85	27.273
690.17	24.431
690.49	26.115
690.82	26.636
691.14	24.554
691.46	25.738
691.78	28.514
692.10	25.826
692.42	24.750
692.74	25.726
693.06	25.319
693.39	28.953
693.71	25.328
694.03	26.316
694.35	25.325
694.67	26.087
694.99	30.488
695.31	24.755
695.63	28.230
695.95	27.139
696.27	26.650
696.59	24.611
696.91	28.497
697.23	24.413
697.56	26.652
697.88	24.335
698.20	26.250
698.52	26.022
698.84	29.399
699.16	24.424
699.48	26.841
699.80	28.502
700.12	34.286
700.44	28.912
700.76	28.453
701.08	27.874
701.40	28.771
701.72	30.904
702.04	33.523
702.36	29.178
702.68	29.745
703.00	29.086
703.32	30.585
703.64	30.027
703.96	30.919
704.28	25.872
704.60	29.619
704.91	29.080
705.23	31.378
705.55	33.555
705.87	35.880
706.19	29.682
706.51	29.595
706.83	32.727
707.15	30.812
707.47	26.515
707.79	29.484
708.11	24.429
708.43	27.381
708.74	26.276
709.06	27.532
709.38	26.772
709.70	30.523
710.02	29.377
710.34	29.091
710.66	30.746
710.98	27.841
711.29	31.395
711.61	31.858
711.93	29.808
712.25	30.868
712.57	34.926
712.89	30.450
713.20	28.571
713.52	30.921
713.84	31.646
714.16	31.402
714.48	30.460
714.80	32.523
715.11	30.259
715.43	26.409
715.75	29.275
716.07	29.073
716.39	31.975
716.70	31.229
717.02	33.094
717.34	30.742
717.66	34.701
717.97	39.442
718.29	32.593
718.61	30.657
718.93	34.559
719.24	33.218
719.56	30.847
719.88	30.169
720.20	32.770
720.51	33.798
720.83	33.086
721.15	27.985
721.46	34.752
721.78	31.183
722.10	32.830
722.42	32.331
722.73	32.584
723.05	34.016
723.37	34.008
723.68	33.977
724.00	34.146
724.32	32.661
724.63	36.179
724.95	30.126
725.27	37.652
725.58	33.594
725.90	34.307
726.22	30.189
726.53	32.292
726.85	29.010
727.16	32.384
727.48	30.851
727.80	32.955
728.11	31.522
728.43	29.231
728.74	31.183
729.06	35.036
729.38	36.397
729.69	34.875
730.01	28.669
730.32	35.069
730.64	34.114
730.96	29.373
731.27	31.788
731.59	29.969
731.90	31.195
732.22	30.745
732.53	25.077
732.85	26.603
733.16	29.260
733.48	30.565
733.80	30.519
734.11	30.892
734.43	31.953
734.74	30.000
735.06	27.507
735.37	31.214
735.69	28.662
736.00	27.778
736.32	31.776
736.63	28.435
736.95	31.310
737.26	26.871
737.58	29.032
737.89	31.773
738.21	30.034
738.52	30.714
738.83	30.189
739.15	30.385
739.46	29.927
739.78	31.597
740.09	29.846
740.41	33.548
740.72	31.359
741.04	34.815
741.35	35.000
741.66	40.444
741.98	32.075
742.29	38.278
742.61	37.931
742.92	35.294
743.23	35.043
743.55	36.400
743.86	33.333
744.18	35.841
744.49	37.321
744.80	38.967
745.12	36.364
745.43	33.921
745.74	39.189
746.06	37.615
746.37	34.081
746.68	29.864
747.00	37.500
747.31	34.286
747.62	35.398
747.94	33.480
748.25	33.617
748.56	36.564
748.88	30.693
749.19	34.000
749.50	35.814
749.82	30.081
750.13	30.612
750.44	32.117
750.75	31.228
751.07	33.762
751.38	27.875
751.69	34.657
752.01	28.947
752.32	32.491
752.63	33.688
752.94	31.148
753.26	40.000
753.57	31.301
753.88	33.594
754.19	30.357
754.51	34.028
754.82	28.520
755.13	32.453
755.44	30.451
755.75	28.467
756.07	32.270
756.38	30.292
756.69	32.550
757.00	28.144
757.31	26.706
757.63	26.316
757.94	27.346
758.25	26.225
758.56	25.185
758.87	25.000
759.18	32.121
759.50	30.408
759.81	29.907
760.12	27.812
760.43	28.653
760.74	26.902
761.05	30.226
761.36	25.668
761.67	30.398
761.99	27.019
762.30	31.250
762.61	38.168
762.92	34.766
763.23	35.714
763.54	37.200
763.85	29.687
764.16	33.077
764.47	31.179
764.78	30.035
765.10	24.367
765.41	26.549
765.72	29.341
766.03	26.646
766.34	29.333
766.65	35.319
766.96	32.051
767.27	38.071
767.58	39.062
767.89	40.000
768.20	39.655
768.51	38.579
768.82	33.028
769.13	38.618
769.44	32.794
769.75	37.339
770.06	30.275
770.37	36.199
770.68	34.259
770.99	36.889
771.30	22.131
771.61	35.874
771.92	32.787
772.23	40.336
772.54	36.410
772.85	38.743
773.16	39.894
773.47	36.957
773.78	40.102
774.09	37.500
774.39	40.351
774.70	40.741
775.01	42.754
775.32	56.863
775.63	42.763
775.94	46.043
776.25	50.394
776.56	50.000
776.87	37.705
777.18	43.750
777.48	54.962
777.79	43.182
778.10	45.926
778.41	58.929
778.72	39.416
779.03	42.282
779.34	42.282
779.65	38.514
779.95	42.331
780.26	51.634
780.57	43.448
780.88	48.438
781.19	40.602
781.50	46.622
781.80	38.994
782.11	37.288
782.42	40.506
782.73	36.810
783.04	37.838
783.34	44.366
783.65	53.425
783.96	47.015
784.27	40.559
784.57	33.813
784.88	45.370
785.19	58.730
785.50	56.604
785.81	51.493
786.11	54.918
786.42	51.163
786.73	45.133
787.04	54.717
787.34	52.679
787.65	66.000
787.96	56.757
788.26	43.802
788.57	45.763
788.88	57.025
789.19	51.389
789.49	46.212
789.80	50.382
790.11	63.810
790.41	61.386
790.72	51.807
791.03	65.217
791.33	53.488
791.64	61.856
791.95	51.485
792.25	58.889
792.56	79.221
792.87	75.641
793.17	59.494
793.48	62.069
793.79	64.368
794.09	48.864
794.40	41.176
794.70	44.853
795.01	45.926
795.32	44.604
795.62	46.457
795.93	49.138
796.23	52.212
796.54	55.294
796.85	71.622
797.15	70.423
797.46	72.727
797.76	73.494
798.07	60.759
798.37	58.462
798.68	74.242
798.99	54.930
799.29	66.234
799.60	71.591
799.90	68.493
800.21	76.119
800.51	84.483
800.82	85.965
801.12	72.131
801.43	69.697
801.73	71.622
802.04	77.778
802.34	62.963
802.65	84.375
802.95	89.831
803.26	92.188
803.56	52.857
803.87	60.000
804.17	75.000
804.48	103.704
804.78	74.138
805.09	97.059
805.39	86.538
805.70	66.071
806.00	93.443
806.30	62.121
806.61	74.390
806.91	58.228
807.22	69.737
807.52	59.701
807.83	70.423
808.13	62.500
808.43	65.000
808.74	61.842
809.04	69.565
809.35	68.657
809.65	78.947
809.95	91.935
810.26	79.661
810.56	73.016
810.86	125.000
811.17	107.143
811.47	91.667
811.77	87.037
812.08	103.636
812.38	106.000
812.69	133.333
812.99	111.364
813.29	112.245
813.59	102.381
813.90	89.796
814.20	92.727
814.50	69.231
814.81	75.000
815.11	110.204
815.41	96.721
815.72	138.095
816.02	80.000
816.32	97.619
816.62	92.500
816.93	109.756
817.23	119.048
817.53	95.455
817.84	142.424
818.14	106.522
818.44	111.111
818.74	114.706
819.04	122.500
819.35	137.143
819.65	138.235
819.95	164.286
820.25	140.000
820.56	143.590
820.86	113.636
821.16	123.256
821.46	128.205
821.76	124.000
822.07	125.714
822.37	120.000
822.67	139.394
822.97	100.000
823.27	146.429
823.57	110.811
823.88	135.000
824.18	166.667
824.48	130.952
824.78	172.000
825.08	133.333
825.38	132.432
825.69	114.634
825.99	216.667
826.29	120.690
826.59	157.895
826.89	110.526
827.19	123.529
827.49	132.258
827.79	95.455
828.09	109.091
828.39	93.617
828.70	106.122
829.00	129.630
829.30	116.129
829.60	97.500
829.90	220.000
830.20	135.714
830.50	156.522
830.80	165.217
831.10	160.000
831.40	160.000
831.70	134.783
832.00	157.692
832.30	170.370
832.60	193.750
832.90	163.333
833.20	350.000
833.50	132.258
833.80	155.172
834.10	206.250
834.40	176.923
834.70	194.444
835.00	242.857
835.30	134.286
835.60	292.308
835.90	168.966
836.20	307.143
836.50	172.414
836.80	164.000
837.10	155.556
837.40	200.000
837.70	247.059
838.00	148.148
838.30	138.095
838.60	271.429
838.90	203.846
839.19	200.000
839.49	314.286
839.79	235.000
840.09	235.000
840.39	204.762
840.69	213.043
840.99	227.778
841.29	330.000
841.59	291.667
841.88	306.250
842.18	158.621
842.48	185.714
842.78	156.667
843.08	204.348
843.38	168.750
843.68	633.333
843.97	146.154
844.27	162.069
844.57	261.905
844.87	306.250
845.17	185.185
845.47	1100.000
845.76	344.444
846.06	223.529
846.36	512.500
846.66	271.429
846.96	218.750
847.25	345.455
847.55	327.273
847.85	226.087
848.15	380.000
848.44	300.000
848.74	233.333
849.04	270.588
849.34	450.000
849.63	189.474
849.93	318.182
850.23	820.000
850.53	364.286
850.82	1600.000
851.12	-3000.000
851.42	2800.000
851.71	295.000
852.01	-966.667
852.31	191.667
852.61	866.667
852.90	190.476
853.20	180.000
853.50	258.824
853.79	233.333
854.09	162.500
854.39	231.250
854.68	143.243
854.98	174.194
855.28	136.667
855.57	151.724
855.87	166.667
856.17	226.316
856.46	246.667
856.76	235.294
857.05	162.069
857.35	133.333
857.65	260.000
857.94	178.261
858.24	173.077
858.53	225.000
858.83	222.727
859.13	260.000
859.42	0.000
859.72	411.111
860.01	436.364
860.31	195.455
860.60	215.789
860.90	139.130
861.20	400.000
861.49	375.000
861.79	-4000.000
862.08	475.000
862.38	209.524
862.67	276.923
862.97	264.706
863.26	444.444
863.56	194.444
863.85	300.000
864.15	387.500
864.44	333.333
864.74	683.333
865.03	500.000
865.33	242.105
865.62	254.545
865.92	300.000
866.21	358.333
866.51	0.000
866.80	345.455
867.10	1000.000
867.39	307.692
867.69	318.182
867.98	205.263
868.27	372.727
868.57	294.737
868.86	-3900.000
869.16	231.250
869.45	1700.000
869.75	-3700.000
870.04	341.667
870.33	514.286
870.63	700.000
870.92	1750.000
871.22	528.571
871.51	294.118
871.80	104.762
872.10	300.000
>>>>>End Processed Spectral Data<<<<<
