SpectraSuite Data File
++++++++++++++++++++++++++++++++++++
Date: Wed May 13 16:30:30 PDT 2015
User: schluterlab
Dark Spectrum Present: Yes
Reference Spectrum Present: Yes
Number of Sampled Component Spectra: 1
Spectrometers: USB2E3373
Integration Time (usec): 3000 (USB2E3373)
Spectra Averaged: 3 (USB2E3373)
Boxcar Smoothing: 0 (USB2E3373)
Correct for Electrical Dark: No (USB2E3373)
Strobe/Lamp Enabled: No (USB2E3373)
Correct for Detector Non-linearity: No (USB2E3373)
Correct for Stray Light: No (USB2E3373)
Number of Pixels in Processed Spectrum: 2048
>>>>>Begin Processed Spectral Data<<<<<
178.53	0.000
178.91	-1375.000
179.29	-1250.000
179.67	-188.889
180.04	-1000.000
180.42	2150.000
180.80	860.000
181.18	-900.000
181.56	614.286
181.94	0.000
182.31	-557.143
182.69	1733.333
183.07	-625.000
183.45	-566.667
183.83	509.091
184.20	-440.000
184.58	2300.000
184.96	4600.000
185.34	-940.000
185.72	-550.000
186.09	-1800.000
186.47	2400.000
186.85	2350.000
187.23	3100.000
187.61	-1600.000
187.98	1175.000
188.36	490.909
188.74	481.818
189.12	-660.000
189.49	530.000
189.87	-4400.000
190.25	-1225.000
190.63	428.571
191.00	423.077
191.38	716.667
191.76	-1225.000
192.14	1250.000
192.51	562.500
192.89	800.000
193.27	525.000
193.65	-975.000
194.02	490.000
194.40	740.000
194.78	560.000
195.15	466.667
195.53	520.000
195.91	-2250.000
196.29	300.000
196.66	326.316
197.04	-260.000
197.42	0.000
197.79	570.000
198.17	-4800.000
198.55	628.571
198.92	600.000
199.30	720.000
199.68	0.000
200.05	311.111
200.43	657.143
200.81	4200.000
201.18	1300.000
201.56	-1300.000
201.94	566.667
202.31	533.333
202.69	450.000
203.07	490.000
203.44	0.000
203.82	1225.000
204.19	685.714
204.57	421.429
204.95	525.000
205.32	1433.333
205.70	518.182
206.08	385.714
206.45	2050.000
206.83	306.250
207.20	766.667
207.58	680.000
207.96	305.556
208.33	650.000
208.71	-783.333
209.08	628.571
209.46	466.667
209.84	554.545
210.21	-1666.667
210.59	1150.000
210.96	-475.000
211.34	2450.000
211.71	450.000
212.09	766.667
212.46	0.000
212.84	1366.667
213.22	1225.000
213.59	-4000.000
213.97	816.667
214.34	728.571
214.72	445.455
215.09	960.000
215.47	-2100.000
215.84	-2300.000
216.22	1766.667
216.59	414.286
216.97	1000.000
217.34	372.727
217.72	-583.333
218.09	0.000
218.47	-4300.000
218.84	566.667
219.22	628.571
219.59	1233.333
219.97	-571.429
220.34	920.000
220.72	-1633.333
221.09	428.571
221.47	1150.000
221.84	-800.000
222.22	0.000
222.59	1250.000
222.97	-2400.000
223.34	1200.000
223.72	369.231
224.09	940.000
224.46	2350.000
224.84	-4500.000
225.21	-860.000
225.59	-5700.000
225.96	540.000
226.34	270.000
226.71	2000.000
227.08	575.000
227.46	580.000
227.83	-1200.000
228.21	-2300.000
228.58	488.889
228.95	-1850.000
229.33	-1950.000
229.70	1533.333
230.08	771.429
230.45	-860.000
230.82	416.667
231.20	816.667
231.57	757.143
231.95	508.333
232.32	181.818
232.69	390.909
233.07	585.714
233.44	323.077
233.81	-1466.667
234.19	273.684
234.56	391.667
234.93	391.667
235.31	445.455
235.68	300.000
236.05	307.143
236.43	200.000
236.80	242.105
237.17	4900.000
237.55	266.667
237.92	200.000
238.29	271.429
238.67	183.871
239.04	255.172
239.41	163.889
239.79	139.130
240.16	164.286
240.53	150.000
240.91	139.216
241.28	130.000
241.65	130.000
242.02	114.493
242.40	135.484
242.77	108.333
243.14	90.323
243.51	112.360
243.89	92.941
244.26	86.667
244.63	87.097
245.00	95.745
245.38	95.050
245.75	85.981
246.12	87.156
246.49	87.591
246.87	86.400
247.24	88.462
247.61	82.857
247.98	73.203
248.36	73.649
248.73	80.892
249.10	81.529
249.47	76.836
249.84	73.797
250.22	73.262
250.59	72.189
250.96	69.192
251.33	69.194
251.70	71.287
252.08	66.667
252.45	63.229
252.82	65.652
253.19	67.660
253.56	65.490
253.94	68.880
254.31	63.281
254.68	63.462
255.05	65.683
255.42	67.886
255.79	64.338
256.16	66.426
256.54	63.958
256.91	67.260
257.28	58.273
257.65	64.686
258.02	62.422
258.39	60.252
258.76	60.870
259.14	60.417
259.51	59.878
259.88	55.901
260.25	62.236
260.62	56.069
260.99	58.696
261.36	59.159
261.73	59.885
262.10	56.977
262.47	58.310
262.85	55.989
263.22	58.405
263.59	60.399
263.96	57.418
264.33	55.875
264.70	57.105
265.07	57.801
265.44	55.808
265.81	51.825
266.18	60.804
266.55	56.585
266.92	56.265
267.29	55.324
267.66	54.358
268.03	54.773
268.40	53.505
268.77	55.370
269.14	52.928
269.51	56.208
269.88	55.478
270.25	53.047
270.62	53.483
270.99	55.699
271.36	53.433
271.73	58.411
272.10	52.609
272.47	54.194
272.84	51.732
273.21	52.830
273.58	53.275
273.95	49.895
274.32	51.446
274.69	52.248
275.06	49.409
275.43	54.894
275.80	50.100
276.17	51.935
276.54	53.846
276.91	50.791
277.28	49.805
277.65	51.064
278.02	53.209
278.39	54.883
278.76	47.636
279.13	52.830
279.50	51.769
279.87	52.590
280.23	52.295
280.60	50.870
280.97	48.614
281.34	51.150
281.71	50.545
282.08	52.591
282.45	51.636
282.82	51.332
283.19	48.663
283.56	48.070
283.92	51.100
284.29	46.914
284.66	49.909
285.03	47.378
285.40	49.472
285.77	49.832
286.14	47.496
286.51	51.000
286.87	49.915
287.24	47.394
287.61	48.154
287.98	46.916
288.35	47.227
288.72	43.614
289.08	45.853
289.45	43.987
289.82	47.317
290.19	45.055
290.56	44.410
290.93	45.619
291.29	43.252
291.66	41.003
292.03	43.169
292.40	43.906
292.77	42.308
293.13	40.746
293.50	42.711
293.87	41.926
294.24	39.556
294.60	40.466
294.97	41.570
295.34	42.031
295.71	40.483
296.08	38.177
296.44	38.514
296.81	38.970
297.18	38.618
297.55	36.675
297.91	35.620
298.28	38.554
298.65	37.859
299.02	40.053
299.38	37.716
299.75	37.062
300.12	38.314
300.48	36.750
300.85	35.635
301.22	37.834
301.59	34.470
301.95	38.413
302.32	38.126
302.69	37.395
303.05	36.485
303.42	36.420
303.79	35.447
304.15	34.266
304.52	36.037
304.89	34.727
305.25	33.991
305.62	35.221
305.99	36.482
306.35	36.130
306.72	34.641
307.09	34.961
307.45	34.459
307.82	33.036
308.19	35.762
308.55	34.628
308.92	35.231
309.29	33.685
309.65	33.086
310.02	32.452
310.38	34.731
310.75	35.692
311.12	33.367
311.48	33.020
311.85	34.172
312.22	34.443
312.58	33.160
312.95	34.108
313.31	32.718
313.68	34.823
314.05	36.095
314.41	34.874
314.78	33.132
315.14	33.764
315.51	33.368
315.87	33.663
316.24	33.962
316.61	32.456
316.97	33.366
317.34	33.366
317.70	33.461
318.07	34.167
318.43	34.344
318.80	33.646
319.16	32.768
319.53	32.552
319.89	33.619
320.26	33.900
320.62	32.440
320.99	33.232
321.35	33.030
321.72	32.854
322.08	33.761
322.45	35.721
322.81	34.787
323.18	35.645
323.54	33.210
323.91	33.491
324.27	32.218
324.64	32.526
325.00	31.921
325.37	34.031
325.73	33.932
326.10	32.039
326.46	31.631
326.83	33.132
327.19	32.195
327.56	32.143
327.92	33.246
328.29	33.363
328.65	32.873
329.01	33.664
329.38	33.395
329.74	32.225
330.11	32.988
330.47	32.782
330.84	32.353
331.20	32.605
331.56	32.752
331.93	31.944
332.29	31.411
332.66	32.566
333.02	31.536
333.38	30.714
333.75	31.818
334.11	33.007
334.48	30.701
334.84	31.893
335.20	31.182
335.57	31.822
335.93	30.804
336.29	29.670
336.66	32.281
337.02	30.950
337.38	31.111
337.75	31.194
338.11	32.050
338.47	30.571
338.84	30.247
339.20	31.284
339.56	31.934
339.93	30.636
340.29	30.254
340.65	31.373
341.02	31.501
341.38	30.872
341.74	29.386
342.11	30.742
342.47	30.220
342.83	31.764
343.20	31.082
343.56	30.160
343.92	29.825
344.28	30.527
344.65	30.267
345.01	28.872
345.37	28.216
345.73	29.526
346.10	29.668
346.46	29.746
346.82	29.242
347.19	30.493
347.55	29.885
347.91	30.421
348.27	30.649
348.63	31.104
349.00	29.045
349.36	28.982
349.72	28.789
350.08	27.958
350.45	29.536
350.81	28.838
351.17	29.660
351.53	28.010
351.89	28.465
352.26	29.045
352.62	29.431
352.98	28.363
353.34	28.595
353.70	27.660
354.07	28.387
354.43	28.413
354.79	27.595
355.15	28.571
355.51	29.976
355.87	28.735
356.24	28.583
356.60	27.586
356.96	28.721
357.32	28.700
357.68	29.213
358.04	27.870
358.40	28.266
358.77	28.638
359.13	27.072
359.49	29.569
359.85	26.508
360.21	28.628
360.57	28.327
360.93	28.154
361.29	28.193
361.66	27.554
362.02	27.612
362.38	28.213
362.74	26.190
363.10	26.795
363.46	27.073
363.82	27.891
364.18	27.313
364.54	28.380
364.90	28.187
365.26	27.647
365.62	27.684
365.98	27.465
366.35	26.433
366.71	27.043
367.07	26.584
367.43	27.721
367.79	27.052
368.15	28.017
368.51	27.398
368.87	28.123
369.23	26.774
369.59	28.675
369.95	27.279
370.31	27.208
370.67	26.739
371.03	27.940
371.39	27.405
371.75	27.426
372.11	27.169
372.47	27.199
372.83	27.233
373.19	26.734
373.55	27.273
373.91	27.467
374.27	27.285
374.63	26.691
374.99	27.754
375.35	26.448
375.71	27.073
376.07	26.749
376.42	26.891
376.78	27.237
377.14	26.730
377.50	26.556
377.86	25.997
378.22	26.928
378.58	26.128
378.94	25.959
379.30	26.781
379.66	26.904
380.02	26.904
380.38	26.351
380.74	27.371
381.09	27.812
381.45	27.351
381.81	26.597
382.17	27.580
382.53	25.975
382.89	26.173
383.25	26.642
383.61	26.704
383.97	27.079
384.32	27.948
384.68	26.270
385.04	26.306
385.40	26.378
385.76	26.843
386.12	26.360
386.48	26.809
386.83	26.491
387.19	28.262
387.55	27.273
387.91	26.784
388.27	26.426
388.62	28.089
388.98	26.474
389.34	27.910
389.70	26.916
390.06	27.440
390.42	27.367
390.77	26.845
391.13	27.824
391.49	27.284
391.85	27.180
392.20	26.372
392.56	26.705
392.92	27.310
393.28	26.154
393.64	26.859
393.99	26.512
394.35	27.109
394.71	25.910
395.07	26.604
395.42	26.761
395.78	27.036
396.14	26.319
396.50	26.566
396.85	27.400
397.21	25.832
397.57	25.914
397.92	26.983
398.28	25.673
398.64	26.643
399.00	26.637
399.35	25.776
399.71	26.563
400.07	26.730
400.42	26.933
400.78	27.744
401.14	25.244
401.49	26.687
401.85	25.771
402.21	26.467
402.57	25.416
402.92	26.293
403.28	26.983
403.63	25.681
403.99	26.369
404.35	26.303
404.70	26.319
405.06	25.743
405.42	26.762
405.77	26.057
406.13	25.903
406.49	26.257
406.84	26.403
407.20	25.887
407.55	25.526
407.91	26.667
408.27	25.654
408.62	27.032
408.98	26.287
409.34	25.892
409.69	26.516
410.05	24.845
410.40	25.627
410.76	25.747
411.11	25.754
411.47	26.326
411.83	26.329
412.18	25.665
412.54	26.463
412.89	26.265
413.25	25.915
413.60	26.436
413.96	24.954
414.31	25.699
414.67	26.426
415.03	26.026
415.38	25.966
415.74	26.109
416.09	26.649
416.45	26.774
416.80	25.050
417.16	26.206
417.51	25.946
417.87	26.204
418.22	25.994
418.58	26.081
418.93	25.491
419.29	25.525
419.64	25.252
420.00	25.854
420.35	25.739
420.71	26.659
421.06	25.955
421.42	25.263
421.77	25.897
422.12	24.649
422.48	24.501
422.83	26.150
423.19	25.967
423.54	25.711
423.90	25.217
424.25	25.628
424.61	24.643
424.96	25.481
425.31	25.360
425.67	24.213
426.02	25.943
426.38	25.885
426.73	25.395
427.09	25.532
427.44	25.992
427.79	25.359
428.15	25.774
428.50	25.219
428.85	25.626
429.21	24.959
429.56	24.883
429.92	25.315
430.27	24.826
430.62	25.192
430.98	25.221
431.33	24.433
431.68	24.921
432.04	25.559
432.39	25.642
432.74	25.913
433.10	25.410
433.45	25.598
433.80	25.942
434.16	26.015
434.51	24.895
434.86	24.743
435.22	25.514
435.57	25.350
435.92	25.044
436.28	26.394
436.63	26.325
436.98	25.014
437.34	25.581
437.69	25.729
438.04	25.632
438.39	25.791
438.75	25.392
439.10	25.028
439.45	25.030
439.81	26.224
440.16	24.732
440.51	25.190
440.86	25.709
441.22	24.750
441.57	24.894
441.92	25.486
442.27	25.565
442.63	25.171
442.98	26.085
443.33	25.435
443.68	25.194
444.03	25.476
444.39	24.343
444.74	25.487
445.09	24.582
445.44	24.604
445.79	24.839
446.15	25.516
446.50	25.525
446.85	26.002
447.20	24.987
447.55	25.851
447.91	25.041
448.26	25.376
448.61	25.551
448.96	25.748
449.31	25.253
449.66	24.930
450.02	25.292
450.37	26.077
450.72	25.550
451.07	24.924
451.42	24.742
451.77	24.662
452.12	25.231
452.47	25.062
452.83	25.583
453.18	24.756
453.53	26.036
453.88	24.631
454.23	25.702
454.58	25.681
454.93	25.429
455.28	25.062
455.63	25.667
455.98	26.667
456.34	24.435
456.69	25.235
457.04	25.759
457.39	24.781
457.74	25.015
458.09	25.014
458.44	24.344
458.79	23.970
459.14	24.436
459.49	25.044
459.84	24.986
460.19	25.103
460.54	24.653
460.89	24.739
461.24	24.894
461.59	26.380
461.94	24.969
462.29	25.104
462.64	25.463
462.99	24.138
463.34	26.133
463.69	26.266
464.04	25.043
464.39	25.449
464.74	24.837
465.09	24.367
465.44	23.989
465.79	24.273
466.14	24.028
466.49	24.750
466.84	25.102
467.19	24.562
467.54	25.688
467.89	24.370
468.24	24.607
468.59	25.519
468.94	24.252
469.29	25.193
469.64	26.707
469.99	25.372
470.34	25.627
470.68	24.641
471.03	24.694
471.38	25.226
471.73	24.584
472.08	25.132
472.43	23.869
472.78	24.951
473.13	25.225
473.48	24.220
473.83	24.878
474.17	23.771
474.52	24.132
474.87	24.810
475.22	24.550
475.57	23.697
475.92	23.208
476.27	23.393
476.61	23.331
476.96	24.629
477.31	23.286
477.66	24.672
478.01	23.366
478.36	23.691
478.70	23.676
479.05	23.589
479.40	23.439
479.75	23.437
480.10	23.260
480.45	23.893
480.79	23.602
481.14	24.413
481.49	24.158
481.84	23.228
482.19	24.398
482.53	24.083
482.88	23.779
483.23	23.645
483.58	24.522
483.92	24.321
484.27	23.529
484.62	23.578
484.97	23.138
485.31	24.178
485.66	23.156
486.01	22.200
486.36	21.882
486.70	21.669
487.05	22.643
487.40	23.110
487.75	23.138
488.09	23.931
488.44	24.450
488.79	24.448
489.13	24.790
489.48	24.062
489.83	22.572
490.17	23.367
490.52	23.605
490.87	23.247
491.22	23.192
491.56	22.597
491.91	23.220
492.26	23.243
492.60	22.120
492.95	22.778
493.30	22.710
493.64	23.425
493.99	23.166
494.34	23.451
494.68	23.535
495.03	23.402
495.37	23.034
495.72	22.953
496.07	23.805
496.41	22.212
496.76	23.351
497.11	22.422
497.45	22.823
497.80	23.464
498.14	22.560
498.49	23.366
498.84	23.490
499.18	22.905
499.53	23.647
499.87	23.299
500.22	22.892
500.56	23.592
500.91	22.452
501.26	22.949
501.60	24.015
501.95	22.456
502.29	23.336
502.64	23.231
502.98	22.534
503.33	22.852
503.67	23.109
504.02	23.386
504.36	23.210
504.71	23.254
505.06	23.807
505.40	23.384
505.75	22.565
506.09	22.157
506.44	22.348
506.78	22.845
507.13	23.725
507.47	23.283
507.82	23.151
508.16	23.151
508.51	23.085
508.85	23.237
509.19	23.061
509.54	23.112
509.88	23.184
510.23	23.033
510.57	23.839
510.92	23.874
511.26	23.022
511.61	22.510
511.95	22.860
512.30	22.375
512.64	23.106
512.98	22.883
513.33	23.501
513.67	22.305
514.02	22.403
514.36	22.829
514.70	23.243
515.05	22.532
515.39	23.275
515.74	22.973
516.08	23.812
516.42	23.474
516.77	23.300
517.11	23.030
517.46	22.630
517.80	22.648
518.14	21.482
518.49	23.337
518.83	22.955
519.17	23.326
519.52	23.033
519.86	22.932
520.20	23.468
520.55	23.399
520.89	22.749
521.23	23.040
521.58	22.929
521.92	22.719
522.26	23.307
522.61	22.741
522.95	23.573
523.29	22.946
523.64	21.829
523.98	22.612
524.32	22.256
524.66	23.933
525.01	22.549
525.35	22.986
525.69	21.860
526.04	22.679
526.38	23.063
526.72	22.638
527.06	23.540
527.41	22.030
527.75	23.087
528.09	23.057
528.43	22.562
528.78	22.864
529.12	22.000
529.46	23.086
529.80	22.092
530.15	23.053
530.49	23.138
530.83	23.544
531.17	23.890
531.51	23.800
531.86	22.581
532.20	23.859
532.54	23.126
532.88	22.914
533.22	22.361
533.57	23.025
533.91	23.058
534.25	23.086
534.59	22.453
534.93	22.665
535.27	22.692
535.62	23.077
535.96	23.164
536.30	22.505
536.64	22.988
536.98	23.557
537.32	22.976
537.66	23.000
538.01	22.844
538.35	23.142
538.69	23.867
539.03	22.612
539.37	22.364
539.71	21.776
540.05	22.810
540.39	22.990
540.73	22.639
541.07	22.972
541.42	23.288
541.76	23.290
542.10	23.157
542.44	23.113
542.78	23.386
543.12	22.457
543.46	23.410
543.80	23.943
544.14	22.144
544.48	22.349
544.82	21.681
545.16	23.357
545.50	22.494
545.84	22.581
546.18	23.704
546.52	23.056
546.86	23.230
547.20	22.994
547.54	22.578
547.88	23.788
548.22	22.914
548.56	23.208
548.90	22.663
549.24	23.434
549.58	23.261
549.92	22.871
550.26	23.082
550.60	23.098
550.94	22.606
551.28	22.531
551.62	23.580
551.96	22.526
552.30	23.208
552.64	23.056
552.98	23.525
553.32	23.129
553.66	23.449
554.00	23.267
554.34	23.050
554.68	24.106
555.02	22.920
555.36	22.617
555.69	23.004
556.03	22.409
556.37	23.261
556.71	22.374
557.05	22.269
557.39	22.673
557.73	23.077
558.07	23.205
558.41	22.865
558.75	23.292
559.08	24.385
559.42	24.187
559.76	23.382
560.10	21.842
560.44	23.131
560.78	23.087
561.12	23.087
561.45	22.816
561.79	23.204
562.13	23.407
562.47	23.634
562.81	22.594
563.15	22.274
563.48	22.613
563.82	23.222
564.16	23.152
564.50	22.721
564.84	23.325
565.17	22.651
565.51	23.387
565.85	22.145
566.19	22.918
566.52	22.736
566.86	22.725
567.20	23.644
567.54	23.002
567.88	21.401
568.21	22.593
568.55	23.256
568.89	22.811
569.23	22.816
569.56	22.348
569.90	22.566
570.24	22.354
570.57	22.271
570.91	22.172
571.25	22.205
571.59	22.739
571.92	21.688
572.26	22.646
572.60	22.432
572.93	22.129
573.27	22.538
573.61	22.166
573.95	22.765
574.28	22.111
574.62	22.230
574.96	21.529
575.29	21.872
575.63	21.799
575.97	22.026
576.30	22.464
576.64	22.214
576.98	22.606
577.31	22.435
577.65	22.041
577.98	22.396
578.32	22.379
578.66	22.411
578.99	21.981
579.33	22.585
579.67	22.282
580.00	22.465
580.34	22.686
580.67	22.571
581.01	23.274
581.35	22.234
581.68	22.410
582.02	22.389
582.35	22.260
582.69	22.210
583.02	22.369
583.36	22.988
583.70	23.127
584.03	23.380
584.37	23.742
584.70	23.328
585.04	23.312
585.37	22.600
585.71	22.650
586.04	23.194
586.38	23.328
586.72	23.226
587.05	22.820
587.39	22.902
587.72	22.881
588.06	22.572
588.39	22.743
588.73	22.822
589.06	23.029
589.40	23.333
589.73	23.689
590.07	23.416
590.40	23.420
590.73	24.239
591.07	23.728
591.40	23.703
591.74	23.853
592.07	23.778
592.41	22.406
592.74	22.360
593.08	22.385
593.41	22.050
593.75	21.768
594.08	22.595
594.41	22.623
594.75	22.255
595.08	23.085
595.42	23.117
595.75	23.006
596.09	23.507
596.42	23.733
596.75	23.132
597.09	24.199
597.42	22.639
597.75	23.372
598.09	23.783
598.42	23.368
598.76	22.659
599.09	22.425
599.42	22.271
599.76	22.182
600.09	22.951
600.42	21.987
600.76	22.536
601.09	22.769
601.42	22.603
601.76	22.732
602.09	22.688
602.42	22.771
602.76	23.902
603.09	22.817
603.42	23.311
603.76	22.485
604.09	22.451
604.42	22.258
604.76	23.619
605.09	23.591
605.42	22.745
605.75	22.641
606.09	22.977
606.42	22.436
606.75	22.937
607.09	22.729
607.42	22.294
607.75	22.321
608.08	22.970
608.42	23.487
608.75	22.723
609.08	23.219
609.41	23.608
609.75	23.297
610.08	22.950
610.41	22.160
610.74	22.422
611.07	23.913
611.41	23.062
611.74	23.529
612.07	23.447
612.40	23.295
612.73	22.684
613.07	23.869
613.40	23.275
613.73	21.814
614.06	22.688
614.39	22.077
614.72	22.632
615.06	23.004
615.39	22.399
615.72	22.444
616.05	22.648
616.38	22.735
616.71	23.812
617.05	22.968
617.38	23.812
617.71	24.144
618.04	23.137
618.37	21.999
618.70	23.398
619.03	24.079
619.36	22.811
619.69	24.366
620.03	24.038
620.36	23.864
620.69	23.699
621.02	23.304
621.35	23.258
621.68	22.897
622.01	23.297
622.34	23.222
622.67	23.194
623.00	22.377
623.33	21.515
623.66	22.945
623.99	22.607
624.32	23.395
624.65	23.941
624.99	22.805
625.32	22.230
625.65	23.591
625.98	23.982
626.31	24.106
626.64	24.082
626.97	22.361
627.30	23.774
627.63	24.692
627.96	23.549
628.29	23.185
628.62	24.977
628.95	24.906
629.28	23.084
629.61	23.556
629.94	23.429
630.26	23.546
630.59	23.832
630.92	23.946
631.25	22.310
631.58	22.523
631.91	23.022
632.24	23.523
632.57	23.715
632.90	24.123
633.23	24.832
633.56	23.051
633.89	24.915
634.22	24.064
634.55	25.562
634.88	23.713
635.20	22.939
635.53	24.458
635.86	23.762
636.19	22.353
636.52	23.645
636.85	23.253
637.18	23.963
637.51	24.704
637.83	21.578
638.16	23.018
638.49	24.811
638.82	23.135
639.15	23.750
639.48	24.314
639.81	25.469
640.13	23.307
640.46	24.564
640.79	24.571
641.12	22.834
641.45	24.860
641.77	23.122
642.10	24.269
642.43	24.474
642.76	23.684
643.09	24.387
643.41	24.127
643.74	25.617
644.07	23.323
644.40	24.233
644.73	25.984
645.05	25.515
645.38	25.276
645.71	23.671
646.04	27.741
646.36	27.212
646.69	25.585
647.02	25.510
647.35	24.742
647.67	25.841
648.00	25.041
648.33	24.257
648.66	24.848
648.98	26.537
649.31	23.916
649.64	25.112
649.96	26.080
650.29	25.750
650.62	23.139
650.94	24.635
651.27	27.365
651.60	24.459
651.92	25.080
652.25	22.476
652.58	24.922
652.90	24.645
653.23	24.961
653.56	23.465
653.88	26.466
654.21	24.013
654.54	25.413
654.86	25.857
655.19	23.378
655.52	19.247
655.84	18.027
656.17	23.444
656.49	32.329
656.82	34.357
657.15	26.722
657.47	20.002
657.80	15.879
658.13	16.695
658.45	26.064
658.78	26.796
659.10	28.198
659.43	29.510
659.75	31.041
660.08	32.848
660.41	32.123
660.73	33.545
661.06	27.707
661.38	27.091
661.71	29.423
662.03	28.008
662.36	23.857
662.68	26.908
663.01	25.657
663.33	29.724
663.66	25.210
663.98	26.350
664.31	25.840
664.63	22.672
664.96	24.145
665.28	25.205
665.61	25.341
665.93	24.748
666.26	26.166
666.58	26.987
666.91	27.696
667.23	28.539
667.56	24.622
667.88	26.709
668.21	29.638
668.53	26.681
668.86	27.056
669.18	27.932
669.50	27.826
669.83	28.105
670.15	27.778
670.48	24.183
670.80	28.017
671.13	25.478
671.45	24.468
671.77	27.902
672.10	24.584
672.42	24.735
672.75	26.534
673.07	25.704
673.39	26.040
673.72	29.102
674.04	25.686
674.37	24.660
674.69	25.358
675.01	26.569
675.34	27.926
675.66	28.211
675.98	25.458
676.31	25.210
676.63	24.841
676.95	27.673
677.28	26.168
677.60	27.033
677.92	28.059
678.25	26.283
678.57	28.088
678.89	22.445
679.22	28.487
679.54	27.481
679.86	26.239
680.18	27.191
680.51	26.241
680.83	26.512
681.15	25.849
681.48	26.843
681.80	23.985
682.12	25.287
682.44	24.758
682.77	29.939
683.09	31.330
683.41	27.716
683.73	28.698
684.06	29.752
684.38	26.810
684.70	26.357
685.02	25.891
685.34	26.557
685.67	27.273
685.99	26.804
686.31	25.085
686.63	25.442
686.96	24.821
687.28	24.007
687.60	24.275
687.92	26.874
688.24	26.426
688.56	28.112
688.89	29.461
689.21	28.821
689.53	27.349
689.85	28.603
690.17	26.708
690.49	25.902
690.82	27.570
691.14	26.339
691.46	26.371
691.78	27.309
692.10	29.339
692.42	28.543
692.74	27.801
693.06	24.894
693.39	29.158
693.71	28.166
694.03	27.789
694.35	28.355
694.67	26.545
694.99	29.024
695.31	27.206
695.63	26.077
695.95	28.851
696.27	28.173
696.59	26.943
696.91	28.756
697.23	25.822
697.56	26.652
697.88	23.926
698.20	26.458
698.52	28.602
698.84	26.726
699.16	26.728
699.48	27.316
699.80	25.845
700.12	31.948
700.44	32.626
700.76	32.044
701.08	31.322
701.40	29.888
701.72	33.819
702.04	30.682
702.36	28.045
702.68	28.045
703.00	28.532
703.32	30.053
703.64	30.563
703.96	28.969
704.28	31.395
704.60	29.619
704.91	30.564
705.23	31.965
705.55	33.555
705.87	31.229
706.19	31.095
706.51	32.087
706.83	33.333
707.15	30.252
707.47	26.010
707.79	30.467
708.11	27.397
708.43	28.333
708.74	26.531
709.06	31.429
709.38	29.659
709.70	29.070
710.02	29.970
710.34	29.697
710.66	29.552
710.98	26.989
711.29	31.105
711.61	32.448
711.93	31.410
712.25	32.797
712.57	33.824
712.89	31.834
713.20	30.395
713.52	30.592
713.84	30.696
714.16	32.927
714.48	29.023
714.80	34.347
715.11	31.124
715.43	30.267
715.75	30.725
716.07	30.671
716.39	31.034
716.70	33.887
717.02	33.453
717.34	31.095
717.66	32.463
717.97	33.068
718.29	29.630
718.61	33.212
718.93	33.456
719.24	32.180
719.56	29.831
719.88	30.508
720.20	28.041
720.51	36.237
720.83	41.264
721.15	28.358
721.46	31.560
721.78	34.050
722.10	32.830
722.42	36.090
722.73	34.457
723.05	33.607
723.37	31.984
723.68	35.135
724.00	31.707
724.32	35.887
724.63	32.520
724.95	32.636
725.27	35.628
725.58	35.156
725.90	38.321
726.22	32.075
726.53	32.639
726.85	33.106
727.16	30.961
727.48	35.106
727.80	37.500
728.11	31.884
728.43	35.769
728.74	30.108
729.06	34.307
729.38	37.500
729.69	35.943
730.01	31.399
730.32	28.819
730.64	32.776
730.96	31.023
731.27	37.748
731.59	32.722
731.90	30.321
732.22	32.919
732.53	32.817
732.85	29.167
733.16	31.833
733.48	34.884
733.80	30.195
734.11	29.618
734.43	32.249
734.74	31.143
735.06	30.372
735.37	37.283
735.69	33.758
736.00	33.987
736.32	31.464
736.63	30.032
736.95	34.185
737.26	27.211
737.58	31.613
737.89	34.783
738.21	33.106
738.52	38.214
738.83	38.491
739.15	36.923
739.46	36.861
739.78	32.986
740.09	30.154
740.41	34.516
740.72	29.617
741.04	34.815
741.35	35.000
741.66	36.000
741.98	36.321
742.29	34.450
742.61	38.362
742.92	31.674
743.23	35.043
743.55	34.000
743.86	35.526
744.18	44.248
744.49	41.148
744.80	41.784
745.12	42.273
745.43	37.445
745.74	43.243
746.06	35.321
746.37	34.529
746.68	36.199
747.00	38.889
747.31	39.524
747.62	34.071
747.94	38.326
748.25	38.723
748.56	36.123
748.88	37.624
749.19	40.000
749.50	39.535
749.82	32.927
750.13	31.837
750.44	34.307
750.75	32.982
751.07	34.727
751.38	33.449
751.69	32.852
752.01	33.835
752.32	31.769
752.63	32.979
752.94	34.836
753.26	38.400
753.57	33.740
753.88	34.766
754.19	34.286
754.51	34.028
754.82	31.769
755.13	38.868
755.44	32.331
755.75	30.292
756.07	30.496
756.38	29.927
756.69	31.544
757.00	29.341
757.31	31.751
757.63	29.825
757.94	28.954
758.25	28.431
758.56	28.642
758.87	29.032
759.18	33.333
759.50	31.348
759.81	28.037
760.12	27.812
760.43	31.232
760.74	29.891
761.05	32.768
761.36	27.005
761.67	36.080
761.99	29.193
762.30	34.375
762.61	37.023
762.92	40.234
763.23	31.513
763.54	36.800
763.85	35.547
764.16	40.769
764.47	33.840
764.78	28.975
765.10	33.544
765.41	30.383
765.72	33.533
766.03	30.094
766.34	34.000
766.65	35.745
766.96	38.462
767.27	39.594
767.58	37.500
767.89	45.263
768.20	40.805
768.51	34.518
768.82	34.404
769.13	35.366
769.44	36.032
769.75	38.197
770.06	33.486
770.37	39.367
770.68	37.500
770.99	33.333
771.30	31.557
771.61	40.359
771.92	36.885
772.23	39.076
772.54	43.590
772.85	41.361
773.16	44.149
773.47	46.196
773.78	38.579
774.09	42.857
774.39	45.029
774.70	42.593
775.01	42.754
775.32	53.595
775.63	42.105
775.94	39.568
776.25	55.906
776.56	51.493
776.87	53.279
777.18	45.313
777.48	51.908
777.79	53.788
778.10	48.148
778.41	59.821
778.72	43.066
779.03	47.651
779.34	56.376
779.65	39.189
779.95	39.877
780.26	54.248
780.57	49.655
780.88	64.844
781.19	53.383
781.50	49.324
781.80	45.912
782.11	40.113
782.42	40.506
782.73	45.399
783.04	45.270
783.34	35.211
783.65	52.740
783.96	57.463
784.27	42.657
784.57	45.324
784.88	41.667
785.19	62.698
785.50	65.094
785.81	50.746
786.11	57.377
786.42	58.915
786.73	49.558
787.04	56.604
787.34	58.929
787.65	56.000
787.96	56.757
788.26	50.413
788.57	61.864
788.88	66.116
789.19	54.167
789.49	55.303
789.80	52.672
790.11	60.952
790.41	67.327
790.72	67.470
791.03	67.391
791.33	51.163
791.64	68.041
791.95	63.366
792.25	65.556
792.56	87.013
792.87	79.487
793.17	83.544
793.48	75.862
793.79	67.816
794.09	70.455
794.40	54.622
794.70	51.471
795.01	51.111
795.32	51.079
795.62	55.118
795.93	56.897
796.23	57.522
796.54	68.235
796.85	70.270
797.15	84.507
797.46	75.758
797.76	80.723
798.07	83.544
798.37	76.923
798.68	74.242
798.99	53.521
799.29	85.714
799.60	65.909
799.90	90.411
800.21	86.567
800.51	91.379
800.82	107.018
801.12	80.328
801.43	104.545
801.73	71.622
802.04	88.889
802.34	83.951
802.65	89.062
802.95	100.000
803.26	89.063
803.56	91.429
803.87	70.769
804.17	88.235
804.48	111.111
804.78	86.207
805.09	88.235
805.39	117.308
805.70	89.286
806.00	85.246
806.30	81.818
806.61	64.634
806.91	77.215
807.22	69.737
807.52	61.194
807.83	73.239
808.13	85.938
808.43	103.333
808.74	68.421
809.04	89.855
809.35	86.567
809.65	85.526
809.95	101.613
810.26	72.881
810.56	95.238
810.86	115.909
811.17	133.333
811.47	100.000
811.77	81.481
812.08	81.818
812.38	100.000
812.69	155.556
812.99	138.636
813.29	126.531
813.59	92.857
813.90	118.367
814.20	96.364
814.50	101.538
814.81	97.059
815.11	110.204
815.41	114.754
815.72	128.571
816.02	96.364
816.32	121.429
816.62	107.500
816.93	136.585
817.23	130.952
817.53	109.091
817.84	178.788
818.14	123.913
818.44	108.889
818.74	152.941
819.04	112.500
819.35	151.429
819.65	170.588
819.95	139.286
820.25	240.000
820.56	146.154
820.86	129.545
821.16	134.884
821.46	125.641
821.76	124.000
822.07	157.143
822.37	155.000
822.67	148.485
822.97	105.882
823.27	189.286
823.57	113.514
823.88	160.000
824.18	173.333
824.48	145.238
824.78	204.000
825.08	137.500
825.38	135.135
825.69	121.951
825.99	183.333
826.29	155.172
826.59	126.316
826.89	118.421
827.19	141.176
827.49	177.419
827.79	122.727
828.09	102.273
828.39	108.511
828.70	126.531
829.00	151.852
829.30	148.387
829.60	142.500
829.90	273.333
830.20	189.286
830.50	186.957
830.80	200.000
831.10	180.000
831.40	180.000
831.70	200.000
832.00	173.077
832.30	200.000
832.60	331.250
832.90	163.333
833.20	421.429
833.50	164.516
833.80	168.966
834.10	159.375
834.40	207.692
834.70	288.889
835.00	285.714
835.30	145.714
835.60	300.000
835.90	189.655
836.20	342.857
836.50	189.655
836.80	192.000
837.10	158.333
837.40	214.286
837.70	252.941
838.00	200.000
838.30	238.095
838.60	228.571
838.90	200.000
839.19	200.000
839.49	314.286
839.79	295.000
840.09	230.000
840.39	261.905
840.69	265.217
840.99	316.667
841.29	390.000
841.59	275.000
841.88	343.750
842.18	162.069
842.48	247.619
842.78	160.000
843.08	204.348
843.38	162.500
843.68	783.333
843.97	211.538
844.27	196.552
844.57	276.190
844.87	312.500
845.17	192.593
845.47	1300.000
845.76	322.222
846.06	235.294
846.36	387.500
846.66	321.429
846.96	281.250
847.25	400.000
847.55	372.727
847.85	247.826
848.15	440.000
848.44	300.000
848.74	194.444
849.04	264.706
849.34	400.000
849.63	163.158
849.93	472.727
850.23	940.000
850.53	357.143
850.82	2100.000
851.12	-4600.000
851.42	5100.000
851.71	235.000
852.01	-1233.333
852.31	229.167
852.61	1566.667
852.90	219.048
853.20	176.000
853.50	264.706
853.79	271.429
854.09	200.000
854.39	312.500
854.68	145.946
854.98	196.774
855.28	180.000
855.57	162.069
855.87	237.037
856.17	184.211
856.46	273.333
856.76	247.059
857.05	193.103
857.35	212.500
857.65	326.667
857.94	239.130
858.24	242.308
858.53	295.000
858.83	213.636
859.13	340.000
859.42	0.000
859.72	544.444
860.01	418.182
860.31	227.273
860.60	242.105
860.90	243.478
861.20	488.889
861.49	450.000
861.79	-3700.000
862.08	562.500
862.38	266.667
862.67	253.846
862.97	341.176
863.26	511.111
863.56	222.222
863.85	366.667
864.15	525.000
864.44	273.333
864.74	700.000
865.03	550.000
865.33	273.684
865.62	336.364
865.92	407.692
866.21	308.333
866.51	0.000
866.80	300.000
867.10	960.000
867.39	338.462
867.69	409.091
867.98	215.789
868.27	436.364
868.57	257.895
868.86	-3600.000
869.16	337.500
869.45	1800.000
869.75	-4100.000
870.04	341.667
870.33	714.286
870.63	900.000
870.92	2200.000
871.22	614.286
871.51	305.882
871.80	233.333
872.10	357.143
>>>>>End Processed Spectral Data<<<<<
