SpectraSuite Data File
++++++++++++++++++++++++++++++++++++
Date: Wed May 13 16:13:52 PDT 2015
User: schluterlab
Dark Spectrum Present: Yes
Reference Spectrum Present: Yes
Number of Sampled Component Spectra: 1
Spectrometers: USB2E3373
Integration Time (usec): 3000 (USB2E3373)
Spectra Averaged: 3 (USB2E3373)
Boxcar Smoothing: 0 (USB2E3373)
Correct for Electrical Dark: No (USB2E3373)
Strobe/Lamp Enabled: No (USB2E3373)
Correct for Detector Non-linearity: No (USB2E3373)
Correct for Stray Light: No (USB2E3373)
Number of Pixels in Processed Spectrum: 2048
>>>>>Begin Processed Spectral Data<<<<<
178.53	0.000
178.91	-975.000
179.29	-1075.000
179.67	-161.111
180.04	-1000.000
180.42	2250.000
180.80	600.000
181.18	-675.000
181.56	442.857
181.94	0.000
182.31	-571.429
182.69	1333.333
183.07	-450.000
183.45	-411.111
183.83	381.818
184.20	-390.000
184.58	1900.000
184.96	4200.000
185.34	-740.000
185.72	-537.500
186.09	-1800.000
186.47	2050.000
186.85	1500.000
187.23	3700.000
187.61	-1400.000
187.98	975.000
188.36	463.636
188.74	436.364
189.12	-800.000
189.49	510.000
189.87	-3400.000
190.25	-1075.000
190.63	328.571
191.00	361.538
191.38	600.000
191.76	-975.000
192.14	1250.000
192.51	450.000
192.89	833.333
193.27	550.000
193.65	-1100.000
194.02	450.000
194.40	820.000
194.78	450.000
195.15	383.333
195.53	390.000
195.91	-1450.000
196.29	300.000
196.66	247.368
197.04	-230.000
197.42	0.000
197.79	510.000
198.17	-3400.000
198.55	500.000
198.92	537.500
199.30	660.000
199.68	0.000
200.05	266.667
200.43	800.000
200.81	3300.000
201.18	1166.667
201.56	-1166.667
201.94	411.111
202.31	511.111
202.69	300.000
203.07	470.000
203.44	0.000
203.82	1125.000
204.19	614.286
204.57	364.286
204.95	512.500
205.32	1433.333
205.70	400.000
206.08	235.714
206.45	2250.000
206.83	275.000
207.20	833.333
207.58	500.000
207.96	261.111
208.33	612.500
208.71	-666.667
209.08	785.714
209.46	577.778
209.84	400.000
210.21	-1166.667
210.59	950.000
210.96	-450.000
211.34	1500.000
211.71	390.000
212.09	516.667
212.46	0.000
212.84	1200.000
213.22	1275.000
213.59	-3200.000
213.97	766.667
214.34	642.857
214.72	481.818
215.09	980.000
215.47	-1900.000
215.84	-1700.000
216.22	1266.667
216.59	335.714
216.97	1100.000
217.34	372.727
217.72	-566.667
218.09	0.000
218.47	-3300.000
218.84	500.000
219.22	514.286
219.59	1366.667
219.97	-528.571
220.34	720.000
220.72	-966.667
221.09	321.429
221.47	1025.000
221.84	-633.333
222.22	0.000
222.59	1200.000
222.97	-2150.000
223.34	700.000
223.72	392.308
224.09	740.000
224.46	1700.000
224.84	-3800.000
225.21	-780.000
225.59	-3200.000
225.96	520.000
226.34	270.000
226.71	2150.000
227.08	487.500
227.46	420.000
227.83	-950.000
228.21	-1600.000
228.58	433.333
228.95	-2150.000
229.33	-1500.000
229.70	1300.000
230.08	700.000
230.45	-620.000
230.82	316.667
231.20	850.000
231.57	528.571
231.95	325.000
232.32	227.273
232.69	318.182
233.07	657.143
233.44	300.000
233.81	-1333.333
234.19	247.368
234.56	433.333
234.93	275.000
235.31	490.909
235.68	276.923
236.05	314.286
236.43	190.909
236.80	242.105
237.17	5300.000
237.55	219.048
237.92	210.714
238.29	228.571
238.67	164.516
239.04	210.345
239.41	172.222
239.79	119.565
240.16	130.952
240.53	138.636
240.91	119.608
241.28	116.000
241.65	122.000
242.02	107.246
242.40	124.194
242.77	121.667
243.14	87.097
243.51	107.865
243.89	110.588
244.26	96.667
244.63	94.624
245.00	93.617
245.38	99.010
245.75	86.916
246.12	77.064
246.49	82.482
246.87	98.400
247.24	81.538
247.61	72.857
247.98	77.778
248.36	68.243
248.73	73.885
249.10	81.529
249.47	71.751
249.84	69.519
250.22	74.866
250.59	69.822
250.96	71.717
251.33	72.512
251.70	71.287
252.08	70.952
252.45	69.058
252.82	67.391
253.19	71.489
253.56	68.627
253.94	73.444
254.31	64.062
254.68	67.692
255.05	62.362
255.42	64.228
255.79	66.176
256.16	70.397
256.54	61.484
256.91	66.548
257.28	63.669
257.65	66.007
258.02	64.596
258.39	62.461
258.76	64.883
259.14	61.310
259.51	59.271
259.88	59.627
260.25	62.840
260.62	61.850
260.99	59.938
261.36	61.261
261.73	62.751
262.10	60.465
262.47	63.662
262.85	61.838
263.22	62.393
263.59	62.108
263.96	57.418
264.33	59.269
264.70	60.526
265.07	59.079
265.44	58.333
265.81	54.258
266.18	60.553
266.55	61.951
266.92	61.179
267.29	59.028
267.66	59.174
268.03	59.545
268.40	60.280
268.77	59.189
269.14	55.856
269.51	56.885
269.88	56.643
270.25	55.305
270.62	58.876
270.99	56.989
271.36	56.009
271.73	59.112
272.10	57.826
272.47	59.140
272.84	58.442
273.21	55.975
273.58	51.965
273.95	56.813
274.32	55.579
274.69	58.244
275.06	54.921
275.43	56.809
275.80	55.511
276.17	57.230
276.54	56.133
276.91	57.115
277.28	54.297
277.65	55.899
278.02	56.315
278.39	56.445
278.76	52.909
279.13	54.340
279.50	55.866
279.87	54.382
280.23	55.489
280.60	54.545
280.97	55.083
281.34	54.159
281.71	53.455
282.08	56.430
282.45	55.455
282.82	55.062
283.19	53.832
283.56	52.105
283.92	55.161
284.29	53.263
284.66	54.083
285.03	51.356
285.40	54.225
285.77	53.872
286.14	52.677
286.51	52.167
286.87	53.675
287.24	51.629
287.61	50.562
287.98	51.461
288.35	48.653
288.72	47.975
289.08	47.418
289.45	49.753
289.82	49.268
290.19	47.253
290.56	46.861
290.93	45.770
291.29	48.620
291.66	46.313
292.03	47.238
292.40	48.311
292.77	46.302
293.13	46.716
293.50	46.939
293.87	45.333
294.24	45.333
294.60	44.687
294.97	44.331
295.34	44.429
295.71	43.892
296.08	42.593
296.44	42.366
296.81	40.423
297.18	43.496
297.55	41.293
297.91	41.161
298.28	44.578
298.65	41.514
299.02	41.765
299.38	40.903
299.75	39.892
300.12	39.208
300.48	40.625
300.85	39.088
301.22	39.745
301.59	39.268
301.95	41.688
302.32	41.463
302.69	39.068
303.05	40.242
303.42	39.506
303.79	38.845
304.15	38.228
304.52	37.775
304.89	37.050
305.25	37.355
305.62	37.712
305.99	39.906
306.35	38.479
306.72	39.686
307.09	38.291
307.45	39.865
307.82	35.937
308.19	38.852
308.55	38.403
308.92	37.272
309.29	36.536
309.65	37.646
310.02	38.161
310.38	37.742
310.75	38.965
311.12	37.052
311.48	36.155
311.85	38.365
312.22	37.149
312.58	37.734
312.95	38.332
313.31	36.990
313.68	38.358
314.05	39.645
314.41	38.090
314.78	38.268
315.14	38.034
315.51	37.693
315.87	38.020
316.24	37.537
316.61	37.719
316.97	38.552
317.34	38.454
317.70	41.491
318.07	39.557
318.43	40.020
318.80	38.800
319.16	39.831
319.53	38.274
319.89	38.571
320.26	39.800
320.62	39.187
320.99	39.091
321.35	39.495
321.72	39.836
322.08	41.362
322.45	40.498
322.81	41.473
323.18	41.811
323.54	40.074
323.91	41.226
324.27	41.874
324.64	41.286
325.00	40.487
325.37	40.946
325.73	42.011
326.10	42.277
326.46	43.011
326.83	43.054
327.19	43.126
327.56	43.728
327.92	44.444
328.29	43.478
328.65	43.831
329.01	42.329
329.38	43.571
329.74	43.306
330.11	43.073
330.47	42.700
330.84	43.658
331.20	42.805
331.56	43.119
331.93	44.074
332.29	42.680
332.66	41.947
333.02	42.870
333.38	44.444
333.75	44.207
334.11	42.972
334.48	43.478
334.84	42.923
335.20	42.455
335.57	43.155
335.93	41.964
336.29	43.681
336.66	43.733
337.02	42.172
337.38	44.444
337.75	42.068
338.11	42.256
338.47	43.186
338.84	42.621
339.20	42.385
339.56	44.252
339.93	42.000
340.29	42.391
340.65	42.959
341.02	43.630
341.38	44.484
341.74	42.105
342.11	42.271
342.47	43.172
342.83	42.637
343.20	43.983
343.56	41.618
343.92	42.018
344.28	43.027
344.65	43.680
345.01	42.761
345.37	41.938
345.73	43.909
346.10	42.882
346.46	42.712
346.82	42.669
347.19	43.191
347.55	41.544
347.91	43.123
348.27	42.975
348.63	42.893
349.00	43.123
349.36	42.529
349.72	43.063
350.08	42.139
350.45	43.124
350.81	42.323
351.17	42.788
351.53	42.998
351.89	42.904
352.26	42.068
352.62	42.582
352.98	42.545
353.34	41.742
353.70	42.144
354.07	43.629
354.43	41.905
354.79	41.593
355.15	41.580
355.51	44.205
355.87	44.408
356.24	42.834
356.60	41.700
356.96	43.926
357.32	43.336
357.68	42.520
358.04	42.914
358.40	43.310
358.77	41.862
359.13	42.620
359.49	43.137
359.85	41.984
360.21	41.707
360.57	44.280
360.93	42.385
361.29	42.101
361.66	42.724
362.02	43.507
362.38	43.422
362.74	43.080
363.10	42.709
363.46	42.993
363.82	43.462
364.18	42.291
364.54	43.314
364.90	43.909
365.26	42.721
365.62	43.682
365.98	44.120
366.35	42.693
366.71	43.890
367.07	43.190
367.43	43.614
367.79	43.826
368.15	44.828
368.51	42.297
368.87	44.968
369.23	46.013
369.59	45.547
369.95	44.265
370.31	44.587
370.67	44.420
371.03	44.644
371.39	44.388
371.75	45.368
372.11	44.452
372.47	45.674
372.83	46.830
373.19	44.364
373.55	45.602
373.91	47.791
374.27	46.598
374.63	45.527
374.99	47.387
375.35	46.476
375.71	45.990
376.07	47.325
376.42	46.768
376.78	47.449
377.14	47.490
377.50	49.205
377.86	47.141
378.22	47.598
378.58	46.992
378.94	48.272
379.30	47.837
379.66	49.746
380.02	49.140
380.38	48.330
380.74	49.640
381.09	49.878
381.45	49.047
381.81	48.771
382.17	50.510
382.53	49.245
382.89	50.926
383.25	51.220
383.61	52.107
383.97	50.657
384.32	50.780
384.68	50.434
385.04	52.182
385.40	51.765
385.76	52.764
386.12	51.425
386.48	51.794
386.83	52.854
387.19	53.494
387.55	53.680
387.91	52.600
388.27	54.261
388.62	54.026
388.98	53.624
389.34	54.568
389.70	54.016
390.06	54.246
390.42	54.540
390.77	53.308
391.13	55.584
391.49	55.140
391.85	55.952
392.20	54.637
392.56	55.745
392.92	55.856
393.28	55.562
393.64	55.695
393.99	55.406
394.35	56.017
394.71	55.521
395.07	56.511
395.42	56.180
395.78	57.379
396.14	55.680
396.50	57.707
396.85	57.978
397.21	56.104
397.57	57.099
397.92	56.611
398.28	55.886
398.64	57.885
399.00	57.974
399.35	56.853
399.71	58.044
400.07	58.250
400.42	58.037
400.78	59.349
401.14	58.537
401.49	58.806
401.85	58.923
402.21	57.904
402.57	58.236
402.92	60.214
403.28	59.775
403.63	58.354
403.99	59.299
404.35	58.667
404.70	58.813
405.06	59.697
405.42	59.950
405.77	59.086
406.13	59.819
406.49	59.018
406.84	59.244
407.20	59.043
407.55	59.923
407.91	62.067
408.27	61.136
408.62	59.302
408.98	60.478
409.34	59.963
409.69	60.839
410.05	60.285
410.40	59.878
410.76	59.618
411.11	60.072
411.47	60.319
411.83	60.782
412.18	60.297
412.54	62.267
412.89	60.904
413.25	60.980
413.60	61.334
413.96	59.441
414.31	61.482
414.67	62.294
415.03	61.589
415.38	61.405
415.74	62.186
416.09	62.639
416.45	61.379
416.80	62.062
417.16	64.477
417.51	62.774
417.87	61.079
418.22	62.587
418.58	62.040
418.93	62.408
419.29	62.826
419.64	62.280
420.00	62.500
420.35	61.797
420.71	61.984
421.06	62.828
421.42	63.626
421.77	63.397
422.12	62.325
422.48	61.954
422.83	63.308
423.19	62.983
423.54	63.726
423.90	63.420
424.25	62.702
424.61	62.857
424.96	63.382
425.31	62.846
425.67	61.629
426.02	63.429
426.38	64.774
426.73	63.663
427.09	63.951
427.44	63.830
427.79	63.427
428.15	64.762
428.50	64.950
428.85	63.707
429.21	63.280
429.56	64.075
429.92	63.714
430.27	62.413
430.62	63.799
430.98	62.117
431.33	63.608
431.68	65.079
432.04	63.738
432.39	64.934
432.74	65.889
433.10	64.629
433.45	66.122
433.80	64.468
434.16	64.049
434.51	63.263
434.86	65.964
435.22	64.425
435.57	66.322
435.92	66.764
436.28	66.963
436.63	65.453
436.98	66.285
437.34	64.878
437.69	65.986
438.04	66.610
438.39	66.687
438.75	66.531
439.10	66.760
439.45	67.828
439.81	66.163
440.16	66.460
440.51	66.374
440.86	66.589
441.22	66.407
441.57	66.295
441.92	66.991
442.27	66.039
442.63	66.298
442.98	66.873
443.33	66.304
443.68	66.804
444.03	66.569
444.39	66.018
444.74	67.695
445.09	67.601
445.44	66.102
445.79	65.463
446.15	65.908
446.50	66.882
446.85	67.472
447.20	66.905
447.55	67.337
447.91	68.174
448.26	68.058
448.61	68.457
448.96	68.051
449.31	67.717
449.66	66.292
450.02	68.412
450.37	66.497
450.72	67.569
451.07	66.301
451.42	65.775
451.77	67.528
452.12	66.744
452.47	66.729
452.83	67.832
453.18	66.443
453.53	68.027
453.88	68.636
454.23	67.484
454.58	68.867
454.93	69.866
455.28	68.392
455.63	67.840
455.98	69.881
456.34	67.588
456.69	69.255
457.04	68.793
457.39	69.258
457.74	68.891
458.09	66.935
458.44	68.757
458.79	66.161
459.14	68.228
459.49	68.184
459.84	67.701
460.19	67.354
460.54	66.493
460.89	68.404
461.24	68.731
461.59	68.158
461.94	67.448
462.29	68.012
462.64	68.858
462.99	67.925
463.34	69.533
463.69	69.669
464.04	68.406
464.39	67.942
464.74	68.033
465.09	67.551
465.44	67.202
465.79	67.114
466.14	66.721
466.49	66.685
466.84	67.776
467.19	67.532
467.54	67.875
467.89	67.707
468.24	67.481
468.59	68.742
468.94	67.746
469.29	68.380
469.64	70.147
469.99	69.689
470.34	68.164
470.68	69.325
471.03	68.707
471.38	71.091
471.73	67.622
472.08	69.605
472.43	68.907
472.78	67.939
473.13	68.870
473.48	69.101
473.83	68.598
474.17	67.517
474.52	69.107
474.87	67.893
475.22	68.717
475.57	67.491
475.92	68.773
476.27	67.926
476.61	68.505
476.96	68.609
477.31	67.923
477.66	69.311
478.01	67.015
478.36	69.170
478.70	68.847
479.05	67.838
479.40	67.912
479.75	68.582
480.10	67.744
480.45	65.873
480.79	67.033
481.14	67.270
481.49	67.584
481.84	67.673
482.19	67.015
482.53	66.835
482.88	67.706
483.23	67.991
483.58	66.970
483.92	68.557
484.27	65.316
484.62	66.681
484.97	65.944
485.31	67.534
485.66	66.888
486.01	64.186
486.36	62.005
486.70	60.560
487.05	61.660
487.40	63.330
487.75	64.650
488.09	65.211
488.44	65.110
488.79	66.908
489.13	68.182
489.48	67.455
489.83	66.465
490.17	68.084
490.52	66.563
490.87	67.028
491.22	67.258
491.56	66.834
491.91	67.659
492.26	66.376
492.60	65.714
492.95	66.090
493.30	66.449
493.64	66.216
493.99	66.295
494.34	66.096
494.68	66.438
495.03	66.353
495.37	66.496
495.72	67.251
496.07	67.146
496.41	65.000
496.76	66.535
497.11	66.051
497.45	67.024
497.80	66.123
498.14	66.763
498.49	66.927
498.84	66.251
499.18	67.000
499.53	67.236
499.87	66.403
500.22	66.321
500.56	67.961
500.91	66.442
501.26	65.624
501.60	65.923
501.95	65.811
502.29	67.104
502.64	65.410
502.98	66.106
503.33	64.717
503.67	65.383
504.02	65.435
504.36	65.559
504.71	65.413
505.06	65.639
505.40	65.192
505.75	65.477
506.09	65.306
506.44	66.897
506.78	65.611
507.13	67.592
507.47	66.566
507.82	66.261
508.16	66.616
508.51	67.732
508.85	66.187
509.19	66.429
509.54	65.714
509.88	65.945
510.23	66.324
510.57	67.337
510.92	65.873
511.26	65.313
511.61	66.390
511.95	65.501
512.30	65.536
512.64	66.523
512.98	67.899
513.33	66.916
513.67	66.329
514.02	65.584
514.36	67.777
514.70	65.910
515.05	67.875
515.39	67.190
515.74	67.962
516.08	67.412
516.42	66.926
516.77	66.834
517.11	65.594
517.46	66.761
517.80	68.409
518.14	66.821
518.49	67.853
518.83	65.341
519.17	67.725
519.52	66.610
519.86	66.857
520.20	66.590
520.55	68.223
520.89	69.039
521.23	66.586
521.58	67.047
521.92	67.667
522.26	65.162
522.61	67.726
522.95	65.991
523.29	67.681
523.64	67.378
523.98	68.084
524.32	66.586
524.66	66.627
525.01	66.544
525.35	66.791
525.69	65.640
526.04	66.355
526.38	67.053
526.72	65.644
527.06	67.420
527.41	63.676
527.75	68.103
528.09	66.988
528.43	67.240
528.78	68.470
529.12	66.242
529.46	67.238
529.80	67.450
530.15	66.729
530.49	64.677
530.83	65.506
531.17	68.277
531.51	68.353
531.86	67.484
532.20	66.949
532.54	66.688
532.88	65.789
533.22	65.022
533.57	65.000
533.91	65.382
534.25	65.978
534.59	65.955
534.93	63.891
535.27	64.454
535.62	64.530
535.96	65.725
536.30	65.035
536.64	64.907
536.98	66.224
537.32	65.372
537.66	65.533
538.01	67.215
538.35	65.158
538.69	65.858
539.03	64.652
539.37	63.578
539.71	63.059
540.05	65.882
540.39	65.316
540.73	63.066
541.07	65.737
541.42	66.210
541.76	65.484
542.10	64.877
542.44	66.291
542.78	66.469
543.12	63.148
543.46	64.721
543.80	67.144
544.14	64.377
544.48	62.857
544.82	63.951
545.16	64.476
545.50	63.303
545.84	63.441
546.18	63.906
546.52	64.694
546.86	64.880
547.20	64.127
547.54	63.327
547.88	64.541
548.22	63.138
548.56	62.642
548.90	63.828
549.24	63.569
549.58	63.233
549.92	64.698
550.26	65.767
550.60	62.310
550.94	63.944
551.28	62.619
551.62	63.983
551.96	63.719
552.30	64.164
552.64	62.948
552.98	64.881
553.32	62.036
553.66	63.531
554.00	63.006
554.34	62.526
554.68	63.305
555.02	64.810
555.36	63.118
555.69	61.637
556.03	61.777
556.37	62.960
556.71	61.392
557.05	62.675
557.39	62.981
557.73	63.091
558.07	64.757
558.41	62.808
558.75	63.042
559.08	63.236
559.42	63.190
559.76	61.912
560.10	61.171
560.44	62.264
560.78	60.679
561.12	61.873
561.45	62.060
561.79	61.107
562.13	61.234
562.47	62.773
562.81	62.413
563.15	59.599
563.48	60.676
563.82	61.840
564.16	61.543
564.50	60.352
564.84	58.913
565.17	61.905
565.51	60.639
565.85	61.294
566.19	60.050
566.52	61.241
566.86	59.614
567.20	60.554
567.54	60.160
567.88	59.533
568.21	59.259
568.55	58.595
568.89	59.193
569.23	57.398
569.56	57.692
569.90	57.358
570.24	55.831
570.57	55.151
570.91	55.268
571.25	54.632
571.59	55.228
571.92	54.695
572.26	54.275
572.60	54.835
572.93	53.913
573.27	54.865
573.61	54.467
573.95	54.393
574.28	53.216
574.62	53.814
574.96	52.712
575.29	53.007
575.63	52.617
575.97	52.903
576.30	53.346
576.64	53.525
576.98	52.771
577.31	53.096
577.65	53.203
577.98	52.614
578.32	51.390
578.66	51.698
578.99	52.477
579.33	52.941
579.67	52.153
580.00	52.409
580.34	53.204
580.67	52.801
581.01	53.227
581.35	51.851
581.68	51.627
582.02	50.743
582.35	51.139
582.69	51.601
583.02	52.019
583.36	52.294
583.70	52.997
584.03	51.698
584.37	53.202
584.70	53.553
585.04	52.006
585.37	52.516
585.71	52.350
586.04	51.317
586.38	52.011
586.72	52.361
587.05	52.187
587.39	51.187
587.72	52.048
588.06	51.628
588.39	52.236
588.73	52.772
589.06	53.256
589.40	52.727
589.73	53.361
590.07	52.918
590.40	53.343
590.73	54.450
591.07	53.928
591.40	53.016
591.74	54.848
592.07	53.534
592.41	54.113
592.74	53.371
593.08	51.832
593.41	52.167
593.75	50.219
594.08	51.190
594.41	52.280
594.75	53.272
595.08	52.362
595.42	52.785
595.75	52.279
596.09	53.023
596.42	51.552
596.75	53.103
597.09	53.506
597.42	52.319
597.75	53.126
598.09	51.913
598.42	51.890
598.76	51.682
599.09	51.121
599.42	51.346
599.76	51.501
600.09	51.111
600.42	50.804
600.76	50.464
601.09	51.475
601.42	51.256
601.76	50.778
602.09	51.225
602.42	52.110
602.76	52.156
603.09	51.220
603.42	51.972
603.76	51.029
604.09	50.950
604.42	51.488
604.76	52.678
605.09	52.075
605.42	51.732
605.75	51.780
606.09	50.671
606.42	51.900
606.75	50.104
607.09	51.319
607.42	50.834
607.75	50.380
608.08	50.630
608.42	51.546
608.75	51.127
609.08	50.463
609.41	52.118
609.75	51.501
610.08	51.602
610.41	51.397
610.74	51.466
611.07	51.927
611.41	51.521
611.74	52.891
612.07	52.433
612.40	51.836
612.73	51.263
613.07	52.909
613.40	51.869
613.73	52.071
614.06	51.559
614.39	50.551
614.72	50.842
615.06	50.420
615.39	50.690
615.72	50.971
616.05	50.930
616.38	52.307
616.71	51.841
617.05	52.415
617.38	51.594
617.71	52.012
618.04	52.644
618.37	51.804
618.70	52.271
619.03	52.895
619.36	52.274
619.69	53.592
620.03	53.503
620.36	53.075
620.69	52.603
621.02	53.466
621.35	53.015
621.68	53.193
622.01	55.031
622.34	53.177
622.67	53.764
623.00	53.265
623.33	51.394
623.66	53.538
623.99	54.271
624.32	53.352
624.65	52.260
624.99	51.841
625.32	53.584
625.65	52.742
625.98	54.112
626.31	53.344
626.64	53.551
626.97	54.530
627.30	53.699
627.63	54.307
627.96	53.154
628.29	52.756
628.62	55.444
628.95	55.755
629.28	55.657
629.61	55.270
629.94	57.524
630.26	56.053
630.59	55.005
630.92	55.172
631.25	53.702
631.58	55.856
631.91	55.680
632.24	53.797
632.57	55.299
632.90	57.895
633.23	57.047
633.56	57.627
633.89	55.266
634.22	56.527
634.55	58.343
634.88	55.090
635.20	57.348
635.53	57.108
635.86	57.550
636.19	55.647
636.52	56.055
636.85	54.868
637.18	54.263
637.51	57.092
637.83	54.871
638.16	57.033
638.49	55.668
638.82	58.407
639.15	56.875
639.48	57.107
639.81	58.311
640.13	57.422
640.46	57.718
640.79	56.143
641.12	55.433
641.45	54.609
641.77	60.677
642.10	58.626
642.43	57.057
642.76	58.514
643.09	58.282
643.41	57.815
643.74	58.951
644.07	58.537
644.40	57.669
644.73	58.425
645.05	58.320
645.38	58.294
645.71	57.327
646.04	59.136
646.36	60.434
646.69	58.361
647.02	56.803
647.35	59.966
647.67	57.876
648.00	58.699
648.33	57.756
648.66	55.909
648.98	56.072
649.31	56.203
649.64	56.801
649.96	55.589
650.29	56.556
650.62	57.120
650.94	56.240
651.27	59.797
651.60	57.737
651.92	54.792
652.25	55.863
652.58	55.452
652.90	56.398
653.23	54.545
653.56	54.961
653.88	56.418
654.21	55.292
654.54	55.941
654.86	54.517
655.19	52.838
655.52	41.303
655.84	38.569
656.17	48.883
656.49	65.643
656.82	65.736
657.15	49.143
657.47	36.796
657.80	28.450
658.13	29.942
658.45	44.396
658.78	44.740
659.10	46.010
659.43	47.379
659.75	49.442
660.08	54.241
660.41	56.518
660.73	56.798
661.06	56.688
661.38	58.545
661.71	59.615
662.03	59.961
662.36	54.076
662.68	57.229
663.01	57.374
663.33	59.448
663.66	59.034
663.98	59.827
664.31	55.672
664.63	55.668
664.96	57.948
665.28	58.811
665.61	54.776
665.93	59.557
666.26	57.606
666.58	57.950
666.91	58.351
667.23	58.427
667.56	56.803
667.88	58.974
668.21	58.849
668.53	57.484
668.86	57.143
669.18	57.996
669.50	59.130
669.83	59.913
670.15	58.000
670.48	57.081
670.80	57.112
671.13	55.626
671.45	57.021
671.77	57.230
672.10	54.344
672.42	53.710
672.75	54.063
673.07	54.930
673.39	52.803
673.72	56.445
674.04	55.490
674.37	55.340
674.69	57.055
675.01	55.021
675.34	59.959
675.66	56.000
675.98	55.804
676.31	58.403
676.63	57.962
676.95	53.249
677.28	57.710
677.60	57.363
677.92	58.861
678.25	55.031
678.57	55.976
678.89	53.707
679.22	54.224
679.54	53.817
679.86	53.211
680.18	51.699
680.51	54.078
680.83	53.559
681.15	53.962
681.48	53.308
681.80	56.673
682.12	54.598
682.44	54.932
682.77	53.360
683.09	58.155
683.41	56.319
683.73	55.408
684.06	57.645
684.38	53.229
684.70	52.713
685.02	55.347
685.34	51.465
685.67	50.524
685.99	52.749
686.31	51.877
686.63	51.413
686.96	52.143
687.28	52.708
687.60	49.094
687.92	53.199
688.24	54.563
688.56	56.225
688.89	54.564
689.21	57.205
689.53	51.357
689.85	59.424
690.17	51.139
690.49	52.017
690.82	58.879
691.14	52.232
691.46	51.899
691.78	53.815
692.10	54.132
692.42	53.493
692.74	54.772
693.06	52.553
693.39	52.361
693.71	51.965
694.03	55.368
694.35	55.411
694.67	54.462
694.99	55.366
695.31	56.618
695.63	56.220
695.95	55.746
696.27	57.107
696.59	55.699
696.91	55.440
697.23	50.939
697.56	51.812
697.88	49.284
698.20	51.458
698.52	53.548
698.84	51.670
699.16	50.000
699.48	57.245
699.80	54.106
700.12	56.883
700.44	58.886
700.76	58.564
701.08	58.908
701.40	56.425
701.72	57.143
702.04	60.227
702.36	57.790
702.68	56.091
703.00	55.679
703.32	54.787
703.64	56.032
703.96	57.660
704.28	54.070
704.60	56.305
704.91	58.754
705.23	57.478
705.55	64.784
705.87	62.791
706.19	57.597
706.51	58.567
706.83	58.485
707.15	58.263
707.47	52.273
707.79	55.528
708.11	51.826
708.43	52.381
708.74	54.082
709.06	55.325
709.38	52.756
709.70	55.523
710.02	56.083
710.34	56.364
710.66	57.612
710.98	53.125
711.29	56.105
711.61	56.047
711.93	52.885
712.25	56.913
712.57	59.559
712.89	57.439
713.20	55.927
713.52	58.224
713.84	54.114
714.16	51.220
714.48	51.724
714.80	55.623
715.11	54.467
715.43	55.786
715.75	52.174
716.07	55.591
716.39	53.605
716.70	53.821
717.02	56.115
717.34	52.297
717.66	58.955
717.97	67.331
718.29	56.667
718.61	59.854
718.93	61.765
719.24	57.439
719.56	54.237
719.88	54.915
720.20	58.784
720.51	58.885
720.83	57.621
721.15	56.343
721.46	56.738
721.78	57.706
722.10	63.396
722.42	57.519
722.73	58.052
723.05	61.885
723.37	59.919
723.68	54.826
724.00	58.943
724.32	60.081
724.63	51.626
724.95	60.669
725.27	58.300
725.58	58.594
725.90	59.124
726.22	56.226
726.53	55.556
726.85	58.020
727.16	57.295
727.48	56.028
727.80	58.333
728.11	53.986
728.43	54.231
728.74	55.556
729.06	57.664
729.38	58.824
729.69	58.007
730.01	52.218
730.32	55.208
730.64	53.177
730.96	52.475
731.27	59.603
731.59	55.963
731.90	53.644
732.22	55.901
732.53	54.489
732.85	51.603
733.16	51.125
733.48	52.492
733.80	53.247
734.11	54.140
734.43	52.663
734.74	50.857
735.06	48.711
735.37	53.757
735.69	53.503
736.00	61.111
736.32	53.271
736.63	52.396
736.95	52.396
737.26	55.442
737.58	51.613
737.89	58.863
738.21	55.973
738.52	55.357
738.83	55.849
739.15	56.538
739.46	55.474
739.78	57.292
740.09	52.308
740.41	55.161
740.72	55.052
741.04	57.778
741.35	52.917
741.66	64.444
741.98	58.962
742.29	59.809
742.61	60.776
742.92	59.729
743.23	55.983
743.55	60.400
743.86	60.088
744.18	62.832
744.49	58.373
744.80	63.380
745.12	61.818
745.43	55.507
745.74	59.459
746.06	58.257
746.37	63.677
746.68	52.941
747.00	62.963
747.31	60.952
747.62	59.735
747.94	58.150
748.25	53.617
748.56	55.947
748.88	57.426
749.19	65.500
749.50	59.070
749.82	53.252
750.13	56.735
750.44	54.015
750.75	56.140
751.07	56.592
751.38	58.188
751.69	57.040
752.01	53.383
752.32	55.957
752.63	54.610
752.94	59.426
753.26	58.000
753.57	54.878
753.88	56.250
754.19	54.286
754.51	54.167
754.82	49.458
755.13	55.472
755.44	53.008
755.75	55.839
756.07	54.255
756.38	53.650
756.69	56.711
757.00	46.407
757.31	48.961
757.63	45.029
757.94	46.917
758.25	49.020
758.56	46.914
758.87	46.505
759.18	51.515
759.50	51.097
759.81	49.221
760.12	49.375
760.43	53.295
760.74	51.359
761.05	51.695
761.36	48.930
761.67	53.693
761.99	54.348
762.30	50.694
762.61	51.908
762.92	57.422
763.23	58.403
763.54	56.800
763.85	50.781
764.16	58.846
764.47	52.091
764.78	51.590
765.10	48.418
765.41	48.968
765.72	50.000
766.03	52.978
766.34	51.667
766.65	60.851
766.96	55.983
767.27	59.898
767.58	63.021
767.89	61.579
768.20	63.793
768.51	56.345
768.82	53.211
769.13	50.000
769.44	50.202
769.75	54.506
770.06	52.752
770.37	50.679
770.68	61.574
770.99	51.111
771.30	48.361
771.61	58.296
771.92	56.967
772.23	62.185
772.54	61.538
772.85	60.733
773.16	58.511
773.47	66.848
773.78	57.360
774.09	56.548
774.39	63.158
774.70	68.519
775.01	68.841
775.32	68.627
775.63	74.342
775.94	62.590
776.25	74.803
776.56	69.403
776.87	64.754
777.18	82.031
777.48	73.282
777.79	70.455
778.10	75.556
778.41	85.714
778.72	63.504
779.03	66.443
779.34	67.785
779.65	58.784
779.95	65.644
780.26	66.667
780.57	70.345
780.88	73.437
781.19	72.180
781.50	62.162
781.80	66.667
782.11	59.322
782.42	55.063
782.73	63.804
783.04	71.622
783.34	77.465
783.65	66.438
783.96	71.642
784.27	59.441
784.57	62.590
784.88	66.667
785.19	84.921
785.50	76.415
785.81	68.657
786.11	72.131
786.42	67.442
786.73	68.142
787.04	79.245
787.34	75.893
787.65	70.000
787.96	75.676
788.26	76.033
788.57	70.339
788.88	80.165
789.19	72.917
789.49	66.667
789.80	64.122
790.11	81.905
790.41	90.099
790.72	80.723
791.03	86.957
791.33	84.884
791.64	70.103
791.95	82.178
792.25	91.111
792.56	102.597
792.87	107.692
793.17	100.000
793.48	93.103
793.79	83.908
794.09	79.545
794.40	70.588
794.70	82.353
795.01	63.704
795.32	61.151
795.62	59.055
795.93	73.276
796.23	74.336
796.54	87.059
796.85	90.541
797.15	109.859
797.46	90.909
797.76	95.181
798.07	96.203
798.37	81.538
798.68	90.909
798.99	80.282
799.29	79.221
799.60	75.000
799.90	91.781
800.21	98.507
800.51	101.724
800.82	112.281
801.12	83.607
801.43	100.000
801.73	85.135
802.04	106.349
802.34	87.654
802.65	107.812
802.95	108.475
803.26	103.125
803.56	90.000
803.87	90.769
804.17	101.471
804.48	122.222
804.78	87.931
805.09	92.647
805.39	103.846
805.70	112.500
806.00	113.115
806.30	87.879
806.61	92.683
806.91	83.544
807.22	73.684
807.52	79.104
807.83	90.141
808.13	101.563
808.43	98.333
808.74	80.263
809.04	82.609
809.35	105.970
809.65	78.947
809.95	104.839
810.26	101.695
810.56	88.889
810.86	154.545
811.17	157.143
811.47	105.000
811.77	101.852
812.08	110.909
812.38	132.000
812.69	127.778
812.99	156.818
813.29	134.694
813.59	97.619
813.90	144.898
814.20	103.636
814.50	93.846
814.81	97.059
815.11	102.041
815.41	80.328
815.72	142.857
816.02	118.182
816.32	138.095
816.62	120.000
816.93	121.951
817.23	145.238
817.53	129.545
817.84	160.606
818.14	119.565
818.44	120.000
818.74	167.647
819.04	122.500
819.35	122.857
819.65	144.118
819.95	171.429
820.25	190.000
820.56	153.846
820.86	145.455
821.16	148.837
821.46	123.077
821.76	130.000
822.07	151.429
822.37	120.000
822.67	139.394
822.97	107.843
823.27	214.286
823.57	164.865
823.88	162.500
824.18	163.333
824.48	150.000
824.78	172.000
825.08	179.167
825.38	140.541
825.69	121.951
825.99	191.667
826.29	175.862
826.59	152.632
826.89	134.211
827.19	144.118
827.49	158.065
827.79	156.818
828.09	113.636
828.39	108.511
828.70	116.327
829.00	170.370
829.30	167.742
829.60	127.500
829.90	326.667
830.20	203.571
830.50	200.000
830.80	239.130
831.10	156.667
831.40	150.000
831.70	182.609
832.00	219.231
832.30	181.481
832.60	318.750
832.90	140.000
833.20	307.143
833.50	154.839
833.80	148.276
834.10	200.000
834.40	188.462
834.70	244.444
835.00	252.381
835.30	151.429
835.60	261.538
835.90	179.310
836.20	357.143
836.50	200.000
836.80	160.000
837.10	152.778
837.40	171.429
837.70	288.235
838.00	181.481
838.30	242.857
838.60	266.667
838.90	150.000
839.19	215.000
839.49	278.571
839.79	290.000
840.09	215.000
840.39	261.905
840.69	226.087
840.99	250.000
841.29	510.000
841.59	308.333
841.88	275.000
842.18	182.759
842.48	238.095
842.78	140.000
843.08	178.261
843.38	150.000
843.68	700.000
843.97	161.538
844.27	189.655
844.57	238.095
844.87	300.000
845.17	181.481
845.47	1333.333
845.76	344.444
846.06	223.529
846.36	525.000
846.66	307.143
846.96	318.750
847.25	290.909
847.55	400.000
847.85	226.087
848.15	370.000
848.44	307.143
848.74	194.444
849.04	223.529
849.34	380.000
849.63	210.526
849.93	400.000
850.23	860.000
850.53	350.000
850.82	1700.000
851.12	-3300.000
851.42	3900.000
851.71	255.000
852.01	-1233.333
852.31	204.167
852.61	1300.000
852.90	228.571
853.20	188.000
853.50	258.824
853.79	228.571
854.09	166.667
854.39	281.250
854.68	170.270
854.98	141.935
855.28	163.333
855.57	179.310
855.87	229.630
856.17	205.263
856.46	213.333
856.76	241.176
857.05	193.103
857.35	204.167
857.65	340.000
857.94	204.348
858.24	215.385
858.53	240.000
858.83	200.000
859.13	306.667
859.42	0.000
859.72	433.333
860.01	345.455
860.31	236.364
860.60	226.316
860.90	230.435
861.20	422.222
861.49	416.667
861.79	-3900.000
862.08	587.500
862.38	223.810
862.67	315.385
862.97	294.118
863.26	411.111
863.56	300.000
863.85	375.000
864.15	375.000
864.44	326.667
864.74	783.333
865.03	550.000
865.33	300.000
865.62	409.091
865.92	438.462
866.21	241.667
866.51	0.000
866.80	336.364
867.10	840.000
867.39	376.923
867.69	454.545
867.98	242.105
868.27	390.909
868.57	236.842
868.86	-4000.000
869.16	256.250
869.45	1800.000
869.75	-3100.000
870.04	366.667
870.33	428.571
870.63	800.000
870.92	2300.000
871.22	614.286
871.51	300.000
871.80	138.095
872.10	314.286
>>>>>End Processed Spectral Data<<<<<
