SpectraSuite Data File
++++++++++++++++++++++++++++++++++++
Date: Wed May 13 16:47:57 PDT 2015
User: schluterlab
Dark Spectrum Present: Yes
Reference Spectrum Present: Yes
Number of Sampled Component Spectra: 1
Spectrometers: USB2E3373
Integration Time (usec): 3000 (USB2E3373)
Spectra Averaged: 3 (USB2E3373)
Boxcar Smoothing: 0 (USB2E3373)
Correct for Electrical Dark: No (USB2E3373)
Strobe/Lamp Enabled: No (USB2E3373)
Correct for Detector Non-linearity: No (USB2E3373)
Correct for Stray Light: No (USB2E3373)
Number of Pixels in Processed Spectrum: 2048
>>>>>Begin Processed Spectral Data<<<<<
178.53	0.000
178.91	-1275.000
179.29	-1325.000
179.67	-216.667
180.04	-1425.000
180.42	2500.000
180.80	1020.000
181.18	-1025.000
181.56	528.571
181.94	0.000
182.31	-528.571
182.69	1866.667
183.07	-537.500
183.45	-455.556
183.83	481.818
184.20	-410.000
184.58	2050.000
184.96	5000.000
185.34	-880.000
185.72	-575.000
186.09	-2500.000
186.47	2700.000
186.85	2300.000
187.23	5500.000
187.61	-1666.667
187.98	1350.000
188.36	554.545
188.74	490.909
189.12	-880.000
189.49	550.000
189.87	-5100.000
190.25	-1075.000
190.63	371.429
191.00	330.769
191.38	850.000
191.76	-925.000
192.14	1250.000
192.51	762.500
192.89	1050.000
193.27	550.000
193.65	-1075.000
194.02	570.000
194.40	700.000
194.78	500.000
195.15	575.000
195.53	540.000
195.91	-1750.000
196.29	325.000
196.66	363.158
197.04	-390.000
197.42	0.000
197.79	520.000
198.17	-4700.000
198.55	757.143
198.92	750.000
199.30	1040.000
199.68	0.000
200.05	311.111
200.43	814.286
200.81	3900.000
201.18	1700.000
201.56	-1433.333
201.94	600.000
202.31	600.000
202.69	341.667
203.07	460.000
203.44	0.000
203.82	1050.000
204.19	728.571
204.57	442.857
204.95	687.500
205.32	1666.667
205.70	481.818
206.08	378.571
206.45	2500.000
206.83	343.750
207.20	916.667
207.58	740.000
207.96	311.111
208.33	700.000
208.71	-733.333
209.08	814.286
209.46	655.556
209.84	418.182
210.21	-1133.333
210.59	1300.000
210.96	-437.500
211.34	1900.000
211.71	590.000
212.09	733.333
212.46	0.000
212.84	1533.333
213.22	1075.000
213.59	-3900.000
213.97	900.000
214.34	742.857
214.72	572.727
215.09	1020.000
215.47	-2150.000
215.84	-2350.000
216.22	1600.000
216.59	428.571
216.97	1050.000
217.34	409.091
217.72	-750.000
218.09	0.000
218.47	-4000.000
218.84	611.111
219.22	757.143
219.59	1400.000
219.97	-557.143
220.34	940.000
220.72	-1533.333
221.09	371.429
221.47	1500.000
221.84	-883.333
222.22	0.000
222.59	1300.000
222.97	-2350.000
223.34	960.000
223.72	400.000
224.09	920.000
224.46	1950.000
224.84	-4500.000
225.21	-900.000
225.59	-5100.000
225.96	590.000
226.34	270.000
226.71	2400.000
227.08	550.000
227.46	580.000
227.83	-875.000
228.21	-1750.000
228.58	500.000
228.95	-2300.000
229.33	-2100.000
229.70	1666.667
230.08	714.286
230.45	-800.000
230.82	433.333
231.20	766.667
231.57	585.714
231.95	425.000
232.32	227.273
232.69	354.545
233.07	657.143
233.44	376.923
233.81	-1700.000
234.19	263.158
234.56	366.667
234.93	316.667
235.31	427.273
235.68	315.385
236.05	314.286
236.43	130.303
236.80	221.053
237.17	3100.000
237.55	176.190
237.92	167.857
238.29	180.952
238.67	116.129
239.04	179.310
239.41	133.333
239.79	93.478
240.16	111.905
240.53	115.909
240.91	84.314
241.28	86.000
241.65	104.000
242.02	79.710
242.40	67.742
242.77	80.000
243.14	51.613
243.51	59.551
243.89	48.235
244.26	33.333
244.63	53.763
245.00	39.362
245.38	42.574
245.75	42.991
246.12	43.119
246.49	44.526
246.87	45.600
247.24	38.462
247.61	35.000
247.98	34.641
248.36	20.270
248.73	26.115
249.10	36.943
249.47	29.379
249.84	31.551
250.22	22.460
250.59	31.953
250.96	26.768
251.33	33.175
251.70	28.713
252.08	21.905
252.45	25.112
252.82	19.565
253.19	24.255
253.56	27.451
253.94	24.896
254.31	24.219
254.68	19.231
255.05	19.557
255.42	18.699
255.79	20.588
256.16	22.022
256.54	15.194
256.91	17.438
257.28	11.511
257.65	18.482
258.02	19.255
258.39	17.350
258.76	16.388
259.14	17.857
259.51	15.198
259.88	13.665
260.25	16.918
260.62	13.295
260.99	15.839
261.36	15.315
261.73	15.186
262.10	12.500
262.47	15.775
262.85	15.320
263.22	13.960
263.59	15.670
263.96	13.736
264.33	14.883
264.70	14.737
265.07	11.765
265.44	13.636
265.81	11.679
266.18	13.065
266.55	13.415
266.92	14.496
267.29	14.815
267.66	13.073
268.03	13.409
268.40	9.112
268.77	9.069
269.14	11.261
269.51	12.867
269.88	13.753
270.25	12.641
270.62	13.483
270.99	15.054
271.36	13.090
271.73	11.215
272.10	9.130
272.47	13.763
272.84	12.554
273.21	14.675
273.58	6.769
273.95	9.644
274.32	9.091
274.69	10.278
275.06	10.433
275.43	11.915
275.80	9.218
276.17	10.998
276.54	10.603
276.91	11.462
277.28	9.766
277.65	10.251
278.02	10.352
278.39	10.352
278.76	11.455
279.13	10.377
279.50	11.546
279.87	11.554
280.23	11.178
280.60	7.350
280.97	9.797
281.34	10.442
281.71	11.455
282.08	10.749
282.45	10.000
282.82	10.835
283.19	7.843
283.56	9.649
283.92	10.829
284.29	9.347
284.66	8.167
285.03	7.776
285.40	9.859
285.77	8.586
286.14	8.290
286.51	10.167
286.87	9.744
287.24	8.795
287.61	7.063
287.98	8.929
288.35	10.301
288.72	9.657
289.08	9.546
289.45	7.414
289.82	10.407
290.19	7.064
290.56	8.576
290.93	7.100
291.29	7.515
291.66	8.407
292.03	10.756
292.40	9.398
292.77	7.692
293.13	9.403
293.50	9.475
293.87	8.889
294.24	7.407
294.60	7.715
294.97	7.849
295.34	9.732
295.71	8.239
296.08	7.977
296.44	6.878
296.81	7.133
297.18	9.214
297.55	6.596
297.91	6.992
298.28	9.103
298.65	9.530
299.02	6.719
299.38	7.304
299.75	6.469
300.12	7.663
300.48	6.000
300.85	7.891
301.22	6.242
301.59	7.702
301.95	9.068
302.32	8.087
302.69	7.168
303.05	7.394
303.42	6.296
303.79	6.569
304.15	6.177
304.52	6.837
304.89	6.504
305.25	6.961
305.62	7.928
305.99	7.556
306.35	7.383
306.72	6.390
307.09	6.992
307.45	8.108
307.82	5.580
308.19	7.285
308.55	8.522
308.92	6.445
309.29	6.547
309.65	6.999
310.02	7.188
310.38	6.452
310.75	7.392
311.12	6.960
311.48	8.255
311.85	6.499
312.22	7.908
312.58	7.277
312.95	6.758
313.31	6.796
313.68	7.173
314.05	9.369
314.41	8.040
314.78	7.754
315.14	7.051
315.51	7.621
315.87	7.525
316.24	8.044
316.61	7.310
316.97	7.632
317.34	6.360
317.70	7.839
318.07	7.988
318.43	7.241
318.80	8.903
319.16	8.757
319.53	7.786
319.89	8.190
320.26	9.500
320.62	8.631
320.99	9.192
321.35	8.687
321.72	9.548
322.08	10.069
322.45	10.249
322.81	9.787
323.18	9.923
323.54	9.184
323.91	8.868
324.27	9.560
324.64	9.133
325.00	9.378
325.37	9.918
325.73	10.503
326.10	9.974
326.46	9.050
326.83	10.871
327.19	10.589
327.56	9.495
327.92	10.324
328.29	11.180
328.65	10.129
329.01	10.108
329.38	9.621
329.74	10.434
330.11	9.896
330.47	11.019
330.84	11.397
331.20	10.109
331.56	11.009
331.93	10.648
332.29	11.535
332.66	10.265
333.02	11.700
333.38	11.924
333.75	11.230
334.11	10.498
334.48	10.382
334.84	11.213
335.20	11.273
335.57	10.063
335.93	10.714
336.29	10.256
336.66	11.993
337.02	9.050
337.38	11.204
337.75	11.052
338.11	10.027
338.47	10.129
338.84	10.999
339.20	10.183
339.56	11.223
339.93	10.182
340.29	11.141
340.65	10.160
341.02	10.558
341.38	10.142
341.74	10.088
342.11	10.568
342.47	10.837
342.83	11.045
343.20	11.429
343.56	11.205
343.92	10.526
344.28	10.289
344.65	11.178
345.01	11.364
345.37	9.434
345.73	9.983
346.10	9.804
346.46	10.763
346.82	10.708
347.19	10.109
347.55	10.509
347.91	10.761
348.27	11.668
348.63	10.368
349.00	9.790
349.36	10.263
349.72	10.505
350.08	9.806
350.45	11.229
350.81	10.236
351.17	10.535
351.53	10.401
351.89	9.323
352.26	11.287
352.62	10.585
352.98	10.049
353.34	10.435
353.70	9.002
354.07	10.565
354.43	10.476
354.79	9.895
355.15	10.694
355.51	11.191
355.87	9.469
356.24	11.645
356.60	9.944
356.96	9.332
357.32	9.567
357.68	10.394
358.04	10.530
358.40	10.214
358.77	10.407
359.13	10.339
359.49	9.725
359.85	8.413
360.21	10.287
360.57	10.428
360.93	10.385
361.29	10.280
361.66	9.133
362.02	10.075
362.38	10.038
362.74	10.268
363.10	9.252
363.46	9.611
363.82	10.204
364.18	10.426
364.54	11.367
364.90	10.198
365.26	9.485
365.62	10.738
365.98	9.350
366.35	10.100
366.71	10.701
367.07	9.250
367.43	10.740
367.79	11.420
368.15	11.063
368.51	9.448
368.87	10.064
369.23	9.729
369.59	10.282
369.95	10.074
370.31	10.399
370.67	9.855
371.03	11.086
371.39	11.735
371.75	10.000
372.11	11.309
372.47	11.144
372.83	10.519
373.19	10.260
373.55	10.421
373.91	11.414
374.27	9.553
374.63	10.400
374.99	10.876
375.35	9.421
375.71	9.870
376.07	11.866
376.42	10.041
376.78	10.802
377.14	9.701
377.50	11.325
377.86	9.840
378.22	11.441
378.58	10.025
378.94	10.371
379.30	9.924
379.66	11.104
380.02	11.425
380.38	10.747
380.74	10.924
381.09	10.575
381.45	11.432
381.81	11.486
382.17	11.401
382.53	11.069
382.89	11.049
383.25	10.256
383.61	11.338
383.97	11.820
384.32	10.730
384.68	10.843
385.04	12.231
385.40	11.207
385.76	11.486
386.12	11.788
386.48	11.768
386.83	11.289
387.19	11.874
387.55	11.317
387.91	11.487
388.27	10.730
388.62	12.477
388.98	11.486
389.34	11.452
389.70	11.527
390.06	11.977
390.42	11.284
390.77	10.814
391.13	11.104
391.49	11.168
391.85	10.503
392.20	11.546
392.56	10.795
392.92	11.418
393.28	10.178
393.64	11.091
393.99	11.729
394.35	10.980
394.71	11.857
395.07	10.530
395.42	11.805
395.78	11.132
396.14	12.291
396.50	12.155
396.85	11.952
397.21	11.036
397.57	11.779
397.92	11.599
398.28	10.650
398.64	11.051
399.00	11.416
399.35	11.675
399.71	10.822
400.07	11.295
400.42	12.270
400.78	11.882
401.14	10.793
401.49	11.881
401.85	11.131
402.21	11.198
402.57	11.166
402.92	10.656
403.28	11.493
403.63	11.572
403.99	11.592
404.35	11.818
404.70	11.391
405.06	11.182
405.42	11.541
405.77	10.914
406.13	11.230
406.49	11.532
406.84	11.636
407.20	10.284
407.55	11.040
407.91	11.467
408.27	10.721
408.62	11.680
408.98	11.213
409.34	11.132
409.69	11.677
410.05	10.905
410.40	10.948
410.76	11.231
411.11	11.098
411.47	10.799
411.83	11.301
412.18	10.390
412.54	11.021
412.89	11.747
413.25	11.216
413.60	11.427
413.96	10.625
414.31	10.571
414.67	12.104
415.03	11.391
415.38	12.500
415.74	11.254
416.09	10.777
416.45	11.111
416.80	11.170
417.16	11.997
417.51	11.745
417.87	10.983
418.22	11.798
418.58	11.104
418.93	11.916
419.29	10.757
419.64	11.650
420.00	11.402
420.35	11.884
420.71	11.417
421.06	10.800
421.42	10.643
421.77	11.547
422.12	10.724
422.48	10.631
422.83	10.716
423.19	10.387
423.54	10.795
423.90	11.362
424.25	11.558
424.61	11.250
424.96	11.429
425.31	11.406
425.67	10.674
426.02	10.514
426.38	12.515
426.73	10.650
427.09	11.550
427.44	10.753
427.79	10.581
428.15	11.786
428.50	11.059
428.85	11.681
429.21	10.823
429.56	11.042
429.92	10.720
430.27	10.775
430.62	10.394
430.98	10.898
431.33	11.443
431.68	10.942
432.04	11.235
432.39	10.508
432.74	11.490
433.10	10.979
433.45	11.487
433.80	11.585
434.16	11.058
434.51	11.211
434.86	11.345
435.22	11.228
435.57	10.821
435.92	10.591
436.28	11.566
436.63	11.479
436.98	10.990
437.34	11.330
437.69	11.669
438.04	11.074
438.39	10.806
438.75	11.795
439.10	11.453
439.45	11.629
439.81	11.057
440.16	11.293
440.51	11.424
440.86	11.697
441.22	10.957
441.57	10.722
441.92	10.952
442.27	10.764
442.63	11.374
442.98	12.000
443.33	11.413
443.68	11.203
444.03	11.274
444.39	10.370
444.74	10.823
445.09	10.674
445.44	11.154
445.79	11.430
446.15	12.070
446.50	10.716
446.85	10.329
447.20	11.627
447.55	10.999
447.91	11.031
448.26	11.352
448.61	11.362
448.96	11.683
449.31	11.417
449.66	11.480
450.02	10.975
450.37	10.941
450.72	10.886
451.07	10.360
451.42	10.699
451.77	11.450
452.12	11.143
452.47	11.567
452.83	11.305
453.18	11.369
453.53	11.379
453.88	11.459
454.23	11.178
454.58	11.448
454.93	12.270
455.28	10.973
455.63	11.044
455.98	11.964
456.34	11.118
456.69	11.897
457.04	12.446
457.39	11.046
457.74	10.853
458.09	10.868
458.44	11.060
458.79	10.954
459.14	11.005
459.49	11.442
459.84	10.471
460.19	10.607
460.54	11.574
460.89	11.026
461.24	11.961
461.59	12.841
461.94	11.159
462.29	11.217
462.64	10.913
462.99	10.475
463.34	11.800
463.69	11.570
464.04	11.246
464.39	11.478
464.74	11.468
465.09	11.761
465.44	10.083
465.79	11.242
466.14	11.166
466.49	10.957
466.84	10.858
467.19	11.467
467.54	10.500
467.89	11.104
468.24	11.576
468.59	11.661
468.94	10.874
469.29	10.797
469.64	11.647
469.99	11.231
470.34	11.691
470.68	11.422
471.03	11.565
471.38	11.953
471.73	11.592
472.08	12.105
472.43	11.244
472.78	11.192
473.13	11.553
473.48	11.548
473.83	11.768
474.17	11.325
474.52	11.414
474.87	10.975
475.22	10.505
475.57	10.317
475.92	10.940
476.27	10.879
476.61	10.590
476.96	10.940
477.31	10.518
477.66	10.777
478.01	10.768
478.36	11.052
478.70	10.073
479.05	11.022
479.40	10.594
479.75	10.778
480.10	10.984
480.45	10.614
480.79	9.795
481.14	10.910
481.49	10.916
481.84	10.380
482.19	10.268
482.53	10.275
482.88	10.842
483.23	9.766
483.58	11.192
483.92	10.872
484.27	9.717
484.62	9.397
484.97	9.775
485.31	9.726
485.66	9.046
486.01	8.475
486.36	8.443
486.70	8.529
487.05	8.638
487.40	9.116
487.75	9.118
488.09	9.736
488.44	9.640
488.79	10.380
489.13	10.237
489.48	10.440
489.83	10.056
490.17	9.996
490.52	9.965
490.87	10.403
491.22	10.141
491.56	9.749
491.91	10.191
492.26	9.600
492.60	10.691
492.95	9.448
493.30	9.953
493.64	10.173
493.99	9.796
494.34	10.685
494.68	10.027
495.03	10.479
495.37	10.330
495.72	10.088
496.07	10.255
496.41	9.646
496.76	9.982
497.11	9.770
497.45	10.480
497.80	9.837
498.14	10.338
498.49	9.707
498.84	10.499
499.18	9.857
499.53	9.829
499.87	10.158
500.22	10.127
500.56	10.583
500.91	10.096
501.26	10.194
501.60	10.157
501.95	10.174
502.29	10.216
502.64	10.475
502.98	10.519
503.33	9.963
503.67	10.255
504.02	9.682
504.36	10.061
504.71	9.868
505.06	10.988
505.40	10.452
505.75	9.740
506.09	10.253
506.44	10.459
506.78	9.839
507.13	9.894
507.47	10.556
507.82	10.385
508.16	10.689
508.51	10.502
508.85	9.682
509.19	10.714
509.54	9.745
509.88	9.840
510.23	9.563
510.57	11.146
510.92	10.461
511.26	10.483
511.61	11.048
511.95	10.177
512.30	10.127
512.64	10.263
512.98	11.254
513.33	10.546
513.67	10.352
514.02	10.065
514.36	10.377
514.70	10.625
515.05	10.541
515.39	10.544
515.74	10.923
516.08	10.565
516.42	11.765
516.77	11.761
517.11	10.100
517.46	11.005
517.80	11.324
518.14	10.365
518.49	10.793
518.83	10.739
519.17	10.912
519.52	11.262
519.86	11.409
520.20	10.983
520.55	11.071
520.89	10.706
521.23	11.942
521.58	11.525
521.92	12.247
522.26	10.128
522.61	10.654
522.95	11.541
523.29	11.503
523.64	11.402
523.98	11.645
524.32	11.037
524.66	11.124
525.01	11.152
525.35	10.967
525.69	10.899
526.04	11.153
526.38	11.226
526.72	11.963
527.06	10.672
527.41	10.520
527.75	11.511
528.09	11.496
528.43	11.345
528.78	11.924
529.12	10.727
529.46	11.268
529.80	11.510
530.15	11.838
530.49	10.769
530.83	12.089
531.17	13.055
531.51	12.711
531.86	11.161
532.20	12.712
532.54	11.787
532.88	12.003
533.22	11.430
533.57	12.222
533.91	11.078
534.25	10.996
534.59	11.287
534.93	11.184
535.27	11.527
535.62	11.600
535.96	11.990
536.30	11.825
536.64	11.526
536.98	11.281
537.32	11.587
537.66	11.267
538.01	12.245
538.35	11.765
538.69	12.572
539.03	11.761
539.37	10.927
539.71	10.434
540.05	12.484
540.39	10.365
540.73	11.255
541.07	11.746
541.42	12.329
541.76	12.129
542.10	11.966
542.44	11.192
542.78	11.989
543.12	11.964
543.46	12.197
543.80	12.557
544.14	10.462
544.48	11.048
544.82	10.648
545.16	11.386
545.50	10.476
545.84	10.887
546.18	11.785
546.52	12.044
546.86	11.615
547.20	12.205
547.54	11.556
547.88	12.691
548.22	11.083
548.56	11.950
548.90	11.204
549.24	11.111
549.58	12.415
549.92	11.951
550.26	12.216
550.60	11.411
550.94	11.549
551.28	11.485
551.62	12.437
551.96	11.228
552.30	12.765
552.64	11.427
552.98	12.000
553.32	12.205
553.66	12.406
554.00	12.148
554.34	11.663
554.68	12.661
555.02	11.354
555.36	11.969
555.69	11.773
556.03	11.777
556.37	10.914
556.71	11.460
557.05	11.905
557.39	11.337
557.73	12.209
558.07	11.385
558.41	11.433
558.75	12.270
559.08	11.335
559.42	12.169
559.76	12.353
560.10	11.706
560.44	11.111
560.78	11.643
561.12	11.873
561.45	11.864
561.79	10.613
562.13	10.999
562.47	10.997
562.81	11.576
563.15	10.970
563.48	11.472
563.82	11.285
564.16	11.184
564.50	10.547
564.84	10.809
565.17	10.682
565.51	10.671
565.85	11.612
566.19	10.708
566.52	10.893
566.86	10.609
567.20	10.436
567.54	10.046
567.88	10.266
568.21	10.952
568.55	10.364
568.89	10.117
569.23	9.804
569.56	10.121
569.90	9.887
570.24	9.365
570.57	9.283
570.91	9.050
571.25	8.894
571.59	8.925
571.92	8.813
572.26	9.012
572.60	9.249
572.93	9.085
573.27	9.672
573.61	9.380
573.95	9.354
574.28	8.593
574.62	8.868
574.96	8.507
575.29	8.802
575.63	8.867
575.97	8.670
576.30	9.241
576.64	8.971
576.98	8.726
577.31	8.295
577.65	8.512
577.98	8.484
578.32	8.400
578.66	8.512
578.99	8.446
579.33	8.666
579.67	8.392
580.00	8.679
580.34	8.543
580.67	8.461
581.01	8.950
581.35	8.100
581.68	8.295
582.02	8.081
582.35	8.192
582.69	8.490
583.02	8.328
583.36	8.785
583.70	8.741
584.03	9.065
584.37	8.986
584.70	8.516
585.04	8.831
585.37	8.784
585.71	8.741
586.04	8.939
586.38	9.013
586.72	9.141
587.05	8.476
587.39	8.285
587.72	8.606
588.06	8.591
588.39	8.779
588.73	8.654
589.06	9.193
589.40	8.788
589.73	9.081
590.07	9.146
590.40	8.988
590.73	9.251
591.07	9.972
591.40	9.827
591.74	10.130
592.07	9.686
592.41	9.591
592.74	9.176
593.08	8.894
593.41	8.890
593.75	8.620
594.08	8.884
594.41	8.802
594.75	9.094
595.08	9.198
595.42	9.352
595.75	8.868
596.09	9.425
596.42	9.627
596.75	9.540
597.09	10.130
597.42	9.064
597.75	9.401
598.09	10.043
598.42	8.849
598.76	9.526
599.09	8.628
599.42	8.770
599.76	9.224
600.09	8.852
600.42	8.656
600.76	8.857
601.09	8.998
601.42	8.904
601.76	9.184
602.09	9.249
602.42	9.236
602.76	9.553
603.09	9.363
603.42	9.684
603.76	9.032
604.09	8.957
604.42	9.254
604.76	9.869
605.09	9.393
605.42	9.192
605.75	9.603
606.09	8.540
606.42	9.358
606.75	9.166
607.09	9.627
607.42	9.114
607.75	8.481
608.08	8.424
608.42	9.099
608.75	9.874
609.08	9.713
609.41	9.852
609.75	9.338
610.08	9.755
610.41	8.892
610.74	9.319
611.07	9.783
611.41	9.814
611.74	10.055
612.07	8.954
612.40	9.916
612.73	10.105
613.07	10.022
613.40	9.742
613.73	9.124
614.06	9.946
614.39	10.488
614.72	9.316
615.06	10.242
615.39	9.395
615.72	9.509
616.05	9.410
616.38	10.006
616.71	10.095
617.05	10.836
617.38	9.982
617.71	10.270
618.04	9.916
618.37	9.994
618.70	10.579
619.03	11.118
619.36	10.794
619.69	10.423
620.03	10.027
620.36	10.695
620.69	11.096
621.02	9.956
621.35	10.180
621.68	10.436
622.01	10.217
622.34	10.363
622.67	10.951
623.00	10.051
623.33	10.865
623.66	10.722
623.99	10.236
624.32	10.200
624.65	10.311
624.99	9.561
625.32	10.210
625.65	10.819
625.98	9.992
626.31	10.964
626.64	11.347
626.97	11.305
627.30	10.723
627.63	11.731
627.96	12.027
628.29	11.724
628.62	12.077
628.95	12.925
629.28	11.679
629.61	11.457
629.94	11.810
630.26	12.011
630.59	11.821
630.92	11.590
631.25	11.155
631.58	11.712
631.91	11.460
632.24	10.970
632.57	12.277
632.90	11.842
633.23	11.745
633.56	12.994
633.89	13.137
634.22	12.145
634.55	13.136
634.88	12.216
635.20	12.784
635.53	13.253
635.86	12.748
636.19	12.824
636.52	13.610
636.85	12.486
637.18	12.097
637.51	13.712
637.83	9.988
638.16	11.125
638.49	12.594
638.82	12.642
639.15	14.000
639.48	12.968
639.81	12.466
640.13	15.365
640.46	14.497
640.79	13.606
641.12	12.517
641.45	13.128
641.77	12.518
642.10	13.158
642.43	14.565
642.76	13.622
643.09	14.724
643.41	14.112
643.74	14.815
644.07	13.415
644.40	15.184
644.73	16.063
645.05	14.739
645.38	14.376
645.71	13.688
646.04	13.787
646.36	15.526
646.69	15.552
647.02	15.646
647.35	15.464
647.67	13.982
648.00	16.585
648.33	15.512
648.66	14.848
648.98	15.442
649.31	13.602
649.64	13.303
649.96	13.413
650.29	14.218
650.62	11.812
650.94	15.397
651.27	17.230
651.60	14.975
651.92	16.933
652.25	11.726
652.58	14.330
652.90	14.850
653.23	14.022
653.56	14.646
653.88	16.799
654.21	16.272
654.54	13.366
654.86	15.421
655.19	11.216
655.52	7.292
655.84	5.893
656.17	7.421
656.49	9.792
656.82	10.270
657.15	7.853
657.47	6.085
657.80	4.869
658.13	5.109
658.45	7.846
658.78	7.995
659.10	8.695
659.43	9.837
659.75	10.049
660.08	11.582
660.41	12.197
660.73	16.137
661.06	14.172
661.38	17.636
661.71	15.577
662.03	16.963
662.36	15.507
662.68	15.663
663.01	17.172
663.33	16.773
663.66	16.597
663.98	15.767
664.31	13.025
664.63	13.968
664.96	14.286
665.28	19.057
665.61	15.984
665.93	13.280
666.26	18.053
666.58	15.063
666.91	15.011
667.23	17.303
667.56	14.039
667.88	17.308
668.21	16.631
668.53	17.787
668.86	18.182
669.18	18.550
669.50	17.609
669.83	16.340
670.15	18.000
670.48	16.340
670.80	15.733
671.13	15.074
671.45	14.468
671.77	16.497
672.10	15.527
672.42	13.604
672.75	16.418
673.07	12.676
673.39	13.201
673.72	14.453
674.04	15.294
674.37	15.534
674.69	18.405
675.01	15.481
675.34	16.838
675.66	19.789
675.98	16.497
676.31	17.227
676.63	17.197
676.95	17.400
677.28	16.355
677.60	15.165
677.92	15.823
678.25	14.990
678.57	15.936
678.89	14.830
679.22	17.092
679.54	16.031
679.86	14.679
680.18	14.848
680.51	16.489
680.83	14.769
681.15	16.604
681.48	17.769
681.80	13.346
682.12	15.326
682.44	13.540
682.77	16.497
683.09	16.309
683.41	16.186
683.73	15.673
684.06	16.529
684.38	15.656
684.70	18.023
685.02	17.824
685.34	15.018
685.67	13.287
685.99	13.746
686.31	12.969
686.63	13.604
686.96	14.821
687.28	14.801
687.60	14.130
687.92	14.991
688.24	15.970
688.56	16.466
688.89	16.805
689.21	19.214
689.53	16.910
689.85	18.182
690.17	16.356
690.49	17.834
690.82	16.355
691.14	16.741
691.46	15.401
691.78	16.466
692.10	16.529
692.42	13.373
692.74	15.353
693.06	16.809
693.39	16.632
693.71	14.192
694.03	16.842
694.35	15.584
694.67	17.620
694.99	18.293
695.31	17.157
695.63	15.789
695.95	15.159
696.27	16.497
696.59	17.617
696.91	18.394
697.23	13.380
697.56	16.631
697.88	14.315
698.20	15.833
698.52	17.204
698.84	16.481
699.16	17.512
699.48	15.439
699.80	15.217
700.12	18.961
700.44	19.098
700.76	18.785
701.08	16.092
701.40	18.436
701.72	20.408
702.04	23.011
702.36	16.714
702.68	19.547
703.00	20.499
703.32	18.617
703.64	16.622
703.96	20.056
704.28	19.767
704.60	19.355
704.91	19.881
705.23	22.287
705.55	25.249
705.87	25.249
706.19	18.728
706.51	19.315
706.83	23.030
707.15	21.849
707.47	19.697
707.79	17.445
708.11	18.037
708.43	16.429
708.74	17.092
709.06	20.000
709.38	19.685
709.70	21.221
710.02	19.881
710.34	18.788
710.66	22.388
710.98	23.011
711.29	21.802
711.61	22.124
711.93	20.192
712.25	22.508
712.57	21.691
712.89	21.453
713.20	20.365
713.52	24.671
713.84	20.886
714.16	20.122
714.48	18.103
714.80	24.924
715.11	21.326
715.43	17.211
715.75	19.710
716.07	21.725
716.39	17.868
716.70	23.920
717.02	21.223
717.34	22.968
717.66	26.119
717.97	23.904
718.29	20.000
718.61	24.088
718.93	23.897
719.24	23.183
719.56	21.017
719.88	20.000
720.20	24.324
720.51	22.300
720.83	24.907
721.15	20.896
721.46	21.986
721.78	25.448
722.10	23.396
722.42	24.060
722.73	26.592
723.05	20.902
723.37	20.648
723.68	22.780
724.00	19.512
724.32	26.613
724.63	22.358
724.95	23.431
725.27	27.530
725.58	24.219
725.90	28.102
726.22	21.509
726.53	21.528
726.85	26.280
727.16	25.979
727.48	24.113
727.80	18.939
728.11	24.638
728.43	20.000
728.74	21.505
729.06	25.547
729.38	23.897
729.69	24.911
730.01	19.795
730.32	24.306
730.64	24.080
730.96	20.792
731.27	21.192
731.59	20.489
731.90	25.364
732.22	19.565
732.53	21.672
732.85	20.513
733.16	21.865
733.48	19.269
733.80	17.208
734.11	21.338
734.43	22.189
734.74	16.857
735.06	16.619
735.37	22.832
735.69	19.745
736.00	22.222
736.32	22.741
736.63	16.294
736.95	22.045
737.26	15.986
737.58	21.613
737.89	25.084
738.21	23.891
738.52	21.071
738.83	22.264
739.15	18.846
739.46	27.007
739.78	22.917
740.09	19.077
740.41	19.677
740.72	20.209
741.04	23.704
741.35	21.250
741.66	29.778
741.98	23.113
742.29	28.708
742.61	31.466
742.92	24.434
743.23	30.342
743.55	24.400
743.86	28.509
744.18	31.416
744.49	29.665
744.80	25.822
745.12	30.000
745.43	25.551
745.74	33.333
746.06	26.606
746.37	25.112
746.68	25.792
747.00	27.315
747.31	28.571
747.62	22.124
747.94	25.991
748.25	22.979
748.56	29.515
748.88	26.733
749.19	31.000
749.50	31.628
749.82	25.610
750.13	23.265
750.44	23.358
750.75	24.912
751.07	22.830
751.38	20.906
751.69	25.632
752.01	21.429
752.32	23.827
752.63	24.468
752.94	22.951
753.26	27.200
753.57	21.951
753.88	25.391
754.19	21.429
754.51	26.042
754.82	24.188
755.13	23.019
755.44	22.556
755.75	23.358
756.07	19.858
756.38	18.978
756.69	21.812
757.00	17.665
757.31	17.804
757.63	22.515
757.94	19.035
758.25	18.137
758.56	19.012
758.87	16.129
759.18	19.091
759.50	21.317
759.81	19.315
760.12	17.188
760.43	21.203
760.74	18.478
761.05	20.621
761.36	19.251
761.67	18.182
761.99	20.807
762.30	24.306
762.61	19.466
762.92	24.219
763.23	26.050
763.54	27.600
763.85	23.047
764.16	25.000
764.47	22.814
764.78	19.435
765.10	19.304
765.41	21.239
765.72	20.359
766.03	21.630
766.34	19.000
766.65	23.404
766.96	22.222
767.27	27.411
767.58	30.208
767.89	31.579
768.20	31.609
768.51	29.949
768.82	31.651
769.13	27.236
769.44	25.101
769.75	20.601
770.06	18.349
770.37	25.792
770.68	28.241
770.99	21.778
771.30	22.951
771.61	25.112
771.92	25.410
772.23	26.891
772.54	24.615
772.85	31.937
773.16	34.043
773.47	32.065
773.78	32.487
774.09	29.167
774.39	36.842
774.70	28.395
775.01	39.130
775.32	41.176
775.63	33.553
775.94	37.410
776.25	48.031
776.56	41.045
776.87	40.164
777.18	47.656
777.48	50.382
777.79	42.424
778.10	43.704
778.41	48.214
778.72	34.307
779.03	34.899
779.34	38.255
779.65	40.541
779.95	32.515
780.26	37.908
780.57	49.655
780.88	50.000
781.19	40.602
781.50	43.243
781.80	37.736
782.11	34.463
782.42	32.278
782.73	36.196
783.04	41.216
783.34	35.915
783.65	42.466
783.96	35.821
784.27	41.958
784.57	31.655
784.88	37.963
785.19	56.349
785.50	46.226
785.81	49.254
786.11	48.361
786.42	41.860
786.73	49.558
787.04	48.113
787.34	54.464
787.65	46.000
787.96	51.351
788.26	39.669
788.57	44.915
788.88	55.372
789.19	47.917
789.49	46.212
789.80	34.351
790.11	58.095
790.41	47.525
790.72	60.241
791.03	55.435
791.33	67.442
791.64	52.577
791.95	57.426
792.25	68.889
792.56	64.935
792.87	70.513
793.17	75.949
793.48	63.218
793.79	67.816
794.09	61.364
794.40	43.697
794.70	50.735
795.01	37.778
795.32	40.288
795.62	44.094
795.93	48.276
796.23	47.788
796.54	55.294
796.85	60.811
797.15	74.648
797.46	60.606
797.76	69.880
798.07	74.684
798.37	55.385
798.68	57.576
798.99	54.930
799.29	61.039
799.60	55.682
799.90	67.123
800.21	97.015
800.51	77.586
800.82	89.474
801.12	80.328
801.43	83.333
801.73	64.865
802.04	84.127
802.34	85.185
802.65	90.625
802.95	96.610
803.26	98.438
803.56	51.429
803.87	56.923
804.17	89.706
804.48	92.593
804.78	74.138
805.09	77.941
805.39	82.692
805.70	89.286
806.00	86.885
806.30	80.303
806.61	59.756
806.91	53.165
807.22	72.368
807.52	47.761
807.83	74.648
808.13	90.625
808.43	63.333
808.74	69.737
809.04	84.058
809.35	76.119
809.65	61.842
809.95	82.258
810.26	79.661
810.56	80.952
810.86	109.091
811.17	104.762
811.47	83.333
811.77	77.778
812.08	120.000
812.38	108.000
812.69	122.222
812.99	136.364
813.29	106.122
813.59	90.476
813.90	108.163
814.20	78.182
814.50	61.538
814.81	77.941
815.11	97.959
815.41	91.803
815.72	135.714
816.02	103.636
816.32	88.095
816.62	102.500
816.93	112.195
817.23	119.048
817.53	113.636
817.84	130.303
818.14	121.739
818.44	97.778
818.74	161.765
819.04	127.500
819.35	131.429
819.65	132.353
819.95	160.714
820.25	205.000
820.56	133.333
820.86	120.455
821.16	132.558
821.46	135.897
821.76	102.000
822.07	120.000
822.37	115.000
822.67	154.545
822.97	90.196
823.27	178.571
823.57	100.000
823.88	152.500
824.18	186.667
824.48	147.619
824.78	200.000
825.08	158.333
825.38	127.027
825.69	124.390
825.99	183.333
826.29	158.621
826.59	150.000
826.89	113.158
827.19	144.118
827.49	177.419
827.79	140.909
828.09	120.455
828.39	91.489
828.70	122.449
829.00	144.444
829.30	132.258
829.60	147.500
829.90	246.667
830.20	164.286
830.50	195.652
830.80	217.391
831.10	173.333
831.40	166.667
831.70	195.652
832.00	196.154
832.30	174.074
832.60	312.500
832.90	170.000
833.20	371.429
833.50	161.290
833.80	162.069
834.10	190.625
834.40	200.000
834.70	261.111
835.00	261.905
835.30	137.143
835.60	292.308
835.90	186.207
836.20	314.286
836.50	175.862
836.80	196.000
837.10	166.667
837.40	185.714
837.70	282.353
838.00	185.185
838.30	204.762
838.60	266.667
838.90	230.769
839.19	260.000
839.49	407.143
839.79	305.000
840.09	275.000
840.39	252.381
840.69	247.826
840.99	261.111
841.29	450.000
841.59	291.667
841.88	306.250
842.18	172.414
842.48	209.524
842.78	200.000
843.08	226.087
843.38	153.125
843.68	666.667
843.97	196.154
844.27	179.310
844.57	271.429
844.87	337.500
845.17	203.704
845.47	1566.667
845.76	455.556
846.06	288.235
846.36	600.000
846.66	235.714
846.96	268.750
847.25	372.727
847.55	354.545
847.85	252.174
848.15	470.000
848.44	314.286
848.74	183.333
849.04	305.882
849.34	470.000
849.63	247.368
849.93	390.909
850.23	860.000
850.53	385.714
850.82	2800.000
851.12	-3500.000
851.42	3600.000
851.71	240.000
852.01	-1300.000
852.31	204.167
852.61	1300.000
852.90	252.381
853.20	208.000
853.50	270.588
853.79	228.571
854.09	212.500
854.39	268.750
854.68	170.270
854.98	164.516
855.28	146.667
855.57	168.966
855.87	181.481
856.17	205.263
856.46	240.000
856.76	247.059
857.05	182.759
857.35	200.000
857.65	246.667
857.94	200.000
858.24	196.154
858.53	285.000
858.83	254.545
859.13	346.667
859.42	0.000
859.72	555.556
860.01	427.273
860.31	227.273
860.60	294.737
860.90	234.783
861.20	544.444
861.49	425.000
861.79	-4000.000
862.08	687.500
862.38	252.381
862.67	253.846
862.97	352.941
863.26	533.333
863.56	222.222
863.85	308.333
864.15	612.500
864.44	380.000
864.74	816.667
865.03	612.500
865.33	278.947
865.62	427.273
865.92	461.538
866.21	400.000
866.51	0.000
866.80	345.455
867.10	980.000
867.39	438.462
867.69	418.182
867.98	236.842
868.27	500.000
868.57	268.421
868.86	-4100.000
869.16	337.500
869.45	1850.000
869.75	-3100.000
870.04	358.333
870.33	671.429
870.63	925.000
870.92	2300.000
871.22	571.429
871.51	305.882
871.80	238.095
872.10	321.429
>>>>>End Processed Spectral Data<<<<<
