SpectraSuite Data File
++++++++++++++++++++++++++++++++++++
Date: Wed May 13 16:20:05 PDT 2015
User: schluterlab
Dark Spectrum Present: Yes
Reference Spectrum Present: Yes
Number of Sampled Component Spectra: 1
Spectrometers: USB2E3373
Integration Time (usec): 3000 (USB2E3373)
Spectra Averaged: 3 (USB2E3373)
Boxcar Smoothing: 0 (USB2E3373)
Correct for Electrical Dark: No (USB2E3373)
Strobe/Lamp Enabled: No (USB2E3373)
Correct for Detector Non-linearity: No (USB2E3373)
Correct for Stray Light: No (USB2E3373)
Number of Pixels in Processed Spectrum: 2048
>>>>>Begin Processed Spectral Data<<<<<
178.53	0.000
178.91	-1175.000
179.29	-1075.000
179.67	-227.778
180.04	-1100.000
180.42	2300.000
180.80	1000.000
181.18	-1025.000
181.56	600.000
181.94	0.000
182.31	-600.000
182.69	1566.667
183.07	-600.000
183.45	-400.000
183.83	400.000
184.20	-290.000
184.58	1800.000
184.96	5700.000
185.34	-720.000
185.72	-500.000
186.09	-1900.000
186.47	2550.000
186.85	2350.000
187.23	4800.000
187.61	-1666.667
187.98	1400.000
188.36	481.818
188.74	500.000
189.12	-900.000
189.49	460.000
189.87	-3500.000
190.25	-1175.000
190.63	328.571
191.00	407.692
191.38	883.333
191.76	-975.000
192.14	1350.000
192.51	675.000
192.89	833.333
193.27	462.500
193.65	-1050.000
194.02	510.000
194.40	960.000
194.78	490.000
195.15	483.333
195.53	550.000
195.91	-1800.000
196.29	287.500
196.66	284.211
197.04	-310.000
197.42	0.000
197.79	530.000
198.17	-3800.000
198.55	585.714
198.92	737.500
199.30	960.000
199.68	0.000
200.05	300.000
200.43	571.429
200.81	4700.000
201.18	1466.667
201.56	-1533.333
201.94	566.667
202.31	611.111
202.69	408.333
203.07	510.000
203.44	0.000
203.82	1125.000
204.19	642.857
204.57	421.429
204.95	675.000
205.32	1366.667
205.70	436.364
206.08	342.857
206.45	1800.000
206.83	331.250
207.20	866.667
207.58	860.000
207.96	255.556
208.33	587.500
208.71	-700.000
209.08	628.571
209.46	555.556
209.84	390.909
210.21	-1233.333
210.59	1200.000
210.96	-487.500
211.34	1850.000
211.71	540.000
212.09	833.333
212.46	0.000
212.84	1433.333
213.22	1150.000
213.59	-3000.000
213.97	700.000
214.34	757.143
214.72	527.273
215.09	940.000
215.47	-2100.000
215.84	-2350.000
216.22	1633.333
216.59	385.714
216.97	1175.000
217.34	436.364
217.72	-566.667
218.09	0.000
218.47	-4400.000
218.84	511.111
219.22	585.714
219.59	1700.000
219.97	-557.143
220.34	820.000
220.72	-1233.333
221.09	421.429
221.47	1300.000
221.84	-866.667
222.22	0.000
222.59	1375.000
222.97	-2200.000
223.34	1120.000
223.72	307.692
224.09	1000.000
224.46	1600.000
224.84	-4300.000
225.21	-1020.000
225.59	-5200.000
225.96	510.000
226.34	260.000
226.71	2050.000
227.08	662.500
227.46	450.000
227.83	-700.000
228.21	-2200.000
228.58	566.667
228.95	-2000.000
229.33	-1650.000
229.70	1366.667
230.08	728.571
230.45	-660.000
230.82	383.333
231.20	766.667
231.57	542.857
231.95	500.000
232.32	250.000
232.69	381.818
233.07	671.429
233.44	346.154
233.81	-1800.000
234.19	321.053
234.56	491.667
234.93	383.333
235.31	490.909
235.68	276.923
236.05	328.571
236.43	200.000
236.80	310.526
237.17	5600.000
237.55	223.810
237.92	210.714
238.29	304.762
238.67	183.871
239.04	244.828
239.41	197.222
239.79	154.348
240.16	173.810
240.53	165.909
240.91	127.451
241.28	134.000
241.65	144.000
242.02	137.681
242.40	135.484
242.77	140.000
243.14	97.849
243.51	104.494
243.89	116.471
244.26	98.889
244.63	115.054
245.00	98.936
245.38	104.950
245.75	103.738
246.12	92.661
246.49	93.431
246.87	106.400
247.24	93.846
247.61	90.000
247.98	88.235
248.36	85.135
248.73	88.535
249.10	94.904
249.47	84.746
249.84	83.957
250.22	77.540
250.59	81.657
250.96	82.323
251.33	78.673
251.70	86.634
252.08	77.619
252.45	77.130
252.82	73.043
253.19	75.745
253.56	77.647
253.94	77.593
254.31	73.828
254.68	76.923
255.05	76.384
255.42	76.423
255.79	73.162
256.16	74.007
256.54	67.845
256.91	71.174
257.28	64.748
257.65	70.957
258.02	71.429
258.39	66.246
258.76	71.572
259.14	68.155
259.51	69.301
259.88	68.944
260.25	73.112
260.62	68.208
260.99	69.255
261.36	71.171
261.73	68.481
262.10	69.767
262.47	71.549
262.85	65.460
263.22	68.376
263.59	68.661
263.96	63.187
264.33	65.274
264.70	64.474
265.07	67.775
265.44	67.424
265.81	61.071
266.18	68.090
266.55	66.098
266.92	70.025
267.29	66.435
267.66	64.679
268.03	62.273
268.40	63.785
268.77	68.258
269.14	62.613
269.51	62.528
269.88	67.133
270.25	63.657
270.62	64.494
270.99	66.022
271.36	61.588
271.73	64.953
272.10	61.739
272.47	65.806
272.84	62.554
273.21	63.732
273.58	61.790
273.95	59.119
274.32	58.884
274.69	62.099
275.06	59.252
275.43	66.383
275.80	62.124
276.17	60.285
276.54	63.825
276.91	61.660
277.28	61.133
277.65	63.056
278.02	61.698
278.39	61.719
278.76	57.455
279.13	58.113
279.50	60.521
279.87	59.562
280.23	61.876
280.60	61.122
280.97	58.780
281.34	58.584
281.71	60.364
282.08	58.925
282.45	57.091
282.82	59.858
283.19	59.180
283.56	57.544
283.92	58.545
284.29	58.025
284.66	56.987
285.03	55.696
285.40	57.218
285.77	56.229
286.14	54.231
286.51	57.000
286.87	54.530
287.24	57.818
287.61	57.143
287.98	56.331
288.35	56.577
288.72	54.206
289.08	53.521
289.45	52.059
289.82	52.683
290.19	50.863
290.56	51.149
290.93	51.964
291.29	53.067
291.66	50.885
292.03	52.035
292.40	53.010
292.77	50.444
293.13	48.955
293.50	50.000
293.87	48.296
294.24	48.296
294.60	48.763
294.97	47.093
295.34	47.391
295.71	47.727
296.08	47.436
296.44	47.730
296.81	46.367
297.18	46.341
297.55	44.063
297.91	47.361
298.28	48.193
298.65	47.650
299.02	45.850
299.38	46.215
299.75	43.531
300.12	46.616
300.48	44.625
300.85	44.143
301.22	47.516
301.59	43.056
301.95	45.340
302.32	45.315
302.69	43.847
303.05	44.364
303.42	45.679
303.79	43.828
304.15	43.473
304.52	44.496
304.89	45.761
305.25	43.735
305.62	42.016
305.99	44.510
306.35	44.855
306.72	44.283
307.09	44.173
307.45	45.270
307.82	41.853
308.19	45.033
308.55	44.876
308.92	45.113
309.29	42.872
309.65	43.372
310.02	43.763
310.38	43.871
310.75	43.823
311.12	45.241
311.48	46.082
311.85	44.235
312.22	43.704
312.58	44.283
312.95	46.674
313.31	43.010
313.68	47.817
314.05	46.844
314.41	45.930
314.78	44.512
315.14	45.581
315.51	46.138
315.87	45.743
316.24	47.170
316.61	45.517
316.97	46.380
317.34	46.477
317.70	47.036
318.07	47.931
318.43	47.847
318.80	47.516
319.16	48.588
319.53	48.311
319.89	49.619
320.26	49.700
320.62	50.595
320.99	50.606
321.35	51.515
321.72	50.719
322.08	51.037
322.45	53.333
322.81	52.229
323.18	51.734
323.54	51.484
323.91	53.019
324.27	54.015
324.64	55.359
325.00	55.546
325.37	55.778
325.73	56.822
326.10	56.399
326.46	58.423
326.83	59.275
327.19	57.899
327.56	59.582
327.92	58.705
328.29	60.692
328.65	60.589
329.01	60.740
329.38	61.795
329.74	60.295
330.11	62.582
330.47	62.534
330.84	62.684
331.20	60.565
331.56	62.385
331.93	64.722
332.29	62.289
332.66	62.301
333.02	62.157
333.38	61.337
333.75	62.299
334.11	62.811
334.48	61.934
334.84	62.408
335.20	64.364
335.57	63.645
335.93	60.893
336.29	62.271
336.66	63.841
337.02	62.172
337.38	63.519
337.75	62.478
338.11	62.668
338.47	63.444
338.84	63.886
339.20	60.550
339.56	64.325
339.93	64.182
340.29	63.134
340.65	62.121
341.02	63.613
341.38	63.790
341.74	63.158
342.11	63.231
342.47	64.493
342.83	63.185
343.20	63.896
343.56	63.353
343.92	64.123
344.28	62.160
344.65	64.402
345.01	62.626
345.37	61.664
345.73	64.805
346.10	64.706
346.46	63.898
346.82	63.097
347.19	64.829
347.55	63.875
347.91	63.916
348.27	64.585
348.63	64.214
349.00	63.188
349.36	62.315
349.72	62.550
350.08	63.857
350.45	64.443
350.81	63.769
351.17	63.452
351.53	64.865
351.89	62.129
352.26	62.904
352.62	62.550
352.98	63.614
353.34	64.092
353.70	63.912
354.07	65.645
354.43	63.730
354.79	63.475
355.15	63.767
355.51	66.507
355.87	66.449
356.24	65.228
356.60	62.951
356.96	65.648
357.32	66.558
357.68	64.646
358.04	64.133
358.40	65.558
358.77	64.554
359.13	64.246
359.49	64.863
359.85	65.397
360.21	67.145
360.57	66.226
360.93	66.154
361.29	66.440
361.66	64.241
362.02	65.597
362.38	66.388
362.74	66.964
363.10	66.913
363.46	66.691
363.82	67.271
364.18	65.345
364.54	68.351
364.90	66.289
365.26	67.500
365.62	67.275
365.98	67.421
366.35	65.616
366.71	67.245
367.07	66.642
367.43	68.940
367.79	67.595
368.15	69.468
368.51	68.677
368.87	68.237
369.23	68.252
369.59	68.863
369.95	69.853
370.31	68.162
370.67	67.391
371.03	69.513
371.39	69.606
371.75	70.809
372.11	70.128
372.47	71.041
372.83	72.190
373.19	70.231
373.55	71.397
373.91	73.196
374.27	69.210
374.63	72.218
374.99	72.669
375.35	71.319
375.71	71.213
376.07	70.988
376.42	72.283
376.78	72.763
377.14	71.642
377.50	72.583
377.86	73.271
378.22	73.388
378.58	72.055
378.94	73.916
379.30	74.237
379.66	74.683
380.02	73.403
380.38	72.435
380.74	74.730
381.09	74.450
381.45	76.214
381.81	73.649
382.17	75.414
382.53	75.849
382.89	75.556
383.25	75.547
383.61	77.261
383.97	75.235
384.32	76.045
384.68	75.403
385.04	77.566
385.40	75.294
385.76	75.737
386.12	77.202
386.48	77.281
386.83	79.217
387.19	79.035
387.55	78.541
387.91	76.784
388.27	76.640
388.62	79.963
388.98	76.904
389.34	77.597
389.70	76.763
390.06	79.278
390.42	79.702
390.77	78.499
391.13	79.643
391.49	79.886
391.85	79.949
392.20	78.738
392.56	79.293
392.92	80.577
393.28	78.225
393.64	78.657
393.99	77.520
394.35	79.094
394.71	78.858
395.07	78.505
395.42	81.520
395.78	80.153
396.14	79.454
396.50	82.080
396.85	80.165
397.21	80.456
397.57	79.107
397.92	79.748
398.28	81.726
398.64	80.167
399.00	78.400
399.35	79.244
399.71	79.688
400.07	78.770
400.42	79.509
400.78	80.579
401.14	79.817
401.49	81.134
401.85	79.855
402.21	77.126
402.57	79.642
402.92	79.382
403.28	80.887
403.63	80.631
403.99	79.554
404.35	80.364
404.70	80.276
405.06	78.800
405.42	81.098
405.77	78.743
406.13	78.950
406.49	80.485
406.84	78.145
407.20	79.846
407.55	79.068
407.91	81.933
408.27	81.366
408.62	79.771
408.98	79.657
409.34	79.582
409.69	79.806
410.05	80.855
410.40	81.162
410.76	79.630
411.11	78.227
411.47	78.914
411.83	79.658
412.18	78.973
412.54	81.009
412.89	78.614
413.25	78.512
413.60	79.926
413.96	77.231
414.31	78.372
414.67	78.961
415.03	80.199
415.38	79.446
415.74	78.521
416.09	80.405
416.45	79.987
416.80	80.040
417.16	80.831
417.51	81.022
417.87	78.227
418.22	78.170
418.58	80.181
418.93	78.747
419.29	78.740
419.64	78.338
420.00	79.085
420.35	78.899
420.71	79.558
421.06	79.177
421.42	78.304
421.77	79.036
422.12	79.394
422.48	77.604
422.83	79.033
423.19	78.564
423.54	79.745
423.90	78.667
424.25	78.224
424.61	78.155
424.96	79.417
425.31	78.682
425.67	77.528
426.02	77.829
426.38	78.816
426.73	78.233
427.09	78.541
427.44	78.033
427.79	78.838
428.15	79.286
428.50	77.531
428.85	78.605
429.21	77.637
429.56	79.575
429.92	77.554
430.27	78.550
430.62	77.880
430.98	78.827
431.33	76.959
431.68	79.319
432.04	76.997
432.39	79.555
432.74	78.815
433.10	79.683
433.45	80.000
433.80	79.989
434.16	77.030
434.51	77.158
434.86	77.480
435.22	79.211
435.57	78.663
435.92	78.701
436.28	78.944
436.63	78.201
436.98	79.050
437.34	79.308
437.69	78.646
438.04	77.797
438.39	78.687
438.75	79.140
439.10	78.324
439.45	78.099
439.81	79.456
440.16	76.680
440.51	77.856
440.86	78.518
441.22	78.810
441.57	78.132
441.92	78.608
442.27	78.310
442.63	78.515
442.98	79.155
443.33	78.641
443.68	77.956
444.03	77.355
444.39	77.118
444.74	78.680
445.09	77.466
445.44	76.982
445.79	76.249
446.15	75.701
446.50	77.760
446.85	77.801
447.20	76.747
447.55	78.727
447.91	77.992
448.26	77.184
448.61	78.067
448.96	76.910
449.31	78.965
449.66	76.984
450.02	77.827
450.37	76.020
450.72	77.327
451.07	77.453
451.42	75.927
451.77	75.807
452.12	74.942
452.47	76.493
452.83	77.156
453.18	73.716
453.53	78.231
453.88	75.901
454.23	75.732
454.58	76.863
454.93	78.830
455.28	75.249
455.63	77.306
455.98	77.917
456.34	76.319
456.69	78.084
457.04	77.152
457.39	77.323
457.74	77.017
458.09	76.481
458.44	76.454
458.79	74.892
459.14	76.129
459.49	76.824
459.84	76.066
460.19	75.015
460.54	73.958
460.89	75.370
461.24	76.867
461.59	77.106
461.94	74.476
462.29	73.947
462.64	74.474
462.99	73.520
463.34	75.333
463.69	75.860
464.04	74.841
464.39	74.319
464.74	74.332
465.09	74.729
465.44	75.346
465.79	74.944
466.14	73.892
466.49	73.471
466.84	73.847
467.19	73.808
467.54	73.938
467.89	73.169
468.24	73.124
468.59	74.054
468.94	73.244
469.29	73.522
469.64	74.766
469.99	73.613
470.34	73.184
470.68	74.497
471.03	73.129
471.38	75.261
471.73	73.551
472.08	73.750
472.43	73.116
472.78	73.667
473.13	73.107
473.48	72.534
473.83	74.939
474.17	73.927
474.52	74.007
474.87	72.855
475.22	73.825
475.57	71.198
475.92	73.287
476.27	71.646
476.61	72.201
476.96	72.677
477.31	71.900
477.66	71.718
478.01	70.361
478.36	72.554
478.70	71.495
479.05	70.873
479.40	72.262
479.75	71.886
480.10	72.962
480.45	70.395
480.79	71.285
481.14	71.477
481.49	71.998
481.84	72.245
482.19	70.831
482.53	70.688
482.88	71.568
483.23	71.075
483.58	70.792
483.92	71.228
484.27	70.196
484.62	71.681
484.97	70.989
485.31	74.795
485.66	75.762
486.01	73.324
486.36	70.110
486.70	66.709
487.05	68.290
487.40	69.765
487.75	68.976
488.09	69.336
488.44	68.245
488.79	69.982
489.13	69.481
489.48	69.576
489.83	69.486
490.17	69.838
490.52	68.778
490.87	68.611
491.22	69.486
491.56	69.112
491.91	68.637
492.26	68.029
492.60	68.203
492.95	68.522
493.30	68.738
493.64	69.342
493.99	68.384
494.34	68.131
494.68	68.086
495.03	67.904
495.37	65.938
495.72	69.152
496.07	69.281
496.41	66.681
496.76	67.854
497.11	66.096
497.45	67.257
497.80	67.466
498.14	67.488
498.49	67.024
498.84	67.737
499.18	66.810
499.53	67.284
499.87	66.309
500.22	66.274
500.56	68.641
500.91	66.202
501.26	66.050
501.60	68.771
501.95	66.132
502.29	68.416
502.64	67.039
502.98	66.152
503.33	65.631
503.67	65.151
504.02	66.230
504.36	65.559
504.71	66.146
505.06	65.205
505.40	65.143
505.75	65.429
506.09	66.327
506.44	67.094
506.78	65.416
507.13	66.835
507.47	65.152
507.82	65.856
508.16	66.059
508.51	67.123
508.85	65.641
509.19	66.224
509.54	64.592
509.88	65.997
510.23	65.964
510.57	65.893
510.92	64.889
511.26	64.954
511.61	64.834
511.95	63.883
512.30	64.104
512.64	64.696
512.98	65.970
513.33	64.936
513.67	62.807
514.02	64.610
514.36	65.374
514.70	65.468
515.05	64.194
515.39	65.395
515.74	64.977
516.08	63.611
516.42	64.872
516.77	65.719
517.11	64.206
517.46	64.108
517.80	63.589
518.14	63.752
518.49	65.344
518.83	62.955
519.17	64.838
519.52	64.177
519.86	63.149
520.20	62.948
520.55	64.692
520.89	65.024
521.23	64.958
521.58	63.565
521.92	65.401
522.26	62.355
522.61	64.112
522.95	62.554
523.29	64.090
523.64	64.085
523.98	64.572
524.32	64.475
524.66	63.079
525.01	63.051
525.35	62.887
525.69	62.069
526.04	62.679
526.38	63.758
526.72	61.350
527.06	62.398
527.41	62.005
527.75	63.151
528.09	64.483
528.43	62.524
528.78	64.843
529.12	62.970
529.46	62.462
529.80	62.252
530.15	63.863
530.49	61.600
530.83	62.342
531.17	64.556
531.51	63.878
531.86	63.677
532.20	63.103
532.54	62.460
532.88	62.644
533.22	61.711
533.57	61.914
533.91	61.830
534.25	62.940
534.59	62.050
534.93	62.522
535.27	62.040
535.62	62.393
535.96	63.277
536.30	62.556
536.64	61.429
536.98	62.110
537.32	62.541
537.66	63.933
538.01	63.660
538.35	61.603
538.69	62.923
539.03	62.508
539.37	61.342
539.71	60.272
540.05	62.876
540.39	62.392
540.73	60.737
541.07	62.427
541.42	62.948
541.76	62.645
542.10	62.549
542.44	62.517
542.78	62.978
543.12	60.141
543.46	61.967
543.80	61.874
544.14	61.553
544.48	62.349
544.82	62.476
545.16	62.004
545.50	60.733
545.84	62.366
546.18	62.155
546.52	60.220
546.86	60.893
547.20	61.902
547.54	60.788
547.88	62.564
548.22	61.893
548.56	61.321
548.90	60.499
549.24	61.077
549.58	61.460
549.92	60.096
550.26	61.932
550.60	59.751
550.94	61.408
551.28	59.254
551.62	62.114
551.96	60.842
552.30	60.478
552.64	61.799
552.98	60.678
553.32	59.137
553.66	61.486
554.00	60.673
554.34	59.558
554.68	60.372
555.02	59.591
555.36	60.056
555.69	59.472
556.03	58.883
556.37	60.573
556.71	60.368
557.05	59.454
557.39	58.083
557.73	60.198
558.07	60.624
558.41	59.262
558.75	59.809
559.08	60.328
559.42	60.091
559.76	59.926
560.10	58.387
560.44	61.705
560.78	58.683
561.12	59.301
561.45	58.866
561.79	58.471
562.13	59.490
562.47	59.016
562.81	59.623
563.15	59.264
563.48	58.687
563.82	59.100
564.16	60.955
564.50	59.245
564.84	58.786
565.17	59.266
565.51	59.808
565.85	59.327
566.19	58.860
566.52	60.038
566.86	59.373
567.20	59.906
567.54	59.817
567.88	59.967
568.21	59.471
568.55	60.010
568.89	60.700
569.23	59.225
569.56	60.243
569.90	61.623
570.24	60.675
570.57	59.028
570.91	59.276
571.25	59.450
571.59	59.617
571.92	60.023
572.26	59.359
572.60	58.709
572.93	57.631
573.27	59.272
573.61	59.604
573.95	60.749
574.28	58.719
574.62	59.524
574.96	58.638
575.29	58.002
575.63	58.333
575.97	58.344
576.30	58.603
576.64	59.237
576.98	59.042
577.31	59.774
577.65	59.414
577.98	59.389
578.32	58.797
578.66	58.889
578.99	58.503
579.33	58.751
579.67	57.991
580.00	58.835
580.34	58.353
580.67	58.804
581.01	58.624
581.35	59.644
581.68	60.089
582.02	58.860
582.35	59.042
582.69	58.253
583.02	57.920
583.36	58.474
583.70	57.817
584.03	57.732
584.37	58.445
584.70	59.013
585.04	57.608
585.37	58.295
585.71	58.835
586.04	57.913
586.38	58.516
586.72	58.741
587.05	57.892
587.39	58.021
587.72	57.846
588.06	57.604
588.39	58.272
588.73	57.788
589.06	58.429
589.40	57.980
589.73	58.113
590.07	58.363
590.40	57.106
590.73	57.650
591.07	58.323
591.40	57.655
591.74	58.268
592.07	57.243
592.41	57.048
592.74	58.277
593.08	57.595
593.41	58.146
593.75	56.340
594.08	56.889
594.41	56.734
594.75	57.375
595.08	56.621
595.42	57.128
595.75	56.766
596.09	57.116
596.42	56.306
596.75	57.197
597.09	56.190
597.42	56.282
597.75	57.007
598.09	55.783
598.42	55.756
598.76	57.844
599.09	57.165
599.42	56.259
599.76	57.174
600.09	55.628
600.42	55.625
600.76	55.429
601.09	55.410
601.42	55.708
601.76	56.395
602.09	56.601
602.42	56.807
602.76	55.582
603.09	56.884
603.42	57.009
603.76	55.488
604.09	56.417
604.42	55.116
604.76	56.474
605.09	56.444
605.42	55.195
605.75	55.339
606.09	56.039
606.42	56.314
606.75	55.122
607.09	55.253
607.42	55.755
607.75	54.726
608.08	55.406
608.42	54.863
608.75	53.652
609.08	54.625
609.41	54.117
609.75	53.788
610.08	56.173
610.41	55.354
610.74	56.717
611.07	55.583
611.41	55.201
611.74	55.907
612.07	55.538
612.40	55.404
612.73	55.632
613.07	55.442
613.40	55.556
613.73	54.588
614.06	55.108
614.39	54.379
614.72	54.316
615.06	54.044
615.39	54.140
615.72	54.346
616.05	53.270
616.38	54.364
616.71	53.979
617.05	54.711
617.38	54.600
617.71	55.195
618.04	55.950
618.37	54.760
618.70	54.325
619.03	53.750
619.36	53.768
619.69	54.577
620.03	55.151
620.36	53.075
620.69	56.096
621.02	55.088
621.35	52.153
621.68	52.570
622.01	53.793
622.34	55.749
622.67	54.144
623.00	51.724
623.33	51.966
623.66	54.110
623.99	55.670
624.32	54.351
624.65	53.884
624.99	53.683
625.32	53.005
625.65	53.569
625.98	56.264
626.31	53.888
626.64	54.531
626.97	53.200
627.30	52.868
627.63	54.225
627.96	53.070
628.29	53.018
628.62	52.790
628.95	53.585
629.28	51.460
629.61	51.879
629.94	53.905
630.26	54.528
630.59	54.147
630.92	51.820
631.25	49.951
631.58	51.652
631.91	51.623
632.24	53.270
632.57	51.312
632.90	51.864
633.23	53.132
633.56	52.655
633.89	52.095
634.22	51.873
634.55	53.846
634.88	54.850
635.20	51.732
635.53	52.892
635.86	53.094
636.19	49.765
636.52	51.211
636.85	53.608
637.18	51.037
637.51	52.246
637.83	49.075
638.16	52.430
638.49	52.267
638.82	53.224
639.15	52.000
639.48	51.621
639.81	54.424
640.13	50.130
640.46	51.812
640.79	50.859
641.12	53.232
641.45	51.397
641.77	54.639
642.10	52.193
642.43	53.153
642.76	50.000
643.09	50.460
643.41	50.531
643.74	54.630
644.07	50.762
644.40	52.147
644.73	51.181
645.05	52.456
645.38	51.027
645.71	53.945
646.04	53.821
646.36	54.257
646.69	53.846
647.02	49.660
647.35	53.265
647.67	50.265
648.00	51.220
648.33	53.135
648.66	50.758
648.98	51.574
649.31	49.178
649.64	50.972
649.96	51.118
650.29	51.817
650.62	50.485
650.94	51.864
651.27	52.196
651.60	52.080
651.92	50.000
652.25	52.280
652.58	53.583
652.90	51.659
653.23	49.615
653.56	50.551
653.88	51.347
654.21	52.291
654.54	51.485
654.86	52.492
655.19	51.757
655.52	46.922
655.84	49.284
656.17	63.879
656.49	84.718
656.82	82.753
657.15	60.719
657.47	44.594
657.80	33.972
658.13	35.288
658.45	50.722
658.78	49.857
659.10	49.762
659.43	51.157
659.75	52.211
660.08	54.241
660.41	55.680
660.73	56.163
661.06	54.618
661.38	51.818
661.71	53.269
662.03	51.085
662.36	47.913
662.68	52.209
663.01	50.909
663.33	52.654
663.66	50.210
663.98	53.348
664.31	51.891
664.63	48.988
664.96	51.509
665.28	48.566
665.61	50.097
665.93	51.308
666.26	50.710
666.58	54.603
666.91	53.066
667.23	51.461
667.56	47.948
667.88	52.137
668.21	51.599
668.53	50.976
668.86	49.567
669.18	51.599
669.50	53.478
669.83	54.466
670.15	51.333
670.48	52.070
670.80	53.233
671.13	51.805
671.45	51.277
671.77	52.138
672.10	50.647
672.42	52.650
672.75	49.917
673.07	51.232
673.39	52.984
673.72	50.000
674.04	53.725
674.37	47.961
674.69	50.102
675.01	49.791
675.34	50.513
675.66	55.789
675.98	49.695
676.31	52.521
676.63	51.805
676.95	50.314
677.28	52.103
677.60	51.209
677.92	53.165
678.25	50.103
678.57	51.594
678.89	52.305
679.22	50.688
679.54	49.809
679.86	51.009
680.18	51.521
680.51	51.241
680.83	50.534
681.15	51.887
681.48	50.284
681.80	50.870
682.12	49.808
682.44	50.290
682.77	50.916
683.09	51.073
683.41	49.667
683.73	50.773
684.06	51.860
684.38	50.881
684.70	50.388
685.02	51.407
685.34	49.817
685.67	49.301
685.99	50.000
686.31	52.218
686.63	46.996
686.96	48.393
687.28	50.000
687.60	50.725
687.92	50.823
688.24	50.760
688.56	51.004
688.89	51.660
689.21	54.585
689.53	51.148
689.85	54.102
690.17	45.756
690.49	49.894
690.82	51.636
691.14	49.330
691.46	50.844
691.78	49.197
692.10	51.653
692.42	48.503
692.74	51.037
693.06	51.915
693.39	50.308
693.71	48.472
694.03	49.895
694.35	50.000
694.67	48.741
694.99	53.415
695.31	51.471
695.63	52.632
695.95	53.790
696.27	51.015
696.59	53.886
696.91	51.036
697.23	46.479
697.56	52.026
697.88	48.057
698.20	51.250
698.52	48.602
698.84	49.220
699.16	50.461
699.48	50.831
699.80	54.348
700.12	54.026
700.44	53.316
700.76	53.039
701.08	56.609
701.40	51.676
701.72	54.519
702.04	55.114
702.36	52.408
702.68	54.108
703.00	54.571
703.32	49.202
703.64	50.938
703.96	52.925
704.28	52.616
704.60	52.199
704.91	54.599
705.23	51.026
705.55	58.472
705.87	51.495
706.19	54.064
706.51	52.336
706.83	53.333
707.15	54.062
707.47	50.000
707.79	53.808
708.11	50.685
708.43	50.238
708.74	51.020
709.06	55.584
709.38	48.556
709.70	52.907
710.02	52.819
710.34	50.909
710.66	54.627
710.98	52.841
711.29	50.000
711.61	55.162
711.93	52.564
712.25	56.913
712.57	58.088
712.89	54.325
713.20	48.632
713.52	55.592
713.84	51.899
714.16	51.829
714.48	54.023
714.80	59.271
715.11	53.314
715.43	51.929
715.75	51.014
716.07	57.827
716.39	55.486
716.70	55.482
717.02	56.475
717.34	50.883
717.66	57.090
717.97	55.378
718.29	51.481
718.61	48.905
718.93	58.088
719.24	56.747
719.56	50.847
719.88	55.593
720.20	56.081
720.51	54.704
720.83	52.045
721.15	51.866
721.46	53.191
721.78	54.480
722.10	59.623
722.42	60.150
722.73	56.929
723.05	59.426
723.37	54.656
723.68	59.073
724.00	56.504
724.32	52.016
724.63	54.472
724.95	53.138
725.27	54.656
725.58	56.641
725.90	59.124
726.22	56.981
726.53	52.083
726.85	58.020
727.16	56.940
727.48	52.837
727.80	54.167
728.11	53.623
728.43	53.077
728.74	53.405
729.06	51.095
729.38	54.044
729.69	60.854
730.01	54.608
730.32	52.778
730.64	54.849
730.96	50.825
731.27	53.642
731.59	52.294
731.90	48.688
732.22	53.106
732.53	53.870
732.85	53.205
733.16	52.090
733.48	51.163
733.80	53.571
734.11	53.822
734.43	51.183
734.74	53.429
735.06	51.862
735.37	55.780
735.69	53.503
736.00	57.190
736.32	56.075
736.63	50.160
736.95	52.396
737.26	46.939
737.58	52.903
737.89	55.184
738.21	55.973
738.52	52.500
738.83	54.340
739.15	56.538
739.46	59.124
739.78	55.556
740.09	50.462
740.41	54.194
740.72	51.220
741.04	59.259
741.35	55.417
741.66	60.000
741.98	60.849
742.29	62.679
742.61	59.052
742.92	57.919
743.23	57.265
743.55	62.400
743.86	58.333
744.18	62.832
744.49	62.679
744.80	59.155
745.12	54.545
745.43	55.947
745.74	64.865
746.06	60.550
746.37	56.054
746.68	59.729
747.00	59.259
747.31	63.333
747.62	57.080
747.94	58.590
748.25	55.319
748.56	59.471
748.88	63.366
749.19	63.000
749.50	59.070
749.82	56.911
750.13	55.102
750.44	52.920
750.75	56.140
751.07	57.235
751.38	59.233
751.69	57.040
752.01	57.895
752.32	53.791
752.63	57.801
752.94	60.656
753.26	59.600
753.57	54.878
753.88	57.812
754.19	55.357
754.51	53.125
754.82	56.318
755.13	58.113
755.44	56.015
755.75	53.650
756.07	52.837
756.38	50.730
756.69	57.047
757.00	51.198
757.31	51.039
757.63	51.754
757.94	52.547
758.25	49.265
758.56	50.864
758.87	50.538
759.18	54.545
759.50	52.665
759.81	48.910
760.12	51.562
760.43	53.009
760.74	52.446
761.05	53.390
761.36	46.524
761.67	53.409
761.99	53.106
762.30	52.431
762.61	53.817
762.92	55.859
763.23	55.042
763.54	59.200
763.85	51.953
764.16	58.846
764.47	59.316
764.78	53.357
765.10	52.532
765.41	57.227
765.72	53.892
766.03	54.545
766.34	53.333
766.65	57.447
766.96	57.265
767.27	58.883
767.58	62.500
767.89	62.632
768.20	60.345
768.51	55.838
768.82	61.009
769.13	51.626
769.44	56.275
769.75	56.652
770.06	52.294
770.37	58.824
770.68	58.333
770.99	58.222
771.30	50.410
771.61	60.538
771.92	54.918
772.23	60.924
772.54	62.051
772.85	63.351
773.16	62.234
773.47	61.413
773.78	62.944
774.09	64.286
774.39	67.251
774.70	58.642
775.01	71.014
775.32	69.281
775.63	67.105
775.94	67.626
776.25	73.228
776.56	76.119
776.87	68.033
777.18	70.313
777.48	76.336
777.79	66.667
778.10	70.370
778.41	72.321
778.72	62.774
779.03	66.443
779.34	65.772
779.65	66.892
779.95	65.644
780.26	73.856
780.57	72.414
780.88	78.125
781.19	62.406
781.50	72.973
781.80	63.522
782.11	66.667
782.42	64.557
782.73	66.871
783.04	67.568
783.34	78.873
783.65	69.863
783.96	70.896
784.27	69.930
784.57	58.993
784.88	66.667
785.19	73.810
785.50	77.358
785.81	73.134
786.11	76.230
786.42	75.969
786.73	79.646
787.04	77.358
787.34	83.929
787.65	80.000
787.96	70.270
788.26	73.554
788.57	79.661
788.88	78.512
789.19	72.917
789.49	75.000
789.80	70.992
790.11	84.762
790.41	89.109
790.72	86.747
791.03	81.522
791.33	81.395
791.64	74.227
791.95	82.178
792.25	94.444
792.56	90.909
792.87	106.410
793.17	88.608
793.48	88.506
793.79	90.805
794.09	75.000
794.40	78.151
794.70	73.529
795.01	65.926
795.32	61.871
795.62	77.165
795.93	79.310
796.23	79.646
796.54	76.471
796.85	82.432
797.15	94.366
797.46	86.364
797.76	100.000
798.07	88.608
798.37	81.538
798.68	89.394
798.99	90.141
799.29	90.909
799.60	84.091
799.90	106.849
800.21	97.015
800.51	113.793
800.82	101.754
801.12	122.951
801.43	110.606
801.73	81.081
802.04	117.460
802.34	92.593
802.65	106.250
802.95	118.644
803.26	104.688
803.56	97.143
803.87	90.769
804.17	104.412
804.48	135.185
804.78	98.276
805.09	114.706
805.39	107.692
805.70	101.786
806.00	106.557
806.30	86.364
806.61	82.927
806.91	84.810
807.22	89.474
807.52	77.612
807.83	87.324
808.13	100.000
808.43	110.000
808.74	89.474
809.04	89.855
809.35	105.970
809.65	92.105
809.95	119.355
810.26	110.169
810.56	101.587
810.86	150.000
811.17	150.000
811.47	108.333
811.77	118.519
812.08	107.273
812.38	112.000
812.69	111.111
812.99	152.273
813.29	116.327
813.59	102.381
813.90	124.490
814.20	92.727
814.50	106.154
814.81	127.941
815.11	116.327
815.41	114.754
815.72	150.000
816.02	121.818
816.32	140.476
816.62	127.500
816.93	141.463
817.23	173.810
817.53	147.727
817.84	151.515
818.14	117.391
818.44	128.889
818.74	167.647
819.04	127.500
819.35	142.857
819.65	170.588
819.95	185.714
820.25	220.000
820.56	169.231
820.86	159.091
821.16	146.512
821.46	133.333
821.76	134.000
822.07	177.143
822.37	152.500
822.67	184.848
822.97	115.686
823.27	178.571
823.57	135.135
823.88	165.000
824.18	186.667
824.48	145.238
824.78	200.000
825.08	208.333
825.38	132.432
825.69	143.902
825.99	175.000
826.29	182.759
826.59	155.263
826.89	147.368
827.19	200.000
827.49	158.065
827.79	122.727
828.09	131.818
828.39	121.277
828.70	124.490
829.00	188.889
829.30	158.065
829.60	132.500
829.90	386.667
830.20	200.000
830.50	160.870
830.80	234.783
831.10	230.000
831.40	220.000
831.70	178.261
832.00	196.154
832.30	155.556
832.60	287.500
832.90	193.333
833.20	342.857
833.50	167.742
833.80	189.655
834.10	190.625
834.40	226.923
834.70	277.778
835.00	309.524
835.30	148.571
835.60	330.769
835.90	182.759
836.20	342.857
836.50	193.103
836.80	180.000
837.10	205.556
837.40	219.048
837.70	276.471
838.00	229.630
838.30	228.571
838.60	242.857
838.90	215.385
839.19	235.000
839.49	342.857
839.79	295.000
840.09	245.000
840.39	223.810
840.69	260.870
840.99	272.222
841.29	460.000
841.59	316.667
841.88	350.000
842.18	186.207
842.48	252.381
842.78	140.000
843.08	247.826
843.38	181.250
843.68	866.667
843.97	215.385
844.27	193.103
844.57	280.952
844.87	350.000
845.17	192.593
845.47	1300.000
845.76	444.444
846.06	270.588
846.36	500.000
846.66	342.857
846.96	243.750
847.25	336.364
847.55	345.455
847.85	243.478
848.15	330.000
848.44	221.429
848.74	250.000
849.04	223.529
849.34	580.000
849.63	194.737
849.93	427.273
850.23	820.000
850.53	321.429
850.82	2400.000
851.12	-4500.000
851.42	3700.000
851.71	250.000
852.01	-1066.667
852.31	245.833
852.61	1400.000
852.90	223.810
853.20	192.000
853.50	358.824
853.79	228.571
854.09	200.000
854.39	293.750
854.68	167.568
854.98	212.903
855.28	176.667
855.57	203.448
855.87	177.778
856.17	215.789
856.46	186.667
856.76	270.588
857.05	196.552
857.35	233.333
857.65	313.333
857.94	221.739
858.24	211.538
858.53	255.000
858.83	268.182
859.13	313.333
859.42	0.000
859.72	500.000
860.01	363.636
860.31	263.636
860.60	247.368
860.90	226.087
861.20	455.556
861.49	450.000
861.79	-4800.000
862.08	612.500
862.38	257.143
862.67	292.308
862.97	288.235
863.26	511.111
863.56	244.444
863.85	383.333
864.15	437.500
864.44	406.667
864.74	833.333
865.03	600.000
865.33	268.421
865.62	336.364
865.92	446.154
866.21	316.667
866.51	0.000
866.80	409.091
867.10	920.000
867.39	446.154
867.69	381.818
867.98	247.368
868.27	536.364
868.57	342.105
868.86	-4000.000
869.16	293.750
869.45	1900.000
869.75	-3700.000
870.04	333.333
870.33	514.286
870.63	950.000
870.92	2150.000
871.22	728.571
871.51	305.882
871.80	247.619
872.10	350.000
>>>>>End Processed Spectral Data<<<<<
