SpectraSuite Data File
++++++++++++++++++++++++++++++++++++
Date: Wed May 13 16:37:07 PDT 2015
User: schluterlab
Dark Spectrum Present: Yes
Reference Spectrum Present: Yes
Number of Sampled Component Spectra: 1
Spectrometers: USB2E3373
Integration Time (usec): 3000 (USB2E3373)
Spectra Averaged: 3 (USB2E3373)
Boxcar Smoothing: 0 (USB2E3373)
Correct for Electrical Dark: No (USB2E3373)
Strobe/Lamp Enabled: No (USB2E3373)
Correct for Detector Non-linearity: No (USB2E3373)
Correct for Stray Light: No (USB2E3373)
Number of Pixels in Processed Spectrum: 2048
>>>>>Begin Processed Spectral Data<<<<<
178.53	0.000
178.91	-1375.000
179.29	-1475.000
179.67	-266.667
180.04	-1175.000
180.42	2300.000
180.80	1120.000
181.18	-1075.000
181.56	671.429
181.94	0.000
182.31	-757.143
182.69	2033.333
183.07	-575.000
183.45	-522.222
183.83	536.364
184.20	-390.000
184.58	2300.000
184.96	4800.000
185.34	-840.000
185.72	-750.000
186.09	-2700.000
186.47	2550.000
186.85	2350.000
187.23	4300.000
187.61	-1533.333
187.98	1500.000
188.36	527.273
188.74	490.909
189.12	-680.000
189.49	520.000
189.87	-5400.000
190.25	-1500.000
190.63	392.857
191.00	384.615
191.38	883.333
191.76	-1200.000
192.14	1425.000
192.51	575.000
192.89	933.333
193.27	687.500
193.65	-1150.000
194.02	710.000
194.40	880.000
194.78	590.000
195.15	558.333
195.53	790.000
195.91	-2400.000
196.29	368.750
196.66	352.632
197.04	-330.000
197.42	0.000
197.79	550.000
198.17	-5300.000
198.55	757.143
198.92	700.000
199.30	940.000
199.68	0.000
200.05	338.889
200.43	785.714
200.81	5000.000
201.18	1700.000
201.56	-1666.667
201.94	500.000
202.31	566.667
202.69	475.000
203.07	530.000
203.44	0.000
203.82	1025.000
204.19	742.857
204.57	457.143
204.95	575.000
205.32	1633.333
205.70	500.000
206.08	321.429
206.45	2750.000
206.83	362.500
207.20	916.667
207.58	900.000
207.96	305.556
208.33	737.500
208.71	-766.667
209.08	871.429
209.46	611.111
209.84	454.545
210.21	-1633.333
210.59	1400.000
210.96	-650.000
211.34	2750.000
211.71	600.000
212.09	916.667
212.46	0.000
212.84	1800.000
213.22	1400.000
213.59	-4400.000
213.97	800.000
214.34	914.286
214.72	554.545
215.09	1060.000
215.47	-2250.000
215.84	-2650.000
216.22	1666.667
216.59	364.286
216.97	1325.000
217.34	527.273
217.72	-750.000
218.09	0.000
218.47	-4600.000
218.84	644.444
219.22	614.286
219.59	1633.333
219.97	-614.286
220.34	920.000
220.72	-1766.667
221.09	407.143
221.47	1675.000
221.84	-900.000
222.22	0.000
222.59	1425.000
222.97	-2450.000
223.34	1140.000
223.72	453.846
224.09	1120.000
224.46	2250.000
224.84	-5200.000
225.21	-860.000
225.59	-5000.000
225.96	580.000
226.34	355.000
226.71	2700.000
227.08	662.500
227.46	500.000
227.83	-1150.000
228.21	-2600.000
228.58	644.444
228.95	-2100.000
229.33	-1950.000
229.70	1500.000
230.08	885.714
230.45	-920.000
230.82	458.333
231.20	816.667
231.57	657.143
231.95	508.333
232.32	227.273
232.69	490.909
233.07	700.000
233.44	461.538
233.81	-1733.333
234.19	321.053
234.56	483.333
234.93	425.000
235.31	454.545
235.68	338.462
236.05	378.571
236.43	218.182
236.80	263.158
237.17	5400.000
237.55	271.429
237.92	250.000
238.29	266.667
238.67	170.968
239.04	248.276
239.41	169.444
239.79	132.609
240.16	171.429
240.53	179.545
240.91	113.725
241.28	114.000
241.65	132.000
242.02	123.188
242.40	112.903
242.77	135.000
243.14	95.699
243.51	113.483
243.89	111.765
244.26	96.667
244.63	98.925
245.00	95.745
245.38	95.050
245.75	91.589
246.12	92.661
246.49	94.161
246.87	100.000
247.24	94.615
247.61	77.857
247.98	71.895
248.36	74.324
248.73	72.611
249.10	77.070
249.47	73.446
249.84	71.658
250.22	70.588
250.59	75.740
250.96	78.283
251.33	70.616
251.70	73.762
252.08	70.952
252.45	68.610
252.82	66.957
253.19	68.936
253.56	69.412
253.94	69.295
254.31	66.406
254.68	66.154
255.05	62.362
255.42	68.293
255.79	64.706
256.16	68.592
256.54	63.251
256.91	64.769
257.28	58.993
257.65	60.726
258.02	64.907
258.39	59.306
258.76	60.870
259.14	61.607
259.51	59.878
259.88	57.143
260.25	62.538
260.62	58.092
260.99	57.764
261.36	61.562
261.73	59.885
262.10	57.558
262.47	59.437
262.85	59.610
263.22	59.544
263.59	58.689
263.96	57.418
264.33	60.052
264.70	59.737
265.07	61.637
265.44	55.051
265.81	52.798
266.18	55.779
266.55	56.585
266.92	55.774
267.29	55.787
267.66	53.670
268.03	55.000
268.40	56.308
268.77	54.415
269.14	57.658
269.51	57.788
269.88	55.711
270.25	51.016
270.62	55.281
270.99	60.215
271.36	54.721
271.73	57.710
272.10	53.696
272.47	55.484
272.84	57.143
273.21	55.765
273.58	51.528
273.95	51.992
274.32	52.066
274.69	54.176
275.06	54.331
275.43	53.830
275.80	51.904
276.17	53.768
276.54	56.133
276.91	51.976
277.28	53.711
277.65	54.545
278.02	51.553
278.39	53.711
278.76	51.273
279.13	53.962
279.50	49.534
279.87	54.781
280.23	55.888
280.60	50.677
280.97	52.495
281.34	54.336
281.71	52.000
282.08	53.167
282.45	52.364
282.82	50.799
283.19	49.911
283.56	48.421
283.92	51.777
284.29	49.206
284.66	51.543
285.03	50.633
285.40	48.944
285.77	51.347
286.14	49.568
286.51	51.333
286.87	48.718
287.24	50.000
287.61	50.722
287.98	47.403
288.35	47.702
288.72	46.885
289.08	46.479
289.45	48.270
289.82	47.480
290.19	46.154
290.56	46.861
290.93	45.015
291.29	45.399
291.66	43.363
292.03	46.076
292.40	44.493
292.77	42.751
293.13	44.328
293.50	45.335
293.87	44.593
294.24	42.370
294.60	42.649
294.97	43.605
295.34	44.147
295.71	44.744
296.08	41.168
296.44	41.541
296.81	41.480
297.18	40.786
297.55	37.995
297.91	38.786
298.28	41.365
298.65	40.078
299.02	40.316
299.38	39.177
299.75	38.679
300.12	38.059
300.48	38.875
300.85	37.608
301.22	40.000
301.59	35.606
301.95	39.295
302.32	39.281
302.69	37.276
303.05	37.818
303.42	36.173
303.79	38.279
304.15	35.897
304.52	36.037
304.89	36.237
305.25	35.267
305.62	37.259
305.99	35.773
306.35	36.577
306.72	35.314
307.09	35.738
307.45	37.162
307.82	33.817
308.19	36.755
308.55	36.677
308.92	35.553
309.29	35.586
309.65	35.843
310.02	36.364
310.38	35.054
310.75	35.375
311.12	35.005
311.48	36.050
311.85	37.002
312.22	35.588
312.58	36.486
312.95	37.276
313.31	34.660
313.68	35.343
314.05	37.377
314.41	35.477
314.78	36.657
315.14	35.849
315.51	36.045
315.87	36.733
316.24	35.948
316.61	34.795
316.97	35.323
317.34	35.421
317.70	37.189
318.07	35.900
318.43	37.182
318.80	37.113
319.16	36.347
319.53	36.116
319.89	37.429
320.26	37.300
320.62	36.607
320.99	37.778
321.35	36.970
321.72	36.448
322.08	37.907
322.45	38.209
322.81	38.566
323.18	37.765
323.54	36.735
323.91	36.981
324.27	38.910
324.64	37.838
325.00	36.069
325.37	39.126
325.73	38.510
326.10	37.246
326.46	37.814
326.83	39.517
327.19	37.746
327.56	37.718
327.92	38.670
328.29	38.687
328.65	39.319
329.01	37.635
329.38	38.020
329.74	36.565
330.11	37.889
330.47	37.466
330.84	37.592
331.20	36.885
331.56	37.615
331.93	37.222
332.29	37.178
332.66	39.115
333.02	37.569
333.38	38.392
333.75	37.968
334.11	37.100
334.48	37.977
334.84	37.316
335.20	39.364
335.57	34.814
335.93	36.161
336.29	37.637
336.66	37.241
337.02	37.014
337.38	37.407
337.75	35.829
338.11	36.258
338.47	35.912
338.84	37.397
339.20	37.156
339.56	38.047
339.93	36.182
340.29	35.598
340.65	35.740
341.02	36.300
341.38	36.655
341.74	35.614
342.11	35.895
342.47	36.476
342.83	36.387
343.20	35.498
343.56	34.372
343.92	35.526
344.28	37.160
344.65	36.543
345.01	35.522
345.37	36.878
345.73	37.648
346.10	36.488
346.46	36.186
346.82	35.667
347.19	34.085
347.55	34.565
347.91	36.650
348.27	36.154
348.63	35.452
349.00	34.385
349.36	36.700
349.72	34.884
350.08	34.522
350.45	36.859
350.81	35.418
351.17	34.765
351.53	34.480
351.89	35.726
352.26	36.859
352.62	34.804
352.98	35.575
353.34	35.579
353.70	34.288
354.07	35.403
354.43	34.444
354.79	33.950
355.15	35.435
355.51	36.771
355.87	35.429
356.24	35.016
356.60	33.921
356.96	36.203
357.32	36.222
357.68	35.669
358.04	34.759
358.40	34.363
358.77	34.898
359.13	35.438
359.49	34.667
359.85	35.238
360.21	34.211
360.57	35.409
360.93	35.769
361.29	34.618
361.66	33.901
362.02	35.149
362.38	36.122
362.74	35.045
363.10	35.159
363.46	34.703
363.82	35.072
364.18	34.875
364.54	35.513
364.90	35.694
365.26	35.147
365.62	35.354
365.98	34.478
366.35	35.530
366.71	34.707
367.07	35.615
367.43	36.575
367.79	36.902
368.15	37.213
368.51	36.119
368.87	35.546
369.23	36.138
369.59	36.061
369.95	35.956
370.31	35.541
370.67	36.739
371.03	37.004
371.39	35.787
371.75	36.324
372.11	35.562
372.47	37.170
372.83	36.816
373.19	35.549
373.55	37.546
373.91	37.629
374.27	36.632
374.63	36.727
374.99	37.782
375.35	36.148
375.71	37.012
376.07	38.546
376.42	38.171
376.78	37.309
377.14	37.653
377.50	38.609
377.86	36.702
378.22	36.852
378.58	37.030
378.94	38.215
379.30	37.786
379.66	38.959
380.02	38.514
380.38	38.373
380.74	38.896
381.09	38.753
381.45	39.951
381.81	39.681
382.17	40.064
382.53	40.503
382.89	41.173
383.25	40.588
383.61	41.078
383.97	40.713
384.32	40.112
384.68	40.458
385.04	40.565
385.40	41.486
385.76	42.568
386.12	41.580
386.48	43.235
386.83	42.591
387.19	42.919
387.55	42.548
387.91	42.866
388.27	41.937
388.62	42.163
388.98	41.830
389.34	42.929
389.70	43.899
390.06	43.029
390.42	43.709
390.77	44.529
391.13	44.352
391.49	44.543
391.85	42.839
392.20	43.659
392.56	45.202
392.92	44.261
393.28	43.728
393.64	44.065
393.99	43.433
394.35	44.355
394.71	44.103
395.07	43.988
395.42	43.881
395.78	45.102
396.14	44.507
396.50	45.426
396.85	46.090
397.21	45.068
397.57	44.761
397.92	45.312
398.28	44.283
398.64	44.504
399.00	45.439
399.35	44.839
399.71	44.850
400.07	45.121
400.42	45.092
400.78	45.959
401.14	45.488
401.49	46.687
401.85	45.191
402.21	44.132
402.57	45.651
402.92	45.208
403.28	44.909
403.63	46.287
403.99	45.669
404.35	45.758
404.70	45.743
405.06	45.195
405.42	45.789
405.77	45.257
406.13	45.203
406.49	44.589
406.84	44.536
407.20	44.681
407.55	44.927
407.91	46.800
408.27	46.075
408.62	44.973
408.98	44.853
409.34	44.403
409.69	45.548
410.05	45.105
410.40	44.893
410.76	45.460
411.11	45.356
411.47	46.134
411.83	44.288
412.18	44.836
412.54	44.770
412.89	45.000
413.25	44.215
413.60	44.719
413.96	44.323
414.31	44.654
414.67	44.613
415.03	44.768
415.38	46.263
415.74	44.566
416.09	47.289
416.45	44.511
416.80	45.803
417.16	45.576
417.51	45.985
417.87	43.674
418.22	44.606
418.58	44.545
418.93	45.823
419.29	45.640
419.64	46.537
420.00	44.939
420.35	44.232
420.71	44.949
421.06	45.704
421.42	44.269
421.77	45.235
422.12	43.683
422.48	43.659
422.83	45.370
423.19	44.641
423.54	44.689
423.90	45.507
424.25	45.059
424.61	44.702
424.96	44.665
425.31	45.183
425.67	44.157
426.02	43.657
426.38	44.811
426.73	44.705
427.09	44.498
427.44	43.588
427.79	44.451
428.15	43.810
428.50	43.651
428.85	44.815
429.21	44.230
429.56	44.635
429.92	43.835
430.27	44.687
430.62	43.984
430.98	43.799
431.33	43.814
431.68	44.555
432.04	43.504
432.39	44.546
432.74	44.644
433.10	45.388
433.45	44.490
433.80	45.011
434.16	44.872
434.51	43.895
434.86	44.356
435.22	44.358
435.57	44.498
435.92	44.236
436.28	44.247
436.63	44.702
436.98	44.076
437.34	44.961
437.69	45.099
438.04	43.901
438.39	44.597
438.75	45.148
439.10	45.140
439.45	43.861
439.81	44.471
440.16	43.252
440.51	44.405
440.86	44.528
441.22	43.715
441.57	43.790
441.92	43.961
442.27	45.048
442.63	44.023
442.98	45.127
443.33	43.750
443.68	44.399
444.03	43.973
444.39	44.304
444.74	44.589
445.09	45.013
445.44	44.286
445.79	43.939
446.15	43.727
446.50	44.480
446.85	44.553
447.20	44.059
447.55	44.891
447.91	45.008
448.26	44.296
448.61	44.658
448.96	44.463
449.31	44.657
449.66	44.569
450.02	43.677
450.37	44.274
450.72	45.121
451.07	43.937
451.42	43.830
451.77	45.097
452.12	44.053
452.47	44.465
452.83	45.513
453.18	44.132
453.53	45.578
453.88	43.946
454.23	44.531
454.58	45.548
454.93	46.281
455.28	45.324
455.63	44.782
455.98	46.012
456.34	45.666
456.69	45.711
457.04	44.706
457.39	44.652
457.74	44.457
458.09	44.623
458.44	44.755
458.79	44.360
459.14	45.034
459.49	44.133
459.84	43.213
460.19	44.608
460.54	42.940
460.89	43.500
461.24	44.627
461.59	44.916
461.94	43.896
462.29	44.510
462.64	44.671
462.99	43.136
463.34	44.733
463.69	45.091
464.04	44.754
464.39	43.884
464.74	45.455
465.09	43.426
465.44	44.100
465.79	43.065
466.14	43.240
466.49	43.826
466.84	43.549
467.19	43.271
467.54	45.000
467.89	44.058
468.24	44.444
468.59	43.834
468.94	43.433
469.29	44.152
469.64	44.645
469.99	45.535
470.34	44.055
470.68	45.546
471.03	44.558
471.38	46.421
471.73	44.171
472.08	45.526
472.43	45.289
472.78	45.030
473.13	45.315
473.48	44.694
473.83	44.146
474.17	44.368
474.52	43.983
474.87	43.257
475.22	42.832
475.57	43.525
475.92	43.654
476.27	43.405
476.61	43.298
476.96	42.606
477.31	42.595
477.66	43.600
478.01	43.440
478.36	43.998
478.70	43.250
479.05	43.344
479.40	43.859
479.75	42.705
480.10	43.191
480.45	42.789
480.79	43.383
481.14	43.836
481.49	42.620
481.84	42.844
482.19	42.935
482.53	43.073
482.88	42.578
483.23	44.019
483.58	42.266
483.92	42.362
484.27	41.307
484.62	42.069
484.97	42.294
485.31	43.767
485.66	42.994
486.01	41.231
486.36	38.898
486.70	37.555
487.05	38.408
487.40	39.683
487.75	39.786
488.09	40.097
488.44	40.160
488.79	42.278
489.13	42.399
489.48	41.843
489.83	41.735
490.17	42.394
490.52	42.117
490.87	42.017
491.22	41.519
491.56	41.321
491.91	42.206
492.26	42.306
492.60	41.705
492.95	41.441
493.30	41.589
493.64	41.391
493.99	41.690
494.34	42.044
494.68	42.674
495.03	42.152
495.37	41.461
495.72	41.910
496.07	42.738
496.41	40.708
496.76	41.249
497.11	41.648
497.45	40.894
497.80	42.514
498.14	41.401
498.49	41.854
498.84	41.850
499.18	41.524
499.53	41.643
499.87	41.566
500.22	41.545
500.56	42.184
500.91	41.683
501.26	41.773
501.60	42.098
501.95	41.017
502.29	41.987
502.64	41.480
502.98	40.954
503.33	40.265
503.67	41.392
504.02	41.113
504.36	41.039
504.71	41.231
505.06	41.735
505.40	41.225
505.75	40.164
506.09	40.525
506.44	41.391
506.78	42.182
507.13	42.049
507.47	42.172
507.82	41.692
508.16	42.756
508.51	42.719
508.85	40.963
509.19	42.194
509.54	40.561
509.88	41.577
510.23	41.594
510.57	42.570
510.92	41.326
511.26	41.110
511.61	41.649
511.95	40.919
512.30	40.827
512.64	40.731
512.98	42.980
513.33	41.435
513.67	41.729
514.02	41.071
514.36	42.490
514.70	41.727
515.05	41.272
515.39	41.615
515.74	42.230
516.08	41.755
516.42	42.064
516.77	42.085
517.11	41.787
517.46	42.156
517.80	42.276
518.14	41.401
518.49	43.174
518.83	42.216
519.17	42.206
519.52	41.313
519.86	41.700
520.20	42.197
520.55	42.250
520.89	42.153
521.23	42.581
521.58	42.437
521.92	41.947
522.26	41.306
522.61	41.184
522.95	41.436
523.29	41.570
523.64	42.378
523.98	41.836
524.32	41.978
524.66	42.814
525.01	41.483
525.35	41.698
525.69	40.948
526.04	41.682
526.38	42.160
526.72	41.350
527.06	41.368
527.41	41.337
527.75	42.508
528.09	41.554
528.43	41.683
528.78	42.102
529.12	41.030
529.46	41.886
529.80	41.832
530.15	42.866
530.49	40.185
530.83	41.835
531.17	42.167
531.51	42.412
531.86	40.903
532.20	43.286
532.54	41.704
532.88	41.913
533.22	40.974
533.57	42.037
533.91	40.518
534.25	40.705
534.59	40.329
534.93	40.393
535.27	40.978
535.62	41.148
535.96	40.929
536.30	41.704
536.64	40.245
536.98	40.743
537.32	41.211
537.66	41.333
538.01	41.870
538.35	40.659
538.69	42.119
539.03	39.766
539.37	40.128
539.71	41.154
540.05	40.915
540.39	42.525
540.73	39.845
541.07	40.818
541.42	40.965
541.76	42.194
542.10	40.944
542.44	41.523
542.78	41.634
543.12	38.836
543.46	40.525
543.80	40.599
544.14	40.886
544.48	41.651
544.82	40.154
545.16	40.143
545.50	41.131
545.84	39.718
546.18	40.741
546.52	40.330
546.86	41.031
547.20	40.391
547.54	40.681
547.88	41.327
548.22	39.726
548.56	41.006
548.90	39.181
549.24	40.067
549.58	40.723
549.92	40.041
550.26	41.690
550.60	40.041
550.94	41.549
551.28	40.600
551.62	41.409
551.96	40.772
552.30	41.024
552.64	41.244
552.98	41.085
553.32	40.256
553.66	41.241
554.00	42.485
554.34	39.545
554.68	41.130
555.02	40.973
555.36	40.571
555.69	39.986
556.03	41.117
556.37	40.518
556.71	40.450
557.05	40.336
557.39	39.678
557.73	40.296
558.07	42.567
558.41	40.449
558.75	40.044
559.08	41.536
559.42	41.119
559.76	39.779
560.10	40.186
560.44	40.741
560.78	40.253
561.12	40.963
561.45	40.613
561.79	39.552
562.13	40.376
562.47	39.822
562.81	40.725
563.15	40.000
563.48	40.650
563.82	39.269
564.16	39.765
564.50	38.867
564.84	39.128
565.17	39.833
565.51	40.256
565.85	39.467
566.19	39.198
566.52	39.139
566.86	38.758
567.20	40.330
567.54	39.840
567.88	38.349
568.21	40.265
568.55	38.625
568.89	38.424
569.23	38.904
569.56	38.502
569.90	37.283
570.24	37.029
570.57	36.654
570.91	36.264
571.25	35.701
571.59	36.878
571.92	35.772
572.26	35.615
572.60	36.727
572.93	35.982
573.27	36.439
573.61	36.600
573.95	36.357
574.28	36.030
574.62	36.395
574.96	35.699
575.29	35.257
575.63	35.493
575.97	35.329
576.30	35.316
576.64	35.406
576.98	35.391
577.31	36.807
577.65	35.896
577.98	35.746
578.32	34.988
578.66	35.262
578.99	34.855
579.33	35.318
579.67	34.614
580.00	35.675
580.34	35.358
580.67	35.524
581.01	36.047
581.35	35.856
581.68	35.949
582.02	35.263
582.35	35.298
582.69	35.399
583.02	35.237
583.36	35.347
583.70	35.839
584.03	35.920
584.37	36.047
584.70	36.468
585.04	36.301
585.37	35.834
585.71	36.443
586.04	35.395
586.38	35.893
586.72	36.233
587.05	35.724
587.39	35.726
587.72	36.279
588.06	35.619
588.39	36.104
588.73	36.638
589.06	36.117
589.40	36.128
589.73	36.360
590.07	37.224
590.40	36.792
590.73	37.198
591.07	38.014
591.40	36.989
591.74	38.355
592.07	37.522
592.41	37.247
592.74	36.891
593.08	37.642
593.41	36.381
593.75	35.821
594.08	36.674
594.41	36.939
594.75	37.301
595.08	36.757
595.42	37.268
595.75	36.788
596.09	36.200
596.42	36.306
596.75	36.851
597.09	37.532
597.42	36.720
597.75	35.964
598.09	37.565
598.42	37.586
598.76	36.603
599.09	38.084
599.42	35.990
599.76	36.420
600.09	36.066
600.42	36.304
600.76	36.214
601.09	36.284
601.42	36.644
601.76	36.129
602.09	36.245
602.42	36.186
602.76	37.082
603.09	37.726
603.42	37.251
603.76	36.814
604.09	36.177
604.42	36.323
604.76	36.778
605.09	36.654
605.42	36.896
605.75	36.382
606.09	36.234
606.42	36.494
606.75	35.960
607.09	36.710
607.42	36.414
607.75	36.076
608.08	36.648
608.42	36.755
608.75	35.618
609.08	36.679
609.41	36.982
609.75	37.589
610.08	37.559
610.41	37.570
610.74	37.701
611.07	37.846
611.41	36.899
611.74	38.361
612.07	37.526
612.40	37.828
612.73	37.053
613.07	38.093
613.40	37.967
613.73	36.759
614.06	37.473
614.39	37.389
614.72	35.421
615.06	37.868
615.39	36.996
615.72	36.810
616.05	37.108
616.38	38.799
616.71	38.242
617.05	37.868
617.38	38.364
617.71	38.258
618.04	37.861
618.37	37.552
618.70	39.079
619.03	38.289
619.36	39.104
619.69	39.085
620.03	38.736
620.36	38.235
620.69	38.630
621.02	38.274
621.35	38.371
621.68	38.941
622.01	38.932
622.34	38.578
622.67	39.544
623.00	38.738
623.33	38.599
623.66	38.456
623.99	38.807
624.32	38.516
624.65	37.924
624.99	36.898
625.32	39.392
625.65	39.144
625.98	40.200
626.31	39.269
626.64	40.245
626.97	39.235
627.30	39.817
627.63	40.115
627.96	39.950
628.29	39.545
628.62	39.433
628.95	41.509
629.28	39.781
629.61	40.055
629.94	40.667
630.26	41.087
630.59	39.943
630.92	40.230
631.25	38.993
631.58	40.741
631.91	39.858
632.24	39.873
632.57	41.133
632.90	41.776
633.23	40.268
633.56	42.147
633.89	41.223
634.22	39.841
634.55	42.485
634.88	41.078
635.20	43.728
635.53	43.735
635.86	41.460
636.19	40.353
636.52	41.638
636.85	41.810
637.18	41.129
637.51	40.780
637.83	40.197
638.16	42.327
638.49	41.436
638.82	43.110
639.15	41.875
639.48	42.020
639.81	44.236
640.13	41.927
640.46	41.879
640.79	42.140
641.12	42.641
641.45	42.598
641.77	44.035
642.10	44.298
642.43	42.643
642.76	44.427
643.09	43.865
643.41	42.944
643.74	44.907
644.07	41.311
644.40	44.018
644.73	44.094
645.05	45.166
645.38	42.496
645.71	44.283
646.04	45.183
646.36	44.240
646.69	44.816
647.02	45.408
647.35	43.471
647.67	45.133
648.00	43.415
648.33	43.069
648.66	43.333
648.98	42.429
649.31	41.256
649.64	43.049
649.96	42.623
650.29	46.130
650.62	41.586
650.94	44.895
651.27	45.101
651.60	43.095
651.92	44.409
652.25	39.902
652.58	40.810
652.90	44.076
653.23	41.757
653.56	43.780
653.88	44.691
654.21	43.918
654.54	44.554
654.86	43.146
655.19	40.270
655.52	31.859
655.84	31.025
656.17	40.273
656.49	53.364
656.82	53.115
657.15	38.899
657.47	29.014
657.80	21.936
658.13	22.764
658.45	32.865
658.78	32.989
659.10	34.170
659.43	34.683
659.75	36.981
660.08	40.633
660.41	43.482
660.73	46.887
661.06	43.153
661.38	44.364
661.71	47.500
662.03	45.759
662.36	42.545
662.68	44.378
663.01	47.071
663.33	43.949
663.66	46.429
663.98	47.300
664.31	43.067
664.63	43.927
664.96	41.449
665.28	45.287
665.61	41.326
665.93	44.266
666.26	44.016
666.58	45.188
666.91	46.512
667.23	45.618
667.56	44.276
667.88	44.658
668.21	44.563
668.53	43.167
668.86	43.723
669.18	46.695
669.50	42.609
669.83	45.534
670.15	47.556
670.48	43.791
670.80	48.276
671.13	46.709
671.45	43.191
671.77	45.418
672.10	43.068
672.42	41.166
672.75	41.791
673.07	41.197
673.39	42.857
673.72	43.555
674.04	42.941
674.37	44.854
674.69	44.376
675.01	46.234
675.34	46.407
675.66	45.895
675.98	42.974
676.31	43.487
676.63	44.798
676.95	47.589
677.28	46.495
677.60	45.934
677.92	46.203
678.25	46.201
678.57	42.629
678.89	43.287
679.22	44.204
679.54	42.748
679.86	44.220
680.18	42.397
680.51	43.262
680.83	41.993
681.15	41.509
681.48	45.369
681.80	44.681
682.12	43.870
682.44	42.166
682.77	44.807
683.09	45.494
683.41	48.337
683.73	46.799
684.06	44.835
684.38	42.857
684.70	44.380
685.02	43.715
685.34	42.491
685.67	41.084
685.99	41.237
686.31	41.809
686.63	39.753
686.96	42.857
687.28	42.419
687.60	41.304
687.92	43.510
688.24	42.966
688.56	45.783
688.89	43.776
689.21	48.253
689.53	44.050
689.85	47.672
690.17	41.822
690.49	45.223
690.82	46.729
691.14	46.205
691.46	43.460
691.78	43.976
692.10	42.355
692.42	45.908
692.74	43.361
693.06	42.553
693.39	42.916
693.71	44.541
694.03	44.421
694.35	44.805
694.67	42.334
694.99	46.341
695.31	47.304
695.63	45.933
695.95	48.655
696.27	45.178
696.59	45.078
696.91	46.114
697.23	45.070
697.56	45.416
697.88	39.877
698.20	42.917
698.52	45.376
698.84	45.212
699.16	43.779
699.48	43.705
699.80	45.169
700.12	51.429
700.44	48.541
700.76	46.409
701.08	49.138
701.40	45.531
701.72	47.813
702.04	50.000
702.36	44.193
702.68	47.875
703.00	46.537
703.32	43.883
703.64	47.989
703.96	46.797
704.28	46.221
704.60	46.041
704.91	48.071
705.23	51.026
705.55	54.153
705.87	50.831
706.19	49.823
706.51	51.402
706.83	47.879
707.15	49.020
707.47	43.687
707.79	45.700
708.11	45.662
708.43	44.286
708.74	47.194
709.06	43.636
709.38	49.081
709.70	47.965
710.02	48.071
710.34	46.061
710.66	50.149
710.98	48.580
711.29	42.442
711.61	48.673
711.93	47.115
712.25	49.839
712.57	54.412
712.89	53.633
713.20	48.936
713.52	50.658
713.84	48.418
714.16	45.427
714.48	47.989
714.80	50.456
715.11	47.550
715.43	48.071
715.75	44.058
716.07	51.118
716.39	47.335
716.70	48.837
717.02	53.237
717.34	45.583
717.66	54.104
717.97	55.777
718.29	52.963
718.61	47.445
718.93	51.838
719.24	48.097
719.56	44.746
719.88	48.475
720.20	50.000
720.51	50.871
720.83	51.301
721.15	51.119
721.46	50.000
721.78	50.538
722.10	52.830
722.42	56.391
722.73	53.184
723.05	49.180
723.37	49.798
723.68	48.263
724.00	51.220
724.32	50.403
724.63	53.659
724.95	52.720
725.27	59.919
725.58	56.641
725.90	56.204
726.22	50.943
726.53	47.222
726.85	51.195
727.16	50.178
727.48	51.064
727.80	51.136
728.11	50.362
728.43	51.923
728.74	49.104
729.06	54.015
729.38	55.147
729.69	50.890
730.01	47.782
730.32	48.958
730.64	45.819
730.96	45.215
731.27	51.656
731.59	48.318
731.90	49.854
732.22	48.758
732.53	48.297
732.85	47.436
733.16	45.659
733.48	47.508
733.80	49.675
734.11	47.452
734.43	44.379
734.74	45.714
735.06	42.407
735.37	51.734
735.69	49.682
736.00	50.980
736.32	46.106
736.63	47.923
736.95	47.604
737.26	43.537
737.58	43.226
737.89	47.492
738.21	50.512
738.52	48.571
738.83	46.792
739.15	50.385
739.46	51.095
739.78	49.653
740.09	47.692
740.41	44.839
740.72	48.084
741.04	51.111
741.35	53.750
741.66	54.667
741.98	52.830
742.29	55.024
742.61	52.155
742.92	53.394
743.23	51.282
743.55	53.600
743.86	48.684
744.18	59.735
744.49	54.545
744.80	60.563
745.12	58.182
745.43	54.626
745.74	54.505
746.06	55.963
746.37	54.709
746.68	60.633
747.00	61.574
747.31	59.048
747.62	50.000
747.94	51.982
748.25	56.596
748.56	51.101
748.88	57.426
749.19	62.500
749.50	53.023
749.82	49.593
750.13	49.796
750.44	47.080
750.75	48.070
751.07	52.733
751.38	48.084
751.69	49.097
752.01	51.880
752.32	51.986
752.63	47.872
752.94	52.049
753.26	56.800
753.57	45.528
753.88	52.734
754.19	52.500
754.51	53.819
754.82	51.264
755.13	50.943
755.44	47.368
755.75	47.810
756.07	46.099
756.38	48.175
756.69	46.644
757.00	45.210
757.31	45.104
757.63	46.784
757.94	42.627
758.25	46.569
758.56	45.679
758.87	46.774
759.18	49.091
759.50	48.903
759.81	45.483
760.12	45.000
760.43	48.138
760.74	47.011
761.05	50.000
761.36	46.791
761.67	48.864
761.99	45.342
762.30	48.958
762.61	51.145
762.92	54.688
763.23	53.361
763.54	52.800
763.85	51.953
764.16	51.154
764.47	50.190
764.78	45.936
765.10	46.519
765.41	45.428
765.72	45.509
766.03	48.903
766.34	45.667
766.65	55.319
766.96	53.846
767.27	59.391
767.58	57.292
767.89	61.579
768.20	63.793
768.51	54.315
768.82	55.046
769.13	48.780
769.44	51.822
769.75	56.223
770.06	45.872
770.37	55.656
770.68	54.167
770.99	51.111
771.30	45.082
771.61	61.883
771.92	53.279
772.23	57.143
772.54	61.538
772.85	60.209
773.16	62.766
773.47	64.130
773.78	59.391
774.09	54.167
774.39	56.140
774.70	62.346
775.01	71.739
775.32	71.895
775.63	63.816
775.94	68.345
776.25	75.591
776.56	61.194
776.87	74.590
777.18	71.875
777.48	76.336
777.79	68.182
778.10	78.519
778.41	84.821
778.72	67.883
779.03	59.732
779.34	63.087
779.65	66.216
779.95	61.963
780.26	66.013
780.57	68.276
780.88	77.344
781.19	75.188
781.50	66.892
781.80	63.522
782.11	59.887
782.42	56.329
782.73	62.577
783.04	64.865
783.34	72.535
783.65	60.274
783.96	71.642
784.27	69.231
784.57	60.432
784.88	66.667
785.19	76.190
785.50	78.302
785.81	72.388
786.11	72.131
786.42	64.341
786.73	79.646
787.04	80.189
787.34	77.679
787.65	86.000
787.96	73.874
788.26	71.901
788.57	77.966
788.88	81.818
789.19	69.444
789.49	71.970
789.80	67.939
790.11	84.762
790.41	85.149
790.72	80.723
791.03	90.217
791.33	97.674
791.64	77.320
791.95	86.139
792.25	87.778
792.56	105.195
792.87	108.974
793.17	103.797
793.48	101.149
793.79	96.552
794.09	90.909
794.40	75.630
794.70	65.441
795.01	74.074
795.32	69.784
795.62	64.567
795.93	67.241
796.23	73.451
796.54	84.706
796.85	87.838
797.15	100.000
797.46	86.364
797.76	103.614
798.07	97.468
798.37	104.615
798.68	119.697
798.99	87.324
799.29	98.701
799.60	75.000
799.90	106.849
800.21	104.478
800.51	113.793
800.82	119.298
801.12	118.033
801.43	112.121
801.73	91.892
802.04	112.698
802.34	95.062
802.65	98.437
802.95	120.339
803.26	114.063
803.56	94.286
803.87	93.846
804.17	100.000
804.48	135.185
804.78	106.897
805.09	105.882
805.39	100.000
805.70	101.786
806.00	121.311
806.30	119.697
806.61	85.366
806.91	84.810
807.22	94.737
807.52	105.970
807.83	91.549
808.13	107.812
808.43	121.667
808.74	96.053
809.04	97.101
809.35	100.000
809.65	105.263
809.95	124.194
810.26	106.780
810.56	119.048
810.86	145.455
811.17	188.095
811.47	130.000
811.77	112.963
812.08	134.545
812.38	130.000
812.69	175.000
812.99	154.545
813.29	136.735
813.59	109.524
813.90	134.694
814.20	132.727
814.50	104.615
814.81	111.765
815.11	140.816
815.41	101.639
815.72	140.476
816.02	132.727
816.32	159.524
816.62	150.000
816.93	151.220
817.23	147.619
817.53	150.000
817.84	190.909
818.14	141.304
818.44	157.778
818.74	176.471
819.04	145.000
819.35	182.857
819.65	173.529
819.95	214.286
820.25	285.000
820.56	184.615
820.86	152.273
821.16	162.791
821.46	148.718
821.76	156.000
822.07	194.286
822.37	165.000
822.67	190.909
822.97	117.647
823.27	217.857
823.57	170.270
823.88	180.000
824.18	206.667
824.48	166.667
824.78	248.000
825.08	229.167
825.38	183.784
825.69	156.098
825.99	208.333
826.29	186.207
826.59	157.895
826.89	168.421
827.19	194.118
827.49	203.226
827.79	161.364
828.09	147.727
828.39	108.511
828.70	148.980
829.00	185.185
829.30	187.097
829.60	162.500
829.90	393.333
830.20	235.714
830.50	204.348
830.80	217.391
831.10	236.667
831.40	210.000
831.70	213.043
832.00	261.538
832.30	240.741
832.60	325.000
832.90	200.000
833.20	428.571
833.50	225.806
833.80	193.103
834.10	240.625
834.40	219.231
834.70	305.556
835.00	342.857
835.30	197.143
835.60	338.462
835.90	224.138
836.20	392.857
836.50	203.448
836.80	188.000
837.10	194.444
837.40	247.619
837.70	311.765
838.00	225.926
838.30	285.714
838.60	285.714
838.90	226.923
839.19	270.000
839.49	435.714
839.79	340.000
840.09	280.000
840.39	252.381
840.69	252.174
840.99	288.889
841.29	620.000
841.59	416.667
841.88	387.500
842.18	189.655
842.48	290.476
842.78	233.333
843.08	217.391
843.38	178.125
843.68	800.000
843.97	188.462
844.27	193.103
844.57	314.286
844.87	343.750
845.17	225.926
845.47	1633.333
845.76	488.889
846.06	317.647
846.36	600.000
846.66	442.857
846.96	256.250
847.25	336.364
847.55	445.455
847.85	247.826
848.15	580.000
848.44	407.143
848.74	311.111
849.04	329.412
849.34	610.000
849.63	242.105
849.93	481.818
850.23	1000.000
850.53	364.286
850.82	2550.000
851.12	-4600.000
851.42	4900.000
851.71	240.000
852.01	-1133.333
852.31	229.167
852.61	1966.667
852.90	242.857
853.20	220.000
853.50	358.824
853.79	280.952
854.09	237.500
854.39	400.000
854.68	172.973
854.98	190.323
855.28	133.333
855.57	244.828
855.87	225.926
856.17	278.947
856.46	273.333
856.76	288.235
857.05	217.241
857.35	254.167
857.65	326.667
857.94	239.130
858.24	230.769
858.53	275.000
858.83	236.364
859.13	366.667
859.42	0.000
859.72	511.111
860.01	472.727
860.31	209.091
860.60	321.053
860.90	217.391
861.20	622.222
861.49	483.333
861.79	-3900.000
862.08	687.500
862.38	309.524
862.67	400.000
862.97	323.529
863.26	522.222
863.56	261.111
863.85	358.333
864.15	650.000
864.44	480.000
864.74	950.000
865.03	562.500
865.33	305.263
865.62	536.364
865.92	469.231
866.21	400.000
866.51	0.000
866.80	436.364
867.10	1080.000
867.39	500.000
867.69	481.818
867.98	315.789
868.27	481.818
868.57	310.526
868.86	-4000.000
869.16	312.500
869.45	2500.000
869.75	-3900.000
870.04	400.000
870.33	657.143
870.63	1100.000
870.92	2600.000
871.22	900.000
871.51	364.706
871.80	252.381
872.10	428.571
>>>>>End Processed Spectral Data<<<<<
